##NAMES=Parkerite
##RRUFFID=R070056
##IDEAL CHEMISTRY=Ni_3_(Bi,Pb)_2_S_2_
##LOCALITY=Otjabrsky deposit, Norilsk ore district, Russia
##OWNER=RRUFF
##SOURCE=Michael Scott
##DESCRIPTION=Bronze metallic polished fragment
##STATUS=The identification of this mineral is not yet confirmed
##URL=https://www.rruff.net/odr/rruff_sample/R070056
##FILETYPE=Raman Processed
##RAMAN WAVELENGTH=785

163.8887, 1573.829
165.8171, 1531.902
167.7456, 1466.034
169.6741, 1357.601
171.6025, 1248.505
173.5310, 1155.603
175.4595, 1072.834
177.3879, 994.3411
179.3164, 921.5605
181.2449, 859.1762
183.1733, 809.2680
185.1018, 767.0625
187.0303, 735.4184
188.9587, 706.3738
190.8872, 676.8021
192.8157, 647.0031
194.7441, 615.5956
196.6726, 581.5069
198.6011, 559.0119
200.5295, 559.7850
202.4580, 554.6842
204.3865, 535.5936
206.3149, 514.4027
208.2434, 502.0541
210.1719, 492.2598
212.1003, 468.5055
214.0288, 425.6726
215.9573, 401.2361
217.8857, 404.4984
219.8142, 403.0280
221.7427, 382.1252
223.6711, 360.2519
225.5996, 350.5443
227.5281, 347.6847
229.4565, 339.9086
231.3850, 326.8558
233.3135, 321.5915
235.2419, 326.7537
237.1704, 328.5748
239.0989, 319.3476
241.0273, 310.7143
242.9558, 308.1521
244.8843, 309.6495
246.8127, 313.4651
248.7412, 319.4327
250.6697, 323.1115
252.5981, 322.3040
254.5266, 323.9315
256.4551, 333.8913
258.3835, 344.7680
260.3120, 353.8874
262.2405, 360.7926
264.1689, 362.0446
266.0974, 359.7639
268.0259, 362.3363
269.9543, 371.9594
271.8828, 379.8607
273.8113, 382.8470
275.7397, 387.3517
277.6682, 394.4582
279.5967, 403.6268
281.5251, 417.3149
283.4536, 433.1986
285.3821, 445.6301
287.3105, 453.9805
289.2390, 458.6100
291.1675, 460.4712
293.0959, 458.0673
295.0244, 447.9050
296.9529, 436.6867
298.8813, 426.4484
300.8098, 414.8545
302.7383, 401.5423
304.6667, 387.8357
306.5952, 379.8408
308.5237, 380.5391
310.4521, 378.7173
312.3806, 370.3373
314.3091, 362.8444
316.2375, 365.1759
318.1660, 365.9195
320.0945, 351.7886
322.0229, 326.2988
323.9514, 300.7241
325.8799, 278.2243
327.8083, 268.5201
329.7368, 272.8598
331.6653, 272.4185
333.5937, 262.0338
335.5222, 250.3014
337.4507, 238.2451
339.3791, 229.7529
341.3076, 228.2747
343.2361, 230.0843
345.1645, 229.1698
347.0930, 226.2876
349.0215, 222.3219
350.9499, 216.3268
352.8784, 211.7269
354.8069, 211.4935
356.7353, 210.7948
358.6638, 208.0290
360.5923, 202.9648
362.5207, 192.9590
364.4492, 180.9987
366.3777, 173.7523
368.3061, 172.2770
370.2346, 171.7710
372.1631, 169.0652
374.0915, 166.5070
376.0200, 168.3984
377.9485, 168.5979
379.8769, 163.5626
381.8054, 159.4098
383.7339, 159.6473
385.6623, 161.3628
387.5908, 161.9807
389.5193, 162.2643
391.4477, 159.3182
393.3762, 151.0572
395.3047, 147.1378
397.2331, 149.5659
399.1616, 150.6732
401.0901, 147.6448
403.0185, 142.5735
404.9470, 137.1763
406.8755, 134.1905
408.8039, 134.6812
410.7324, 135.0003
412.6609, 134.3075
414.5893, 134.3503
416.5178, 133.5352
418.4463, 131.8777
420.3747, 131.8704
422.3032, 135.8721
424.2317, 139.7087
426.1601, 141.0734
428.0886, 139.1788
430.0171, 132.7607
431.9455, 126.5500
433.8740, 126.8804
435.8025, 131.3588
437.7309, 132.8516
439.6594, 130.1639
441.5879, 129.1923
443.5163, 131.3719
445.4448, 131.2487
447.3733, 128.4617
449.3017, 126.1627
451.2302, 124.7758
453.1587, 122.5415
455.0871, 117.8142
457.0156, 114.5046
458.9441, 115.9388
460.8725, 121.2443
462.8010, 127.9173
464.7295, 134.3289
466.6579, 133.1749
468.5864, 126.7211
470.5149, 122.9202
472.4433, 120.5810
474.3718, 118.6214
476.3003, 117.0657
478.2287, 115.8134
480.1572, 117.0984
482.0857, 120.4199
484.0141, 119.3942
485.9426, 112.4959
487.8711, 110.8735
489.7995, 117.4759
491.7280, 119.3919
493.6565, 117.4070
495.5849, 117.3043
497.5134, 117.3654
499.4419, 116.7908
501.3703, 119.6831
503.2988, 120.4425
505.2273, 111.5229
507.1557, 103.3506
509.0842, 108.5553
511.0127, 118.2243
512.9412, 115.3678
514.8696, 105.5371
516.7981, 104.9016
518.7266, 111.3063
520.6550, 114.9379
522.5835, 117.1067
524.5120, 117.6900
526.4404, 111.8637
528.3689, 108.4872
530.2974, 112.6098
532.2258, 115.5510
534.1543, 111.1829
536.0828, 107.0626
538.0112, 110.5501
539.9397, 115.1045
541.8682, 114.2986
543.7966, 110.0914
545.7251, 108.2251
547.6536, 110.2326
549.5820, 112.9113
551.5105, 115.7707
553.4390, 114.7104
555.3674, 108.4829
557.2959, 106.3624
559.2244, 111.5737
561.1528, 115.7476
563.0813, 114.3264
565.0098, 113.0455
566.9382, 118.7844
568.8667, 123.6427
570.7952, 118.4032
572.7236, 109.0320
574.6521, 104.9237
576.5805, 106.5637
578.5090, 109.9546
580.4374, 112.6775
582.3659, 112.2011
584.2944, 109.1455
586.2228, 108.0896
588.1513, 109.6824
590.0798, 111.5313
592.0082, 113.0630
593.9367, 114.7548
595.8652, 117.6473
597.7936, 120.1163
599.7221, 121.7711
601.6506, 121.2231
603.5790, 115.4503
605.5075, 110.1364
607.4360, 113.0270
609.3644, 119.0018
611.2929, 119.5196
613.2214, 115.8216
615.1498, 111.6561
617.0783, 107.6200
619.0068, 110.3510
620.9352, 123.5151
622.8637, 128.3303
624.7922, 116.5192
626.7206, 109.3062
628.6491, 109.3249
630.5776, 111.0552
632.5060, 115.0582
634.4345, 117.8253
636.3630, 117.4347
638.2914, 116.0494
640.2199, 113.5117
642.1484, 112.2420
644.0768, 116.3888
646.0053, 121.6075
647.9338, 119.7515
649.8622, 113.8396
651.7907, 115.3400
653.7192, 123.5538
655.6476, 122.1636
657.5761, 108.9845
659.5046, 107.1526
661.4330, 118.9296
663.3615, 123.4209
665.2900, 116.3119
667.2184, 112.3312
669.1469, 116.5922
671.0754, 119.2716
673.0038, 114.2460
674.9323, 111.4036
676.8608, 117.7948
678.7892, 123.3905
680.7177, 120.9603
682.6462, 118.6920
684.5746, 125.7293
686.5031, 133.8916
688.4316, 131.6757
690.3600, 123.5967
692.2885, 116.2474
694.2170, 111.1560
696.1454, 113.2091
698.0739, 119.4499
700.0024, 120.9691
701.9308, 118.2659
703.8593, 117.3263
705.7878, 119.2004
707.7162, 121.5085
709.6447, 123.8415
711.5732, 123.2186
713.5016, 116.8988
715.4301, 115.3783
717.3586, 121.9343
719.2870, 128.1069
721.2155, 133.0942
723.1440, 134.1321
725.0724, 127.1895
727.0009, 122.0551
728.9294, 126.5319
730.8578, 132.4245
732.7863, 132.1483
734.7148, 128.0777
736.6432, 121.9864
738.5717, 115.5776
740.5002, 118.1690
742.4286, 127.1921
744.3571, 125.3457
746.2856, 115.2060
748.2141, 112.3365
750.1425, 115.7427
752.0710, 118.4684
753.9995, 120.8426
755.9279, 123.2255
757.8564, 123.6659
759.7849, 121.1008
761.7133, 117.2222
763.6418, 116.2229
765.5703, 118.9175
767.4987, 120.2979
769.4272, 116.9625
771.3557, 113.3551
773.2841, 112.9900
775.2126, 115.2587
777.1411, 119.9776
779.0695, 122.9752
780.9980, 120.6200
782.9265, 118.9012
784.8549, 120.7895
786.7834, 121.2933
788.7119, 117.8001
790.6403, 112.8731
792.5688, 112.7095
794.4973, 117.8505
796.4257, 123.8051
798.3542, 127.0731
800.2827, 125.0826
802.2111, 121.6207
804.1396, 120.6892
806.0681, 122.6843
807.9965, 126.2785
809.9250, 123.7110
811.8535, 116.5207
813.7819, 114.5652
815.7104, 119.0483
817.6389, 124.1901
819.5673, 125.4676
821.4958, 126.3538
823.4243, 127.5993
825.3527, 126.0898
827.2812, 123.6127
829.2097, 121.7265
831.1381, 121.6559
833.0666, 123.7647
834.9951, 122.6982
836.9235, 119.3518
838.8520, 122.9912
840.7805, 129.4659
842.7089, 126.0792
844.6374, 117.1030
846.5659, 113.2172
848.4943, 113.1971
850.4228, 115.2949
852.3513, 118.0132
854.2797, 117.7992
856.2082, 117.6266
858.1367, 122.0505
860.0651, 129.0228
861.9936, 131.7114
863.9221, 128.0144
865.8505, 123.3477
867.7790, 121.2802
869.7075, 123.7599
871.6359, 130.1060
873.5644, 134.1642
875.4929, 133.8893
877.4213, 130.0759
879.3498, 123.6098
881.2783, 120.5954
883.2067, 124.9430
885.1352, 130.9687
887.0637, 135.3634
888.9921, 140.8859
890.9206, 142.1495
892.8491, 134.2343
894.7775, 128.4876
896.7060, 131.7886
898.6345, 133.3688
900.5629, 129.6095
902.4914, 127.6583
904.4199, 129.9180
906.3483, 132.1585
908.2768, 130.4245
910.2053, 128.6775
912.1337, 130.1395
914.0622, 130.6058
915.9907, 128.5978
917.9191, 127.2289
919.8476, 127.5255
921.7761, 128.0402
923.7045, 127.3536
925.6330, 128.2309
927.5615, 131.2820
929.4899, 132.1613
931.4184, 133.4371
933.3469, 135.5153
935.2753, 133.5312
937.2038, 130.1714
939.1323, 127.7302
941.0607, 125.7544
942.9892, 127.4821
944.9177, 131.2363
946.8461, 130.7322
948.7746, 126.2697
950.7031, 123.4900
952.6315, 125.3480
954.5600, 129.9946
956.4885, 133.9006
958.4169, 136.2489
960.3454, 136.2417
962.2739, 132.6430
964.2023, 130.2875
966.1308, 133.0490
968.0593, 135.3921
969.9877, 132.8339
971.9162, 130.9820
973.8447, 134.2934
975.7731, 135.8135
977.7016, 131.9630
979.6301, 128.2773
981.5585, 126.2829
983.4870, 127.4648
985.4155, 131.3284
987.3439, 133.1732
989.2724, 135.2711
991.2009, 138.4301
993.1293, 135.9021
995.0578, 128.8568
996.9863, 126.3746
998.9147, 130.8881
1000.843, 136.7308
1002.772, 136.6400
1004.700, 131.7900
1006.629, 130.0220
1008.557, 133.0662
1010.486, 135.0062
1012.414, 132.7579
1014.342, 133.4348
1016.271, 137.8477
1018.199, 138.0717
1020.128, 137.5819
1022.056, 138.4111
1023.985, 133.7711
1025.913, 132.9613
1027.842, 143.5045
1029.770, 149.1679
1031.699, 145.2220
1033.627, 139.1794
1035.556, 131.6340
1037.484, 129.6156
1039.413, 134.3579
1041.341, 138.2472
1043.270, 139.8807
1045.198, 142.4357
1047.126, 147.2507
1049.055, 144.7760
1050.983, 135.3410
1052.912, 135.6365
1054.840, 143.4380
1056.769, 142.9969
1058.697, 136.9225
1060.626, 141.3875
1062.554, 151.1446
1064.483, 147.4090
1066.411, 139.7275
1068.340, 141.4635
1070.268, 142.5260
1072.196, 136.1800
1074.125, 131.9939
1076.053, 139.4235
1077.982, 146.7321
1079.910, 137.2656
1081.839, 125.2222
1083.767, 130.7042
1085.696, 141.7783
1087.624, 144.0583
1089.553, 141.0510
1091.481, 139.0737
1093.410, 140.0398
1095.338, 139.1931
1097.266, 137.3335
1099.195, 140.2258
1101.123, 142.4507
1103.052, 138.7781
1104.980, 136.6548
1106.909, 139.9331
1108.837, 140.9362
1110.766, 134.8944
1112.694, 135.4630
1114.623, 149.9773
1116.551, 155.7084
1118.480, 147.1636
1120.408, 141.1339
1122.337, 138.5550
1124.265, 140.2606
1126.193, 147.1262
1128.122, 151.5493
1130.050, 153.2779
1131.979, 149.1179
1133.907, 139.8162
1135.836, 139.8567
1137.764, 147.2147
1139.693, 148.9399
1141.621, 146.2383
1143.550, 140.9366
1145.478, 135.5072
1147.407, 138.3241
1149.335, 144.5542
1151.264, 144.4778
1153.192, 143.1662
1155.120, 148.0441
1157.049, 153.3989
1158.977, 154.9788
1160.906, 154.6593
1162.834, 152.5806
1164.763, 150.8347
1166.691, 150.7430
1168.620, 150.9397
1170.548, 151.5770
1172.477, 149.8437
1174.405, 143.1654
1176.334, 140.5484
1178.262, 144.6647
1180.191, 147.7970
1182.119, 149.0965
1184.047, 152.1920
1185.976, 157.2384
1187.904, 156.7716
1189.833, 151.7928
1191.761, 152.6344
1193.690, 156.7269
1195.618, 151.3661
1197.547, 141.8503
1199.475, 142.8436
1201.404, 147.9029
1203.332, 146.0666
1205.261, 143.4914
1207.189, 147.9386
1209.118, 152.7806
1211.046, 152.4366
1212.974, 150.9264
1214.903, 150.7437
1216.831, 150.3379
1218.760, 147.1474
1220.688, 147.8707
1222.617, 157.0882
1224.545, 159.2098
1226.474, 150.6877
1228.402, 145.6880
1230.331, 145.7880
1232.259, 152.0752
1234.188, 161.8195
1236.116, 163.5258
1238.045, 159.4625
1239.973, 156.3696
1241.901, 155.2388
1243.830, 156.6252
1245.758, 159.4382
1247.687, 163.4108
1249.615, 165.7758
1251.544, 164.3087
1253.472, 162.2204
1255.401, 161.0182
1257.329, 160.6339
1259.258, 160.7060
1261.186, 160.5500
1263.115, 160.1849
1265.043, 156.5231
1266.972, 149.0480
1268.900, 153.5884
1270.828, 168.5926
1272.757, 172.2445
1274.685, 167.7617
1276.614, 164.6762
1278.542, 162.4025
1280.471, 161.7234
1282.399, 164.4071
1284.328, 172.0811
1286.256, 177.6659
1288.185, 177.9569
1290.113, 177.4581
1292.042, 176.1093
1293.970, 172.4313
1295.899, 167.3181
1297.827, 160.9904
1299.755, 149.2924
1301.684, 149.1854
1303.612, 162.4808
1305.541, 170.5779
1307.469, 173.2599
1309.398, 176.1682
1311.326, 178.7792
1313.255, 173.7785
1315.183, 168.1434
1317.112, 174.2685
1319.040, 182.4178
1320.969, 189.7194
1322.897, 187.6003
1324.826, 165.8940
1326.754, 154.6943
1328.682, 164.4266
1330.611, 169.0058
1332.539, 165.5090
1334.468, 170.3202
1336.396, 180.7638
1338.325, 179.0814
1340.253, 169.6819
1342.182, 164.4721
1344.110, 163.3322
1346.039, 162.4396
1347.967, 163.6546
1349.896, 174.1422
1351.824, 182.1508
1353.753, 182.5190
1355.681, 178.9109
1357.609, 172.0510
1359.538, 170.3346
1361.466, 173.7336
1363.395, 173.0726
1365.323, 169.5535
1367.252, 171.3021
1369.180, 174.0625
1371.109, 167.1006
1373.037, 160.7658
1374.966, 170.8420
1376.894, 178.1635
1378.823, 164.9419
1380.751, 159.5499
1382.680, 172.6652
1384.608, 177.1928
1386.536, 169.5623
1388.465, 163.0736
1390.393, 159.0344
1392.322, 159.8123
1394.250, 163.2552
1396.179, 164.9749
1398.107, 165.6580
1400.036, 165.8469
1401.964, 165.9017
1403.893, 168.1454
1405.821, 166.1039
1407.750, 152.7756
1409.678, 149.4024
1411.607, 158.4501
1413.535, 161.8310
1415.464, 160.3454
1417.392, 161.8336
1419.320, 163.9465
1421.249, 160.0339
1423.177, 157.6134
1425.106, 165.3949
1427.034, 173.1005
1428.963, 177.9637
1430.891, 177.6147
1432.820, 166.9777
1434.748, 164.6171
1436.677, 170.6840
1438.605, 168.6099
1440.534, 162.6404
1442.462, 168.7031
1444.391, 175.3310
1446.319, 165.6340
1448.247, 159.7120
1450.176, 174.0483
1452.104, 177.9936
1454.033, 158.5644
1455.961, 147.6963
1457.890, 148.4037
1459.818, 152.2645
1461.747, 158.4069
1463.675, 165.7406
1465.604, 170.9561
1467.532, 166.7527
1469.461, 163.5325
1471.389, 168.2758
1473.318, 169.7141
1475.246, 164.0837
1477.174, 159.9557
1479.103, 158.5210
1481.031, 167.5462
1482.960, 179.7535
1484.888, 170.7642
1486.817, 154.9981
1488.745, 142.3461
1490.674, 142.5499
1492.602, 166.7431
1494.531, 180.2413
1496.459, 175.4772
1498.388, 172.8205
1500.316, 173.6339
1502.245, 174.2478
1504.173, 173.6900
1506.101, 168.0558
1508.030, 163.3390
1509.958, 165.4304
1511.887, 169.2882
1513.815, 175.7563
1515.744, 172.3661
1517.672, 158.3598
1519.601, 156.8171
1521.529, 162.5491
1523.458, 151.1355
1525.386, 140.0921
1527.315, 157.5374
1529.243, 171.4323
1531.172, 155.6794
1533.100, 154.3497
1535.028, 176.8819
1536.957, 177.7079
1538.885, 160.7930
1540.814, 154.0913
1542.742, 155.7352
1544.671, 168.4841
1546.599, 177.1489
1548.528, 166.3882
1550.456, 160.8325
1552.385, 170.3483
1554.313, 167.9699
1556.242, 155.1996
1558.170, 155.3940
1560.099, 160.9831
1562.027, 158.2194
1563.955, 155.8373
1565.884, 160.9919
1567.812, 164.6719
1569.741, 165.9352
1571.669, 157.0748
1573.598, 140.1853
1575.526, 145.1784
1577.455, 159.2766
1579.383, 161.0025
1581.312, 160.2921
1583.240, 164.0954
1585.169, 161.1106
1587.097, 145.9773
1589.026, 140.4710
1590.954, 144.2578
1592.882, 153.9039
1594.811, 163.5975
1596.739, 164.6187
1598.668, 161.7700
1600.596, 155.1097
1602.525, 154.6517
1604.453, 162.8843
1606.382, 160.3089
1608.310, 151.6519
1610.239, 157.3604
1612.167, 165.9765
1614.096, 164.5862
1616.024, 162.4191
1617.953, 162.1200
1619.881, 163.1568
1621.809, 164.8996
1623.738, 159.4051
1625.666, 151.5517
1627.595, 152.2011
1629.523, 153.7714
1631.452, 149.9484
1633.380, 148.1834
1635.309, 150.0145
1637.237, 144.1382
1639.166, 134.9551
1641.094, 145.4340
1643.023, 159.4892
1644.951, 157.8170
1646.880, 154.5423
1648.808, 155.2939
1650.736, 151.8801
1652.665, 145.1412
1654.593, 152.0384
1656.522, 164.2009
1658.450, 169.2393
1660.379, 168.9863
1662.307, 161.3939
1664.236, 155.8720
1666.164, 153.6461
1668.093, 152.7385
1670.021, 150.9255
1671.950, 136.8574
1673.878, 128.2014
1675.807, 145.6032
1677.735, 158.9132
1679.663, 160.4217
1681.592, 155.8286
1683.520, 147.7210
1685.449, 151.6788
1687.377, 155.4033
1689.306, 143.2323
1691.234, 136.7199
1693.163, 146.2553
1695.091, 153.0787
1697.020, 156.2060
1698.948, 149.6188
1700.877, 142.5270
1702.805, 146.8851
1704.734, 150.2237
1706.662, 147.4153
1708.590, 145.9450
1710.519, 145.8004
1712.447, 138.9438
1714.376, 133.0068
1716.304, 139.0111
1718.233, 148.7934
1720.161, 161.7015
1722.090, 162.8096
1724.018, 152.6640
1725.947, 146.8444
1727.875, 144.0502
1729.804, 144.9341
1731.732, 142.8054
1733.661, 134.3475
1735.589, 134.6288
1737.517, 142.8506
1739.446, 144.4339
1741.374, 142.1356
1743.303, 136.5488
1745.231, 134.4962
1747.160, 138.5819
1749.088, 136.8924
1751.017, 130.0512
1752.945, 122.9029
1754.874, 120.3351
1756.802, 132.8533
1758.731, 138.8273
1760.659, 133.0270
1762.588, 138.6480
1764.516, 149.1097
1766.444, 137.4465
1768.373, 125.7959
1770.301, 135.5848
1772.230, 141.9051
1774.158, 141.3556
1776.087, 135.2363
1778.015, 129.4102
1779.944, 138.3960
1781.872, 144.8387
1783.801, 135.2442
1785.729, 129.2013
1787.658, 127.6456
1789.586, 122.4027
1791.515, 122.2772
1793.443, 147.5918
1795.371, 162.2087
1797.300, 144.3958
1799.228, 136.4298
1801.157, 135.9489
1803.085, 130.2346
1805.014, 127.3402
1806.942, 135.9079
1808.871, 142.4961
1810.799, 145.1077
1812.728, 130.0690
1814.656, 112.2474
1816.585, 124.9349
1818.513, 135.2563
1820.442, 127.2336
1822.370, 124.6792
1824.298, 128.0041
1826.227, 129.9702
1828.155, 129.2432
1830.084, 123.3901
1832.012, 119.7850
1833.941, 120.1998
1835.869, 127.6152
1837.798, 136.5746
1839.726, 136.6432
1841.655, 132.8817
1843.583, 126.3105
1845.512, 122.1070
1847.440, 120.9615
1849.369, 127.0977
1851.297, 130.6655
1853.225, 119.0164
1855.154, 113.0513
1857.082, 116.4818
1859.011, 128.2349
1860.939, 138.1604
1862.868, 123.1955
1864.796, 118.3458
1866.725, 136.1054
1868.653, 134.1064
1870.582, 119.8009
1872.510, 122.6845
1874.439, 124.7539
1876.367, 112.3789
1878.296, 108.0094
1880.224, 112.1316
1882.152, 114.9306
1884.081, 115.6114
1886.009, 115.2807
1887.938, 117.5628
1889.866, 121.7154
1891.795, 119.5868
1893.723, 114.1822
1895.652, 108.6762
1897.580, 107.0364
1899.509, 110.1776
1901.437, 113.3127
1903.366, 116.2800
1905.294, 119.0982
1907.223, 118.3845
1909.151, 110.4659
1911.079, 102.1319
1913.008, 96.35841
1914.936, 115.5748
1916.865, 127.3392
1918.793, 103.5941
1920.722, 91.51365
1922.650, 93.42660
1924.579, 96.16452
1926.507, 101.2936
1928.436, 110.7090
1930.364, 112.4953
1932.293, 105.4348
1934.221, 100.7946
1936.150, 98.83842
1938.078, 102.0197
1940.006, 107.3035
1941.935, 112.1148
1943.863, 100.7147
1945.792, 91.61371
1947.720, 113.8961
1949.649, 125.1356
1951.577, 117.7478
1953.506, 110.1696
1955.434, 105.3188
1957.363, 113.7358
1959.291, 112.5748
1961.220, 97.97476
1963.148, 99.37657
1965.077, 107.0517
1967.005, 106.2389
1968.933, 103.9289
1970.862, 102.9312
1972.790, 101.5827
1974.719, 100.2712
1976.647, 109.5276
1978.576, 109.5236
1980.504, 92.76724
1982.433, 90.51291
1984.361, 96.64045
1986.290, 91.67464
1988.218, 95.17825
1990.147, 114.7438
1992.075, 111.6765
1994.004, 98.38197
1995.932, 96.30330
1997.860, 92.40671
1999.789, 82.46060
2001.717, 89.46233
2003.646, 104.4211
2005.574, 117.0797
2007.503, 114.4532
2009.431, 89.74558
2011.360, 92.77289
2013.288, 105.1716
2015.217, 98.88371
2017.145, 92.42381
2019.074, 91.27167
2021.002, 89.04662
2022.931, 88.27531
2024.859, 91.72157
2026.787, 96.44653
2028.716, 101.1167
2030.644, 101.5504
2032.573, 99.05911
2034.501, 91.87587
2036.430, 92.73975
2038.358, 101.4652
2040.287, 96.50240
2042.215, 88.43266
2044.144, 83.56631
2046.072, 83.90027
2048.001, 87.58165
2049.929, 84.12331
2051.858, 82.84870
2053.786, 88.66341
2055.714, 97.16732
2057.643, 103.7999
2059.571, 93.16708
2061.500, 85.86160
2063.428, 89.75834
2065.357, 89.06133
2067.285, 85.47895
2069.214, 79.94939
2071.142, 81.75779
2073.071, 92.96211
2074.999, 96.28267
2076.927, 94.20475
2078.856, 90.44414
2080.784, 79.91325
2082.713, 66.10365
2084.641, 69.58694
2086.570, 76.97977
2088.498, 78.91109
2090.427, 75.58818
2092.355, 72.45240
2094.284, 81.86121
2096.212, 87.25068
2098.141, 80.88374
2100.069, 83.32697
2101.998, 87.47070
2103.926, 82.21783
2105.854, 75.49195
2107.783, 67.70217
2109.711, 68.47971
2111.640, 73.45637
2113.568, 77.02555
2115.497, 78.80953
2117.425, 78.93763
2119.354, 81.61217
2121.282, 81.82728
2123.211, 79.03683
2125.139, 74.39967
2127.068, 72.04166
2128.996, 78.39780
2130.925, 74.40253
2132.853, 61.40705
2134.781, 74.41161
2136.710, 86.08146
2138.638, 72.43057
2140.567, 73.57645
2142.495, 86.45346
2144.424, 84.37222
2146.352, 78.82410
2148.281, 72.52421
2150.209, 70.46567
2152.138, 68.21712
2154.066, 67.53998
2155.995, 71.90609
2157.923, 75.62224
2159.852, 76.44467
2161.780, 75.02913
2163.708, 78.53783
2165.637, 75.33913
2167.565, 66.80191
2169.494, 78.08911
2171.422, 82.74816
2173.351, 73.70453
2175.279, 66.76934
2177.208, 61.93636
2179.136, 60.51388
2181.065, 64.59781
2182.993, 67.11820
2184.922, 64.35178
2186.850, 63.85469
2188.779, 63.54492
2190.707, 54.87339
2192.635, 49.64210
2194.564, 53.43809
2196.492, 70.59741
2198.421, 85.55322
2200.349, 74.46346
2202.278, 65.30322
2204.206, 64.27667
2206.135, 61.44727
2208.063, 59.91353
2209.992, 71.88443
2211.920, 69.16740
2213.849, 55.15136
2215.777, 54.85083
2217.706, 61.17904
2219.634, 59.74081
2221.563, 51.45066
2223.491, 52.78151
2225.419, 65.89297
2227.348, 59.58102
2229.276, 51.34748
2231.205, 59.74922
2233.133, 61.04710
2235.062, 56.60397
2236.990, 56.85350
2238.919, 59.95252
2240.847, 68.84821
2242.776, 67.29782
2244.704, 60.64313
2246.633, 52.13412
2248.561, 56.41725
2250.490, 63.82227
2252.418, 61.54399
2254.346, 61.12748
2256.275, 58.48836
2258.203, 50.33311
2260.132, 46.82702
2262.060, 52.01955
2263.989, 56.85473
2265.917, 55.47975
2267.846, 47.93475
2269.774, 48.76902
2271.703, 49.50626
2273.631, 47.59426
2275.560, 51.40712
2277.488, 61.48806
2279.417, 62.47745
2281.345, 57.94648
2283.273, 60.74343
2285.202, 60.60639
2287.130, 56.99201
2289.059, 56.12761
2290.987, 54.72042
2292.916, 52.55268
2294.844, 45.63576
2296.773, 43.85012
2298.701, 54.68815
2300.630, 49.86521
2302.558, 44.30940
2304.487, 49.35623
2306.415, 50.66224
2308.344, 49.24606
2310.272, 42.26392
2312.200, 42.52671
2314.129, 48.11347
2316.057, 45.68789
2317.986, 45.75938
2319.914, 46.88748
2321.843, 59.34841
2323.771, 58.92201
2325.700, 41.12135
2327.628, 48.65644
2329.557, 57.82765
2331.485, 47.17798
2333.414, 45.54097
2335.342, 49.15508
2337.271, 56.60745
2339.199, 54.26598
2341.127, 41.16446
2343.056, 40.44109
2344.984, 42.54691
2346.913, 45.76299
2348.841, 49.63507
2350.770, 49.73520
2352.698, 45.82809
2354.627, 42.55460
2356.555, 43.12454
2358.484, 46.22849
2360.412, 44.12125
2362.341, 42.52903
2364.269, 47.77797
2366.198, 42.17377
2368.126, 29.94965
2370.054, 34.59493
2371.983, 43.81457
2373.911, 52.75527
2375.840, 51.54428
2377.768, 50.93725
2379.697, 51.95442
2381.625, 49.49953
2383.554, 46.78387
2385.482, 39.45236
2387.411, 37.80245
2389.339, 39.77724
2391.268, 42.05386
2393.196, 46.36653
2395.125, 49.69595
2397.053, 45.16529
2398.981, 42.30978
2400.910, 42.14712
2402.838, 42.00021
2404.767, 41.23600
2406.695, 40.22894
2408.624, 41.79757
2410.552, 41.50664
2412.481, 38.00364
2414.409, 39.23304
2416.338, 37.46431
2418.266, 29.19867
2420.195, 31.13923
2422.123, 38.70953
2424.052, 49.58297
2425.980, 45.34120
2427.908, 35.24226
2429.837, 29.50777
2431.765, 30.98645
2433.694, 34.69690
2435.622, 31.36997
2437.551, 29.12410
2439.479, 29.63506
2441.408, 39.23383
2443.336, 46.91785
2445.265, 49.60242
2447.193, 34.63866
2449.122, 27.18394
2451.050, 32.55167
2452.979, 37.21395
2454.907, 37.96667
2456.835, 37.14486
2458.764, 28.91452
2460.692, 25.69847
2462.621, 29.37687
2464.549, 36.55531
2466.478, 41.82440
2468.406, 39.76638
2470.335, 28.89482
2472.263, 23.73488
2474.192, 32.42131
2476.120, 36.81469
2478.049, 33.31343
2479.977, 16.27278
2481.906, 19.89712
2483.834, 32.84136
2485.762, 44.10786
2487.691, 39.58186
2489.619, 28.49149
2491.548, 18.73472
2493.476, 20.37748
2495.405, 23.28773
2497.333, 24.52724
2499.262, 36.87102
2501.190, 40.93584
2503.119, 29.92662
2505.047, 24.24252
2506.976, 24.17579
2508.904, 28.84076
2510.833, 29.47193
2512.761, 26.98647
2514.689, 25.45489
2516.618, 27.46873
2518.546, 28.39851
2520.475, 22.34146
2522.403, 24.09020
2524.332, 30.40197
2526.260, 36.91152
2528.189, 37.11563
2530.117, 33.69617
2532.046, 23.50582
2533.974, 14.63095
2535.903, 19.31207
2537.831, 24.64066
2539.760, 21.95437
2541.688, 24.11001
2543.616, 28.00475
2545.545, 28.57212
2547.473, 32.08240
2549.402, 31.28656
2551.330, 20.65534
2553.259, 19.19114
2555.187, 21.44196
2557.116, 23.76623
2559.044, 33.17088
2560.973, 31.34763
2562.901, 25.37940
2564.830, 25.44384
2566.758, 24.29830
2568.687, 23.07334
2570.615, 19.14961
2572.543, 16.99992
2574.472, 27.75416
2576.400, 37.45879
2578.329, 32.97147
2580.257, 24.99224
2582.186, 20.85565
2584.114, 13.09963
2586.043, 17.27046
2587.971, 24.58153
2589.900, 30.60694
2591.828, 18.47160
2593.757, 17.35498
2595.685, 29.83430
2597.614, 26.89433
2599.542, 28.59844
2601.470, 35.16366
2603.399, 25.88324
2605.327, 18.45193
2607.256, 25.49634
2609.184, 25.27310
2611.113, 16.35407
2613.041, 19.64961
2614.970, 29.96038
2616.898, 33.22797
2618.827, 30.09859
2620.755, 25.23654
2622.684, 23.08308
2624.612, 28.01213
2626.541, 30.77672
2628.469, 18.87366
2630.397, 18.27905
2632.326, 16.41350
2634.254, 13.62457
2636.183, 14.02403
2638.111, 10.42152
2640.040, 14.79916
2641.968, 19.12036
2643.897, 15.68967
2645.825, 18.31797
2647.754, 22.65267
2649.682, 21.97074
2651.611, 21.05075
2653.539, 18.38764
2655.468, 17.78730
2657.396, 22.07834
2659.324, 9.711550
2661.253, 11.55195
2663.181, 31.99788
2665.110, 24.00328
2667.038, 16.94350
2668.967, 21.53875
2670.895, 19.35034
2672.824, 17.15272
2674.752, 17.77508
2676.681, 17.07095
2678.609, 11.53860
2680.538, 8.414372
2682.466, 6.270617
2684.395, 5.220673
2686.323, 9.368076
2688.251, 18.25872
2690.180, 19.49100
2692.108, 16.71605
2694.037, 22.05004
2695.965, 28.55918
2697.894, 28.03381
2699.822, 25.57616
2701.751, 24.52308
2703.679, 18.33939
2705.608, 16.08028
2707.536, 12.97059
2709.465, 18.28632
2711.393, 22.80369
2713.322, 0.8168830
2715.250, 6.696353
2717.178, 17.09059
2719.107, 7.435929
2721.035, 13.95489
2722.964, 18.61380
2724.892, 23.73820
2726.821, 15.15716
2728.749, 11.97804
2730.678, 16.30223
2732.606, 17.64143
2734.535, 18.94776
2736.463, 12.12113
2738.392, 2.561059
2740.320, 6.187884
2742.249, 12.44377
2744.177, 21.36388
2746.105, 23.30238
2748.034, 20.12131
2749.962, 18.63584
2751.891, 23.75909
2753.819, 23.14061
2755.748, 13.50317
2757.676, 19.61815
2759.605, 20.45628
2761.533, 13.67751
2763.462, -0.5341527
2765.390, 3.035163
2767.319, 7.136312
2769.247, 2.438644
2771.176, 13.50571
2773.104, 15.16400
2775.032, 6.703395
2776.961, 11.26924
2778.889, 14.32416
2780.818, 14.87314
2782.746, 15.07787
2784.675, 11.09044
2786.603, 11.08680
2788.532, 21.15136
2790.460, 18.52639
2792.389, 9.859622
2794.317, 1.080707
2796.246, 7.450325
2798.174, 11.31131
2800.103, 10.54514
2802.031, 5.965667
2803.959, 13.26665
2805.888, 17.97993
2807.816, 10.39647
2809.745, 2.038824
2811.673, 3.211496
2813.602, 13.72536
2815.530, 18.30494
2817.459, 15.73497
2819.387, 10.49253
2821.316, 7.105741
2823.244, 5.923462
2825.173, 5.623088
2827.101, 4.717944
2829.030, 10.78240
2830.958, 11.92207
2832.886, 11.33968
2834.815, 11.01869
2836.743, 3.670364
2838.672, 2.989977
2840.600, 15.67089
2842.529, 11.83119
2844.457, 5.847678
2846.386, 3.031189
2848.314, 11.29354
2850.243, 8.566920
2852.171, 2.133457
2854.100, 5.617752
2856.028, 14.02111
2857.957, 23.42937
2859.885, 21.83169
2861.813, 6.927774
2863.742, 8.596747
2865.670, 16.14247
2867.599, 10.73550
2869.527, 5.360852
2871.456, 9.465148
2873.384, 13.20243
2875.313, 6.489602
2877.241, 6.399959
2879.170, 5.071993
2881.098, -10.79071
2883.027, 2.861858
2884.955, 15.87011
2886.884, 4.723257
2888.812, 9.698355
2890.740, 14.72754
2892.669, 9.463092
2894.597, 3.972156
2896.526, 19.01756
2898.454, 21.60492
2900.383, -0.4547859
2902.311, 10.86773
2904.240, 17.69428
2906.168, 10.53943
2908.097, 6.930316
2910.025, 3.654707
2911.954, 4.230161
2913.882, 13.30398
2915.811, 22.17517
2917.739, 13.86022
2919.667, -3.301548
2921.596, 5.393629
2923.524, 11.93910
2925.453, 4.662260
2927.381, 3.180522
2929.310, -2.946081
2931.238, 1.497802
2933.167, 6.634573
2935.095, 6.982023
2937.024, 10.97780
2938.952, 11.01588
2940.881, 6.226150
2942.809, 3.334292
2944.738, -4.531951
2946.666, -14.01831
2948.594, 6.261516
2950.523, 11.89156
2952.451, 11.21846
2954.380, 13.57983
2956.308, 4.614264
2958.237, 10.77079
2960.165, 7.144470
2962.094, -4.556539
2964.022, -4.365847
2965.951, -7.090996
2967.879, -1.211426
2969.808, 2.414847
2971.736, 9.311146
2973.665, 12.97559
2975.593, -0.9487326
2977.521, 4.890416
2979.450, 0.8216630
2981.378, 0.9751143
2983.307, 16.96260
2985.235, 16.10435
2987.164, 10.90213
2989.092, 12.70128
2991.021, 16.43429
2992.949, 11.70557
2994.878, 7.592077
2996.806, 5.076325
2998.735, 24.78583
3000.663, 18.26567
3002.592, 13.58421
3004.520, 5.578808
3006.448, 2.646445
3008.377, 4.008963
3010.305, 5.435634
3012.234, 4.104641
3014.162, 0.8577397
3016.091, 7.561009
3018.019, 4.184229
3019.948, 8.308404
3021.876, 10.89806
3023.805, 8.094536
3025.733, 2.888985
3027.662, 0.5273214
3029.590, 9.8781981E-02
3031.519, 3.195365
3033.447, 14.46080
3035.375, 11.73449
3037.304, 5.986147
3039.232, 6.669338
3041.161, 7.107998
3043.089, -2.512411
3045.018, -3.302377
3046.946, 3.963059
3048.875, 4.351122
3050.803, 0.9606763
3052.732, 3.233202
3054.660, -0.8100446
3056.589, -8.180984
3058.517, -10.27474
3060.446, -1.935424
3062.374, 10.37767
3064.302, 15.71107
3066.231, 22.90532
3068.159, 19.60985
3070.088, 5.676098
3072.016, 2.477930
3073.945, 8.215155
3075.873, 19.86426
3077.802, -5.875939
3079.730, -4.529436
3081.659, 3.549134
3083.587, 2.389729
3085.516, -9.612688
3087.444, -10.33373
3089.373, 1.136000
3091.301, 8.205680
3093.229, -6.298132
3095.158, 5.026034
3097.086, 15.11308
3099.015, 4.271848
3100.943, 9.277573
3102.872, 9.955428
3104.800, 8.445765
3106.729, 1.550857
3108.657, 10.41425
3110.586, 5.367907
3112.514, -0.5089018
3114.443, 4.522700
3116.371, 2.615007
3118.300, 4.299108
3120.228, 3.342520
3122.156, -10.10197
3124.085, 14.76718
3126.013, 13.86544
3127.942, 2.602857
3129.870, 6.412387
3131.799, 3.970404
3133.727, 4.814894
3135.656, 4.919194
3137.584, -5.817400
3139.513, 3.297615
3141.441, 8.406592
3143.370, 2.220420
3145.298, -3.603195
3147.227, 9.016965
3149.155, 3.002483
3151.083, -1.271457
3153.012, 2.351710
3154.940, -6.497191
3156.869, -0.8094103
3158.797, 7.456725
3160.726, 8.081617
3162.654, 1.826918
3164.583, 3.398110
3166.511, 7.149193
3168.440, 3.682057
3170.368, -6.935760
3172.297, -7.042089
3174.225, -1.805266
3176.154, 2.959247
3178.082, -0.1226766
3180.010, 8.629287
3181.939, 4.011397
3183.867, -8.537855
3185.796, 16.85237
3187.724, 0.2886034
3189.653, -12.84961
3191.581, -14.99498
3193.510, -20.36432
3195.438, 13.07570
3197.367, 12.16605
3199.295, -4.094159
3201.224, 5.747446
3203.152, 6.769550
3205.081, 4.140257
3207.009, -3.803536
3208.938, -13.44542
3210.866, 11.84377
3212.794, 22.73857
3214.723, 19.45867
3216.651, 10.53801
3218.580, 19.84366
3220.508, -1.169444
3222.437, -6.782241
3224.365, 7.241569
3226.294, 5.230809
3228.222, -5.647414
3230.151, -7.153149
3232.079, 0.8488232
3234.008, 12.07797
3235.936, -5.483806
3237.865, -2.851348
3239.793, -0.3911442
3241.721, -11.81923
3243.650, 25.57964
3245.578, 18.49848
3247.507, 4.046793
3249.435, 1.898674
3251.364, -3.061436
3253.292, 4.132214
3255.221, 12.93469
3257.149, 11.53621
3259.078, -5.818430
3261.006, 13.93336
3262.935, 9.182446
3264.863, -2.057249
3266.792, 0.1491476
3268.720, 2.789945
3270.648, 3.043697
3272.577, 4.507844
3274.505, 7.223473
3276.434, 7.557910
3278.362, 10.79640
3280.291, 18.09699
3282.219, 23.08434
3284.148, 21.39719
3286.076, 0.9102252
3288.005, 5.548625
3289.933, 5.901447
3291.862, -3.549807
3293.790, -4.302853
3295.719, 9.826814
3297.647, 17.20485
3299.575, 14.34214
3301.504, 6.254637
3303.432, 3.763469
3305.361, 1.443735
3307.289, 0.1981552
3309.218, 3.275103
3311.146, 14.32945
3313.075, 8.119739
3315.003, -5.134924
3316.932, -12.15206
3318.860, -4.107007
3320.789, 3.615553
3322.717, 3.119261
3324.646, 7.559103
3326.574, 12.59678
3328.502, -3.727145
3330.431, 7.132442
3332.359, 0.1953853
3334.288, -9.634924
3336.216, -5.975624
3338.145, 8.603092
3340.073, 3.030868
3342.002, -0.6539572
3343.930, 5.407890
3345.859, 16.68134
3347.787, 9.202039
3349.716, -4.198849
3351.644, 4.246171
3353.573, 17.43579
3355.501, -18.42917
3357.429, 0.3751599
3359.358, 1.950916
3361.286, 3.357171
3363.215, 16.96684
3365.143, 2.247052
3367.072, 0.7063814
3369.000, 1.749349
3370.929, 2.423494
3372.857, 1.164209
3374.786, -4.049723
3376.714, 5.102761
3378.643, 13.51438
3380.571, 12.26730
3382.500, 0.9187038
3384.428, 11.19884
3386.356, 11.21857
3388.285, 3.018829
3390.213, -0.1888374
3392.142, 9.224907
3394.070, -1.808022
3395.999, 1.868788
3397.927, 1.252849
3399.856, -10.54212
3401.784, -15.58625
3403.713, 1.165426
3405.641, 27.65252
3407.570, 30.03318
3409.498, 6.185579
3411.427, -0.4403186
3413.355, -7.275453
3415.283, 4.219557
3417.212, 7.706561
3419.140, -6.912850
3421.069, -7.330386
3422.997, 6.663853
3424.926, 3.162204
3426.854, 7.595806
3428.783, 26.13262
3430.711, 0.2695557
3432.640, 4.681129
3434.568, -4.737391
3436.497, -9.231913
3438.425, 3.154085
3440.354, 7.488740
3442.282, 2.719480
3444.210, -12.45835
3446.139, -8.326929
3448.067, 15.67174
3449.996, 17.27736
3451.924, -7.572824
3453.853, -16.47838
3455.781, -11.82454
3457.710, -6.137627
3459.638, -9.077455
3461.567, -5.735564
3463.495, -1.750827
3465.424, 4.220360
3467.352, 11.45490
3469.281, 16.25642
3471.209, 11.63775
3473.137, 15.42379
3475.066, 13.47701
3476.994, 3.520415
3478.923, -5.397501
3480.851, 4.759448
3482.780, 7.105547
3484.708, 9.944036
3486.637, 4.771438
3488.565, -8.803564
3490.494, 2.414451
3492.422, -2.147294
3494.351, -9.124329
3496.279, -4.466012
3498.208, 7.133009
3500.136, 4.971299
3502.064, -9.234379
3503.993, 11.02189
3505.921, 13.45783
3507.850, 1.493351
3509.778, 9.245347
3511.707, -4.634130
3513.635, -4.046434
3515.564, 0.5182599
3517.492, -4.197534
3519.421, -14.14948
3521.349, 1.789114
3523.278, 16.90408
3525.206, 7.970857
3527.135, 1.790754
3529.063, 5.537381
3530.991, 5.631388
3532.920, 6.637705
3534.848, -2.366496
3536.777, 0.6302140
3538.705, -4.487446
3540.634, -22.64517
3542.562, -13.48535
3544.491, -7.133660
3546.419, 13.08439
3548.348, 17.72060
3550.276, 9.960315
3552.205, 9.565117
3554.133, -0.7160875
3556.062, 6.526372
3557.990, -4.484261
3559.918, -2.867637
3561.847, 9.972255
3563.775, -6.945516
3565.704, 13.01010
3567.632, 8.001031
3569.561, 7.289113
3571.489, 5.917929
3573.418, -1.530843
3575.346, 9.225708
3577.275, 17.61749
3579.203, 3.375478
3581.132, -0.4642152
3583.060, 10.19062
3584.989, 18.68863
3586.917, 4.823089
3588.845, -4.770656
3590.774, 1.266240
3592.702, 2.827297
3594.631, 0.8903441
3596.559, 7.054419
3598.488, 10.53272
3600.416, 15.86091
3602.345, -2.079929
3604.273, -17.08029
3606.202, -11.82719
3608.130, 6.218798
3610.059, 1.818606
3611.987, -5.815041
3613.916, -6.143157
3615.844, -1.621718
3617.772, 1.934740
3619.701, -4.0363640E-02
3621.629, -7.174818
3623.558, -2.737512
3625.486, 15.81545
3627.415, 1.963625
3629.343, -13.55053
3631.272, 12.35672
3633.200, 25.60803
3635.129, -0.1919384
3637.057, -13.27605
3638.986, -7.338366
3640.914, -2.613865
3642.843, -4.788353
3644.771, 14.56371
3646.699, -4.929654
3648.628, -15.60134
3650.556, -7.494464
3652.485, -2.748736
3654.413, -7.066152
3656.342, 1.150767
3658.270, 3.014859
3660.199, -6.510414
3662.127, -9.995882
3664.056, 8.359518
3665.984, 24.88624
3667.913, 6.802118
3669.841, -15.87760
3671.770, -20.61227
3673.698, 0.5850522
3675.626, 0.5601746
3677.555, -3.597834
3679.483, 6.169711
3681.412, -1.796085
3683.340, 12.55963
3685.269, -5.006881
3687.197, 4.658101
3689.126, 10.61947
3691.054, 6.445899
3692.983, 12.60006
3694.911, -5.254807
3696.840, -5.613133
3698.768, 1.360504
3700.697, 0.6199592
3702.625, 3.761631
3704.553, 13.90483
3706.482, 14.21045
3708.410, -1.792257
3710.339, -16.48141
3712.267, -5.337137
3714.196, 7.209996
3716.124, 1.843984
3718.053, -7.991595
3719.981, 12.46912
3721.910, -1.759285
3723.838, 18.61096
3725.767, 10.78176
3727.695, -10.16344
3729.624, -12.89460
3731.552, 1.605621
3733.480, -1.738829
3735.409, -1.225873
3737.337, 6.624909
3739.266, 11.67303
3741.194, 5.357440
3743.123, 11.41177
3745.051, 31.97263
3746.980, 21.11836
3748.908, -2.152522
3750.837, -1.817704
3752.765, 2.273592
3754.694, -3.341893
3756.622, -5.335652
3758.551, 2.277847
3760.479, 3.920062
3762.407, -3.696764
3764.336, 6.915296
3766.264, -5.249202
3768.193, 0.7041939
3770.121, -1.864416
3772.050, 0.2687350
3773.978, 36.09845
3775.907, -4.173886
3777.835, 8.293744
3779.764, -3.326933
3781.692, -12.45654
3783.621, -7.041958
3785.549, 6.109878
3787.478, 7.788333
3789.406, -25.33547
3791.334, -23.40944
3793.263, 3.914798
3795.191, 9.140360
3797.120, 25.69050
3799.048, 22.41531
3800.977, 6.476634
3802.905, 11.99808
3804.834, -3.211746
3806.762, 16.74549
3808.691, -7.748958
3810.619, 4.495824
3812.548, -17.65035
3814.476, -25.31400
3816.405, -0.9477069
3818.333, -6.286490
3820.261, -12.32922
3822.190, 4.007474
3824.118, -3.086732
3826.047, -15.44966
3827.975, -1.637915
3829.904, -3.509636
3831.832, -17.20882
3833.761, 1.302788
3835.689, -2.449935
3837.618, 11.25846
3839.546, 15.16390
3841.475, 3.499701
3843.403, 17.73538
3845.332, 11.23537
3847.260, -9.618538
3849.188, 0.1796039
3851.117, 0.3309575
3853.045, -15.81295
3854.974, -16.06699
3856.902, -7.885505
3858.831, 8.481004
3860.759, 7.503040
3862.688, -2.941742
3864.616, -3.062889
3866.545, 1.788270
3868.473, -1.007501
3870.402, -11.27167
3872.330, -4.808424
3874.259, 12.17181
3876.187, -2.393827
3878.115, -11.75113
3880.044, -8.479409
3881.972, -9.503278
3883.901, 3.918226
3885.829, -11.25940
3887.758, -26.81195
3889.686, -5.672643
3891.615, 10.90348
3893.543, 13.05790
3895.472, -0.1433961
3897.400, -4.380927
3899.329, 3.206069
3901.257, -25.06853
3903.186, -8.931625
3905.114, 9.263499
3907.042, -6.144542
3908.971, -12.06737
3910.899, -15.03524
3912.828, 2.068832
3914.756, 3.686921
3916.685, -17.92176
3918.613, -2.286602
3920.542, 2.036855
3922.470, -7.899453
3924.399, 7.456217
3926.327, -16.26099
3928.256, 10.77167
3930.184, -5.679313
3932.113, -21.10412
3934.041, -2.726778
3935.969, -7.685605
3937.898, -23.73949
3939.826, 8.581173
3941.755, -15.56377
3943.683, -2.987778
3945.612, 3.159379
3947.540, 4.006068
3949.469, 14.75215
3951.397, 5.7399359E-02
3953.326, -12.61924
3955.254, 11.02944
3957.183, 7.299882
3959.111, 28.33035
3961.040, -17.91194
3962.968, -16.87942
3964.896, -10.89590
3966.825, -13.87283
3968.753, -11.85082
3970.682, 6.410093
3972.610, 18.50852
3974.539, 15.38484
3976.467, 14.52639
3978.396, 3.032986
3980.324, 19.04329
3982.253, -13.38838
3984.181, -11.72299
3986.110, 13.62637
3988.038, 2.067526
3989.967, -7.767033
3991.895, 3.320523
3993.823, 3.893187
3995.752, -5.562871
3997.680, 3.617411
3999.609, -3.811432
4001.537, -4.789783
4003.466, 10.77357
4005.394, -14.72891
4007.323, -1.219094
4009.251, 8.216825
4011.180, 6.556152
4013.108, -7.789057
4015.037, -1.591553
4016.965, 18.06927
4018.894, 17.46356
4020.822, 15.29972
4022.750, -5.091952
4024.679, -17.34546
4026.607, 9.873870
4028.536, -7.645343
4030.464, -9.430439
4032.393, 3.326084
4034.321, -3.604236
4036.250, -4.495611
4038.178, 18.58422
4040.107, 25.09350
4042.035, 8.674334
4043.964, 13.08416
4045.892, -1.871638
4047.821, 9.572827
4049.749, 11.30130
4051.677, -28.89532
4053.606, 8.425711
4055.534, 8.119233
4057.463, -2.598095
4059.391, -10.17191
4061.320, -3.177015
4063.248, 2.604834
4065.177, 0.7697975
4067.105, -1.502554
4069.034, -12.48830
4070.962, -16.41489
4072.891, 11.15224
4074.819, -2.467931
4076.748, -6.462595
4078.676, 0.6619756
4080.604, -16.10678
4082.533, -6.044033
4084.461, 2.016385
4086.390, -12.33749
4088.318, -4.114564
4090.247, 9.462963
4092.175, 14.57849
4094.104, 19.36039
4096.032, 8.795832
4097.960, 0.2052423
4099.889, 13.02472
4101.817, 35.14717
4103.746, -13.95929
4105.674, -8.604607
4107.603, -1.941317
4109.531, -13.95084
4111.460, 14.05461
4113.388, 14.62185
4115.317, -6.373322
4117.245, 1.699638
4119.174, 23.98481
4121.102, 22.33823
4123.031, 17.42419
4124.959, 26.27604
4126.888, 17.87679
4128.816, 8.580732
4130.745, 4.466600
4132.673, -3.653577
4134.602, -7.118791
4136.530, 9.355000
4138.458, -0.1130901
4140.387, 0.1766873
4142.315, -5.582438
4144.244, 1.484654
4146.172, -10.57795
4148.101, -4.228649
4150.029, -4.632771
4151.958, 5.706860
4153.886, 5.818810
4155.814, -1.910031
4157.743, -4.300545
4159.671, -16.57246
4161.600, -3.593033
4163.528, -0.3280947
4165.457, -7.058629
4167.385, -17.79226
4169.314, 15.34652
4171.242, 1.992572
4173.171, -1.664437
4175.099, -3.488642
4177.028, -9.395173
4178.956, 4.375815
4180.885, 10.00871
4182.813, -11.10414
4184.742, -17.69099
4186.670, -11.17444
4188.599, -0.5744787
4190.527, -4.812262
4192.456, -8.507916
4194.384, 4.038291
4196.313, 5.385135
4198.241, -7.227353
4200.169, 1.113942
4202.098, 10.91739
4204.026, -14.53557
4205.955, -18.35150
4207.883, 8.792394
4209.812, -19.44663
4211.740, 17.05659
4213.668, 13.43929
4215.597, 16.36097
4217.525, -4.635069
4219.454, 5.418880
4221.382, 17.24800
4223.311, -13.69554
4225.239, -1.610827
4227.168, 3.077792
4229.096, -10.40417
4231.025, -10.96555
4232.953, -34.46194
4234.882, 3.657186
4236.810, -0.6473401
4238.739, -17.05927
4240.667, 7.631458
4242.596, 0.7688569
4244.524, 1.649652
4246.453, 4.313057
4248.381, -27.27344
4250.310, -13.72289
4252.238, 7.598329
4254.167, 4.495886
4256.095, 4.237946
4258.023, 1.469489
4259.952, -1.402544
4261.880, 12.53724
4263.809, 0.7764832
4265.737, 10.40888
4267.666, -1.912499
4269.594, -13.28487
4271.522, 33.66812
4273.451, 24.34809
4275.379, 8.177528
4277.308, 8.132817
4279.236, 11.58180
4281.165, 22.82691
4283.093, 18.56499
4285.022, 22.26013
4286.950, -3.957941
4288.879, 4.321457
4290.807, -19.82613
4292.736, -4.375697
4294.664, 12.76797
4296.593, -15.13670
4298.521, 1.193327
4300.450, -6.645471
4302.378, -7.932499
4304.307, -1.489495
4306.235, -9.490500
4308.164, -22.05975
4310.092, -0.5600390
4312.021, 20.47790
4313.949, -0.4088915
4315.877, -12.62410
4317.806, -4.641487
4319.734, -15.44431
4321.663, -10.39915
4323.591, -1.368925
4325.520, -1.637140
4327.448, 1.341127
4329.376, 4.830430
4331.305, 16.38664
4333.233, 13.48473
4335.162, -5.726628
4337.090, 2.014945
4339.019, 8.771883
4340.947, 8.845175
4342.876, 18.79909
4344.804, 4.495964
4346.733, 8.320118
4348.661, 3.011433
4350.590, -11.43622
4352.518, -3.500789
4354.447, 25.36836
4356.375, 0.9832236
4358.304, -4.022573
4360.232, 5.652780
4362.161, -1.572970
4364.089, -7.709013
4366.018, 19.80613
4367.946, 24.17937
4369.875, 8.593185
4371.803, 7.046681
4373.731, -3.566895
4375.660, -1.051116
4377.588, -6.003786
4379.517, 25.78957
4381.445, 20.45022
##END=



