##NAMES=Pentahydrite
##RRUFFID=R070069
##IDEAL CHEMISTRY=Mg(SO_4_)·5H_2_O
##LOCALITY=Vulcano Island, Eolie Islands, Messina Province, Sicily, Italy
##OWNER=RRUFF
##SOURCE=James Shigley
##DESCRIPTION=Unconsolidated coarse crystalline grains associated with anhydrite
##STATUS=The identification of this mineral has been confirmed by single-crystal X-ray diffraction
##URL=https://www.rruff.net/odr/rruff_sample/R070069
##DIFFRACTION SAMPLE DESCRIPTION=Single crystal, powder profile is calculated
##CELL PARAMETERS=a: 6.325 b: 10.521 c: 6.052 alpha: 80.96 beta: 109.95 gamma: 105.09 volume: 364.5 crystal system: triclinic
##FILETYPE=Raman RAW
##RAMAN WAVELENGTH=785

181.2446, 798.2881
183.1731, 822.6353
185.1016, 860.0275
187.0300, 899.2248
188.9585, 933.8334
190.8870, 966.4619
192.8154, 1000.851
194.7439, 1037.132
196.6724, 1078.832
198.6008, 1132.438
200.5293, 1180.001
202.4578, 1217.786
204.3862, 1249.305
206.3147, 1274.898
208.2432, 1296.290
210.1716, 1315.360
212.1001, 1331.771
214.0286, 1353.239
215.9570, 1389.074
217.8855, 1416.292
219.8140, 1426.460
221.7424, 1432.732
223.6709, 1443.387
225.5994, 1456.214
227.5278, 1465.490
229.4563, 1468.546
231.3848, 1483.480
233.3132, 1521.500
235.2417, 1546.071
237.1702, 1540.891
239.0986, 1531.156
241.0271, 1531.680
242.9556, 1538.968
244.8840, 1549.220
246.8125, 1563.276
248.7410, 1554.899
250.6694, 1518.147
252.5979, 1483.576
254.5264, 1468.166
256.4548, 1442.163
258.3833, 1384.858
260.3118, 1314.675
262.2402, 1254.537
264.1687, 1202.247
266.0972, 1152.012
268.0256, 1104.612
269.9541, 1058.670
271.8826, 1012.401
273.8110, 969.3317
275.7395, 932.6678
277.6680, 897.8625
279.5964, 859.2863
281.5249, 819.4171
283.4534, 785.3851
285.3818, 758.0359
287.3103, 734.9198
289.2388, 716.1198
291.1672, 699.3651
293.0957, 684.7809
295.0242, 673.9162
296.9526, 665.1252
298.8811, 658.4919
300.8096, 660.9074
302.7380, 670.9993
304.6665, 670.3148
306.5950, 646.9210
308.5234, 636.0048
310.4519, 648.5840
312.3804, 659.4588
314.3088, 658.8111
316.2373, 654.4668
318.1658, 651.7816
320.0942, 651.0368
322.0227, 653.4507
323.9512, 659.6409
325.8796, 663.7685
327.8081, 664.5645
329.7366, 667.8879
331.6650, 677.2164
333.5935, 685.0193
335.5220, 683.8919
337.4504, 682.5462
339.3789, 687.5580
341.3074, 697.2207
343.2358, 713.2559
345.1643, 738.0564
347.0928, 763.1221
349.0212, 786.3491
350.9497, 803.3093
352.8782, 812.5494
354.8066, 820.5657
356.7351, 828.5358
358.6636, 835.7979
360.5920, 843.1047
362.5205, 849.3688
364.4490, 849.6589
366.3774, 843.2488
368.3059, 830.9292
370.2344, 811.2533
372.1628, 792.9265
374.0913, 780.0714
376.0198, 763.8912
377.9482, 742.1578
379.8767, 717.7302
381.8052, 690.3181
383.7336, 662.3305
385.6621, 638.5026
387.5906, 619.3121
389.5190, 606.0991
391.4475, 603.3311
393.3760, 596.5854
395.3044, 582.1978
397.2329, 570.3657
399.1614, 560.9825
401.0898, 556.9951
403.0183, 563.8204
404.9468, 575.0687
406.8752, 579.9128
408.8037, 577.8027
410.7322, 577.7380
412.6606, 582.4968
414.5891, 593.6603
416.5176, 608.4678
418.4460, 622.7706
420.3745, 639.0225
422.3030, 660.3032
424.2314, 684.4495
426.1599, 712.3990
428.0884, 747.5539
430.0168, 788.6662
431.9453, 831.9199
433.8738, 875.4639
435.8022, 913.2398
437.7307, 946.0486
439.6592, 982.6081
441.5876, 1023.409
443.5161, 1060.403
445.4446, 1094.949
447.3730, 1128.056
449.3015, 1149.521
451.2300, 1163.503
453.1584, 1186.459
455.0869, 1212.944
457.0154, 1223.789
458.9438, 1223.643
460.8723, 1229.160
462.8008, 1241.020
464.7292, 1248.903
466.6577, 1256.332
468.5862, 1250.233
470.5146, 1216.669
472.4431, 1170.630
474.3716, 1116.185
476.3000, 1056.110
478.2285, 997.8522
480.1570, 941.1995
482.0854, 880.5169
484.0139, 818.8610
485.9424, 762.7916
487.8708, 710.7507
489.7993, 666.9672
491.7278, 631.1185
493.6563, 605.4758
495.5847, 590.4462
497.5132, 573.1209
499.4417, 549.4169
501.3701, 527.1264
503.2986, 508.0363
505.2271, 491.7995
507.1555, 479.2920
509.0840, 471.3343
511.0125, 468.3456
512.9409, 467.5855
514.8694, 465.7616
516.7979, 465.3195
518.7263, 464.0540
520.6548, 459.9700
522.5833, 457.5343
524.5117, 457.7267
526.4402, 459.5726
528.3687, 465.2613
530.2971, 468.9525
532.2256, 466.0383
534.1541, 462.1502
536.0825, 461.6031
538.0110, 464.8488
539.9395, 472.8348
541.8679, 479.2458
543.7964, 482.1369
545.7249, 487.8761
547.6533, 492.3078
549.5818, 487.6796
551.5103, 486.6740
553.4387, 498.9934
555.3672, 512.4730
557.2957, 519.0461
559.2241, 523.5710
561.1526, 533.5225
563.0811, 547.1727
565.0095, 557.8946
566.9380, 564.1168
568.8665, 572.7664
570.7949, 586.1616
572.7234, 594.5046
574.6519, 598.5252
576.5803, 616.0752
578.5088, 646.0608
580.4373, 662.0836
582.3657, 665.8786
584.2942, 675.5576
586.2227, 690.5223
588.1511, 708.4822
590.0796, 730.9362
592.0081, 754.7637
593.9365, 780.0106
595.8650, 804.4406
597.7935, 825.7586
599.7219, 847.7408
601.6504, 872.2833
603.5789, 895.5886
605.5073, 921.0049
607.4358, 946.2814
609.3643, 959.5571
611.2927, 968.6199
613.2212, 985.0208
615.1497, 1003.789
617.0781, 1018.531
619.0066, 1030.254
620.9351, 1034.433
622.8635, 1028.654
624.7920, 1021.893
626.7205, 1016.490
628.6489, 1010.108
630.5774, 1005.686
632.5059, 992.8375
634.4343, 962.7960
636.3628, 926.5603
638.2913, 892.6155
640.2197, 859.4398
642.1482, 825.6216
644.0767, 787.3359
646.0051, 732.7841
647.9336, 672.9829
649.8621, 633.8521
651.7905, 611.1470
653.7190, 585.1722
655.6475, 557.6146
657.5759, 528.3613
659.5044, 494.3786
661.4329, 464.1352
663.3613, 438.7537
665.2898, 419.9280
667.2183, 408.5885
669.1467, 399.0197
671.0752, 391.1621
673.0037, 383.0746
674.9321, 373.9760
676.8606, 363.1123
678.7891, 348.2324
680.7175, 336.1284
682.6460, 331.7652
684.5745, 329.4064
686.5029, 324.0322
688.4314, 317.6376
690.3599, 313.5810
692.2883, 310.9176
694.2168, 306.9666
696.1453, 302.4966
698.0737, 300.0017
700.0022, 299.3956
701.9307, 299.8893
703.8591, 301.4685
705.7876, 300.8833
707.7161, 297.7383
709.6445, 293.0074
711.5730, 284.2633
713.5015, 279.6804
715.4299, 282.1993
717.3584, 284.8148
719.2869, 287.6209
721.2153, 288.8553
723.1438, 287.2918
725.0723, 285.3327
727.0007, 282.2689
728.9292, 280.8748
730.8577, 285.2350
732.7861, 290.3456
734.7146, 291.5784
736.6431, 289.5677
738.5715, 285.7682
740.5000, 282.5147
742.4285, 280.8850
744.3569, 280.2463
746.2854, 280.5683
748.2139, 280.3414
750.1423, 277.0134
752.0708, 273.1858
753.9993, 272.2711
755.9277, 271.5912
757.8562, 269.8857
759.7847, 268.1579
761.7131, 267.0356
763.6416, 267.3094
765.5701, 269.4055
767.4985, 273.1262
769.4270, 274.0120
771.3555, 271.3773
773.2839, 269.0076
775.2124, 266.7032
777.1409, 264.1733
779.0693, 262.9419
780.9978, 262.3660
782.9263, 261.6274
784.8547, 259.7749
786.7832, 253.6717
788.7117, 248.6258
790.6401, 251.0468
792.5686, 255.5827
794.4971, 256.4126
796.4255, 255.2223
798.3540, 255.6864
800.2825, 255.3168
802.2109, 249.6228
804.1394, 242.8278
806.0679, 242.5340
807.9963, 245.6628
809.9248, 245.6274
811.8533, 242.7673
813.7817, 235.5141
815.7102, 227.8460
817.6387, 230.3312
819.5671, 238.4937
821.4956, 239.5752
823.4241, 234.3336
825.3525, 231.9931
827.2810, 233.4851
829.2095, 234.0949
831.1379, 233.8177
833.0664, 234.5475
834.9949, 236.3030
836.9233, 239.1582
838.8518, 242.3427
840.7803, 243.3430
842.7087, 241.7900
844.6372, 237.9908
846.5657, 234.0955
848.4941, 233.0202
850.4226, 232.0118
852.3511, 231.8144
854.2795, 234.2464
856.2080, 235.0108
858.1365, 234.4254
860.0649, 235.1806
861.9934, 235.0008
863.9219, 233.6632
865.8503, 233.6087
867.7788, 235.3362
869.7073, 237.4584
871.6357, 236.7272
873.5642, 234.1023
875.4927, 234.4138
877.4211, 236.2585
879.3496, 237.6853
881.2781, 238.9457
883.2065, 237.6185
885.1350, 235.0798
887.0635, 234.6584
888.9919, 236.1030
890.9204, 236.3696
892.8489, 235.3366
894.7773, 237.3009
896.7058, 237.7966
898.6343, 232.7855
900.5627, 230.0432
902.4912, 231.8956
904.4197, 235.2612
906.3481, 238.4420
908.2766, 237.5301
910.2051, 233.9875
912.1335, 231.6149
914.0620, 230.2393
915.9905, 231.4108
917.9189, 235.0754
919.8474, 237.2505
921.7759, 236.1765
923.7043, 236.2316
925.6328, 240.6340
927.5613, 244.7987
929.4897, 247.4097
931.4182, 252.5341
933.3467, 256.8671
935.2751, 257.2154
937.2036, 259.5406
939.1321, 268.5781
941.0605, 280.0070
942.9890, 288.9370
944.9175, 297.4956
946.8459, 315.7641
948.7744, 334.1035
950.7029, 377.4968
952.6313, 455.3839
954.5598, 548.7210
956.4883, 663.6708
958.4167, 770.4761
960.3452, 880.0886
962.2737, 998.8860
964.2021, 1137.382
966.1306, 1328.058
968.0591, 1565.674
969.9875, 1866.138
971.9160, 2258.631
973.8445, 2754.123
975.7729, 3353.688
977.7014, 4073.551
979.6299, 4808.666
981.5583, 5557.500
983.4868, 6247.963
985.4153, 6614.458
987.3438, 6770.859
989.2722, 6648.708
991.2007, 6317.231
993.1292, 5629.975
995.0576, 4512.141
996.9861, 3484.660
998.9146, 2525.239
1000.843, 1796.107
1002.771, 1340.399
1004.700, 1005.051
1006.628, 803.9659
1008.557, 655.4462
1010.485, 555.0101
1012.414, 484.1186
1014.342, 436.9930
1016.271, 403.1967
1018.199, 374.0976
1020.128, 348.6672
1022.056, 331.9154
1023.985, 319.3248
1025.913, 306.8566
1027.842, 297.9934
1029.770, 292.2779
1031.698, 281.9805
1033.627, 269.8554
1035.555, 268.7405
1037.484, 276.5395
1039.412, 281.8590
1041.341, 284.5680
1043.269, 286.3596
1045.198, 286.7094
1047.126, 288.7840
1049.055, 292.9870
1050.983, 296.6216
1052.912, 301.8158
1054.840, 307.7637
1056.769, 311.0436
1058.697, 316.5711
1060.625, 328.4255
1062.554, 339.7867
1064.482, 347.0496
1066.411, 359.6302
1068.339, 375.5030
1070.268, 379.3145
1072.196, 382.8420
1074.125, 405.5361
1076.053, 430.7103
1077.982, 442.4293
1079.910, 449.5611
1081.839, 458.9829
1083.767, 467.8181
1085.696, 475.2306
1087.624, 479.8931
1089.552, 478.6163
1091.481, 473.0540
1093.409, 463.0656
1095.338, 456.3401
1097.266, 455.9666
1099.195, 453.5939
1101.123, 450.8948
1103.052, 444.9839
1104.980, 428.9055
1106.909, 418.3566
1108.837, 415.9903
1110.766, 417.0943
1112.694, 425.0674
1114.623, 433.6871
1116.551, 442.7772
1118.479, 448.7437
1120.408, 446.8027
1122.336, 462.0876
1124.265, 498.8050
1126.193, 523.9296
1128.122, 536.2946
1130.050, 564.8083
1131.979, 607.8104
1133.907, 646.7614
1135.836, 682.3667
1137.764, 713.9911
1139.693, 742.5758
1141.621, 771.7629
1143.550, 800.4987
1145.478, 832.7216
1147.406, 856.3343
1149.335, 855.1655
1151.263, 838.8667
1153.192, 812.2383
1155.120, 778.5291
1157.049, 742.1893
1158.977, 697.7850
1160.906, 632.9448
1162.834, 576.9772
1164.763, 546.5081
1166.691, 518.2847
1168.620, 486.1446
1170.548, 448.4152
1172.477, 400.7865
1174.405, 367.7358
1176.333, 355.5179
1178.262, 343.7368
1180.190, 329.9793
1182.119, 313.9006
1184.047, 295.8987
1185.976, 291.0805
1187.904, 297.3153
1189.833, 294.6772
1191.761, 285.9585
1193.690, 278.4792
1195.618, 273.0798
1197.547, 273.7331
1199.475, 276.8322
1201.404, 278.3811
1203.332, 277.5757
1205.260, 273.6908
1207.189, 266.9073
1209.117, 252.7931
1211.046, 242.7602
1212.974, 243.0298
1214.903, 247.6588
1216.831, 260.4821
1218.760, 265.0500
1220.688, 255.6667
1222.617, 248.8197
1224.545, 245.7722
1226.474, 242.3851
1228.402, 239.2208
1230.331, 238.4981
1232.259, 240.0527
1234.188, 242.3836
1236.116, 244.9984
1238.044, 249.5646
1239.973, 253.5562
1241.901, 248.1620
1243.830, 239.1060
1245.758, 234.4462
1247.687, 233.8108
1249.615, 236.9208
1251.544, 240.8778
1253.472, 246.4221
1255.401, 249.6069
1257.329, 246.4347
1259.258, 244.0617
1261.186, 244.0857
1263.115, 244.0403
1265.043, 244.0535
1266.971, 246.7963
1268.900, 252.5954
1270.828, 252.3769
1272.757, 246.3911
1274.685, 245.0365
1276.614, 247.4414
1278.542, 246.7248
1280.471, 245.3003
1282.399, 247.3080
1284.328, 250.3748
1286.256, 253.2192
1288.185, 255.4654
1290.113, 257.8825
1292.042, 258.5339
1293.970, 254.1108
1295.898, 253.6311
1297.827, 260.8433
1299.755, 264.6798
1301.684, 264.1249
1303.612, 264.2628
1305.541, 265.4493
1307.469, 268.9494
1309.398, 273.1742
1311.326, 273.4647
1313.255, 271.4262
1315.183, 266.6286
1317.112, 266.5909
1319.040, 280.3664
1320.969, 292.1495
1322.897, 295.7726
1324.825, 296.9942
1326.754, 295.7204
1328.682, 292.7440
1330.611, 289.3894
1332.539, 286.6786
1334.468, 284.3065
1336.396, 291.2314
1338.325, 304.2773
1340.253, 307.2113
1342.182, 304.1813
1344.110, 304.0413
1346.039, 307.1526
1347.967, 314.5677
1349.896, 320.1270
1351.824, 319.1431
1353.752, 321.4435
1355.681, 332.0477
1357.609, 331.9932
1359.538, 318.5016
1361.466, 316.3812
1363.395, 324.3813
1365.323, 321.8008
1367.252, 314.8061
1369.180, 319.8730
1371.109, 329.6069
1373.037, 337.8348
1374.966, 341.2144
1376.894, 333.4780
1378.823, 327.6203
1380.751, 328.1187
1382.679, 329.7094
1384.608, 332.4217
1386.536, 336.1680
1388.465, 339.7955
1390.393, 332.5124
1392.322, 320.4700
1394.250, 322.5998
1396.179, 330.1042
1398.107, 335.7378
1400.036, 335.4144
1401.964, 319.3438
1403.893, 308.7885
1405.821, 316.8723
1407.750, 319.9460
1409.678, 313.5963
1411.606, 313.7581
1413.535, 319.8063
1415.463, 315.9976
1417.392, 305.7606
1419.320, 294.4642
1421.249, 287.3070
1423.177, 291.6003
1425.106, 298.8814
1427.034, 307.5688
1428.963, 311.1011
1430.891, 304.6631
1432.820, 301.7524
1434.748, 304.1966
1436.677, 299.3151
1438.605, 289.1727
1440.533, 281.7682
1442.462, 279.1674
1444.390, 290.3905
1446.319, 299.4439
1448.247, 294.0967
1450.176, 287.9581
1452.104, 285.4956
1454.033, 284.5094
1455.961, 284.7956
1457.890, 286.4475
1459.818, 288.4618
1461.747, 282.4843
1463.675, 273.7494
1465.604, 271.4267
1467.532, 272.0337
1469.460, 275.1686
1471.389, 275.0158
1473.317, 268.3043
1475.246, 265.3821
1477.174, 268.1526
1479.103, 266.3382
1481.031, 261.4981
1482.960, 265.4292
1484.888, 271.9144
1486.817, 271.7557
1488.745, 267.6862
1490.674, 256.2020
1492.602, 253.2255
1494.531, 265.1502
1496.459, 270.0919
1498.387, 265.7485
1500.316, 259.0213
1502.244, 252.2116
1504.173, 251.3131
1506.101, 253.0793
1508.030, 254.6830
1509.958, 255.5678
1511.887, 255.1155
1513.815, 254.7720
1515.744, 254.9941
1517.672, 250.9900
1519.601, 244.2268
1521.529, 246.6771
1523.458, 252.2451
1525.386, 249.8257
1527.314, 246.2786
1529.243, 247.3507
1531.171, 247.7092
1533.100, 244.7523
1535.028, 245.2493
1536.957, 249.2749
1538.885, 250.8014
1540.814, 249.6615
1542.742, 243.8498
1544.671, 238.6244
1546.599, 241.2725
1548.528, 241.2800
1550.456, 229.4061
1552.385, 226.5697
1554.313, 234.6581
1556.241, 245.8248
1558.170, 256.8606
1560.098, 256.9818
1562.027, 251.1641
1563.955, 240.0577
1565.884, 233.0499
1567.812, 235.7549
1569.741, 238.4445
1571.669, 240.0862
1573.598, 241.2725
1575.526, 241.8111
1577.455, 240.4800
1579.383, 238.9867
1581.312, 239.4413
1583.240, 238.5594
1585.168, 233.9528
1587.097, 233.5893
1589.025, 238.6629
1590.954, 239.2573
1592.882, 237.7697
1594.811, 242.0515
1596.739, 244.9438
1598.668, 239.4810
1600.596, 235.1103
1602.525, 235.0247
1604.453, 231.1602
1606.382, 223.7966
1608.310, 226.7503
1610.239, 234.2576
1612.167, 237.8244
1614.095, 237.5984
1616.024, 231.0238
1617.952, 230.2246
1619.881, 237.7863
1621.809, 241.8956
1623.738, 242.6706
1625.666, 243.8191
1627.595, 244.9382
1629.523, 245.9642
1631.452, 245.5537
1633.380, 241.5033
1635.309, 246.2316
1637.237, 259.5890
1639.166, 265.0424
1641.094, 264.7806
1643.022, 261.7832
1644.951, 259.0057
1646.879, 258.6953
1648.808, 259.1364
1650.736, 260.2695
1652.665, 257.0108
1654.593, 252.1901
1656.522, 259.1153
1658.450, 265.4893
1660.379, 254.4232
1662.307, 247.9937
1664.236, 257.9227
1666.164, 255.7799
1668.093, 243.1324
1670.021, 240.8207
1671.949, 243.7630
1673.878, 245.4630
1675.806, 247.7113
1677.735, 254.4162
1679.663, 253.4055
1681.592, 243.7573
1683.520, 240.4633
1685.449, 239.8028
1687.377, 234.0145
1689.306, 228.6597
1691.234, 227.5322
1693.163, 225.9006
1695.091, 222.9438
1697.020, 220.9527
1698.948, 218.9284
1700.876, 213.5942
1702.805, 208.1093
1704.733, 203.8684
1706.662, 201.9577
1708.590, 203.2911
1710.519, 198.9676
1712.447, 193.0748
1714.376, 201.9464
1716.304, 207.1114
1718.233, 193.8472
1720.161, 184.8455
1722.090, 185.2880
1724.018, 193.2652
1725.947, 203.0889
1727.875, 197.9718
1729.803, 190.0785
1731.732, 186.9919
1733.660, 184.9756
1735.589, 183.3257
1737.517, 183.4115
1739.446, 183.5655
1741.374, 176.2442
1743.303, 173.5811
1745.231, 187.6884
1747.160, 190.2889
1749.088, 178.2080
1751.017, 177.8969
1752.945, 183.1399
1754.874, 180.9104
1756.802, 177.8829
1758.730, 178.2970
1760.659, 175.0932
1762.587, 168.5690
1764.516, 170.1440
1766.444, 174.4967
1768.373, 174.3112
1770.301, 172.6983
1772.230, 170.0826
1774.158, 170.8421
1776.087, 173.9455
1778.015, 172.1733
1779.944, 169.0332
1781.872, 167.9447
1783.801, 167.1888
1785.729, 166.1835
1787.657, 167.2164
1789.586, 168.6173
1791.514, 162.6692
1793.443, 159.0733
1795.371, 169.4735
1797.300, 172.3875
1799.228, 164.9095
1801.157, 161.9026
1803.085, 160.7161
1805.014, 155.7541
1806.942, 153.1112
1808.871, 157.2335
1810.799, 158.2890
1812.728, 156.6094
1814.656, 157.1485
1816.584, 158.2884
1818.513, 159.4505
1820.441, 157.7275
1822.370, 151.4753
1824.298, 151.8021
1826.227, 155.6888
1828.155, 158.6494
1830.084, 158.3078
1832.012, 152.0710
1833.941, 150.8232
1835.869, 154.5780
1837.798, 155.8628
1839.726, 154.7414
1841.655, 149.9296
1843.583, 147.5184
1845.511, 148.8278
1847.440, 154.0277
1849.368, 159.2946
1851.297, 153.7044
1853.225, 151.1572
1855.154, 158.0793
1857.082, 161.0369
1859.011, 158.9821
1860.939, 154.7983
1862.868, 149.6872
1864.796, 141.9860
1866.725, 142.0542
1868.653, 150.1310
1870.582, 153.2696
1872.510, 152.6693
1874.438, 147.3331
1876.367, 146.1391
1878.295, 151.6113
1880.224, 150.9224
1882.152, 146.9100
1884.081, 149.1960
1886.009, 149.4387
1887.938, 141.0108
1889.866, 136.4491
1891.795, 136.5729
1893.723, 142.2464
1895.652, 146.0098
1897.580, 140.4408
1899.509, 133.8616
1901.437, 128.1557
1903.365, 129.3521
1905.294, 132.7060
1907.222, 133.5832
1909.151, 135.6603
1911.079, 139.7711
1913.008, 144.9250
1914.936, 146.5448
1916.865, 134.1368
1918.793, 125.5352
1920.722, 129.0852
1922.650, 134.7504
1924.579, 138.9293
1926.507, 132.2395
1928.436, 127.8926
1930.364, 132.0099
1932.292, 127.5564
1934.221, 119.2988
1936.149, 126.8819
1938.078, 131.2370
1940.006, 121.3098
1941.935, 117.5797
1943.863, 119.7851
1945.792, 116.7893
1947.720, 115.1472
1949.649, 119.6665
1951.577, 119.1540
1953.506, 114.2640
1955.434, 116.9143
1957.363, 119.4257
1959.291, 116.1886
1961.219, 112.3873
1963.148, 109.3843
1965.076, 112.9531
1967.005, 116.4981
1968.933, 113.5847
1970.862, 111.5163
1972.790, 111.3006
1974.719, 111.5987
1976.647, 112.4224
1978.576, 115.4721
1980.504, 114.1647
1982.433, 108.8988
1984.361, 107.3414
1986.290, 107.1907
1988.218, 107.2880
1990.146, 104.5614
1992.075, 99.77030
1994.003, 100.8068
1995.932, 102.7826
1997.860, 100.7193
1999.789, 99.72569
2001.717, 100.1948
2003.646, 102.5156
2005.574, 103.3709
2007.503, 98.48435
2009.431, 95.32112
2011.360, 94.29487
2013.288, 95.38773
2015.217, 95.89590
2017.145, 93.46590
2019.073, 90.05796
2021.002, 87.44269
2022.930, 97.06729
2024.859, 102.7816
2026.787, 92.30033
2028.716, 90.47757
2030.644, 94.29392
2032.573, 88.10571
2034.501, 83.48011
2036.430, 86.03605
2038.358, 87.59008
2040.287, 88.10193
2042.215, 89.28290
2044.144, 88.75533
2046.072, 85.67345
2048.000, 85.83147
2049.929, 87.21159
2051.857, 87.25708
2053.786, 87.68914
2055.714, 88.40284
2057.643, 86.15051
2059.571, 83.52252
2061.500, 84.83531
2063.428, 85.23985
2065.357, 82.79217
2067.285, 79.94121
2069.214, 79.24146
2071.142, 81.84106
2073.071, 82.85060
2074.999, 82.30918
2076.927, 81.04028
2078.856, 79.89608
2080.784, 78.68580
2082.713, 75.06014
2084.641, 71.76507
2086.570, 73.47176
2088.498, 76.48272
2090.427, 79.56284
2092.355, 78.49616
2094.284, 76.10307
2096.212, 76.09586
2098.141, 75.58207
2100.069, 74.80225
2101.998, 77.22443
2103.926, 79.37841
2105.854, 78.52032
2107.783, 72.91968
2109.711, 68.61772
2111.640, 74.03410
2113.568, 78.32938
2115.497, 79.06260
2117.425, 78.41265
2119.354, 77.09520
2121.282, 73.84544
2123.211, 71.70094
2125.139, 71.32077
2127.068, 71.73611
2128.996, 71.87560
2130.925, 72.94774
2132.853, 75.22910
2134.781, 75.27596
2136.710, 70.73414
2138.638, 69.61506
2140.567, 74.25001
2142.495, 72.50337
2144.424, 68.10088
2146.352, 67.82169
2148.281, 69.03539
2150.209, 69.69727
2152.138, 67.48347
2154.066, 65.99673
2155.995, 64.84760
2157.923, 66.80124
2159.852, 70.19488
2161.780, 70.58250
2163.708, 72.28077
2165.637, 75.52389
2167.565, 73.73506
2169.494, 68.15765
2171.422, 60.69143
2173.351, 62.48508
2175.279, 68.37819
2177.208, 71.15077
2179.136, 71.66666
2181.065, 69.80137
2182.993, 68.49622
2184.922, 64.06947
2186.850, 57.00725
2188.779, 59.39841
2190.707, 64.74064
2192.635, 63.39165
2194.564, 63.46346
2196.492, 66.14772
2198.421, 67.04982
2200.349, 65.94453
2202.278, 62.52214
2204.206, 64.58691
2206.135, 67.41317
2208.063, 63.19184
2209.992, 62.00995
2211.920, 63.18842
2213.849, 63.48710
2215.777, 62.06077
2217.706, 63.15304
2219.634, 64.33112
2221.563, 63.62643
2223.491, 64.80530
2225.419, 64.83855
2227.348, 64.52913
2229.276, 63.28290
2231.205, 62.41917
2233.133, 62.47081
2235.062, 58.61270
2236.990, 58.65285
2238.919, 63.75618
2240.847, 62.28164
2242.776, 57.99693
2244.704, 57.96360
2246.633, 58.25814
2248.561, 59.38516
2250.490, 55.64799
2252.418, 53.87579
2254.346, 61.15829
2256.275, 63.26606
2258.203, 60.30613
2260.132, 57.71168
2262.060, 57.90208
2263.989, 59.68097
2265.917, 61.36608
2267.846, 61.08838
2269.774, 57.58754
2271.703, 59.38137
2273.631, 61.14156
2275.560, 58.35657
2277.488, 57.45443
2279.417, 56.15239
2281.345, 57.23708
2283.273, 60.28113
2285.202, 63.40309
2287.130, 58.61028
2289.059, 56.29721
2290.987, 58.04787
2292.916, 56.41464
2294.844, 56.83565
2296.773, 56.55785
2298.701, 57.30668
2300.630, 59.02953
2302.558, 58.26186
2304.487, 56.94076
2306.415, 53.86996
2308.344, 53.66282
2310.272, 53.46049
2312.200, 51.93050
2314.129, 52.02841
2316.057, 52.60067
2317.986, 51.10313
2319.914, 51.82274
2321.843, 54.37999
2323.771, 57.46876
2325.700, 54.28795
2327.628, 47.00625
2329.557, 50.96001
2331.485, 52.45602
2333.414, 49.47647
2335.342, 49.94353
2337.271, 51.31673
2339.199, 53.88490
2341.127, 52.52517
2343.056, 49.74111
2344.984, 48.43062
2346.913, 47.61843
2348.841, 45.38467
2350.770, 46.21967
2352.698, 46.63017
2354.627, 45.27125
2356.555, 46.79465
2358.484, 47.30621
2360.412, 44.68473
2362.341, 40.91320
2364.269, 40.08828
2366.198, 45.71658
2368.126, 46.15478
2370.054, 46.46508
2371.983, 51.70897
2373.911, 46.01503
2375.840, 39.05637
2377.768, 44.31031
2379.697, 46.94661
2381.625, 46.29274
2383.554, 43.34070
2385.482, 39.98862
2387.411, 38.68315
2389.339, 40.83841
2391.268, 42.69052
2393.196, 44.50509
2395.125, 44.74316
2397.053, 42.74731
2398.981, 38.22062
2400.910, 39.92979
2402.838, 41.81889
2404.767, 40.78282
2406.695, 39.22099
2408.624, 38.27360
2410.552, 37.92844
2412.481, 37.99566
2414.409, 38.00254
2416.338, 34.64955
2418.266, 34.83030
2420.195, 37.29678
2422.123, 36.09931
2424.052, 36.88483
2425.980, 38.71245
2427.908, 34.82414
2429.837, 33.35667
2431.765, 35.41611
2433.694, 33.77120
2435.622, 34.19348
2437.551, 38.07302
2439.479, 35.67404
2441.408, 33.82841
2443.336, 35.93026
2445.265, 36.10086
2447.193, 36.04400
2449.122, 37.15667
2451.050, 37.27621
2452.979, 36.63749
2454.907, 35.29937
2456.835, 34.24733
2458.764, 32.84547
2460.692, 29.70517
2462.621, 29.81950
2464.549, 32.32818
2466.478, 37.70176
2468.406, 35.29333
2470.335, 29.70028
2472.263, 28.46553
2474.192, 28.06061
2476.120, 29.14062
2478.049, 34.27563
2479.977, 33.94857
2481.906, 29.76356
2483.834, 32.87558
2485.762, 34.35871
2487.691, 32.53054
2489.619, 30.61796
2491.548, 30.32776
2493.476, 30.90403
2495.405, 28.93411
2497.333, 27.78318
2499.262, 28.81269
2501.190, 30.21347
2503.119, 30.02026
2505.047, 27.53272
2506.976, 28.47705
2508.904, 28.06324
2510.833, 25.57788
2512.761, 25.70608
2514.689, 25.76379
2516.618, 25.09702
2518.546, 25.33321
2520.475, 27.11560
2522.403, 28.07590
2524.332, 25.86213
2526.260, 26.71036
2528.189, 29.07326
2530.117, 26.51656
2532.046, 26.96935
2533.974, 31.84790
2535.903, 26.25318
2537.831, 23.88803
2539.760, 28.34628
2541.688, 25.21851
2543.616, 24.28440
2545.545, 26.49443
2547.473, 26.13557
2549.402, 26.23441
2551.330, 24.90465
2553.259, 22.93169
2555.187, 24.25415
2557.116, 24.63288
2559.044, 22.44349
2560.973, 22.29176
2562.901, 23.43900
2564.830, 23.98067
2566.758, 25.08125
2568.687, 27.03785
2570.615, 27.26175
2572.543, 24.36899
2574.472, 21.79358
2576.400, 20.34341
2578.329, 22.14024
2580.257, 25.23530
2582.186, 19.47777
2584.114, 20.27670
2586.043, 24.76900
2587.971, 24.47741
2589.900, 22.31781
2591.828, 20.52428
2593.757, 19.63450
2595.685, 19.40144
2597.614, 20.55782
2599.542, 23.41632
2601.470, 23.28006
2603.399, 20.97447
2605.327, 18.95507
2607.256, 17.62182
2609.184, 20.47914
2611.113, 23.36169
2613.041, 22.20413
2614.970, 18.58727
2616.898, 19.59297
2618.827, 22.60943
2620.755, 20.80140
2622.684, 17.69163
2624.612, 18.97055
2626.541, 19.88095
2628.469, 16.02246
2630.397, 16.98150
2632.326, 18.99334
2634.254, 17.45591
2636.183, 18.33782
2638.111, 18.69690
2640.040, 17.29782
2641.968, 18.89353
2643.897, 19.05585
2645.825, 17.35275
2647.754, 18.07786
2649.682, 17.88215
2651.611, 16.35001
2653.539, 15.13470
2655.468, 16.06934
2657.396, 15.44109
2659.324, 16.93433
2661.253, 20.07422
2663.181, 20.71334
2665.110, 16.78642
2667.038, 15.36606
2668.967, 16.93259
2670.895, 15.40562
2672.824, 18.20449
2674.752, 17.70086
2676.681, 16.77511
2678.609, 18.49173
2680.538, 16.81110
2682.466, 16.96112
2684.395, 16.74636
2686.323, 15.98619
2688.251, 16.82367
2690.180, 19.26148
2692.108, 17.31419
2694.037, 15.57035
2695.965, 18.21386
2697.894, 21.92927
2699.822, 15.50295
2701.751, 13.53035
2703.679, 15.25143
2705.608, 16.86524
2707.536, 17.52582
2709.465, 15.95939
2711.393, 13.88303
2713.322, 14.26318
2715.250, 16.11670
2717.178, 15.45921
2719.107, 14.85102
2721.035, 14.04787
2722.964, 14.32044
2724.892, 14.16735
2726.821, 16.44291
2728.749, 18.27653
2730.678, 15.90890
2732.606, 15.21495
2734.535, 18.00857
2736.463, 18.96495
2738.392, 14.28356
2740.320, 11.82736
2742.249, 14.81854
2744.177, 12.87965
2746.105, 10.78584
2748.034, 12.02216
2749.962, 9.977899
2751.891, 11.05119
2753.819, 16.49043
2755.748, 16.84861
2757.676, 15.25775
2759.605, 13.93647
2761.533, 14.22361
2763.462, 12.67354
2765.390, 13.94573
2767.319, 16.70143
2769.247, 16.30755
2771.176, 13.23035
2773.104, 12.41937
2775.032, 12.13484
2776.961, 12.11341
2778.889, 12.47173
2780.818, 11.89142
2782.746, 14.18049
2784.675, 17.04136
2786.603, 13.82395
2788.532, 14.29463
2790.460, 13.50633
2792.389, 10.98172
2794.317, 11.01021
2796.246, 10.93046
2798.174, 10.36326
2800.103, 9.959743
2802.031, 12.37170
2803.959, 13.78562
2805.888, 9.579556
2807.816, 13.04437
2809.745, 15.02920
2811.673, 11.82542
2813.602, 10.84575
2815.530, 11.55342
2817.459, 12.31317
2819.387, 11.40495
2821.316, 10.80675
2823.244, 12.53884
2825.173, 13.70868
2827.101, 10.90457
2829.030, 10.22298
2830.958, 10.70430
2832.886, 7.887660
2834.815, 9.161320
2836.743, 11.36128
2838.672, 9.653060
2840.600, 9.501413
2842.529, 10.02068
2844.457, 10.14970
2846.386, 9.520430
2848.314, 11.24978
2850.243, 12.83441
2852.171, 10.12040
2854.100, 13.35471
2856.028, 14.64639
2857.957, 9.082315
2859.885, 9.378227
2861.813, 11.55139
2863.742, 13.86659
2865.670, 14.55755
2867.599, 10.69063
2869.527, 8.914710
2871.456, 12.90620
2873.384, 12.88466
2875.313, 10.71848
2877.241, 9.262097
2879.170, 12.66199
2881.098, 12.65341
2883.027, 11.72358
2884.955, 11.88885
2886.884, 11.08680
2888.812, 10.71287
2890.740, 10.65396
2892.669, 9.441398
2894.597, 9.577492
2896.526, 10.60054
2898.454, 11.75099
2900.383, 7.727064
2902.311, 9.273133
2904.240, 13.90401
2906.168, 10.31174
2908.097, 13.34362
2910.025, 15.36202
2911.954, 11.56109
2913.882, 7.766007
2915.811, 9.914540
2917.739, 14.10933
2919.667, 12.42456
2921.596, 11.69128
2923.524, 11.13748
2925.453, 10.68531
2927.381, 10.09884
2929.310, 11.01912
2931.238, 11.61425
2933.167, 10.72137
2935.095, 9.505827
2937.024, 9.156077
2938.952, 10.09726
2940.881, 13.46619
2942.809, 14.91009
2944.738, 13.01739
2946.666, 7.785794
2948.594, 7.067272
2950.523, 7.203476
2952.451, 8.391685
2954.380, 11.22140
2956.308, 10.56861
2958.237, 10.09992
2960.165, 10.75404
2962.094, 12.29080
2964.022, 10.13248
2965.951, 7.355688
2967.879, 8.674271
2969.808, 11.76174
2971.736, 14.36217
2973.665, 13.76341
2975.593, 11.32635
2977.521, 8.806078
2979.450, 8.372105
2981.378, 10.02940
2983.307, 9.830538
2985.235, 9.732203
2987.164, 9.563251
2989.092, 10.81314
2991.021, 11.58359
2992.949, 10.83244
2994.878, 7.803857
2996.806, 7.358634
2998.735, 10.89415
3000.663, 11.56367
3002.592, 8.645804
3004.520, 8.691438
3006.448, 9.243358
3008.377, 9.367233
3010.305, 10.50821
3012.234, 8.897166
3014.162, 9.694752
3016.091, 11.08632
3018.019, 9.787612
3019.948, 7.363143
3021.876, 6.952420
3023.805, 8.509762
3025.733, 8.962027
3027.662, 8.574447
3029.590, 7.174674
3031.519, 7.945558
3033.447, 11.23793
3035.375, 15.61035
3037.304, 16.95415
3039.232, 12.36385
3041.161, 9.735127
3043.089, 12.24409
3045.018, 14.45033
3046.946, 9.049001
3048.875, 10.52091
3050.803, 12.06824
3052.732, 13.26630
3054.660, 8.839412
3056.589, 12.33079
3058.517, 14.16421
3060.446, 10.32964
3062.374, 13.08865
3064.302, 12.39544
3066.231, 11.93653
3068.159, 14.35675
3070.088, 13.61465
3072.016, 13.45148
3073.945, 10.51569
3075.873, 6.063602
3077.802, 11.27037
3079.730, 15.17491
3081.659, 15.37151
3083.587, 14.59845
3085.516, 15.09185
3087.444, 13.55819
3089.373, 12.99524
3091.301, 13.10274
3093.229, 12.16734
3095.158, 14.86986
3097.086, 18.38037
3099.015, 14.21006
3100.943, 13.74610
3102.872, 14.71552
3104.800, 13.62843
3106.729, 13.83662
3108.657, 12.45195
3110.586, 11.72021
3112.514, 10.45723
3114.443, 13.00539
3116.371, 15.48654
3118.300, 16.73303
3120.228, 16.82514
3122.156, 18.36955
3124.085, 16.08937
3126.013, 13.70132
3127.942, 13.29153
3129.870, 12.29848
3131.799, 16.62751
3133.727, 19.55914
3135.656, 19.15727
3137.584, 20.57290
3139.513, 16.63172
3141.441, 14.34859
3143.370, 15.60823
3145.298, 19.66814
3147.227, 17.57546
3149.155, 15.67428
3151.083, 18.00825
3153.012, 23.25819
3154.940, 15.18576
3156.869, 13.31066
3158.797, 16.93854
3160.726, 18.56146
3162.654, 17.90593
3164.583, 19.25342
3166.511, 21.02457
3168.440, 18.87859
3170.368, 20.66178
3172.297, 19.86304
3174.225, 17.41149
3176.154, 23.12129
3178.082, 23.55562
3180.010, 19.86828
3181.939, 17.21170
3183.867, 22.87191
3185.796, 22.39662
3187.724, 24.64703
3189.653, 26.70543
3191.581, 25.04548
3193.510, 24.74461
3195.438, 27.27708
3197.367, 28.53450
3199.295, 26.28037
3201.224, 22.59331
3203.152, 17.02826
3205.081, 18.53805
3207.009, 25.63687
3208.938, 24.83776
3210.866, 25.32193
3212.794, 25.24393
3214.723, 26.30314
3216.651, 27.30303
3218.580, 25.81384
3220.508, 25.27877
3222.437, 24.50033
3224.365, 22.23923
3226.294, 22.47285
3228.222, 27.32754
3230.151, 29.14269
3232.079, 27.26837
3234.008, 29.37832
3235.936, 28.61009
3237.865, 28.07794
3239.793, 29.94327
3241.721, 31.47202
3243.650, 31.55599
3245.578, 30.03913
3247.507, 27.43439
3249.435, 24.38356
3251.364, 32.15841
3253.292, 32.28547
3255.221, 31.94638
3257.149, 36.19123
3259.078, 30.15159
3261.006, 32.02400
3262.935, 35.31194
3264.863, 35.71270
3266.792, 36.85386
3268.720, 29.07092
3270.648, 30.65793
3272.577, 35.81749
3274.505, 32.31960
3276.434, 30.77490
3278.362, 28.10399
3280.291, 29.47919
3282.219, 33.52798
3284.148, 30.54527
3286.076, 30.84464
3288.005, 31.50440
3289.933, 30.86029
3291.862, 28.99058
3293.790, 29.26192
3295.719, 35.32598
3297.647, 36.25680
3299.575, 29.12692
3301.504, 31.68715
3303.432, 33.53385
3305.361, 30.03548
3307.289, 26.99250
3309.218, 34.33537
3311.146, 34.33847
3313.075, 31.76306
3315.003, 29.33132
3316.932, 28.46298
3318.860, 30.23905
3320.789, 34.97012
3322.717, 36.14290
3324.646, 32.95296
3326.574, 27.58321
3328.502, 24.45993
3330.431, 27.88099
3332.359, 28.75805
3334.288, 26.62312
3336.216, 29.52427
3338.145, 29.47305
3340.073, 33.25807
3342.002, 32.79465
3343.930, 26.10956
3345.859, 35.90225
3347.787, 33.26327
3349.716, 32.12788
3351.644, 33.07243
3353.573, 30.08926
3355.501, 27.97215
3357.429, 30.03031
3359.358, 38.43402
3361.286, 43.68938
3363.215, 29.33831
3365.143, 22.96882
3367.072, 30.51460
3369.000, 33.47797
3370.929, 25.60176
3372.857, 26.97261
3374.786, 31.08181
3376.714, 33.82844
3378.643, 33.46372
3380.571, 31.22236
3382.500, 35.33112
3384.428, 26.30011
3386.356, 22.79408
3388.285, 27.18382
3390.213, 32.53047
3392.142, 20.85649
3394.070, 26.21977
3395.999, 30.57172
3397.927, 31.89602
3399.856, 39.59567
3401.784, 36.83947
3403.713, 38.18895
3405.641, 34.13378
3407.570, 26.54330
3409.498, 27.53763
3411.427, 34.52076
3413.355, 32.82938
3415.283, 29.47620
3417.212, 29.11885
3419.140, 30.47017
3421.069, 32.34291
3422.997, 30.25694
3424.926, 32.26481
3426.854, 36.28746
3428.783, 31.43348
3430.711, 31.01340
3432.640, 29.54120
3434.568, 27.53759
3436.497, 26.50709
3438.425, 27.24577
3440.354, 25.34050
3442.282, 23.28927
3444.210, 26.01822
3446.139, 28.93944
3448.067, 23.66635
3449.996, 32.00044
3451.924, 29.07181
3453.853, 25.70567
3455.781, 24.98945
3457.710, 22.65763
3459.638, 29.04337
3461.567, 20.31631
3463.495, 21.07419
3465.424, 26.45161
3467.352, 20.74637
3469.281, 15.95177
3471.209, 25.29480
3473.137, 23.45620
3475.066, 16.09597
3476.994, 16.23120
3478.923, 23.39510
3480.851, 24.31524
3482.780, 23.24720
3484.708, 21.52279
3486.637, 19.27442
3488.565, 16.85732
3490.494, 17.13152
3492.422, 11.75509
3494.351, 16.31360
3496.279, 27.29865
3498.208, 24.54116
3500.136, 18.48440
3502.064, 20.18490
3503.993, 21.88934
3505.921, 22.39006
3507.850, 23.86330
3509.778, 23.51502
3511.707, 20.24850
3513.635, 20.67293
3515.564, 21.81627
3517.492, 22.67366
3519.421, 26.92933
3521.349, 18.34486
3523.278, 20.89052
3525.206, 24.18811
3527.135, 22.45701
3529.063, 18.00207
3530.991, 15.40501
3532.920, 14.09360
3534.848, 13.61330
3536.777, 16.77287
3538.705, 20.99285
3540.634, 17.40973
3542.562, 14.81513
3544.491, 12.37816
3546.419, 13.71917
3548.348, 15.18167
3550.276, 13.04639
3552.205, 15.17770
3554.133, 17.40042
3556.062, 16.15850
3557.990, 14.86068
3559.918, 16.10996
3561.847, 19.45392
3563.775, 15.60241
3565.704, 17.51364
3567.632, 14.01149
3569.561, 13.34415
3571.489, 18.25629
3573.418, 11.96647
3575.346, 11.21125
3577.275, 15.56640
3579.203, 20.88211
3581.132, 21.32668
3583.060, 16.25475
3584.989, 15.32630
3586.917, 13.15009
3588.845, 10.80544
3590.774, 12.02612
3592.702, 12.00191
3594.631, 5.903838
3596.559, 4.777673
3598.488, 14.08647
3600.416, 10.63442
3602.345, 7.639282
3604.273, 7.496097
3606.202, 3.908970
3608.130, 7.795351
3610.059, 8.131318
3611.987, 5.651907
3613.916, 5.851585
3615.844, 6.810425
3617.772, 5.454336
3619.701, 13.47520
3621.629, 9.334000
3623.558, 3.548748
3625.486, 4.127819
3627.415, 3.786806
3629.343, -3.633116
3631.272, 2.493820
3633.200, 6.262722
3635.129, 3.771748
3637.057, 5.254515
3638.986, 8.228286
3640.914, 6.679131
3642.843, 5.800290
3644.771, 5.689827
3646.699, 6.263200
3648.628, 3.219031
3650.556, 1.779992
3652.485, 4.766720
3654.413, 5.708903
3656.342, 4.288060
3658.270, 2.490894
3660.199, 6.212240
3662.127, 7.351845
3664.056, 3.451266
3665.984, 1.062540
3667.913, 2.151584
3669.841, 6.512690
3671.770, 6.336361
3673.698, 6.462943
3675.626, 7.470663
3677.555, 7.785980
3679.483, 10.26649
3681.412, 10.48649
3683.340, 5.618364
3685.269, 0.4196434
3687.197, 3.161587
3689.126, 8.979079
3691.054, 5.971958
3692.983, 4.615798
3694.911, 7.998244
3696.840, 6.264250
3698.768, 5.673954
3700.697, 4.639350
3702.625, 0.8988813
3704.553, 0.5252666
3706.482, 8.676805
3708.410, 4.558424
3710.339, 5.166362
3712.267, 6.400026
3714.196, 4.006967
3716.124, 1.106739
3718.053, 3.491267
3719.981, 4.520034
3721.910, 5.702800
3723.838, 5.456949
3725.767, 1.538723
3727.695, -1.426302
3729.624, 1.832079
3731.552, 3.728862
3733.480, 2.817931
3735.409, 5.027608
3737.337, 4.823804
3739.266, 4.123527
3741.194, 3.597605
3743.123, 0.8739164
3745.051, -2.812181
3746.980, 0.8173522
3748.908, 2.470640
3750.837, 3.306760
3752.765, 4.493353
3754.694, 4.171365
3756.622, 2.135461
3758.551, 3.818921
3760.479, 2.504754
3762.407, 0.4940311
3764.336, 7.4042723E-02
3766.264, 2.530299
3768.193, 4.859302
3770.121, 4.909595
3772.050, 4.955368
3773.978, 3.136178
3775.907, 3.751183
3777.835, 3.429459
3779.764, 2.689259
3781.692, 1.127259
3783.621, 0.2898260
3785.549, 2.852829
3787.478, 4.798872
3789.406, 3.059883
3791.334, 4.819772
3793.263, 6.298959
3795.191, 8.339254
3797.120, 4.970147
3799.048, -2.147532
3800.977, 3.494932
3802.905, 5.162627
3804.834, 0.6507500
3806.762, 3.808017
3808.691, 1.118006
3810.619, 1.508970
3812.548, 5.639374
3814.476, 5.153857
3816.405, 6.086106
3818.333, 1.695418
3820.261, 1.935995
3822.190, 4.7048330E-02
3824.118, 3.325776
3826.047, 4.404236
3827.975, 2.382832
3829.904, 3.919778
3831.832, 3.954279
3833.761, 3.692221
3835.689, 6.158809
3837.618, 7.172173
3839.546, 6.272751
3841.475, 3.969345
3843.403, 1.570528
3845.332, 1.179152
3847.260, 4.759690
3849.188, 1.435152
3851.117, 1.754584
3853.045, 0.6462399
3854.974, 8.909135
3856.902, 9.248936
3858.831, 4.456027
3860.759, 2.929935
3862.688, -2.394102
3864.616, 3.568419
3866.545, 0.1908980
3868.473, 4.780067
3870.402, 3.457998
3872.330, 2.825740
3874.259, 1.265534
3876.187, 1.705838
3878.115, 7.757742
3880.044, 7.121158
3881.972, 5.326627
3883.901, 4.314180
3885.829, 3.084968
3887.758, 3.928529
3889.686, 6.664497
3891.615, 4.369342
3893.543, 1.112325
3895.472, 3.662341
3897.400, -1.904410
3899.329, 4.352295
3901.257, 2.645881
3903.186, 1.776312
3905.114, 3.791073
3907.042, 1.664108
3908.971, -1.097044
3910.899, -0.8056508
3912.828, -0.2776068
3914.756, 0.1767722
3916.685, 10.57431
3918.613, 3.345566
3920.542, 4.958730
3922.470, 5.460258
3924.399, 9.258237
3926.327, 9.498478
3928.256, 4.981506
3930.184, 1.772342
3932.113, 2.545958
3934.041, 8.147922
3935.969, -0.2068951
3937.898, 3.667489
3939.826, 6.000094
3941.755, 5.352431
3943.683, 1.729384
3945.612, 1.224942
3947.540, 2.630857
3949.469, 2.221976
3951.397, 4.030941
3953.326, 6.036567
3955.254, 4.672388
3957.183, 0.7651552
3959.111, 0.4805146
3961.040, 2.760781
3962.968, 0.6587285
3964.896, 0.3065648
3966.825, 1.609814
3968.753, 1.491999
3970.682, 2.744945
3972.610, -0.7765300
3974.539, 0.7312323
3976.467, 1.485546
3978.396, 6.005152
3980.324, 0.7356340
3982.253, -2.641449
3984.181, 0.2450970
3986.110, 3.159381
3988.038, 5.047351
3989.967, 6.203353
3991.895, 5.004476
3993.823, 14.32137
3995.752, 3.729071
3997.680, -0.6651374
3999.609, 0.7301854
4001.537, -1.290668
4003.466, 5.032962
4005.394, 1.482056
4007.323, -6.3971907E-02
4009.251, 3.418802
4011.180, 0.2718011
4013.108, -0.6524099
4015.037, 8.885702
4016.965, 5.546426
4018.894, 5.157274
4020.822, 5.573905
4022.750, 1.382221
4024.679, 7.007073
4026.607, 0.9637123
4028.536, 1.765938
4030.464, 4.724657
4032.393, -0.5172625
4034.321, -2.054086
4036.250, 4.195166
4038.178, 5.017731
4040.107, 0.2339124
4042.035, 2.437314
4043.964, 5.917013
4045.892, 3.808464
4047.821, 3.923634
4049.749, 4.041276
4051.677, 1.254514
4053.606, -2.832021
4055.534, -0.1785738
4057.463, 7.204820
4059.391, 5.347480
4061.320, -3.703890
4063.248, 5.961080
4065.177, 1.282794
4067.105, 4.741978
4069.034, 4.983192
4070.962, -0.8312038
4072.891, 5.5767920E-02
4074.819, 1.044819
4076.748, 0.9261647
4078.676, 1.983093
4080.604, -0.2611691
4082.533, 0.4031938
4084.461, 6.054809
4086.390, 3.970515
4088.318, 0.9201472
4090.247, -1.977748
4092.175, -0.4212955
4094.104, 3.709889
4096.032, 2.554687
4097.961, 10.65585
4099.889, 3.728927
4101.818, 9.423989
4103.746, 9.721586
4105.675, 7.671012
4107.603, 2.442887
4109.532, 2.292256
4111.460, 3.940537
4113.389, -2.322612
4115.317, -0.2071990
4117.246, 7.364138
4119.174, 5.416230
4121.103, 2.424796
4123.031, -4.6270609E-02
4124.959, 3.374423
4126.888, 5.799489
4128.816, 7.249456
4130.745, 7.450317
4132.673, 1.344016
4134.602, 6.175594
4136.530, 1.571220
4138.458, 0.5812802
4140.387, 5.304101
4142.315, 5.722967
4144.244, 3.885407
4146.172, 0.1448541
4148.101, 4.485790
4150.029, 10.74340
4151.958, 0.1996851
4153.886, 7.908665
4155.815, 8.517110
4157.743, 8.780872
4159.672, 5.579042
4161.600, 8.694665
4163.529, 1.991000
4165.457, 2.050192
4167.386, 4.278981
4169.314, 1.414396
4171.243, 6.486987
4173.171, 5.399559
4175.100, 2.066183
4177.028, 2.260981
4178.957, 4.272233
4180.885, 7.432344
4182.813, 4.844966
4184.742, 7.500621
4186.670, 6.170030
4188.599, 2.211733
4190.527, 1.103783
4192.456, 5.281097
4194.384, 1.189257
4196.313, 6.030639
4198.241, 2.105453
4200.169, 10.16543
4202.098, 2.708945
4204.026, -1.133877
4205.955, 0.4955643
4207.883, 5.999812
4209.812, 6.131795
4211.740, 1.168542
4213.669, 3.766185
4215.597, 4.020381
4217.526, 3.966928
4219.454, 6.483658
4221.383, 6.847650
4223.311, 5.336766
4225.240, 2.291710
4227.168, 1.488796
4229.097, 0.9185567
4231.025, 5.917706
4232.954, 5.078170
4234.882, 10.20435
4236.811, 3.692550
4238.739, 7.598330
4240.667, 2.501627
4242.596, 4.042733
4244.524, 5.371890
4246.453, 4.426208
4248.381, 5.352639
4250.310, 4.799139
4252.238, 2.683260
4254.167, 2.178946
4256.095, 1.567701
4258.023, 6.930457
4259.952, 1.752044
4261.880, -0.6722366
4263.809, 1.302585
##END=



