##NAMES=Phenakite
##RRUFFID=R040046
##IDEAL CHEMISTRY=Be_2_(SiO_4_)
##LOCALITY=San Miguel de Piracicaba, Minas Gerais, Brazil
##OWNER=RRUFF
##SOURCE=University of Arizona Mineral Museum
##DESCRIPTION=Colorless crystal fragments
##STATUS=The identification of this mineral has been confirmed by X-ray diffraction and chemical analysis
##URL=https://www.rruff.net/odr/rruff_sample/R040046
##MEASURED CHEMISTRY=Be_2.02_Si_0.99_O_4_
##DIFFRACTION SAMPLE DESCRIPTION=Powder
##CELL PARAMETERS=a: 12.471 b: 12.471 c: 8.251 alpha: 90 beta: 90 gamma: 120 volume: 1111.33 crystal system: hexagonal
##FILETYPE=Raman RAW
##RAMAN WAVELENGTH=532

143.9031, 2657.602
145.8315, 2749.658
147.7600, 2827.803
149.6885, 2913.721
151.6169, 3048.861
153.5454, 3274.829
155.4739, 3496.257
157.4023, 3683.820
159.3308, 3866.122
161.2593, 3952.203
163.1877, 3884.135
165.1162, 3702.349
167.0447, 3553.354
168.9731, 3452.825
170.9016, 3387.332
172.8301, 3351.098
174.7585, 3360.456
176.6870, 3379.917
178.6155, 3411.202
180.5439, 3451.844
182.4724, 3484.253
184.4009, 3499.207
186.3293, 3506.557
188.2578, 3519.556
190.1863, 3542.222
192.1147, 3565.971
194.0432, 3587.587
195.9717, 3606.097
197.9001, 3629.686
199.8286, 3653.069
201.7571, 3682.567
203.6855, 3726.055
205.6140, 3756.981
207.5425, 3832.238
209.4709, 3958.228
211.3994, 4001.792
213.3279, 4312.250
215.2563, 5217.212
217.1848, 6460.181
219.1133, 7265.327
221.0417, 7312.030
222.9702, 7034.224
224.8987, 6662.183
226.8271, 6081.922
228.7556, 5551.825
230.6841, 5106.840
232.6125, 4738.017
234.5410, 4440.313
236.4695, 4225.536
238.3979, 4073.891
240.3264, 3983.451
242.2549, 3967.343
244.1833, 3977.587
246.1118, 4007.924
248.0403, 4058.589
249.9687, 4105.720
251.8972, 4161.197
253.8257, 4208.285
255.7541, 4223.479
257.6826, 4194.331
259.6111, 4159.934
261.5395, 4127.886
263.4680, 4088.657
265.3965, 4088.124
267.3249, 4120.118
269.2534, 4192.934
271.1819, 4320.768
273.1103, 4575.743
275.0388, 4779.672
276.9673, 4871.227
278.8957, 4804.803
280.8242, 4710.569
282.7527, 4541.266
284.6811, 4356.714
286.6096, 4236.377
288.5381, 4220.005
290.4665, 4232.968
292.3950, 4254.514
294.3235, 4294.429
296.2519, 4314.893
298.1804, 4297.646
300.1089, 4262.718
302.0373, 4239.400
303.9658, 4231.492
305.8943, 4235.398
307.8227, 4256.335
309.7512, 4300.021
311.6797, 4334.314
313.6081, 4347.365
315.5366, 4348.876
317.4651, 4354.578
319.3935, 4367.917
321.3220, 4380.906
323.2505, 4390.385
325.1789, 4395.958
327.1074, 4401.878
329.0359, 4409.009
330.9643, 4417.967
332.8928, 4429.910
334.8213, 4426.730
336.7497, 4445.595
338.6782, 4509.319
340.6067, 4616.391
342.5351, 4724.015
344.4636, 4859.464
346.3921, 4982.009
348.3205, 5028.751
350.2490, 4928.846
352.1775, 4824.808
354.1059, 4748.322
356.0344, 4695.801
357.9629, 4655.176
359.8913, 4625.524
361.8198, 4606.790
363.7483, 4600.728
365.6767, 4598.345
367.6052, 4619.600
369.5337, 4649.376
371.4621, 4692.349
373.3906, 4832.029
375.3191, 5143.303
377.2475, 5517.217
379.1760, 5907.763
381.1045, 6453.197
383.0329, 6759.810
384.9614, 6570.661
386.8899, 6017.600
388.8183, 5552.154
390.7468, 5211.501
392.6753, 4961.725
394.6037, 4809.335
396.5322, 4771.612
398.4607, 4756.867
400.3891, 4759.143
402.3176, 4772.966
404.2461, 4786.515
406.1745, 4806.045
408.1030, 4819.684
410.0315, 4818.388
411.9599, 4800.557
413.8884, 4789.738
415.8169, 4787.356
417.7453, 4795.790
419.6738, 4820.129
421.6023, 4869.147
423.5307, 4926.012
425.4592, 4988.267
427.3877, 5055.653
429.3161, 5125.157
431.2446, 5121.836
433.1731, 5167.884
435.1015, 5355.998
437.0300, 5833.484
438.9585, 6301.261
440.8869, 6899.493
442.8154, 7488.025
444.7439, 7678.527
446.6723, 7159.809
448.6008, 6498.355
450.5293, 5951.258
452.4577, 5522.758
454.3862, 5226.740
456.3147, 5122.802
458.2431, 5141.335
460.1716, 5170.819
462.1000, 5228.998
464.0285, 5268.270
465.9570, 5264.950
467.8854, 5209.277
469.8139, 5174.215
471.7424, 5156.460
473.6708, 5159.381
475.5993, 5190.782
477.5278, 5266.427
479.4562, 5321.400
481.3847, 5341.615
483.3132, 5331.661
485.2416, 5308.902
487.1701, 5259.021
489.0986, 5212.604
491.0270, 5182.271
492.9555, 5167.467
494.8840, 5160.806
496.8124, 5158.357
498.7409, 5163.810
500.6694, 5183.455
502.5978, 5223.003
504.5263, 5264.341
506.4548, 5296.282
508.3832, 5324.152
510.3117, 5367.673
512.2402, 5365.456
514.1686, 5432.723
516.0971, 5641.000
518.0256, 6046.770
519.9540, 6419.208
521.8825, 6885.643
523.8110, 7246.934
525.7394, 7293.868
527.6679, 6816.896
529.5964, 6344.084
531.5248, 5969.764
533.4533, 5696.666
535.3818, 5506.612
537.3102, 5437.005
539.2387, 5411.087
541.1672, 5390.145
543.0956, 5371.517
545.0241, 5363.822
546.9526, 5377.195
548.8810, 5397.224
550.8095, 5403.357
552.7380, 5387.159
554.6664, 5377.923
556.5949, 5392.125
558.5234, 5422.629
560.4518, 5445.526
562.3803, 5448.546
564.3088, 5453.196
566.2372, 5464.783
568.1657, 5482.251
570.0942, 5513.701
572.0226, 5585.891
573.9511, 5656.861
575.8796, 5690.804
577.8080, 5671.356
579.7365, 5643.747
581.6650, 5607.428
583.5934, 5569.357
585.5219, 5547.967
587.4504, 5529.232
589.3788, 5544.550
591.3073, 5618.219
593.2358, 5747.314
595.1642, 5869.459
597.0927, 6024.633
599.0212, 6139.865
600.9496, 6143.833
602.8781, 5993.452
604.8066, 5880.542
606.7350, 5839.526
608.6635, 5851.051
610.5920, 5896.333
612.5204, 6029.058
614.4489, 6113.736
616.3774, 6106.512
618.3058, 6017.874
620.2343, 5930.989
622.1628, 5830.153
624.0912, 5746.644
626.0197, 5698.014
627.9482, 5684.283
629.8766, 5675.083
631.8051, 5669.622
633.7336, 5667.928
635.6620, 5671.022
637.5905, 5680.702
639.5190, 5694.443
641.4474, 5710.030
643.3759, 5729.398
645.3044, 5754.127
647.2328, 5782.716
649.1613, 5813.268
651.0898, 5843.998
653.0182, 5873.896
654.9467, 5903.064
656.8752, 5932.332
658.8036, 5962.330
660.7321, 5999.458
662.6606, 6044.555
664.5891, 6082.038
666.5175, 6117.802
668.4460, 6142.545
670.3745, 6143.313
672.3029, 6093.264
674.2314, 6080.940
676.1599, 6116.368
678.0883, 6186.700
680.0168, 6284.236
681.9453, 6432.099
683.8737, 6540.140
685.8022, 6589.075
687.7307, 6588.709
689.6591, 6557.299
691.5876, 6443.497
693.5161, 6360.421
695.4445, 6346.189
697.3730, 6384.521
699.3015, 6430.291
701.2299, 6508.872
703.1584, 6556.219
705.0869, 6541.643
707.0153, 6455.075
708.9438, 6368.837
710.8723, 6263.827
712.8007, 6175.316
714.7292, 6131.859
716.6577, 6132.308
718.5861, 6144.320
720.5146, 6162.211
722.4431, 6189.137
724.3715, 6228.966
726.3000, 6297.295
728.2285, 6352.813
730.1569, 6397.562
732.0854, 6425.178
734.0139, 6425.680
735.9423, 6390.658
737.8708, 6352.755
739.7993, 6313.430
741.7277, 6278.917
743.6562, 6265.427
745.5847, 6300.643
747.5131, 6329.171
749.4416, 6330.007
751.3701, 6313.949
753.2985, 6325.075
755.2270, 6362.095
757.1555, 6429.646
759.0839, 6543.045
761.0124, 6698.133
762.9409, 6828.226
764.8693, 6897.879
766.7978, 6970.041
768.7263, 7067.320
770.6547, 7191.688
772.5832, 7339.107
774.5117, 7577.164
776.4401, 7777.034
778.3686, 7857.646
780.2971, 7807.729
782.2255, 7749.800
784.1540, 7724.054
786.0825, 7679.717
788.0109, 7568.519
789.9394, 7346.858
791.8679, 7172.439
793.7963, 7048.109
795.7248, 6982.111
797.6533, 6986.461
799.5817, 7078.231
801.5102, 7166.980
803.4387, 7256.873
805.3671, 7323.252
807.2956, 7334.670
809.2241, 7238.540
811.1525, 7152.963
813.0810, 7076.656
815.0095, 7014.779
816.9379, 6971.799
818.8664, 6947.090
820.7949, 6943.822
822.7233, 6974.144
824.6518, 7025.221
826.5803, 7075.354
828.5087, 7115.434
830.4371, 7169.140
832.3656, 7245.377
834.2941, 7336.599
836.2225, 7430.873
838.1510, 7547.054
840.0795, 7622.969
842.0079, 7610.155
843.9364, 7542.430
845.8649, 7494.811
847.7933, 7462.250
849.7218, 7461.527
851.6503, 7483.518
853.5787, 7539.849
855.5072, 7653.746
857.4357, 7716.230
859.3641, 7988.858
861.2926, 8405.555
863.2211, 9107.656
865.1495, 10320.66
867.0780, 11256.06
869.0065, 14156.96
870.9349, 20589.11
872.8634, 29636.60
874.7919, 37312.87
876.7203, 46802.06
878.6488, 51528.32
880.5773, 47399.14
882.5057, 37317.46
884.4342, 28542.57
886.3627, 21122.82
888.2911, 15502.05
890.2196, 12161.19
892.1481, 10675.62
894.0765, 9588.001
896.0050, 9111.606
897.9335, 8804.892
899.8619, 8623.053
901.7904, 8565.009
903.7189, 8599.082
905.6473, 8686.371
907.5758, 8930.529
909.5043, 9457.380
911.4327, 10159.42
913.3612, 10843.09
915.2897, 11603.79
917.2181, 12170.31
919.1466, 12535.12
921.0751, 12671.72
923.0035, 12476.09
924.9320, 11740.08
926.8605, 11049.93
928.7889, 10406.14
930.7174, 9919.982
932.6459, 9760.987
934.5743, 10038.75
936.5028, 10342.78
938.4313, 10453.98
940.3597, 10560.09
942.2882, 10934.06
944.2167, 11854.96
946.1451, 12656.78
948.0736, 13613.46
950.0021, 14302.37
951.9305, 14034.79
953.8590, 12657.39
955.7875, 11324.91
957.7159, 10177.12
959.6444, 9263.270
961.5729, 8638.299
963.5013, 8357.812
965.4298, 8156.124
967.3583, 8023.463
969.2867, 7932.757
971.2152, 7867.772
973.1437, 7832.942
975.0721, 7815.615
977.0006, 7829.475
978.9291, 7849.691
980.8575, 7855.228
982.7860, 7848.408
984.7145, 7860.842
986.6429, 7902.929
988.5714, 7960.062
990.4999, 8037.763
992.4283, 8139.198
994.3568, 8200.107
996.2853, 8169.379
998.2137, 8157.594
1000.142, 8195.832
1002.071, 8284.029
1003.999, 8407.720
1005.928, 8570.737
1007.856, 8757.495
1009.785, 8963.586
1011.713, 9186.736
1013.641, 9442.632
1015.570, 9809.958
1017.498, 10033.60
1019.427, 10044.47
1021.355, 9900.168
1023.284, 9679.790
1025.212, 9305.983
1027.141, 8976.502
1029.069, 8680.020
1030.998, 8441.483
1032.926, 8303.311
1034.855, 8267.969
1036.783, 8231.533
1038.712, 8159.441
1040.640, 8095.294
1042.568, 8072.395
1044.497, 8095.037
1046.425, 8100.896
1048.354, 8069.511
1050.282, 8040.484
1052.211, 8031.735
1054.139, 8042.385
1056.068, 8050.948
1057.996, 8049.094
1059.925, 8055.671
1061.853, 8073.945
1063.782, 8103.091
1065.710, 8144.651
1067.639, 8206.058
1069.567, 8252.888
1071.495, 8264.014
1073.424, 8259.406
1075.352, 8262.004
1077.281, 8279.781
1079.209, 8285.896
1081.138, 8271.905
1083.066, 8253.055
1084.995, 8240.080
1086.923, 8234.096
1088.852, 8229.122
1090.780, 8219.915
1092.709, 8217.954
1094.637, 8239.282
1096.566, 8275.083
1098.494, 8292.123
1100.422, 8275.161
1102.351, 8265.901
1104.279, 8283.337
1106.208, 8315.279
1108.136, 8337.329
1110.065, 8335.538
1111.993, 8343.162
1113.922, 8364.280
1115.850, 8392.301
1117.779, 8424.240
1119.707, 8462.866
1121.636, 8488.962
1123.564, 8500.922
1125.493, 8501.889
1127.421, 8486.208
1129.349, 8459.725
1131.278, 8447.854
1133.206, 8461.290
1135.135, 8475.465
1137.063, 8481.533
1138.992, 8482.448
1140.920, 8484.841
1142.849, 8491.748
1144.777, 8494.929
1146.706, 8488.962
1148.634, 8482.378
1150.563, 8483.307
1152.491, 8492.487
1154.420, 8504.493
1156.348, 8514.877
1158.276, 8531.782
1160.205, 8571.602
1162.133, 8622.675
1164.062, 8641.022
1165.990, 8600.689
1167.919, 8575.688
1169.847, 8601.709
1171.776, 8652.898
1173.704, 8692.606
1175.633, 8718.413
1177.561, 8737.404
1179.490, 8745.994
1181.418, 8750.765
1183.347, 8753.181
1185.275, 8752.379
1187.203, 8760.903
1189.132, 8792.300
1191.060, 8817.394
1192.989, 8817.447
1194.917, 8808.772
1196.846, 8825.659
1198.774, 8878.688
1200.703, 8924.552
1202.631, 8947.929
1204.560, 8960.745
1206.488, 8967.100
1208.417, 8963.359
1210.345, 8970.452
1212.274, 9002.393
1214.202, 9028.396
1216.130, 9039.454
1218.059, 9037.693
1219.987, 9028.782
1221.916, 9002.193
1223.844, 8990.376
1225.773, 9006.458
1227.701, 9034.713
1229.630, 9057.136
1231.558, 9073.202
1233.487, 9103.793
1235.415, 9174.171
1237.344, 9225.906
1239.272, 9207.853
1241.201, 9151.419
1243.129, 9131.143
1245.057, 9158.146
1246.986, 9196.703
1248.914, 9254.238
1250.843, 9306.077
1252.771, 9327.619
1254.700, 9309.461
1256.628, 9304.168
1258.557, 9327.971
1260.485, 9347.936
1262.414, 9351.152
1264.342, 9345.484
1266.271, 9349.105
1268.199, 9362.963
1270.128, 9383.422
1272.056, 9412.372
1273.984, 9443.121
1275.913, 9474.398
1277.841, 9503.412
1279.770, 9512.009
1281.698, 9482.460
1283.627, 9462.699
1285.555, 9485.649
1287.484, 9526.494
1289.412, 9546.287
1291.341, 9538.025
1293.269, 9539.234
1295.198, 9552.685
1297.126, 9577.663
1299.055, 9620.929
1300.983, 9678.652
1302.911, 9721.883
1304.840, 9749.900
1306.768, 9766.091
1308.697, 9757.521
1310.625, 9747.471
1312.554, 9762.523
1314.482, 9805.840
1316.411, 9840.590
1318.339, 9855.137
1320.268, 9870.347
1322.196, 9895.690
1324.125, 9924.363
1326.053, 9946.106
1327.982, 9960.518
1329.910, 9973.474
1331.839, 9994.258
1333.767, 10008.03
1335.695, 10002.01
1337.624, 9982.196
1339.552, 9973.746
1341.481, 9973.669
1343.409, 9992.148
1345.338, 10049.64
1347.266, 10108.82
1349.195, 10134.07
1351.123, 10118.93
1353.052, 10111.73
1354.980, 10120.43
1356.909, 10128.19
1358.837, 10136.60
1360.766, 10141.82
1362.694, 10136.08
1364.622, 10116.69
1366.551, 10103.01
1368.479, 10090.58
1370.408, 10090.61
1372.336, 10109.73
1374.265, 10144.28
1376.193, 10187.53
1378.122, 10242.43
1380.050, 10282.17
1381.979, 10289.28
1383.907, 10286.86
1385.836, 10287.20
1387.764, 10289.30
1389.693, 10291.54
1391.621, 10294.95
1393.549, 10299.79
1395.478, 10318.16
1397.406, 10332.20
1399.335, 10326.47
1401.263, 10302.63
1403.192, 10286.13
1405.120, 10272.28
1407.049, 10274.66
1408.977, 10306.17
1410.906, 10346.01
1412.834, 10374.34
1414.763, 10389.89
1416.691, 10400.26
1418.620, 10392.55
1420.548, 10397.44
1422.476, 10435.97
1424.405, 10484.14
1426.333, 10504.72
1428.262, 10485.75
1430.190, 10497.63
1432.119, 10559.46
1434.047, 10624.73
1435.976, 10690.43
1437.904, 10743.26
1439.833, 10756.97
1441.761, 10730.04
1443.690, 10715.20
1445.618, 10727.50
1447.547, 10745.54
1449.475, 10767.16
1451.403, 10788.75
1453.332, 10802.89
1455.260, 10808.89
1457.189, 10816.80
1459.117, 10826.91
1461.046, 10837.10
1462.974, 10846.27
1464.903, 10851.95
1466.831, 10850.81
1468.760, 10841.76
1470.688, 10828.17
1472.617, 10800.75
1474.545, 10784.57
1476.474, 10805.10
1478.402, 10839.58
1480.330, 10840.67
1482.259, 10794.51
1484.187, 10778.93
1486.116, 10817.53
1488.044, 10867.08
1489.973, 10929.05
1491.901, 10985.58
1493.830, 11003.95
1495.758, 10967.63
1497.687, 10938.09
1499.615, 10908.30
1501.544, 10893.42
1503.472, 10901.92
1505.401, 10928.63
1507.329, 10971.27
1509.257, 11039.67
1511.186, 11082.23
1513.114, 11070.29
1515.043, 11068.07
1516.971, 11092.38
1518.900, 11132.99
1520.828, 11185.13
1522.757, 11249.41
1524.685, 11282.69
1526.614, 11272.20
1528.542, 11250.37
1530.471, 11215.44
1532.399, 11184.04
1534.328, 11175.28
1536.256, 11188.86
1538.184, 11210.94
1540.113, 11249.91
1542.041, 11277.38
1543.970, 11274.63
1545.898, 11264.32
1547.827, 11259.22
1549.755, 11260.06
1551.684, 11273.57
1553.612, 11303.38
1555.541, 11333.57
1557.469, 11368.10
1559.398, 11393.92
1561.326, 11394.64
1563.255, 11381.75
1565.183, 11381.22
1567.111, 11395.09
1569.040, 11402.59
1570.968, 11391.15
1572.897, 11385.68
1574.825, 11404.17
1576.754, 11435.61
1578.682, 11465.53
1580.611, 11494.85
1582.539, 11523.29
1584.468, 11554.37
1586.396, 11577.38
1588.324, 11579.22
1590.253, 11575.13
1592.181, 11576.61
1594.110, 11583.20
1596.038, 11597.82
1597.967, 11624.75
1599.895, 11649.45
1601.824, 11671.32
1603.752, 11689.46
1605.681, 11699.73
1607.609, 11707.52
1609.538, 11731.76
1611.466, 11778.96
1613.395, 11813.67
1615.323, 11816.49
1617.251, 11820.79
1619.180, 11841.52
1621.108, 11865.91
1623.037, 11874.70
1624.965, 11865.20
1626.894, 11861.82
1628.822, 11876.16
1630.751, 11882.29
1632.679, 11873.21
1634.608, 11860.54
1636.536, 11849.91
1638.465, 11844.18
1640.393, 11853.65
1642.322, 11880.14
1644.250, 11913.53
1646.178, 11960.22
1648.107, 11998.38
1650.035, 12014.16
1651.964, 12016.14
1653.892, 12020.38
1655.821, 12029.14
1657.749, 12023.77
1659.678, 11989.66
1661.606, 11971.35
1663.535, 11998.97
1665.463, 12030.39
1667.392, 12027.51
1669.320, 12001.38
1671.249, 12000.70
1673.177, 12028.78
1675.105, 12067.20
1677.034, 12128.33
1678.962, 12176.48
1680.891, 12181.52
1682.819, 12175.39
1684.748, 12205.57
1686.676, 12274.83
1688.605, 12307.38
1690.533, 12276.22
1692.462, 12269.19
1694.390, 12338.43
1696.319, 12396.87
1698.247, 12381.10
1700.176, 12327.59
1702.104, 12319.74
1704.032, 12366.70
1705.961, 12388.85
1707.889, 12364.82
1709.818, 12346.70
1711.746, 12348.49
1713.675, 12362.41
1715.603, 12389.02
1717.532, 12423.29
1719.460, 12445.37
1721.389, 12453.74
1723.317, 12453.43
1725.246, 12436.73
1727.174, 12424.85
1729.103, 12423.49
1731.031, 12432.82
1732.959, 12462.56
1734.888, 12506.76
1736.816, 12520.40
1738.745, 12490.22
1740.673, 12482.64
1742.602, 12521.39
1744.530, 12564.33
1746.459, 12595.04
1748.387, 12616.92
1750.316, 12634.35
1752.244, 12646.20
1754.173, 12645.57
1756.101, 12627.84
1758.030, 12616.60
1759.958, 12621.92
1761.886, 12629.48
1763.815, 12637.45
1765.743, 12642.52
1767.672, 12635.85
1769.600, 12621.97
1771.529, 12625.32
1773.457, 12650.44
1775.386, 12679.78
1777.314, 12709.33
1779.243, 12737.86
1781.171, 12762.85
1783.100, 12783.25
1785.028, 12794.25
1786.957, 12797.48
1788.885, 12814.03
1790.813, 12854.22
1792.742, 12875.22
1794.670, 12855.57
1796.599, 12835.45
1798.527, 12841.48
1800.456, 12854.00
1802.384, 12839.76
1804.313, 12806.21
1806.241, 12815.98
1808.170, 12894.14
1810.098, 12938.70
1812.027, 12910.10
1813.955, 12881.79
1815.884, 12879.14
1817.812, 12889.88
1819.740, 12896.91
1821.669, 12903.05
1823.597, 12932.19
1825.526, 13000.49
1827.454, 13046.49
1829.383, 13059.30
1831.311, 13062.86
1833.240, 13055.42
1835.168, 13051.31
1837.097, 13069.66
1839.025, 13101.36
1840.954, 13115.95
1842.882, 13108.60
1844.811, 13103.04
1846.739, 13098.65
1848.667, 13093.77
1850.596, 13091.52
1852.524, 13083.85
1854.453, 13064.33
1856.381, 13040.09
1858.310, 13019.10
1860.238, 13003.92
1862.167, 13011.22
1864.095, 13047.44
1866.024, 13089.75
1867.952, 13139.04
1869.881, 13181.68
1871.809, 13207.85
1873.738, 13222.52
1875.666, 13223.60
1877.594, 13216.16
1879.523, 13221.97
1881.451, 13243.52
1883.380, 13252.84
1885.308, 13238.23
1887.237, 13231.77
1889.165, 13249.50
1891.094, 13272.97
1893.022, 13300.24
1894.951, 13320.09
1896.879, 13303.70
1898.808, 13251.96
1900.736, 13234.18
1902.665, 13268.19
1904.593, 13296.76
1906.521, 13319.63
1908.450, 13333.69
1910.378, 13344.45
1912.307, 13341.60
1914.235, 13297.88
1916.164, 13235.41
1918.092, 13223.01
1920.021, 13271.92
1921.949, 13305.60
1923.878, 13313.79
1925.806, 13323.32
1927.735, 13330.84
1929.663, 13349.05
1931.592, 13400.07
1933.520, 13451.90
1935.448, 13471.96
1937.377, 13466.35
1939.305, 13447.66
1941.234, 13415.67
1943.162, 13400.20
1945.091, 13406.30
1947.019, 13422.51
1948.948, 13449.05
1950.876, 13477.88
1952.805, 13504.06
1954.733, 13529.85
1956.662, 13565.51
1958.590, 13605.00
1960.519, 13615.17
1962.447, 13587.45
1964.375, 13577.68
1966.304, 13604.82
1968.232, 13621.90
1970.161, 13606.24
1972.089, 13594.67
1974.018, 13611.32
1975.946, 13638.62
1977.875, 13661.39
1979.803, 13679.24
1981.732, 13680.43
1983.660, 13659.88
1985.589, 13665.13
1987.517, 13710.67
1989.446, 13750.43
1991.374, 13773.59
1993.302, 13786.73
1995.231, 13785.54
1997.159, 13781.14
1999.088, 13781.89
2001.016, 13788.84
2002.945, 13805.06
2004.873, 13830.77
2006.802, 13859.50
2008.730, 13894.44
2010.659, 13921.18
2012.587, 13924.48
2014.516, 13936.11
2016.444, 13980.45
2018.373, 14022.35
2020.301, 14017.66
2022.229, 13998.25
2024.158, 14032.52
2026.086, 14117.03
2028.015, 14166.61
2029.943, 14171.12
2031.872, 14177.32
2033.800, 14196.95
2035.729, 14206.25
2037.657, 14192.43
2039.586, 14180.13
2041.514, 14185.67
2043.443, 14196.69
2045.371, 14185.46
2047.300, 14171.94
2049.228, 14219.00
2051.156, 14324.78
2053.085, 14404.73
2055.013, 14450.98
2056.942, 14479.48
2058.870, 14486.62
2060.799, 14485.30
2062.727, 14464.54
2064.656, 14451.01
2066.584, 14467.10
2068.513, 14496.28
2070.441, 14516.11
2072.370, 14529.67
2074.298, 14556.85
2076.227, 14603.29
2078.155, 14620.06
2080.083, 14593.11
2082.012, 14584.30
2083.940, 14611.78
2085.869, 14645.97
2087.797, 14677.33
2089.726, 14703.76
2091.654, 14717.72
2093.583, 14727.65
2095.511, 14752.02
2097.440, 14783.76
2099.368, 14788.37
2101.297, 14758.72
2103.225, 14753.82
2105.154, 14798.41
2107.082, 14829.95
2109.010, 14841.75
2110.939, 14849.67
2112.867, 14842.98
2114.796, 14851.30
2116.724, 14895.10
2118.653, 14959.91
2120.581, 15032.66
2122.510, 15111.98
2124.438, 15194.95
2126.367, 15280.38
2128.295, 15362.44
2130.224, 15437.18
2132.152, 15513.81
2134.081, 15601.49
2136.009, 15672.50
2137.938, 15722.59
2139.866, 15752.68
2141.794, 15741.07
2143.723, 15737.61
2145.651, 15805.02
2147.580, 15904.89
2149.508, 15963.40
2151.437, 15988.45
2153.365, 16020.95
2155.294, 16060.70
2157.222, 16101.52
2159.151, 16140.17
2161.079, 16182.92
2163.008, 16246.85
2164.936, 16283.21
2166.865, 16244.28
2168.793, 16211.84
2170.721, 16244.21
2172.650, 16292.62
2174.578, 16296.84
2176.507, 16284.62
2178.435, 16327.37
2180.364, 16416.13
2182.292, 16445.20
2184.221, 16410.58
2186.149, 16383.37
2188.078, 16371.28
2190.006, 16364.03
2191.935, 16354.29
2193.863, 16364.05
2195.792, 16426.59
2197.720, 16477.99
2199.648, 16462.75
2201.577, 16439.15
2203.505, 16477.51
2205.434, 16532.60
2207.362, 16520.65
2209.291, 16455.12
2211.219, 16403.37
2213.148, 16366.56
2215.076, 16362.93
2217.005, 16402.75
2218.933, 16423.57
2220.862, 16404.16
2222.790, 16402.32
2224.719, 16450.48
2226.647, 16494.66
2228.575, 16509.86
2230.504, 16518.38
2232.432, 16528.26
2234.361, 16543.98
2236.289, 16576.58
2238.218, 16614.68
2240.146, 16630.98
2242.075, 16626.83
2244.003, 16624.69
2245.932, 16624.08
2247.860, 16624.69
2249.789, 16629.01
2251.717, 16629.04
2253.646, 16625.90
2255.574, 16618.08
2257.502, 16590.71
2259.431, 16581.20
2261.359, 16624.86
2263.288, 16665.01
2265.216, 16651.40
2267.145, 16630.08
2269.073, 16659.08
2271.002, 16711.17
2272.930, 16729.55
2274.859, 16726.29
2276.787, 16741.55
2278.716, 16774.24
2280.644, 16813.87
2282.573, 16859.71
2284.501, 16897.67
2286.429, 16932.61
2288.358, 16944.90
2290.286, 16915.43
2292.215, 16893.93
2294.143, 16895.78
2296.072, 16906.96
2298.000, 16938.28
2299.929, 16960.38
2301.857, 16932.36
2303.786, 16902.07
2305.714, 16937.19
2307.643, 16999.46
2309.571, 17008.65
2311.500, 16978.20
2313.428, 16970.43
2315.356, 16984.94
2317.285, 17023.38
2319.213, 17089.12
2321.142, 17147.97
2323.070, 17197.14
2324.999, 17236.55
2326.927, 17272.35
2328.856, 17282.37
2330.784, 17247.83
2332.713, 17208.17
2334.641, 17166.60
2336.570, 17143.52
2338.498, 17168.58
2340.427, 17201.14
2342.355, 17194.31
2344.283, 17181.28
2346.212, 17210.62
2348.140, 17264.67
2350.069, 17310.89
2351.997, 17346.83
2353.926, 17362.38
2355.854, 17355.55
2357.783, 17372.96
2359.711, 17425.00
2361.640, 17460.38
2363.568, 17478.10
2365.497, 17482.53
2367.425, 17474.10
2369.354, 17456.29
2371.282, 17422.48
2373.210, 17400.18
2375.139, 17406.35
2377.067, 17418.19
2378.996, 17424.91
2380.924, 17431.43
2382.853, 17440.00
2384.781, 17448.68
2386.710, 17451.23
2388.638, 17456.28
2390.567, 17492.71
2392.495, 17536.70
2394.424, 17521.87
2396.352, 17468.16
2398.281, 17445.33
2400.209, 17454.43
2402.137, 17466.62
2404.066, 17477.67
2405.994, 17504.06
2407.923, 17555.86
2409.851, 17575.10
2411.780, 17542.07
2413.708, 17533.02
2415.637, 17572.15
2417.565, 17612.94
2419.494, 17659.66
2421.422, 17682.26
2423.351, 17635.57
2425.279, 17609.72
2427.208, 17664.16
2429.136, 17727.47
2431.064, 17752.08
2432.993, 17761.23
2434.921, 17769.24
2436.850, 17778.38
2438.778, 17791.95
2440.707, 17810.92
2442.635, 17853.68
2444.564, 17898.43
2446.492, 17863.85
2448.421, 17770.41
2450.349, 17749.84
2452.278, 17798.57
2454.206, 17822.95
2456.135, 17821.31
2458.063, 17831.33
2459.991, 17855.98
2461.920, 17879.93
2463.848, 17898.32
2465.777, 17923.68
2467.705, 17976.96
2469.634, 18002.41
2471.562, 17983.65
2473.491, 17965.69
2475.419, 17951.76
2477.348, 17953.40
2479.276, 17983.97
2481.205, 18012.61
2483.133, 18022.78
2485.062, 18029.17
2486.990, 18047.95
2488.918, 18061.23
2490.847, 18045.60
2492.775, 18035.53
2494.704, 18070.49
2496.632, 18121.62
2498.561, 18150.38
2500.489, 18175.26
2502.418, 18229.80
2504.346, 18294.03
2506.275, 18323.80
2508.203, 18330.08
2510.132, 18362.59
2512.060, 18413.12
2513.989, 18437.75
2515.917, 18439.42
2517.845, 18421.14
2519.774, 18381.86
2521.702, 18376.35
2523.631, 18407.74
2525.559, 18440.08
2527.488, 18478.14
2529.416, 18478.24
2531.345, 18433.22
2533.273, 18405.83
2535.202, 18415.58
2537.130, 18422.04
2539.059, 18412.12
2540.987, 18419.55
2542.916, 18456.70
2544.844, 18495.13
2546.772, 18524.22
2548.701, 18552.96
2550.629, 18573.87
2552.558, 18602.81
2554.486, 18661.36
2556.415, 18703.87
2558.343, 18699.10
2560.272, 18693.43
2562.200, 18730.90
2564.129, 18756.15
2566.057, 18712.83
2567.986, 18676.89
2569.914, 18707.08
2571.843, 18755.53
2573.771, 18787.62
2575.699, 18806.89
2577.628, 18802.03
2579.556, 18800.54
2581.485, 18860.14
2583.413, 18928.04
2585.342, 18918.28
2587.270, 18877.42
2589.199, 18869.05
2591.127, 18884.88
2593.056, 18912.62
2594.984, 18946.94
2596.913, 18977.45
2598.841, 19001.67
2600.770, 19013.64
2602.698, 19015.35
2604.626, 19013.04
2606.555, 19009.63
2608.483, 19018.62
2610.412, 19040.13
2612.340, 19056.88
2614.269, 19069.99
2616.197, 19069.89
2618.126, 19058.60
2620.054, 19077.37
2621.983, 19126.16
2623.911, 19134.50
2625.840, 19085.32
2627.768, 19103.46
2629.697, 19207.99
2631.625, 19254.84
2633.553, 19237.75
2635.482, 19231.14
2637.410, 19243.53
2639.339, 19258.94
2641.267, 19282.09
2643.196, 19282.07
2645.124, 19232.16
2647.053, 19243.88
2648.981, 19342.16
2650.910, 19388.63
2652.838, 19356.37
2654.767, 19312.67
2656.695, 19247.80
2658.624, 19228.42
2660.552, 19288.90
2662.480, 19331.08
2664.409, 19341.33
2666.337, 19346.01
2668.266, 19340.59
2670.194, 19352.80
2672.123, 19407.94
2674.051, 19444.54
2675.980, 19451.02
2677.908, 19442.00
2679.837, 19409.47
2681.765, 19394.96
2683.694, 19414.22
2685.622, 19441.60
2687.551, 19485.69
2689.479, 19510.03
2691.407, 19489.67
2693.336, 19476.40
2695.264, 19478.38
2697.193, 19484.62
2699.121, 19505.19
2701.050, 19498.34
2702.978, 19428.09
2704.907, 19372.05
2706.835, 19350.37
2708.764, 19352.24
2710.692, 19383.33
2712.621, 19424.35
2714.549, 19477.42
2716.478, 19515.80
2718.406, 19523.52
2720.334, 19515.81
2722.263, 19487.31
2724.191, 19453.25
2726.120, 19418.11
2728.048, 19378.48
2729.977, 19341.18
2731.905, 19293.79
2733.834, 19220.47
2735.762, 19165.60
2737.691, 19158.10
2739.619, 19126.62
2741.548, 19033.72
2743.476, 18958.73
2745.405, 18944.82
2747.333, 18921.84
2749.261, 18874.28
2751.190, 18808.40
2753.118, 18703.40
2755.047, 18638.42
2756.975, 18661.53
2758.904, 18659.60
2760.832, 18551.66
2762.761, 18509.74
2764.689, 18614.80
2766.618, 18671.75
2768.546, 18627.12
2770.475, 18602.56
2772.403, 18643.55
2774.332, 18661.94
2776.260, 18589.01
2778.188, 18593.56
2780.117, 18726.73
2782.045, 18821.86
2783.974, 18847.58
2785.902, 18865.24
2787.831, 18871.49
2789.759, 18908.45
2791.688, 18995.56
2793.616, 19040.63
2795.545, 19019.54
2797.473, 19039.46
2799.402, 19129.93
2801.330, 19175.41
2803.259, 19147.05
2805.187, 19124.31
2807.115, 19108.59
2809.044, 19128.38
2810.972, 19191.93
2812.901, 19212.77
2814.829, 19174.20
2816.758, 19148.51
2818.686, 19130.32
2820.615, 19175.33
2822.543, 19278.89
2824.472, 19333.95
2826.400, 19337.51
2828.329, 19391.12
2830.257, 19491.13
2832.186, 19526.98
2834.114, 19510.59
2836.042, 19533.54
2837.971, 19591.03
2839.899, 19645.01
2841.828, 19701.79
2843.756, 19783.21
2845.685, 19885.99
2847.613, 20016.48
2849.542, 20148.20
2851.470, 20217.41
2853.399, 20249.50
2855.327, 20301.86
2857.256, 20354.56
2859.184, 20368.97
2861.113, 20366.22
2863.041, 20374.99
2864.969, 20382.08
2866.898, 20350.55
2868.826, 20327.54
2870.755, 20369.28
2872.683, 20435.21
2874.612, 20515.19
2876.540, 20575.87
2878.469, 20576.76
2880.397, 20576.87
2882.326, 20614.24
2884.254, 20663.01
2886.183, 20715.13
2888.111, 20762.60
2890.040, 20783.05
2891.968, 20825.67
2893.896, 20930.40
2895.825, 21019.23
2897.753, 21067.65
2899.682, 21117.52
2901.610, 21183.63
2903.539, 21234.83
2905.467, 21241.52
2907.396, 21281.65
2909.324, 21370.87
2911.253, 21448.75
2913.181, 21510.68
2915.110, 21569.65
2917.038, 21628.41
2918.967, 21689.64
2920.895, 21753.77
2922.823, 21775.86
2924.752, 21763.28
2926.680, 21834.52
2928.609, 21973.27
2930.537, 22071.57
2932.466, 22132.85
2934.394, 22161.30
2936.323, 22175.10
2938.251, 22215.23
2940.180, 22272.80
2942.108, 22347.96
2944.037, 22413.41
2945.965, 22417.40
2947.894, 22404.32
2949.822, 22410.08
2951.750, 22434.24
2953.679, 22482.18
2955.607, 22541.59
2957.536, 22605.83
2959.464, 22672.84
2961.393, 22745.87
2963.321, 22805.79
2965.250, 22841.54
2967.178, 22864.60
2969.107, 22868.87
2971.035, 22895.21
2972.964, 22962.93
2974.892, 23019.29
2976.821, 23032.80
2978.749, 23091.16
2980.677, 23202.28
2982.606, 23256.44
2984.534, 23246.98
2986.463, 23306.31
2988.391, 23432.97
2990.320, 23452.12
2992.248, 23397.19
2994.177, 23429.95
2996.105, 23525.77
2998.034, 23616.43
2999.962, 23715.42
3001.891, 23871.76
3003.819, 24025.09
3005.748, 24078.85
3007.676, 24109.44
3009.604, 24186.88
3011.533, 24262.80
3013.461, 24291.63
3015.390, 24330.12
3017.318, 24423.71
3019.247, 24503.30
3021.175, 24534.67
3023.104, 24579.46
3025.032, 24659.97
3026.961, 24710.35
3028.889, 24703.01
3030.818, 24756.46
3032.746, 24907.87
3034.675, 24998.76
3036.603, 25031.55
3038.531, 25079.35
3040.460, 25150.10
3042.388, 25258.25
3044.317, 25396.37
3046.245, 25549.46
3048.174, 25695.85
3050.102, 25775.83
3052.031, 25837.66
3053.959, 25954.06
3055.887, 26064.35
3057.816, 26105.16
3059.744, 26141.71
3061.673, 26198.74
3063.601, 26293.29
3065.530, 26460.56
3067.458, 26625.59
3069.387, 26776.89
3071.315, 26897.39
3073.244, 26971.18
3075.172, 27036.57
3077.101, 27085.65
3079.029, 27181.16
3080.958, 27318.21
3082.886, 27409.69
3084.814, 27472.59
3086.743, 27576.66
3088.671, 27709.81
3090.600, 27826.04
3092.528, 27947.36
3094.457, 28097.89
3096.385, 28258.96
3098.314, 28425.13
3100.242, 28562.48
3102.171, 28635.25
3104.099, 28721.84
3106.028, 28915.48
3107.956, 29039.88
3109.885, 29040.55
3111.813, 29079.74
3113.741, 29177.59
3115.670, 29326.73
3117.598, 29529.10
3119.527, 29673.87
3121.455, 29768.25
3123.384, 29897.87
3125.312, 30044.61
3127.241, 30164.33
3129.169, 30265.79
3131.098, 30338.11
3133.026, 30432.11
3134.955, 30607.68
3136.883, 30800.53
3138.812, 30972.82
3140.740, 31141.77
3142.668, 31308.28
3144.597, 31472.27
3146.525, 31626.90
3148.454, 31785.07
3150.382, 31950.71
3152.311, 32062.03
3154.239, 32123.73
3156.168, 32230.94
3158.096, 32382.12
3160.025, 32590.71
3161.953, 32795.66
3163.882, 32836.96
3165.810, 32850.22
3167.739, 32971.16
3169.667, 33142.37
3171.595, 33361.36
3173.524, 33548.73
3175.452, 33630.68
3177.381, 33761.77
3179.309, 33988.93
3181.238, 34211.98
3183.166, 34420.88
3185.095, 34607.76
3187.023, 34770.92
3188.952, 34950.75
3190.880, 35138.65
3192.809, 35300.13
3194.737, 35456.63
3196.666, 35656.20
3198.594, 35850.42
3200.522, 35963.68
3202.451, 36097.84
3204.379, 36327.75
3206.308, 36549.51
3208.236, 36739.42
3210.165, 36907.63
3212.093, 37057.38
3214.022, 37171.27
3215.950, 37247.70
3217.879, 37472.61
3219.807, 37800.98
3221.736, 38034.65
3223.664, 38216.20
3225.593, 38381.82
3227.521, 38578.49
3229.449, 38901.59
3231.378, 39186.41
3233.306, 39312.86
3235.235, 39451.43
3237.163, 39681.85
3239.092, 39869.14
3241.020, 39998.52
3242.949, 40150.56
3244.877, 40328.60
3246.806, 40615.68
3248.734, 40963.46
3250.663, 41246.38
3252.591, 41478.35
3254.520, 41660.19
3256.448, 41839.43
3258.376, 42085.79
3260.305, 42296.17
3262.233, 42386.67
3264.162, 42537.95
3266.090, 42802.94
3268.019, 42994.99
3269.947, 43087.38
3271.876, 43298.88
3273.804, 43608.34
3275.733, 43870.04
3277.661, 44119.35
3279.590, 44434.84
3281.518, 44749.96
3283.447, 44993.40
3285.375, 45216.88
3287.303, 45435.38
3289.232, 45669.29
3291.160, 45944.46
3293.089, 46191.00
3295.017, 46406.38
3296.946, 46693.51
3298.874, 47033.83
3300.803, 47288.95
3302.731, 47528.66
3304.660, 47920.13
3306.588, 48329.94
3308.517, 48634.97
3310.445, 48918.06
3312.374, 49219.70
3314.302, 49495.68
3316.230, 49713.20
3318.159, 49943.71
3320.087, 50186.02
3322.016, 50376.67
3323.944, 50543.59
3325.873, 50796.54
3327.801, 51103.05
3329.730, 51399.88
3331.658, 51734.07
3333.587, 52206.41
3335.515, 52586.13
3337.444, 52754.28
3339.372, 52948.81
3341.301, 53203.97
3343.229, 53558.07
3345.157, 54002.16
3347.086, 54311.61
3349.014, 54562.11
3350.943, 54905.50
3352.871, 55287.44
3354.800, 55658.88
3356.728, 56013.17
3358.657, 56343.70
3360.585, 56635.49
3362.514, 56866.03
3364.442, 57168.64
3366.371, 57554.96
3368.299, 57941.50
3370.228, 58322.82
3372.156, 58657.21
3374.084, 58985.12
3376.013, 59319.50
3377.941, 59699.50
3379.870, 60170.07
3381.798, 60598.06
3383.727, 60940.18
3385.655, 61249.73
3387.584, 61537.11
3389.512, 61841.25
3391.441, 62155.08
3393.369, 62406.94
3395.298, 62680.52
3397.226, 63107.73
3399.155, 63556.59
3401.083, 63937.11
3403.011, 64329.84
3404.940, 64739.41
3406.868, 65161.85
3408.797, 65593.50
3410.725, 65972.84
3412.654, 66330.73
3414.582, 66777.77
3416.511, 67232.07
3418.439, 67584.93
3420.368, 67949.41
3422.296, 68387.21
3424.225, 68812.76
3426.153, 69210.05
3428.082, 69566.60
3430.010, 69894.53
3431.938, 70331.83
3433.867, 70832.16
3435.795, 71368.67
3437.724, 71824.48
3439.652, 72039.52
3441.581, 72302.70
3443.509, 72812.09
3445.438, 73250.09
3447.366, 73607.84
3449.295, 73953.57
3451.223, 74310.32
3453.152, 74771.95
3455.080, 75250.89
3457.009, 75586.38
3458.937, 75963.05
3460.865, 76549.43
3462.794, 77094.50
3464.722, 77565.06
3466.651, 77951.29
3468.579, 78266.36
3470.508, 78650.66
3472.436, 79068.09
3474.365, 79439.04
3476.293, 79830.30
3478.222, 80321.88
3480.150, 80801.72
3482.079, 81229.28
3484.007, 81685.62
3485.936, 82177.32
3487.864, 82583.25
3489.792, 82920.53
3491.721, 83185.45
3493.649, 83495.26
3495.578, 84009.58
3497.506, 84499.99
3499.435, 84831.76
3501.363, 85213.99
3503.292, 85668.91
3505.220, 86109.66
3507.149, 86536.20
3509.077, 86883.16
3511.006, 87268.95
3512.934, 87799.48
3514.863, 88407.43
3516.791, 89105.15
3518.719, 89650.71
3520.648, 89982.96
3522.576, 90481.21
3524.505, 91077.15
3526.433, 91427.28
3528.362, 91683.44
3530.290, 91896.57
3532.219, 92303.87
3534.147, 93102.49
3536.076, 93645.13
3538.004, 93781.36
3539.933, 93982.85
3541.861, 94267.06
3543.790, 94652.80
3545.718, 95119.52
3547.646, 95656.53
3549.575, 96236.91
3551.503, 96860.78
3553.432, 97457.05
3555.360, 98005.66
3557.289, 98638.76
3559.217, 99262.33
3561.146, 99598.31
3563.074, 99870.50
3565.003, 100317.5
3566.931, 100717.6
3568.860, 100994.5
3570.788, 101339.0
3572.717, 101772.9
3574.645, 102150.6
3576.573, 102539.9
3578.502, 103062.8
3580.430, 103663.1
3582.359, 104346.5
3584.287, 104931.2
3586.216, 105349.9
3588.144, 105980.7
3590.073, 106765.5
3592.001, 107125.1
3593.930, 107343.6
3595.858, 107772.3
3597.787, 108222.6
3599.715, 108565.1
3601.644, 109040.2
3603.572, 109687.1
3605.500, 110189.9
3607.429, 110600.9
3609.357, 111092.6
3611.286, 111589.4
3613.214, 112002.8
3615.143, 112434.6
3617.071, 112924.5
3619.000, 113198.4
3620.928, 113286.3
3622.857, 113713.2
3624.785, 114231.9
3626.714, 114478.0
3628.642, 114756.6
3630.571, 115220.6
3632.499, 115665.8
3634.427, 116023.4
3636.356, 116593.4
3638.284, 117259.3
3640.213, 117788.5
3642.141, 118246.8
3644.070, 118709.5
3645.998, 119069.8
3647.927, 119269.3
3649.855, 119471.0
3651.784, 119730.1
3653.712, 120297.2
3655.641, 120937.0
3657.569, 121390.4
3659.498, 121759.3
3661.426, 122015.5
3663.354, 122377.9
3665.283, 122853.5
3667.211, 123360.8
3669.140, 123885.5
3671.068, 124399.5
3672.997, 124906.5
3674.925, 125356.5
3676.854, 125892.6
3678.782, 126498.3
3680.711, 126821.1
3682.639, 126964.6
3684.568, 127134.3
3686.496, 127354.0
3688.425, 127703.4
3690.353, 128045.5
3692.281, 128377.4
3694.210, 128721.7
3696.138, 129084.2
3698.067, 129460.6
3699.995, 129867.4
3701.924, 130339.4
3703.852, 130747.0
3705.781, 131076.0
3707.709, 131363.9
3709.638, 131658.1
3711.566, 132011.7
3713.495, 132445.3
3715.423, 132982.9
3717.352, 133446.6
3719.280, 133732.8
3721.208, 134047.1
3723.137, 134321.9
3725.065, 134324.6
3726.994, 134293.4
3728.922, 134503.8
3730.851, 134688.4
3732.779, 134765.7
3734.708, 135033.5
3736.636, 135461.3
3738.565, 135883.5
3740.493, 136303.7
3742.422, 136709.0
3744.350, 137076.3
3746.279, 137371.7
3748.207, 137728.5
3750.135, 138088.9
3752.064, 138275.2
3753.992, 138352.1
3755.921, 138291.3
3757.849, 138467.9
3759.778, 139038.3
3761.706, 139293.0
3763.635, 139373.5
3765.563, 139785.5
3767.492, 140199.6
3769.420, 140384.9
3771.349, 140535.2
3773.277, 140698.9
3775.206, 140893.4
3777.134, 141126.2
3779.063, 141394.7
3780.991, 141663.0
3782.919, 141849.0
3784.848, 142206.9
3786.776, 142758.8
3788.705, 142870.6
3790.633, 142784.1
3792.562, 142831.8
3794.490, 143025.2
3796.419, 143390.5
3798.347, 143736.3
3800.276, 144018.7
3802.204, 144140.7
3804.133, 144220.2
3806.061, 144541.0
3807.990, 144638.8
3809.918, 144311.8
3811.846, 144152.0
3813.775, 144180.5
3815.703, 144346.9
3817.632, 144563.5
3819.560, 144718.0
3821.489, 144974.5
3823.417, 145394.9
3825.346, 145557.6
3827.274, 145547.3
3829.203, 145559.8
3831.131, 145568.3
3833.060, 145573.6
3834.988, 145558.0
3836.917, 145544.1
3838.845, 145698.9
3840.773, 145972.6
3842.702, 146412.4
3844.630, 146623.1
3846.559, 146442.9
3848.487, 146403.2
3850.416, 146483.9
3852.344, 146532.7
3854.273, 146555.9
3856.201, 146554.5
3858.130, 146608.0
3860.058, 146722.0
3861.987, 146595.4
3863.915, 146381.5
3865.844, 146316.6
3867.772, 146323.7
3869.700, 146399.4
3871.629, 146454.8
3873.557, 146487.3
3875.486, 146550.2
3877.414, 146537.5
3879.343, 146339.0
3881.271, 146037.2
3883.200, 145675.9
3885.128, 145580.0
3887.057, 145621.9
3888.985, 145631.9
3890.914, 145611.9
3892.842, 145496.0
3894.771, 145501.7
3896.699, 145617.5
3898.627, 145781.0
3900.556, 145816.1
3902.484, 145500.6
3904.413, 145211.9
3906.341, 145030.5
3908.270, 145058.4
3910.198, 145070.2
3912.127, 144683.9
3914.055, 144357.0
3915.984, 144232.5
3917.912, 144187.6
3919.841, 144174.9
3921.769, 144074.5
3923.698, 143939.5
3925.626, 143742.8
3927.554, 143588.9
3929.483, 143505.1
3931.411, 143465.5
3933.340, 143398.9
3935.268, 143234.4
3937.197, 143031.4
3939.125, 142820.8
3941.054, 142434.3
3942.982, 142028.8
3944.911, 141826.6
3946.839, 141786.1
3948.768, 141983.1
3950.696, 141895.6
3952.625, 141585.6
3954.553, 141333.8
3956.481, 141106.2
3958.410, 140889.2
3960.338, 140668.9
3962.267, 140436.3
3964.195, 140164.7
3966.124, 139915.4
3968.052, 139770.6
3969.981, 139593.3
3971.909, 139385.0
3973.838, 139193.7
3975.766, 138988.2
3977.695, 138723.9
3979.623, 138510.2
3981.552, 138392.4
3983.480, 138272.2
3985.408, 138162.1
3987.337, 138001.2
3989.265, 137854.1
3991.194, 137700.3
3993.122, 137405.9
3995.051, 137109.5
3996.979, 136932.2
3998.908, 136729.9
4000.836, 136431.1
4002.765, 136206.4
4004.693, 136044.1
4006.622, 135925.7
4008.550, 135776.2
4010.479, 135481.7
4012.407, 135219.9
4014.335, 135133.0
4016.264, 135048.4
4018.192, 134865.8
4020.121, 134791.5
4022.049, 134537.6
4023.978, 134052.6
4025.906, 133964.9
4027.835, 133901.1
4029.763, 133391.1
4031.692, 132890.7
4033.620, 132659.4
4035.549, 132603.5
4037.477, 132481.3
4039.406, 132206.4
4041.334, 131840.0
4043.262, 131435.5
4045.191, 131235.7
4047.119, 131178.0
4049.048, 131168.2
4050.976, 131107.5
4052.905, 131019.7
4054.833, 130737.7
4056.762, 130348.1
4058.690, 130081.6
4060.619, 129740.6
4062.547, 129289.6
4064.476, 128982.5
4066.404, 128790.1
4068.333, 128562.2
4070.261, 128349.1
4072.189, 128157.8
4074.118, 128007.4
4076.046, 127849.9
4077.975, 127622.7
4079.903, 127374.1
4081.832, 127180.5
4083.760, 126804.3
4085.689, 126325.8
4087.617, 126022.8
4089.546, 125791.6
4091.474, 125585.7
4093.403, 125262.8
4095.331, 124897.1
4097.259, 124786.3
4099.188, 124683.3
4101.116, 124501.5
4103.045, 124175.4
4104.973, 123759.2
4106.902, 123744.0
4108.830, 123762.5
4110.759, 123518.8
4112.687, 123110.2
4114.616, 122604.3
4116.544, 122297.4
4118.473, 122055.0
4120.401, 121754.3
4122.330, 121466.0
4124.258, 121221.0
4126.187, 120906.1
4128.115, 120645.1
4130.043, 120559.7
4131.972, 120269.9
4133.900, 119718.7
4135.829, 119507.1
4137.757, 119459.4
4139.686, 119124.3
4141.614, 118844.6
4143.542, 118788.5
4145.471, 118701.9
4147.399, 118502.7
4149.328, 118254.8
4151.256, 118084.3
4153.185, 117878.6
4155.113, 117619.7
4157.042, 117399.7
4158.970, 117266.4
4160.899, 117016.0
4162.827, 116513.8
4164.756, 115990.9
4166.684, 115504.6
4168.613, 115352.3
4170.541, 115219.4
4172.470, 114902.7
4174.398, 114759.3
4176.327, 114704.1
4178.255, 114399.1
4180.184, 114087.7
4182.112, 113910.6
4184.041, 113797.1
4185.969, 113678.7
4187.897, 113394.0
4189.826, 113122.0
4191.754, 112967.2
4193.683, 112705.9
4195.611, 112340.2
4197.540, 112022.8
4199.468, 111722.4
4201.396, 111375.5
4203.325, 111118.9
4205.253, 110951.4
4207.182, 110806.2
4209.110, 110647.3
4211.039, 110433.0
4212.967, 110308.9
4214.896, 110190.0
4216.824, 109911.9
4218.753, 109552.8
4220.681, 109092.8
4222.610, 108770.1
4224.538, 108538.8
4226.467, 108304.3
4228.395, 108087.4
4230.324, 107918.3
4232.252, 107829.9
4234.181, 107738.4
4236.109, 107476.5
4238.038, 107227.3
4239.966, 107041.9
4241.895, 106862.0
4243.823, 106708.2
4245.751, 106588.0
4247.680, 106336.0
4249.608, 105922.1
4251.537, 105680.9
4253.465, 105505.0
4255.394, 105234.0
4257.322, 105057.0
4259.250, 104992.3
4261.179, 104953.4
4263.107, 104869.9
4265.036, 104686.4
4266.964, 104386.1
4268.893, 104022.0
4270.821, 103897.1
4272.750, 103793.6
4274.678, 103557.2
4276.607, 103331.5
4278.535, 103137.7
4280.464, 102984.2
4282.392, 102903.2
4284.321, 102941.2
4286.249, 102848.8
4288.178, 102663.3
4290.106, 102461.1
4292.035, 102268.1
4293.963, 102093.4
4295.892, 102070.9
4297.820, 102068.1
4299.749, 101922.7
4301.677, 101654.0
4303.605, 101278.6
4305.534, 101124.9
4307.462, 101039.3
4309.391, 100890.6
4311.319, 100722.6
4313.248, 100551.3
4315.176, 100524.0
4317.104, 100383.3
4319.033, 99927.66
4320.961, 99662.14
4322.890, 99549.91
4324.818, 99491.16
4326.747, 99393.98
4328.675, 99196.46
4330.604, 99251.02
4332.532, 99298.55
4334.461, 98978.55
4336.389, 98731.12
4338.318, 98618.38
4340.246, 98452.01
4342.175, 98310.40
4344.103, 98272.79
4346.032, 98060.36
4347.960, 97719.22
4349.889, 97422.58
4351.817, 97134.68
4353.746, 96851.17
4355.674, 96640.62
4357.603, 96532.66
4359.531, 96585.02
4361.459, 96634.09
4363.388, 96620.55
4365.316, 96446.90
4367.245, 96176.59
4369.173, 95844.07
4371.102, 95584.84
4373.030, 95372.40
4374.958, 95056.97
4376.887, 94825.27
4378.815, 94767.23
4380.744, 94504.21
4382.672, 94207.55
4384.601, 94117.27
4386.529, 94087.27
4388.458, 94074.15
4390.386, 93896.73
4392.315, 93692.65
4394.243, 93524.13
4396.172, 93451.67
4398.100, 93372.28
4400.029, 93011.95
4401.957, 92755.92
4403.886, 92702.94
4405.814, 92416.23
4407.743, 92119.55
4409.671, 91995.63
4411.600, 91936.38
4413.528, 91908.73
4415.457, 91918.34
4417.385, 91812.50
4419.313, 91535.74
4421.242, 91306.91
4423.170, 91128.80
4425.099, 91039.66
4427.027, 90843.12
4428.956, 90545.84
4430.884, 90301.97
4432.813, 90111.63
4434.741, 89995.12
4436.669, 89901.65
4438.598, 89824.32
4440.526, 89728.47
4442.455, 89693.90
4444.383, 89693.50
4446.312, 89423.90
4448.240, 89128.02
4450.169, 88949.86
4452.097, 88771.57
4454.026, 88568.24
4455.954, 88294.00
4457.883, 88027.41
4459.811, 87798.90
4461.740, 87697.13
4463.668, 87624.32
4465.597, 87475.23
4467.525, 87528.45
4469.454, 87608.04
4471.382, 87315.92
4473.311, 87089.29
4475.239, 86993.85
4477.167, 86709.36
4479.096, 86544.15
4481.024, 86718.82
4482.953, 86514.81
4484.881, 86179.06
4486.810, 86213.48
4488.738, 86168.07
4490.667, 85978.41
4492.595, 85769.15
4494.523, 85510.00
4496.452, 85159.86
4498.380, 84938.12
4500.309, 84812.31
4502.237, 84749.05
4504.166, 84666.31
4506.094, 84556.71
4508.023, 84536.65
4509.951, 84343.82
4511.880, 83880.32
4513.808, 83725.88
4515.737, 83735.77
4517.665, 83797.48
4519.594, 83626.39
4521.522, 83302.95
4523.451, 83165.38
4525.379, 83003.64
4527.308, 82751.26
4529.236, 82678.08
4531.165, 82637.87
4533.093, 82541.98
4535.021, 82287.87
4536.950, 82000.91
4538.878, 81903.94
4540.807, 81940.39
4542.735, 82033.09
4544.664, 81813.65
4546.592, 81598.34
4548.521, 81546.20
4550.449, 81470.74
4552.377, 81347.34
4554.306, 81191.51
4556.234, 80887.33
4558.163, 80504.36
4560.091, 80199.96
4562.020, 80082.89
4563.948, 80146.30
4565.877, 80047.34
4567.805, 79910.00
4569.734, 79798.29
4571.662, 79665.79
4573.591, 79544.61
4575.519, 79556.36
4577.448, 79444.77
4579.376, 79200.17
4581.305, 78830.61
4583.233, 78527.80
4585.162, 78357.61
4587.090, 78430.95
4589.019, 78440.16
4590.947, 78084.55
4592.875, 77982.88
4594.804, 78012.01
4596.732, 78005.09
4598.661, 77879.89
4600.589, 77648.94
4602.518, 77293.10
4604.446, 77062.52
4606.375, 77003.49
4608.303, 76846.50
4610.231, 76749.30
4612.160, 76883.27
4614.088, 76798.59
4616.017, 76602.18
4617.945, 76439.20
4619.874, 76259.09
4621.802, 76101.62
4623.731, 76170.85
4625.659, 76121.09
4627.588, 75897.66
4629.516, 75690.38
4631.445, 75461.72
4633.373, 75163.47
4635.302, 75078.60
4637.230, 75070.00
4639.159, 75012.92
4641.087, 74918.44
4643.016, 74796.84
4644.944, 74671.43
4646.873, 74475.12
4648.801, 74246.02
4650.729, 74185.89
4652.658, 74129.51
4654.586, 74027.16
4656.515, 74073.35
4658.443, 74068.19
4660.372, 73888.80
4662.300, 73762.71
4664.229, 73618.30
4666.157, 73350.12
4668.085, 73168.43
4670.014, 73050.14
4671.942, 72919.22
4673.871, 72774.27
4675.799, 72622.58
4677.728, 72513.82
4679.656, 72380.66
4681.585, 72207.85
4683.513, 72020.20
4685.442, 71898.03
4687.370, 71910.63
4689.299, 71765.48
4691.227, 71598.27
4693.156, 71508.50
4695.084, 71418.17
4697.013, 71335.85
4698.941, 71334.23
4700.870, 71187.80
4702.798, 70951.32
4704.727, 70805.38
4706.655, 70679.80
4708.583, 70570.24
4710.512, 70532.27
4712.440, 70445.77
4714.369, 70270.17
4716.297, 70170.89
4718.226, 70045.45
4720.154, 69845.17
4722.083, 69736.87
4724.011, 69689.05
4725.939, 69681.63
4727.868, 69649.15
4729.796, 69564.52
4731.725, 69360.53
4733.653, 69225.43
4735.582, 69150.51
4737.510, 69133.16
4739.439, 69037.77
4741.367, 68887.80
4743.296, 68776.13
4745.224, 68715.82
4747.153, 68685.07
4749.081, 68509.38
4751.010, 68452.66
4752.938, 68552.26
4754.867, 68423.40
4756.795, 68253.20
4758.724, 68144.51
4760.652, 68066.13
4762.581, 67976.74
4764.509, 67850.88
4766.438, 67667.68
4768.366, 67535.72
4770.294, 67611.70
4772.223, 67580.95
4774.151, 67522.27
4776.080, 67540.12
4778.008, 67590.40
4779.937, 67603.07
4781.865, 67451.41
4783.793, 67357.11
4785.722, 67308.52
4787.650, 67191.54
4789.579, 67054.42
4791.507, 66930.34
4793.436, 66913.71
4795.364, 66871.21
4797.293, 66759.44
4799.221, 66460.21
4801.150, 66356.33
4803.078, 66496.66
4805.007, 66332.13
4806.935, 66133.08
4808.864, 66015.55
4810.792, 66117.20
4812.721, 66153.41
4814.649, 65993.49
4816.578, 65916.10
4818.506, 65838.52
4820.435, 65674.47
4822.363, 65671.13
4824.292, 65686.40
4826.220, 65620.20
4828.148, 65435.82
4830.077, 65266.70
4832.005, 65246.94
4833.934, 65295.87
4835.862, 65320.43
4837.791, 65207.31
4839.719, 65180.06
4841.647, 65188.00
4843.576, 65164.32
4845.504, 65046.63
4847.433, 64892.56
4849.361, 64761.75
4851.290, 64850.55
4853.218, 64981.21
4855.147, 64807.66
4857.075, 64716.54
4859.004, 64672.54
4860.932, 64513.54
4862.861, 64402.29
4864.789, 64346.93
4866.718, 64315.49
4868.646, 64322.79
4870.575, 64315.18
4872.503, 64141.26
4874.432, 63996.80
4876.360, 63896.09
4878.289, 63777.97
4880.217, 63684.87
4882.146, 63631.29
4884.074, 63697.21
4886.002, 63628.00
4887.931, 63451.43
4889.859, 63386.18
4891.788, 63263.59
4893.716, 63115.43
4895.645, 63119.84
4897.573, 63225.19
4899.501, 63324.80
4901.430, 63095.23
4903.358, 62967.91
4905.287, 62936.30
4907.215, 62720.02
4909.144, 62595.36
4911.072, 62560.36
4913.001, 62380.32
4914.929, 62350.61
4916.858, 62418.94
4918.786, 62275.46
4920.715, 62216.33
4922.643, 62240.45
4924.572, 62241.57
4926.500, 62144.60
4928.429, 61969.58
4930.357, 61729.01
4932.286, 61657.11
4934.214, 61728.30
4936.143, 61854.84
4938.071, 61770.03
4940.000, 61586.77
4941.928, 61647.01
4943.856, 61671.13
4945.785, 61635.80
4947.713, 61590.48
4949.642, 61530.50
4951.570, 61429.68
4953.499, 61219.41
4955.427, 61086.43
4957.355, 61000.75
4959.284, 60885.89
4961.212, 60812.38
4963.141, 60769.11
4965.069, 60716.48
4966.998, 60792.93
4968.926, 60883.75
4970.855, 60831.60
4972.783, 60914.47
4974.712, 60948.56
4976.640, 60698.65
4978.569, 60508.25
4980.497, 60380.95
4982.426, 60329.14
4984.354, 60275.38
4986.283, 60206.01
4988.211, 60102.09
4990.140, 60111.75
4992.068, 60156.55
4993.997, 60182.58
4995.925, 59990.41
4997.854, 59898.32
4999.782, 60003.05
5001.710, 59919.44
5003.639, 59825.26
5005.567, 59780.57
5007.496, 59738.89
5009.424, 59730.21
5011.353, 59725.57
5013.281, 59577.99
5015.209, 59531.33
5017.138, 59572.85
5019.066, 59566.27
5020.995, 59391.52
5022.923, 59161.16
5024.852, 59136.25
5026.780, 59052.09
5028.709, 58976.20
5030.637, 59069.44
5032.566, 59075.93
5034.494, 59032.98
5036.423, 58999.80
5038.351, 58916.36
5040.280, 58811.14
5042.208, 58715.58
5044.137, 58781.71
5046.065, 58842.82
5047.994, 58788.77
5049.922, 58735.34
5051.851, 58628.33
5053.779, 58457.19
5055.708, 58277.56
5057.636, 58074.15
5059.564, 57905.87
5061.493, 57980.63
5063.421, 58023.36
5065.350, 58009.93
5067.278, 58039.31
5069.207, 57972.50
5071.135, 57870.37
5073.063, 57879.17
5074.992, 57723.62
5076.920, 57526.23
5078.849, 57425.67
5080.777, 57369.95
5082.706, 57350.02
5084.634, 57346.84
5086.563, 57191.68
5088.491, 57095.49
5090.420, 57117.29
5092.348, 56993.67
5094.277, 56816.94
5096.205, 56660.60
5098.134, 56700.92
5100.062, 56698.83
5101.991, 56626.49
5103.919, 56551.79
5105.848, 56310.46
5107.776, 56043.77
5109.705, 55930.00
5111.633, 55925.02
5113.562, 55809.77
5115.490, 55443.93
5117.418, 55391.90
5119.347, 55368.54
5121.275, 55262.22
5123.204, 55264.55
5125.132, 55143.83
5127.061, 54906.03
5128.989, 54776.33
5130.917, 54624.16
5132.846, 54465.60
5134.774, 54357.89
5136.703, 54348.92
5138.631, 54332.34
5140.560, 54202.04
5142.488, 54081.90
5144.417, 53918.20
5146.345, 53695.01
5148.274, 53649.45
5150.202, 53579.41
5152.131, 53454.83
5154.059, 53422.88
5155.988, 53266.25
5157.916, 53066.55
5159.845, 53065.36
5161.773, 52949.56
5163.702, 52826.39
5165.630, 52807.52
5167.559, 52821.70
5169.487, 52812.09
5171.416, 52746.87
5173.344, 52639.45
5175.272, 52481.86
5177.201, 52278.62
5179.129, 52013.91
5181.058, 51930.48
5182.986, 51837.24
5184.915, 51400.51
5186.843, 51053.34
5188.771, 50753.70
5190.700, 50447.47
5192.628, 50070.21
5194.557, 49831.59
5196.485, 49735.69
5198.414, 49331.79
5200.342, 49161.20
5202.271, 49147.41
5204.199, 48957.82
5206.128, 48811.43
5208.056, 48731.83
5209.985, 48749.20
5211.913, 48644.55
5213.842, 48554.27
5215.770, 48515.06
5217.699, 48481.84
5219.627, 48253.34
5221.556, 47937.54
5223.484, 47815.48
5225.413, 47874.51
5227.341, 47920.38
5229.270, 47758.63
5231.198, 47608.18
5233.126, 47516.71
5235.055, 47463.23
5236.983, 47228.18
5238.912, 47099.11
5240.840, 47063.39
5242.769, 46971.50
5244.697, 46832.96
5246.625, 46706.84
5248.554, 46633.10
5250.482, 46592.65
5252.411, 46528.15
5254.339, 46409.96
5256.268, 46157.00
5258.196, 46010.96
5260.125, 45928.37
5262.053, 45758.46
5263.982, 45738.13
5265.910, 45715.04
5267.839, 45601.73
5269.767, 45578.63
5271.696, 45521.40
5273.624, 45435.56
5275.553, 45458.16
5277.481, 45387.46
5279.410, 45255.05
5281.338, 45075.74
5283.267, 45192.27
5285.195, 45170.23
5287.124, 44916.61
5289.052, 44935.55
5290.980, 44924.17
5292.909, 44845.11
5294.837, 44712.74
5296.766, 44734.76
5298.694, 44633.98
5300.623, 44260.99
5302.551, 44110.63
5304.479, 44042.07
5306.408, 44005.13
5308.336, 43985.50
5310.265, 43905.30
5312.193, 43763.98
5314.122, 43576.18
5316.050, 43560.89
5317.979, 43621.75
5319.907, 43677.54
5321.836, 43609.03
5323.764, 43434.52
5325.693, 43279.23
5327.621, 43256.98
5329.550, 43094.07
5331.478, 42992.11
5333.407, 42994.58
5335.335, 42994.02
5337.264, 42771.71
5339.192, 42545.64
5341.121, 42595.55
5343.049, 42815.64
5344.978, 42791.58
5346.906, 42471.48
5348.834, 42335.12
5350.763, 42234.51
5352.691, 42131.59
5354.620, 42016.11
5356.548, 41967.62
5358.477, 41870.97
5360.405, 41695.77
5362.333, 41551.67
5364.262, 41425.64
5366.190, 41325.97
5368.119, 41270.33
5370.047, 41241.27
5371.976, 41174.72
5373.904, 41078.59
5375.833, 41090.17
5377.761, 41001.68
5379.690, 40908.80
5381.618, 40958.41
5383.547, 40995.54
5385.475, 40884.19
5387.404, 40652.89
5389.332, 40488.97
5391.261, 40468.53
5393.189, 40447.63
5395.118, 40305.89
5397.046, 40205.57
5398.975, 40080.01
5400.903, 39955.16
5402.832, 39953.11
5404.760, 39941.09
5406.688, 39842.35
5408.617, 39633.98
5410.545, 39623.78
5412.474, 39527.03
5414.402, 39361.63
5416.331, 39262.31
5418.259, 39071.76
5420.188, 38921.81
5422.116, 38868.82
5424.044, 38840.01
5425.973, 38802.39
5427.901, 38702.63
5429.830, 38487.98
5431.758, 38631.39
5433.687, 38581.52
5435.615, 38306.32
5437.544, 38170.97
5439.472, 38118.88
5441.401, 38070.31
5443.329, 37970.16
5445.258, 37757.19
5447.186, 37614.86
5449.115, 37500.59
5451.043, 37278.20
5452.972, 37280.46
5454.900, 37300.45
5456.829, 37261.20
5458.757, 37232.75
5460.686, 37187.31
5462.614, 37092.23
5464.542, 36940.87
5466.471, 36874.77
5468.399, 36828.90
5470.328, 36766.61
5472.256, 36655.35
5474.185, 36499.51
5476.113, 36406.96
5478.042, 36369.33
5479.970, 36193.68
5481.898, 36084.27
5483.827, 36038.05
5485.755, 36017.96
5487.684, 35933.86
5489.612, 35814.75
5491.541, 35703.35
5493.469, 35653.98
5495.398, 35540.40
5497.326, 35437.94
5499.255, 35383.26
5501.183, 35433.35
5503.112, 35318.30
5505.040, 35201.17
5506.969, 35167.59
5508.897, 34967.55
5510.826, 34911.02
5512.754, 34937.43
5514.683, 34938.34
5516.611, 34734.80
5518.540, 34482.83
5520.468, 34324.26
5522.396, 34489.29
5524.325, 34322.45
5526.253, 34204.30
5528.182, 34222.69
5530.110, 34120.95
5532.039, 34022.56
5533.967, 33926.56
5535.896, 33833.88
5537.824, 33809.73
5539.752, 33717.45
5541.681, 33658.50
5543.609, 33736.79
5545.538, 33594.41
5547.466, 33482.06
5549.395, 33439.34
5551.323, 33450.25
5553.252, 33212.85
5555.180, 33086.01
5557.109, 33089.35
5559.037, 32988.67
5560.966, 32847.05
5562.894, 32781.77
5564.823, 32787.98
5566.751, 32639.08
5568.680, 32563.01
5570.608, 32502.97
5572.537, 32417.76
5574.465, 32505.26
5576.394, 32365.72
5578.322, 32214.44
5580.250, 32290.87
5582.179, 32281.04
5584.107, 32136.05
5586.036, 31995.79
5587.964, 32008.78
5589.893, 31995.70
5591.821, 31966.02
5593.750, 31907.15
5595.678, 31795.48
5597.606, 31860.25
5599.535, 31903.67
5601.463, 31872.73
5603.392, 31793.86
5605.320, 31728.49
5607.249, 31690.33
5609.177, 31676.58
5611.106, 31671.47
5613.034, 31711.49
5614.963, 31737.07
5616.891, 31719.89
5618.820, 31664.67
5620.748, 31605.39
5622.677, 31513.37
5624.605, 31406.11
5626.534, 31438.01
5628.462, 31264.65
5630.391, 31094.98
5632.319, 31041.44
5634.248, 30921.88
5636.176, 30857.39
5638.104, 30760.29
5640.033, 30612.51
5641.961, 30709.08
5643.890, 30686.02
5645.818, 30589.23
5647.747, 30484.75
5649.675, 30326.85
5651.604, 30360.96
5653.532, 30406.56
5655.460, 30316.43
5657.389, 30097.15
5659.317, 30179.45
5661.246, 30280.79
5663.174, 30167.39
5665.103, 29992.62
5667.031, 29921.93
5668.960, 29844.92
5670.888, 29677.62
5672.817, 29560.29
5674.745, 29518.46
5676.674, 29421.40
5678.602, 29212.99
5680.531, 29134.54
5682.459, 29117.39
5684.388, 29097.46
5686.316, 29048.21
5688.245, 29057.75
5690.173, 28867.00
5692.102, 28704.49
5694.030, 28696.70
5695.958, 28646.96
5697.887, 28567.35
5699.815, 28439.20
5701.744, 28286.95
5703.672, 28276.75
5705.601, 28193.27
5707.529, 28040.17
5709.458, 27873.11
5711.386, 27870.42
5713.314, 27682.17
5715.243, 27514.52
5717.171, 27448.82
5719.100, 27409.67
5721.028, 27371.04
5722.957, 27282.58
5724.885, 27174.92
5726.814, 27137.53
5728.742, 27064.04
5730.671, 27069.50
5732.599, 27092.79
5734.528, 26992.46
5736.456, 26793.94
5738.385, 26671.64
5740.313, 26614.54
5742.242, 26550.01
5744.170, 26463.37
5746.099, 26323.18
5748.027, 26226.63
5749.956, 26249.61
5751.884, 26144.92
5753.813, 26052.52
5755.741, 25957.06
5757.669, 25835.13
5759.598, 25702.44
5761.526, 25600.83
5763.455, 25559.58
5765.383, 25555.74
5767.312, 25495.45
5769.240, 25428.35
5771.168, 25273.18
5773.097, 25112.33
5775.025, 25143.06
5776.954, 25017.25
5778.882, 24934.65
5780.811, 24874.99
5782.739, 24741.88
5784.668, 24658.16
5786.596, 24685.30
5788.525, 24722.59
5790.453, 24675.23
5792.382, 24534.15
5794.310, 24418.49
5796.239, 24311.25
5798.167, 24196.50
5800.096, 24071.47
5802.024, 24003.45
5803.953, 23932.01
5805.881, 23825.05
5807.810, 23677.63
5809.738, 23529.45
5811.667, 23468.40
5813.595, 23525.69
5815.523, 23755.85
5817.452, 24924.81
5819.380, 24252.61
5821.309, 23289.14
5823.237, 23175.92
5825.166, 23105.43
5827.094, 23046.55
5829.022, 22942.01
5830.951, 22833.50
5832.879, 22837.96
5834.808, 22640.24
5836.736, 22597.04
5838.665, 22605.10
5840.593, 22477.06
5842.522, 22377.40
5844.450, 22353.39
5846.379, 22302.19
5848.307, 22200.44
5850.236, 22199.06
5852.164, 22048.66
5854.093, 21910.09
5856.021, 21831.39
5857.950, 21788.35
5859.878, 21732.63
5861.807, 21684.19
5863.735, 21628.63
5865.664, 21560.07
5867.592, 21494.85
5869.521, 21786.43
5871.449, 21716.27
5873.377, 21342.61
5875.306, 21268.80
5877.234, 21217.42
5879.163, 21131.79
5881.091, 21067.55
5883.020, 21044.11
5884.948, 20879.52
5886.876, 20888.63
5888.805, 20862.87
5890.733, 20774.53
5892.662, 20775.15
5894.590, 20658.76
5896.519, 20586.40
5898.447, 20496.45
5900.376, 20350.00
5902.304, 20445.18
5904.233, 20339.04
5906.161, 20280.89
5908.090, 20297.67
5910.018, 20201.45
5911.947, 20080.99
5913.875, 20045.67
5915.804, 20046.98
5917.732, 20036.42
5919.661, 20096.69
5921.589, 19893.35
5923.518, 19767.45
5925.446, 19754.80
5927.375, 19707.38
5929.303, 19504.05
5931.231, 19462.57
5933.160, 19524.78
5935.088, 19556.94
5937.017, 19393.59
5938.945, 19357.80
5940.874, 19300.74
5942.802, 19247.91
5944.730, 19246.56
5946.659, 19071.10
5948.587, 18967.45
5950.516, 18894.68
5952.444, 18829.28
5954.373, 18787.51
5956.301, 18763.48
5958.230, 18794.45
5960.158, 18753.51
5962.087, 18611.48
5964.015, 18538.17
5965.944, 18510.31
5967.872, 18485.28
5969.801, 18427.96
5971.729, 18342.15
5973.658, 18358.03
5975.586, 18208.63
5977.515, 18149.61
5979.443, 18183.05
5981.372, 18162.31
5983.300, 18203.09
5985.229, 18105.14
5987.157, 17993.32
5989.085, 17907.83
5991.014, 17762.02
5992.942, 17695.65
5994.871, 17716.30
5996.799, 17710.79
5998.728, 17642.39
6000.656, 17628.43
6002.584, 17489.05
6004.513, 17548.13
6006.441, 17638.55
6008.370, 17567.19
6010.298, 17478.34
6012.227, 17399.96
6014.155, 17239.70
6016.083, 17108.80
6018.012, 17126.65
6019.940, 17142.11
6021.869, 17049.01
6023.797, 16999.23
6025.726, 17014.63
6027.654, 17025.52
6029.583, 16888.82
6031.511, 16799.47
6033.440, 16787.89
6035.368, 16808.22
6037.297, 16791.38
6039.225, 16778.14
6041.154, 16746.77
6043.082, 16677.73
6045.011, 16590.23
6046.939, 16533.52
6048.868, 16362.09
6050.796, 16345.07
6052.725, 16374.13
6054.653, 16388.00
6056.582, 16421.38
6058.510, 16421.72
6060.438, 16279.03
6062.367, 16222.42
6064.295, 16237.73
6066.224, 16055.78
6068.152, 16059.86
6070.081, 15982.33
6072.009, 15886.51
6073.938, 15838.83
6075.866, 15856.81
6077.794, 15702.06
6079.723, 15575.38
6081.651, 15596.17
6083.580, 15647.07
6085.508, 15477.02
6087.437, 15448.98
6089.365, 15462.63
6091.294, 15445.56
6093.222, 15395.70
6095.151, 15346.96
6097.079, 15417.58
6099.008, 15360.61
6100.936, 15347.51
6102.865, 15317.35
6104.793, 15131.47
6106.722, 15116.39
6108.650, 15119.11
6110.579, 15068.85
6112.507, 14943.86
6114.436, 14789.35
6116.364, 14873.58
6118.292, 14890.49
6120.221, 14789.46
6122.149, 14729.01
6124.078, 14781.97
6126.006, 14755.35
6127.935, 14654.49
6129.863, 14585.51
6131.792, 14606.68
6133.720, 14639.53
6135.648, 14471.67
6137.577, 14411.73
6139.505, 14327.81
6141.434, 14278.72
6143.362, 14282.13
6145.291, 14293.07
6147.219, 14266.83
6149.148, 14336.57
6151.076, 14257.10
6153.005, 14135.59
6154.933, 14130.78
6156.862, 13970.92
6158.790, 13954.63
6160.719, 13940.70
6162.647, 13939.58
6164.576, 13959.61
6166.504, 13926.83
6168.433, 13764.89
6170.361, 13747.66
6172.290, 13737.56
6174.218, 13743.85
6176.146, 13859.95
6178.075, 13710.09
6180.003, 13675.13
6181.932, 13616.52
6183.860, 13550.50
6185.789, 13524.53
6187.717, 13466.22
6189.646, 13398.09
6191.574, 13377.87
6193.502, 13383.09
6195.431, 13352.67
6197.359, 13244.50
6199.288, 13191.89
6201.216, 13162.11
6203.145, 13191.02
6205.073, 13183.35
6207.002, 13097.00
6208.930, 13116.80
6210.859, 13000.77
6212.787, 12961.84
6214.716, 12925.28
6216.644, 12897.81
6218.573, 12968.81
6220.501, 12886.60
6222.430, 12837.78
6224.358, 12834.28
6226.287, 12829.38
6228.215, 12781.46
6230.144, 12672.72
6232.072, 12671.86
6234.000, 12641.00
6235.929, 12626.88
6237.857, 12606.02
6239.786, 12525.93
6241.714, 12464.79
6243.643, 12418.86
6245.571, 12383.12
6247.500, 12364.38
6249.428, 12364.69
6251.356, 12374.33
6253.285, 12318.29
6255.213, 12288.64
6257.142, 12253.46
6259.070, 12206.73
6260.999, 12172.93
6262.927, 12185.63
6264.856, 12143.60
6266.784, 12063.93
6268.713, 12084.64
6270.641, 12092.30
6272.570, 11990.26
6274.498, 11929.29
6276.427, 11877.51
6278.355, 11885.73
6280.284, 11849.92
6282.212, 11804.10
6284.141, 11824.57
6286.069, 11854.56
6287.998, 11718.61
6289.926, 11681.91
6291.854, 11691.82
6293.783, 11660.32
6295.711, 11574.06
6297.640, 11537.26
6299.568, 11511.60
6301.497, 11541.22
6303.425, 11590.44
6305.354, 11595.86
6307.282, 11522.23
6309.210, 11416.45
6311.139, 11480.36
6313.067, 11376.07
6314.996, 11314.18
6316.924, 11341.38
6318.853, 11319.86
6320.781, 11172.71
6322.710, 11211.93
6324.638, 11255.64
6326.567, 11203.29
6328.495, 11096.50
6330.424, 11029.39
6332.352, 11053.18
6334.281, 11069.16
6336.209, 11017.06
6338.138, 10961.92
6340.066, 10957.96
6341.995, 10972.95
6343.923, 10880.38
6345.852, 10848.22
6347.780, 10896.87
6349.708, 10910.99
6351.637, 10885.08
6353.565, 10838.11
6355.494, 10741.26
6357.422, 10766.01
6359.351, 10728.47
6361.279, 10663.61
6363.208, 10611.97
6365.136, 10580.93
6367.064, 10560.31
6368.993, 10584.15
6370.921, 10543.35
6372.850, 10497.43
6374.778, 10480.56
6376.707, 10458.06
6378.635, 10400.84
6380.564, 10375.05
6382.492, 10378.82
6384.421, 10313.42
6386.349, 10345.74
6388.278, 10384.09
6390.206, 10348.77
6392.135, 10358.60
6394.063, 10279.19
6395.992, 10224.07
6397.920, 10124.41
6399.849, 10102.78
6401.777, 10115.23
6403.706, 10029.71
6405.634, 10052.79
6407.563, 10101.66
6409.491, 10065.23
6411.419, 9986.396
6413.348, 9917.875
6415.276, 9879.182
6417.205, 9863.795
6419.133, 9865.678
6421.062, 9819.632
6422.990, 9792.886
6424.918, 9763.118
6426.847, 9732.139
6428.775, 9712.056
6430.704, 9665.083
6432.632, 9686.396
6434.561, 9658.233
6436.489, 9673.164
6438.418, 9676.986
6440.346, 9651.202
6442.275, 9639.681
6444.203, 9540.616
6446.132, 9580.533
6448.060, 9565.439
6449.989, 9587.496
6451.917, 9569.991
6453.846, 9466.147
6455.774, 9371.161
6457.703, 9366.720
6459.631, 9377.949
6461.560, 9313.443
6463.488, 9293.363
6465.417, 9266.155
6467.345, 9214.733
6469.273, 9245.504
6471.202, 9204.836
6473.130, 9151.994
6475.059, 9120.518
6476.987, 9115.100
6478.916, 9127.012
6480.844, 9115.334
6482.772, 9030.909
6484.701, 9145.637
6486.629, 9110.853
6488.558, 9056.925
6490.486, 9007.502
6492.415, 8971.831
6494.343, 8963.442
6496.272, 8952.242
6498.200, 8795.884
6500.129, 8865.011
6502.057, 8828.004
6503.986, 8847.896
6505.914, 8888.118
6507.843, 8845.907
6509.771, 8734.182
6511.700, 8717.822
6513.628, 8707.674
6515.557, 8636.184
6517.485, 8644.876
6519.414, 8598.399
6521.342, 8576.503
6523.271, 8677.184
6525.199, 8627.060
6527.127, 8589.679
6529.056, 8558.533
6530.984, 8564.154
6532.913, 8556.411
6534.841, 8547.237
6536.770, 8527.384
6538.698, 8430.111
6540.626, 8348.737
6542.555, 8343.890
6544.483, 8333.822
6546.412, 8276.230
6548.340, 8264.366
6550.269, 8280.828
6552.197, 8256.193
6554.126, 8253.313
##END=



