##NAMES=Phenakite
##RRUFFID=R050137
##IDEAL CHEMISTRY=Be_2_(SiO_4_)
##LOCALITY=Mount Antero area, Chaffee County, Colorado, USA
##OWNER=RRUFF
##SOURCE=Dave Bunk Minerals
##DESCRIPTION=Colorless tabular hexagonal crystal
##STATUS=The identification of this mineral has been confirmed by X-ray diffraction and chemical analysis
##URL=https://www.rruff.net/odr/rruff_sample/R050137
##MEASURED CHEMISTRY=Be_2.00_Si_1.00_O_4_
##DIFFRACTION SAMPLE DESCRIPTION=Powder
##CELL PARAMETERS=a: 12.4714 b: 12.4714 c: 8.2509 alpha: 90 beta: 90 gamma: 120 volume: 1111.4 crystal system: hexagonal
##FILETYPE=Raman RAW
##RAMAN WAVELENGTH=780

81.86008, 0.0000000E+00
83.78855, 76.05704
85.71702, 81.99512
87.64548, 89.24261
89.57395, 97.53609
91.50242, 106.3378
93.43089, 116.2260
95.35935, 118.7391
97.28782, 118.3955
99.21629, 117.1965
101.1448, 114.6422
103.0732, 111.4837
105.0017, 109.3942
106.9301, 108.5610
108.8586, 107.4932
110.7871, 105.3964
112.7155, 104.0264
114.6440, 104.2572
116.5725, 105.5464
118.5009, 106.7702
120.4294, 107.9582
122.3579, 108.7206
124.2863, 108.8928
126.2148, 108.6969
128.1433, 108.2614
130.0717, 107.5246
132.0002, 105.9745
133.9287, 103.4933
135.8571, 102.4169
137.7856, 103.4466
139.7141, 105.3619
141.6425, 108.0680
143.5710, 111.0868
145.4995, 113.3811
147.4279, 115.0597
149.3564, 117.6961
151.2849, 120.4200
153.2133, 126.4146
155.1418, 137.5761
157.0703, 151.4523
158.9987, 169.3255
160.9272, 188.6763
162.8557, 195.8429
164.7841, 185.6334
166.7126, 171.5981
168.6411, 152.4423
170.5695, 135.0410
172.4980, 124.3555
174.4265, 119.8419
176.3549, 120.8125
178.2834, 129.0410
180.2119, 137.1277
182.1403, 144.0489
184.0688, 150.5162
185.9973, 157.8721
187.9257, 164.4436
189.8542, 167.4729
191.7827, 166.2818
193.7111, 165.5742
195.6396, 164.9290
197.5681, 165.8228
199.4965, 168.4126
201.4250, 173.1240
203.3535, 180.0272
205.2819, 189.1091
207.2104, 200.0970
209.1389, 210.2841
211.0673, 226.4668
212.9958, 241.6617
214.9243, 271.2804
216.8527, 333.4162
218.7812, 415.0918
220.7097, 485.3590
222.6381, 550.7865
224.5666, 581.8643
226.4951, 568.1254
228.4235, 537.6151
230.3520, 496.0453
232.2805, 447.2194
234.2089, 391.4820
236.1374, 328.7212
238.0659, 274.2411
239.9943, 226.7825
241.9228, 189.4814
243.8513, 165.2218
245.7797, 149.4149
247.7082, 140.2083
249.6367, 136.6239
251.5651, 137.6425
253.4936, 143.8299
255.4221, 148.2890
257.3505, 150.9289
259.2790, 150.9675
261.2075, 146.1237
263.1359, 140.4517
265.0644, 136.5889
266.9929, 134.6227
268.9213, 134.0326
270.8498, 138.8836
272.7783, 139.8142
274.7067, 155.2537
276.6352, 170.2094
278.5637, 184.7729
280.4921, 194.1960
282.4206, 190.2746
284.3491, 175.3992
286.2775, 160.0466
288.2060, 143.6245
290.1345, 131.1762
292.0629, 125.3719
293.9914, 121.8851
295.9199, 119.3460
297.8483, 117.8899
299.7768, 118.0781
301.7053, 119.5630
303.6337, 120.4977
305.5622, 120.2020
307.4907, 120.6082
309.4191, 122.4641
311.3476, 124.4468
313.2761, 125.9721
315.2045, 127.2462
317.1330, 128.3661
319.0615, 129.3420
320.9899, 130.6573
322.9184, 132.0010
324.8469, 134.3702
326.7753, 137.9243
328.7038, 142.4002
330.6323, 148.2744
332.5607, 154.6039
334.4892, 159.6065
336.4177, 163.1025
338.3461, 169.8470
340.2746, 179.3365
342.2031, 193.4006
344.1315, 218.4135
346.0600, 240.0411
347.9885, 253.2814
349.9169, 257.1937
351.8454, 247.8062
353.7739, 225.5464
355.7023, 203.0645
357.6308, 178.3039
359.5593, 159.4270
361.4877, 148.2353
363.4162, 141.3452
365.3447, 138.4646
367.2731, 138.1063
369.2016, 139.2387
371.1300, 141.9422
373.0585, 145.8126
374.9870, 150.0511
376.9154, 161.0067
378.8439, 181.8885
380.7724, 203.2168
382.7008, 228.9685
384.6293, 245.8118
386.5578, 242.6892
388.4862, 224.7361
390.4147, 200.4742
392.3432, 170.4173
394.2716, 147.2579
396.2001, 131.8202
398.1286, 122.5124
400.0570, 120.8715
401.9855, 123.2814
403.9140, 130.8836
405.8424, 139.8784
407.7709, 146.3511
409.6994, 150.2514
411.6278, 151.3517
413.5563, 149.4755
415.4848, 146.9760
417.4132, 142.2929
419.3417, 140.6695
421.2702, 143.6008
423.1986, 149.6017
425.1271, 158.4896
427.0556, 169.4804
428.9840, 181.0179
430.9125, 193.2138
432.8410, 206.2164
434.7694, 216.9554
436.6979, 239.1003
438.6264, 275.5422
440.5548, 321.0778
442.4833, 395.6681
444.4118, 458.7170
446.3402, 475.8114
448.2687, 457.4891
450.1972, 412.9035
452.1256, 341.7702
454.0541, 279.4653
455.9826, 225.7101
457.9110, 185.6320
459.8395, 163.2055
461.7680, 148.9079
463.6964, 143.7981
465.6249, 141.4907
467.5534, 137.5079
469.4818, 132.3546
471.4103, 126.5286
473.3388, 119.8276
475.2672, 116.0690
477.1957, 115.7445
479.1242, 117.0184
481.0526, 120.2334
482.9811, 124.2266
484.9096, 129.9114
486.8380, 134.4958
488.7665, 135.9150
490.6950, 135.2100
492.6234, 133.8295
494.5519, 131.7855
496.4804, 129.8282
498.4088, 127.7070
500.3373, 127.3345
502.2658, 129.1451
504.1942, 132.0988
506.1227, 136.0775
508.0512, 140.8108
509.9796, 146.1436
511.9081, 152.2582
513.8365, 157.9104
515.7650, 164.3671
517.6935, 177.1434
519.6219, 195.8262
521.5504, 220.0044
523.4789, 253.4145
525.4073, 275.5539
527.3358, 281.4440
529.2643, 273.6985
531.1927, 246.0959
533.1212, 213.7127
535.0497, 184.4260
536.9781, 159.4192
538.9066, 141.2510
540.8351, 129.0387
542.7635, 120.6150
544.6920, 116.0133
546.6205, 112.5852
548.5490, 110.0003
550.4774, 108.5820
552.4059, 108.7768
554.3344, 109.4461
556.2628, 110.2304
558.1913, 111.3902
560.1198, 113.2939
562.0482, 115.5261
563.9767, 117.3534
565.9052, 118.9533
567.8336, 120.8467
569.7621, 122.8018
571.6906, 126.7569
573.6190, 134.3859
575.5475, 141.5755
577.4760, 150.3245
579.4044, 155.3911
581.3329, 153.3827
583.2614, 148.8893
585.1898, 144.1668
587.1183, 139.3899
589.0468, 133.6903
590.9752, 128.4688
592.9037, 128.3076
594.8322, 133.4189
596.7606, 140.8597
598.6891, 152.8667
600.6176, 160.7368
602.5460, 163.1682
604.4745, 163.0922
606.4030, 159.3919
608.3314, 156.5655
610.2599, 157.3268
612.1884, 159.8171
614.1168, 164.7139
616.0453, 169.3864
617.9738, 169.2686
619.9022, 164.4483
621.8307, 155.4957
623.7592, 142.0930
625.6876, 130.2765
627.6161, 120.0404
629.5446, 112.1351
631.4730, 107.0228
633.4015, 103.4934
635.3300, 101.6902
637.2584, 100.4745
639.1869, 99.49130
641.1154, 98.93914
643.0438, 98.96737
644.9723, 99.26943
646.9008, 99.62092
648.8292, 100.1996
650.7577, 100.9662
652.6862, 101.9428
654.6146, 103.5450
656.5431, 105.8117
658.4716, 108.0926
660.4000, 110.0673
662.3285, 112.7589
664.2570, 116.9086
666.1854, 121.0997
668.1139, 125.9079
670.0424, 129.3280
671.9708, 129.6864
673.8993, 128.7003
675.8278, 127.4057
677.7562, 126.1877
679.6847, 125.3464
681.6132, 125.1992
683.5416, 127.0341
685.4701, 130.8120
687.3986, 134.4551
689.3270, 137.8049
691.2555, 141.1635
693.1840, 143.7223
695.1124, 147.6880
697.0409, 154.0234
698.9694, 160.5108
700.8978, 168.1039
702.8263, 173.8643
704.7548, 177.1460
706.6832, 176.6108
708.6117, 170.0134
710.5402, 160.3798
712.4686, 149.0122
714.3971, 137.6725
716.3256, 130.3966
718.2540, 126.8997
720.1825, 124.3458
722.1110, 122.4027
724.0394, 126.4212
725.9679, 138.4115
727.8964, 145.6562
729.8248, 146.6685
731.7533, 147.3657
733.6818, 149.0533
735.6102, 149.1582
737.5387, 145.7101
739.4672, 142.6848
741.3956, 142.0366
743.3241, 142.5020
745.2526, 143.4810
747.1810, 144.9020
749.1095, 147.0408
751.0380, 149.6428
752.9664, 151.4930
754.8949, 153.6831
756.8234, 159.0332
758.7518, 167.1898
760.6803, 176.9461
762.6088, 188.3916
764.5372, 201.0851
766.4657, 214.9534
768.3942, 227.6436
770.3226, 238.4678
772.2511, 250.8506
774.1796, 267.5141
776.1080, 280.6963
778.0365, 290.1304
779.9650, 293.1121
781.8934, 287.3769
783.8218, 276.9816
785.7503, 262.2124
787.6788, 245.6703
789.6072, 228.4055
791.5357, 210.9333
793.4642, 192.5724
795.3926, 175.4144
797.3211, 161.8621
799.2496, 151.5743
801.1780, 144.9941
803.1065, 141.3506
805.0350, 138.7931
806.9634, 137.2995
808.8919, 135.7423
810.8204, 133.9749
812.7488, 131.2454
814.6773, 126.9894
816.6058, 124.3012
818.5342, 123.6192
820.4627, 123.4139
822.3912, 123.1344
824.3196, 124.7737
826.2481, 128.5490
828.1766, 133.9769
830.1050, 138.8164
832.0335, 148.8674
833.9620, 159.7288
835.8904, 188.8048
837.8189, 243.5933
839.7474, 322.0805
841.6758, 446.1529
843.6043, 567.3362
845.5328, 657.9126
847.4612, 716.0735
849.3897, 729.9996
851.3182, 719.8627
853.2466, 703.4449
855.1751, 692.4014
857.1036, 707.8301
859.0320, 751.8423
860.9605, 833.6914
862.8890, 949.5625
864.8174, 1076.675
866.7459, 1215.980
868.6744, 1365.401
870.6028, 1525.135
872.5313, 1789.968
874.4598, 2166.575
876.3882, 2592.990
878.3167, 3085.965
880.2452, 3343.029
882.1736, 3314.619
884.1021, 3087.638
886.0306, 2622.610
887.9590, 2156.210
889.8875, 1712.877
891.8160, 1335.793
893.7444, 1039.898
895.6729, 807.4321
897.6014, 642.9005
899.5298, 525.1431
901.4583, 460.2378
903.3868, 421.3046
905.3152, 405.8285
907.2437, 401.6140
909.1722, 404.3478
911.1006, 414.6531
913.0291, 438.5234
914.9576, 463.6700
916.8860, 487.1410
918.8145, 500.4728
920.7430, 494.9516
922.6714, 477.7902
924.5999, 449.7943
926.5284, 419.4267
928.4568, 393.0137
930.3853, 373.2390
932.3138, 365.1569
934.2422, 365.0328
936.1707, 372.3688
938.0992, 380.1211
940.0276, 375.7848
941.9561, 361.1103
943.8846, 337.7623
945.8130, 308.6783
947.7415, 280.8880
949.6700, 254.7592
951.5984, 231.6567
953.5269, 210.7000
955.4554, 192.8291
957.3839, 176.1089
959.3123, 162.2799
961.2408, 151.0972
963.1693, 141.8200
965.0977, 134.5323
967.0262, 129.3132
968.9547, 126.3161
970.8831, 124.4814
972.8116, 123.4416
974.7401, 123.2000
976.6685, 123.9341
978.5970, 125.9948
980.5255, 129.4231
982.4539, 133.9512
984.3824, 139.7092
986.3109, 146.0817
988.2393, 152.7351
990.1678, 158.0061
992.0963, 161.9670
994.0247, 165.1713
995.9532, 167.6278
997.8817, 168.9185
999.8101, 168.8914
1001.739, 169.2384
1003.667, 170.0265
1005.596, 172.1125
1007.524, 175.6436
1009.452, 180.5668
1011.381, 187.1156
1013.309, 193.6417
1015.238, 200.4690
1017.166, 204.5275
1019.095, 205.7290
1021.023, 203.2193
1022.952, 196.4747
1024.880, 187.2703
1026.809, 175.0924
1028.737, 162.5306
1030.666, 149.1408
1032.594, 137.5680
1034.522, 127.9790
1036.451, 120.0045
1038.379, 113.8992
1040.308, 109.0958
1042.236, 105.7540
1044.165, 102.8554
1046.093, 100.1998
1048.022, 98.51088
1049.950, 97.20770
1051.879, 97.37425
1053.807, 96.38455
1055.736, 96.42078
1057.664, 97.27711
1059.593, 97.88219
1061.521, 98.57688
1063.449, 98.94374
1065.378, 99.70683
1067.306, 100.3762
1069.235, 100.9831
1071.163, 102.1029
1073.092, 102.5973
1075.020, 103.9461
1076.949, 106.3930
1078.877, 108.9578
1080.806, 111.1813
1082.734, 113.5740
1084.663, 116.5416
1086.591, 120.8136
1088.520, 124.6071
1090.448, 130.7304
1092.376, 134.4196
1094.305, 139.5113
1096.233, 145.8914
1098.162, 151.0228
1100.090, 155.2116
1102.019, 160.9628
1103.947, 168.1046
1105.876, 176.2538
1107.804, 185.2187
1109.733, 194.5604
1111.661, 204.7162
1113.590, 216.3188
1115.518, 228.9060
1117.447, 241.6346
1119.375, 254.0091
1121.303, 266.1873
1123.232, 277.2708
1125.160, 284.3595
1127.089, 287.9203
1129.017, 288.6799
1130.946, 285.9636
1132.874, 279.2920
1134.803, 269.5094
1136.731, 256.2592
1138.660, 242.1562
1140.588, 229.8345
1142.517, 218.4494
1144.445, 207.4296
1146.374, 197.5846
1148.302, 189.3556
1150.230, 182.5886
1152.159, 177.6413
1154.087, 172.9541
1156.016, 167.4217
1157.944, 163.1966
1159.873, 161.2569
1161.801, 159.6637
1163.730, 157.8952
1165.658, 156.0198
1167.587, 153.9277
1169.515, 152.7432
1171.444, 152.6882
1173.372, 153.0587
1175.301, 154.0732
1177.229, 155.1232
1179.157, 155.7667
1181.086, 156.8132
1183.014, 158.2859
1184.943, 160.3075
1186.871, 163.0877
1188.800, 165.5626
1190.728, 167.9011
1192.657, 170.7436
1194.585, 173.6204
1196.514, 177.2648
1198.442, 181.9638
1200.371, 186.0662
1202.299, 189.4815
1204.228, 192.5779
1206.156, 195.7544
1208.084, 200.3645
1210.013, 204.6505
1211.941, 205.4489
1213.870, 204.6871
1215.798, 204.6664
1217.727, 204.6354
1219.655, 203.4048
1221.584, 201.9091
1223.512, 201.5275
1225.441, 200.8806
1227.369, 198.8639
1229.298, 196.9770
1231.226, 195.9458
1233.155, 194.5929
1235.083, 192.2191
1237.011, 190.0076
1238.940, 188.6674
1240.868, 187.3904
1242.797, 185.7479
1244.725, 183.7154
1246.654, 181.3340
1248.582, 179.6407
1250.511, 178.5461
1252.439, 176.2407
1254.368, 175.2092
1256.296, 172.1526
1258.225, 172.4718
1260.153, 171.3935
1262.082, 169.6264
1264.010, 170.4687
1265.938, 172.5690
1267.867, 172.7900
1269.795, 172.3061
1271.724, 172.7922
1273.652, 174.1288
1275.581, 176.4137
1277.509, 178.4611
1279.438, 179.2265
1281.366, 180.0235
1283.295, 181.3654
1285.223, 183.1650
1287.152, 185.3461
1289.080, 188.2468
1291.009, 190.2965
1292.937, 194.9828
1294.865, 195.6655
1296.794, 197.7762
1298.722, 201.5386
1300.651, 206.6382
1302.579, 212.3876
1304.508, 215.8809
1306.436, 221.7182
1308.365, 224.9088
1310.293, 231.9649
1312.222, 236.6949
1314.150, 241.3186
1316.079, 247.4204
1318.007, 253.9383
1319.936, 260.5687
1321.864, 268.2052
1323.792, 276.9742
1325.721, 285.7347
1327.649, 295.9917
1329.578, 305.3067
1331.506, 318.0279
1333.435, 330.4297
1335.363, 342.4307
1337.292, 353.4869
1339.220, 364.4515
1341.149, 376.5877
1343.077, 389.0940
1345.006, 401.2284
1346.934, 413.6880
1348.863, 426.7684
1350.791, 438.5591
1352.719, 448.0264
1354.648, 458.2044
1356.576, 470.7884
1358.505, 482.6855
1360.433, 492.2068
1362.362, 503.7030
1364.290, 518.6208
1366.219, 531.7924
1368.147, 542.1661
1370.076, 552.3506
1372.004, 562.4698
1373.933, 569.6781
1375.861, 584.2031
1377.790, 593.2401
1379.718, 614.3267
1381.646, 630.3572
1383.575, 650.2073
1385.503, 681.4552
1387.432, 718.6525
1389.360, 760.0079
1391.289, 809.5172
1393.217, 869.2658
1395.146, 935.2871
1397.074, 1010.670
1399.003, 1080.042
1400.931, 1135.679
1402.860, 1160.596
1404.788, 1151.714
1406.717, 1112.930
1408.645, 1053.406
1410.573, 985.6219
1412.502, 911.1666
1414.430, 831.2433
1416.359, 753.7626
1418.287, 679.8687
1420.216, 611.5704
1422.144, 550.7953
1424.073, 500.6341
1426.001, 460.3492
1427.930, 425.1514
1429.858, 395.3418
1431.787, 372.6370
1433.715, 356.1399
1435.644, 343.4365
1437.572, 333.1661
1439.500, 323.1333
1441.429, 313.4993
1443.357, 306.0738
1445.286, 299.7245
1447.214, 292.8862
1449.143, 285.3996
1451.071, 277.9423
1453.000, 272.2923
1454.928, 266.6733
1456.857, 262.1045
1458.785, 258.4898
1460.714, 255.3256
1462.642, 254.0019
1464.571, 252.6581
1466.499, 252.0291
1468.427, 253.5451
1470.356, 254.9859
1472.284, 255.4644
1474.213, 256.4749
1476.141, 258.2512
1478.070, 258.8186
1479.998, 260.4783
1481.927, 261.8332
1483.855, 263.3541
1485.784, 265.5226
1487.712, 266.9561
1489.641, 270.4643
1491.569, 274.4203
1493.498, 276.7816
1495.426, 278.7798
1497.354, 281.4693
1499.283, 284.5065
1501.211, 287.6510
1503.140, 292.2231
1505.068, 297.0692
1506.997, 299.7339
1508.925, 302.5214
1510.854, 307.4846
1512.782, 313.1106
1514.711, 319.3170
1516.639, 325.7086
1518.568, 331.2229
1520.496, 336.7250
1522.425, 343.0133
1524.353, 349.3140
1526.281, 355.4779
1528.210, 360.9766
1530.138, 365.5254
1532.067, 369.0927
1533.995, 372.3313
1535.924, 374.4860
1537.852, 376.0554
1539.781, 377.1204
1541.709, 377.4047
1543.638, 377.7180
1545.566, 377.6070
1547.495, 377.0379
1549.423, 374.8722
1551.352, 372.7091
1553.280, 372.4064
1555.208, 371.6323
1557.137, 370.1192
1559.065, 369.0057
1560.994, 370.2459
1562.922, 371.8549
1564.851, 374.0300
1566.779, 379.0043
1568.708, 382.9109
1570.636, 389.2074
1572.565, 396.8287
1574.493, 404.0765
1576.422, 411.3665
1578.350, 419.6497
1580.279, 428.8694
1582.207, 436.7753
1584.135, 442.4568
1586.064, 447.3724
1587.992, 451.2045
1589.921, 455.0880
1591.849, 461.0502
1593.778, 467.2580
1595.706, 473.6690
1597.635, 481.5312
1599.563, 490.2502
1601.492, 501.3553
1603.420, 516.3287
1605.349, 534.8291
1607.277, 555.7232
1609.205, 578.5143
1611.134, 602.2453
1613.062, 626.0493
1614.991, 647.6082
1616.919, 664.8510
1618.848, 680.7153
1620.776, 696.2296
1622.705, 710.3273
1624.633, 722.3814
1626.562, 735.8732
1628.490, 752.3942
1630.419, 771.8781
1632.347, 794.0029
1634.276, 819.6667
1636.204, 842.6783
1638.132, 859.9290
1640.061, 868.9572
1641.989, 867.8579
1643.918, 854.5989
1645.846, 827.6167
1647.775, 788.0137
1649.703, 743.7351
1651.632, 700.3909
1653.560, 655.9005
1655.489, 609.6994
1657.417, 566.0610
1659.346, 527.0458
1661.274, 493.6278
1663.203, 464.9306
1665.131, 440.4011
1667.059, 417.9848
1668.988, 399.1293
1670.916, 385.3957
1672.845, 374.1725
1674.773, 364.9078
1676.702, 357.1346
1678.630, 349.0366
1680.559, 342.6405
1682.487, 339.7960
1684.416, 338.4769
1686.344, 337.8615
1688.273, 336.3438
1690.201, 333.4505
1692.130, 332.4621
1694.058, 332.7948
1695.986, 332.5306
1697.915, 332.3288
1699.843, 331.8630
1701.772, 332.0009
1703.700, 332.7385
1705.629, 333.5356
1707.557, 334.8373
1709.486, 333.9023
1711.414, 330.6114
1713.343, 327.4588
1715.271, 324.3671
1717.200, 320.0929
1719.128, 314.8351
1721.057, 309.1132
1722.985, 302.7079
1724.913, 296.0600
1726.842, 290.1868
1728.770, 285.1542
1730.699, 280.5939
1732.627, 277.1936
1734.556, 274.6504
1736.484, 272.0847
1738.413, 269.6583
1740.341, 268.1759
1742.270, 268.1665
1744.198, 269.7196
1746.127, 271.2641
1748.055, 272.1779
1749.984, 274.0299
1751.912, 276.7664
1753.840, 281.9051
1755.769, 286.9654
1757.697, 291.8615
1759.626, 298.1990
1761.554, 303.5345
1763.483, 311.8256
1765.411, 318.7388
1767.340, 327.3116
1769.268, 337.8577
1771.197, 348.7094
1773.125, 359.4225
1775.054, 370.2643
1776.982, 382.5344
1778.911, 395.8304
1780.839, 408.2715
1782.767, 419.2003
1784.696, 429.4727
1786.624, 439.0326
1788.553, 447.8507
1790.481, 457.7586
1792.410, 467.8635
1794.338, 477.8351
1796.267, 486.1656
1798.195, 490.1703
1800.124, 493.2845
1802.052, 496.4609
1803.981, 495.8799
1805.909, 488.9770
1807.838, 476.8386
1809.766, 462.8085
1811.694, 447.5360
1813.623, 429.8408
1815.551, 410.0499
1817.480, 390.2288
1819.408, 372.2660
1821.337, 357.3401
1823.265, 343.7531
1825.194, 330.0766
1827.122, 318.9111
1829.051, 311.6506
1830.979, 304.7757
1832.908, 297.7787
1834.836, 294.5040
1836.765, 291.9836
1838.693, 288.9851
1840.621, 289.5106
1842.550, 291.4776
1844.478, 292.6223
1846.407, 295.4419
1848.335, 299.6525
1850.264, 305.2302
1852.192, 313.8512
1854.121, 325.3038
1856.049, 338.1931
1857.978, 350.4998
1859.906, 363.4855
1861.835, 380.8352
1863.763, 398.6940
1865.692, 414.5438
1867.620, 431.5823
1869.548, 447.2726
1871.477, 458.9449
1873.405, 466.9669
1875.334, 471.0645
1877.262, 471.9718
1879.191, 470.2243
1881.119, 461.8490
1883.048, 449.1517
1884.976, 437.5379
1886.905, 425.6488
1888.833, 412.3717
1890.762, 400.2115
1892.690, 389.1840
1894.619, 377.4154
1896.547, 366.6025
1898.475, 357.4551
1900.404, 349.1626
1902.332, 341.4736
1904.261, 336.0140
1906.189, 331.1158
1908.118, 324.5706
1910.046, 318.5539
1911.975, 313.2927
1913.903, 307.9007
1915.832, 302.0270
1917.760, 296.6817
1919.689, 290.8297
1921.617, 283.9730
1923.546, 277.3900
1925.474, 270.5342
1927.402, 264.6701
1929.331, 256.2431
1931.259, 250.1139
1933.188, 239.5329
1935.116, 230.4157
1937.045, 221.9736
1938.973, 212.2194
1940.902, 202.9220
1942.830, 195.3547
1944.759, 187.0682
1946.687, 179.3406
1948.616, 173.0923
1950.544, 166.8287
1952.473, 160.3305
1954.401, 153.9724
1956.329, 148.3594
1958.258, 143.4539
1960.186, 139.7982
1962.115, 136.8784
1964.043, 133.5640
1965.972, 129.4312
1967.900, 125.3307
1969.829, 123.0751
1971.757, 120.8624
1973.686, 117.2506
1975.614, 114.3314
1977.543, 109.3787
1979.471, 107.3590
1981.400, 103.9020
1983.328, 100.5307
1985.256, 97.52119
1987.185, 95.18517
1989.113, 93.34221
1991.042, 91.13529
1992.970, 89.46404
1994.899, 88.20927
1996.827, 86.49497
1998.756, 85.79644
2000.684, 84.17199
2002.613, 84.83766
2004.541, 81.99286
2006.470, 80.24379
2008.398, 80.41209
2010.327, 80.33857
2012.255, 80.05273
2014.183, 79.46178
2016.112, 79.07288
2018.040, 78.69379
2019.969, 77.93997
2021.897, 77.69038
2023.826, 77.23412
2025.754, 76.20117
2027.683, 75.18198
2029.611, 74.85085
2031.540, 74.75906
2033.468, 74.48549
2035.397, 73.16200
2037.325, 71.52687
2039.254, 70.32344
2041.182, 69.33374
2043.110, 68.39069
2045.039, 67.71848
2046.967, 66.39489
2048.896, 64.36586
2050.824, 63.15611
2052.753, 62.60104
2054.681, 62.97488
2056.610, 63.16242
2058.538, 62.08471
2060.467, 60.89149
2062.395, 60.31839
2064.323, 59.46459
2066.252, 58.57804
2068.180, 58.45493
2070.109, 58.25024
2072.037, 57.45031
2073.966, 55.92384
2075.894, 54.83974
2077.823, 55.08367
2079.751, 54.94622
2081.680, 53.83902
2083.608, 53.11818
2085.537, 52.76972
2087.465, 52.24979
2089.394, 51.96835
2091.322, 51.60038
2093.250, 51.23796
2095.179, 50.21243
2097.107, 50.02128
2099.036, 48.89327
2100.964, 49.02981
2102.893, 48.84311
2104.821, 48.01202
2106.750, 48.12660
2108.678, 46.85627
2110.607, 47.49632
2112.535, 47.04225
2114.464, 46.18409
2116.392, 46.08785
2118.321, 46.54707
2120.249, 46.73552
2122.177, 46.61567
2124.106, 45.99357
2126.034, 45.26789
2127.963, 44.91039
2129.891, 44.55802
2131.820, 44.44804
2133.748, 43.91294
2135.677, 43.91204
2137.605, 43.50377
2139.534, 42.54922
2141.462, 42.91448
2143.391, 42.82166
2145.319, 42.19286
2147.248, 42.55875
2149.176, 43.28063
2151.104, 43.11230
2153.033, 42.65244
2154.961, 42.14413
2156.890, 41.37575
2158.818, 40.75002
2160.747, 40.76093
2162.675, 41.04574
2164.604, 40.99808
2166.532, 40.95072
2168.461, 40.74757
2170.389, 39.93275
2172.318, 39.91432
2174.246, 38.86469
2176.175, 39.35873
2178.103, 39.63869
2180.031, 39.38841
2181.960, 38.92989
2183.888, 38.89410
2185.817, 38.46801
2187.745, 37.72330
2189.674, 37.79354
2191.602, 37.47628
2193.531, 37.35516
2195.459, 37.48583
2197.388, 37.15992
2199.316, 37.45363
2201.245, 37.03729
2203.173, 36.44975
2205.102, 36.64794
2207.030, 36.07563
2208.958, 35.83300
2210.887, 35.37278
2212.815, 35.42651
2214.744, 35.04485
2216.672, 35.42185
2218.601, 35.01765
2220.529, 35.17945
2222.458, 34.37971
2224.386, 33.75088
2226.315, 33.19813
2228.243, 32.96024
2230.172, 33.20211
2232.100, 33.40612
2234.029, 33.11266
2235.957, 32.91624
2237.885, 33.18184
2239.814, 32.95025
2241.742, 33.35793
2243.671, 33.04473
2245.599, 32.91049
2247.528, 32.84182
2249.456, 32.28285
2251.385, 32.36274
2253.313, 31.83177
2255.242, 31.44634
2257.170, 31.24831
2259.099, 30.89329
2261.027, 30.74563
2262.956, 30.45881
2264.884, 30.59035
2266.813, 29.96443
2268.741, 30.00676
2270.669, 29.81273
2272.598, 29.52998
2274.526, 29.61455
2276.455, 29.15692
2278.383, 29.48695
2280.312, 29.35306
2282.240, 28.96875
2284.169, 29.14526
2286.097, 28.89279
2288.026, 29.24387
2289.954, 29.34774
2291.883, 29.13699
2293.811, 28.75686
2295.740, 28.30936
2297.668, 28.10929
2299.596, 27.72336
2301.525, 27.81371
2303.453, 27.47637
2305.382, 27.39993
2307.310, 26.96226
2309.239, 26.83406
2311.167, 26.41242
2313.096, 26.83172
2315.024, 27.34238
2316.953, 26.76302
2318.881, 26.59951
2320.810, 26.53580
2322.738, 26.46185
2324.667, 26.97089
2326.595, 27.20939
2328.523, 26.64337
2330.452, 25.85636
2332.380, 25.24997
2334.309, 25.12392
2336.237, 25.57268
2338.166, 25.64157
2340.094, 25.85937
2342.023, 25.25813
2343.951, 24.59826
2345.880, 24.78070
2347.808, 24.79005
2349.737, 24.77626
2351.665, 25.00911
2353.594, 24.64454
2355.522, 24.10168
2357.450, 24.76085
2359.379, 25.22693
2361.307, 24.46762
2363.236, 24.11481
2365.164, 23.83282
2367.093, 23.86841
2369.021, 23.78730
2370.950, 23.45508
2372.878, 23.04942
2374.807, 22.92951
2376.735, 23.53869
2378.664, 23.83176
2380.592, 23.89025
2382.521, 23.09037
2384.449, 22.37103
2386.377, 22.75060
2388.306, 23.53146
2390.234, 23.29939
2392.163, 22.66527
2394.091, 22.34115
2396.020, 22.46379
2397.948, 21.94923
2399.877, 21.59467
2401.805, 22.28481
2403.734, 22.95704
2405.662, 22.56650
2407.591, 21.89981
2409.519, 21.74357
2411.448, 21.74558
2413.376, 21.66588
2415.304, 21.08000
2417.233, 20.92133
2419.161, 20.85765
2421.090, 20.58309
2423.018, 20.75767
2424.947, 20.48599
2426.875, 20.23482
2428.804, 20.44476
2430.732, 20.83262
2432.661, 20.28287
2434.589, 20.14436
2436.518, 20.71868
2438.446, 20.15172
2440.375, 19.28491
2442.303, 19.59328
2444.231, 19.35198
2446.160, 19.44421
2448.088, 19.64876
2450.017, 19.44544
2451.945, 19.84816
2453.874, 19.56884
2455.802, 19.18054
2457.731, 18.48061
2459.659, 18.02394
2461.588, 18.41770
2463.516, 18.68581
2465.445, 18.95168
2467.373, 18.83834
2469.302, 18.46633
2471.230, 18.23531
2473.158, 17.56508
2475.087, 17.82122
2477.015, 17.83201
2478.944, 17.33493
2480.872, 17.95124
2482.801, 18.10171
2484.729, 17.97679
2486.658, 17.99193
2488.586, 17.99233
2490.515, 17.22886
2492.443, 17.68379
2494.372, 17.59786
2496.300, 16.87910
2498.229, 16.94167
2500.157, 16.89619
2502.085, 17.07489
2504.014, 17.07958
2505.942, 17.30098
2507.871, 17.21670
2509.799, 17.13369
2511.728, 17.23561
2513.656, 17.12922
2515.585, 16.57658
2517.513, 16.25952
2519.442, 16.40937
2521.370, 16.99962
2523.299, 17.62792
2525.227, 17.42412
2527.156, 16.98380
2529.084, 16.18515
2531.012, 16.06327
2532.941, 16.36276
2534.869, 16.41518
2536.798, 16.04663
2538.726, 15.92140
2540.655, 15.48096
2542.583, 15.48439
2544.512, 15.45956
2546.440, 15.06864
2548.369, 15.62439
2550.297, 15.91710
2552.226, 15.57023
2554.154, 14.70695
2556.083, 14.25194
2558.011, 14.60632
2559.939, 14.69666
2561.868, 14.87290
2563.796, 15.06185
2565.725, 15.01265
2567.653, 14.83401
2569.582, 15.21881
2571.510, 15.65133
2573.439, 14.81599
2575.367, 14.12533
2577.296, 14.47782
2579.224, 14.64428
2581.153, 15.10591
2583.081, 15.17920
2585.010, 15.00852
2586.938, 14.50832
2588.866, 14.03025
2590.795, 13.90501
2592.723, 13.54475
2594.652, 13.41403
2596.580, 13.84426
2598.509, 13.13211
2600.437, 12.98347
2602.366, 13.85246
2604.294, 13.81785
2606.223, 13.94313
2608.151, 13.87306
2610.080, 13.71082
2612.008, 13.50183
2613.937, 13.01919
2615.865, 13.28948
2617.793, 14.51965
2619.722, 13.68249
2621.650, 13.95744
2623.579, 14.08366
2625.507, 13.57289
2627.436, 13.09596
2629.364, 12.56596
2631.293, 12.78706
2633.221, 13.07229
2635.150, 13.49800
2637.078, 13.07494
2639.007, 12.99836
2640.935, 11.69780
2642.864, 12.32444
2644.792, 12.10658
2646.720, 12.08730
2648.649, 12.83439
2650.577, 11.97160
2652.506, 11.24748
2654.434, 11.01548
2656.363, 11.34570
2658.291, 11.47312
2660.220, 11.19103
2662.148, 11.69856
2664.077, 11.25118
2666.005, 10.23770
2667.934, 10.03945
2669.862, 10.65961
2671.791, 11.11275
2673.719, 10.23619
2675.647, 9.857255
2677.576, 10.14398
2679.504, 10.15738
2681.433, 10.00415
2683.361, 10.25714
2685.290, 10.11020
2687.218, 10.27154
2689.147, 10.34540
2691.075, 10.26262
2693.004, 9.924604
2694.932, 9.902681
2696.861, 9.634236
2698.789, 9.637165
2700.718, 9.169104
2702.646, 9.751901
2704.574, 9.536100
2706.503, 9.732679
2708.431, 10.13938
2710.360, 8.922963
2712.288, 9.362636
2714.217, 9.659744
2716.145, 8.534393
2718.074, 8.197477
2720.002, 8.539502
2721.931, 8.533031
2723.859, 8.458874
2725.788, 8.684525
2727.716, 8.427675
2729.645, 8.470034
2731.573, 8.650481
2733.501, 8.627422
2735.430, 8.082542
2737.358, 7.843700
2739.287, 8.191161
2741.215, 8.332347
2743.144, 8.249151
2745.072, 8.388144
2747.001, 8.836031
2748.929, 8.178816
2750.858, 7.420623
2752.786, 7.303428
2754.715, 8.014452
2756.643, 8.398828
2758.572, 7.697117
2760.500, 7.316425
2762.428, 7.825841
2764.357, 8.547814
2766.285, 8.103169
2768.214, 8.057535
2770.142, 8.080915
2772.071, 7.676834
2773.999, 7.688739
2775.928, 7.835548
2777.856, 7.177276
2779.785, 6.647558
2781.713, 6.502514
2783.642, 7.334753
2785.570, 7.624165
2787.499, 7.850976
2789.427, 7.566591
2791.355, 7.527030
2793.284, 6.636118
2795.212, 6.700932
2797.141, 6.209455
2799.069, 5.223182
2800.998, 5.122388
2802.926, 5.753197
2804.855, 6.289836
2806.783, 6.861066
2808.712, 6.828084
2810.640, 6.293598
2812.569, 5.981661
2814.497, 6.747872
2816.426, 7.068542
2818.354, 6.916708
2820.282, 7.250294
2822.211, 7.169811
2824.139, 6.966450
2826.068, 7.570047
2827.996, 6.354153
2829.925, 5.817060
2831.853, 5.956776
2833.782, 5.458477
2835.710, 6.087423
2837.639, 6.879449
2839.567, 6.327349
2841.496, 6.883029
2843.424, 5.116987
2845.353, 6.862527
2847.281, 6.318191
2849.209, 5.856783
2851.138, 6.295093
2853.066, 6.484356
2854.995, 5.455092
2856.923, 4.746835
2858.852, 5.903220
2860.780, 6.298760
2862.709, 6.050200
2864.637, 5.740405
2866.566, 5.659146
2868.494, 5.559423
2870.423, 5.471887
2872.351, 5.978251
2874.280, 6.213864
2876.208, 5.991660
2878.136, 6.103564
2880.065, 5.303497
2881.993, 5.985524
2883.922, 5.187040
2885.850, 5.521535
2887.779, 5.078478
2889.707, 4.875428
2891.636, 4.976827
2893.564, 4.566173
2895.493, 4.989449
2897.421, 4.999442
2899.350, 5.033870
2901.278, 4.709550
2903.207, 4.401073
2905.135, 3.774204
2907.063, 3.524696
2908.992, 4.640121
2910.920, 5.258684
2912.849, 5.344435
2914.777, 5.285099
2916.706, 4.584106
2918.634, 5.506073
2920.563, 5.505867
2922.491, 4.688527
2924.420, 4.651406
2926.348, 5.275478
2928.277, 5.686689
2930.205, 5.426681
2932.134, 5.299731
2934.062, 4.431987
2935.990, 3.510014
2937.919, 4.012963
2939.847, 3.471879
2941.776, 4.894254
2943.704, 3.610718
2945.633, 4.070639
2947.561, 4.404810
2949.490, 3.901326
2951.418, 4.970972
2953.347, 4.921017
2955.275, 4.096682
2957.204, 3.669783
2959.132, 3.908569
2961.061, 4.364253
2962.989, 4.407186
2964.917, 4.710330
2966.846, 4.857066
2968.774, 5.016406
2970.703, 4.877547
2972.631, 4.786016
2974.560, 4.314525
2976.488, 3.895485
2978.417, 3.478122
2980.345, 3.441046
2982.274, 6.171161
2984.202, 3.810926
2986.131, 5.162471
2988.059, 6.125219
2989.988, 5.625861
2991.916, 6.013464
2993.844, 5.529829
2995.773, 4.956949
2997.701, 4.329447
2999.630, 4.334641
3001.558, 4.936076
3003.487, 5.951365
3005.415, 6.396105
3007.344, 6.882516
3009.272, 7.406346
3011.201, 7.357413
3013.129, 7.904819
3015.058, 7.693086
3016.986, 7.423724
3018.915, 8.023411
3020.843, 8.408525
3022.771, 8.643060
3024.700, 9.489920
3026.628, 10.50090
3028.557, 10.82178
3030.485, 11.64664
3032.414, 12.41210
3034.342, 13.37055
3036.271, 14.06916
3038.199, 15.25159
3040.128, 15.55091
3042.056, 16.14616
3043.985, 15.99384
3045.913, 15.90402
3047.842, 15.57630
3049.770, 14.74273
3051.698, 13.94159
3053.627, 13.25010
3055.555, 11.40769
3057.484, 10.08134
3059.412, 9.644156
3061.341, 8.653634
3063.269, 8.178929
3065.198, 7.829699
3067.126, 7.376281
3069.055, 7.113608
3070.983, 6.665033
3072.912, 6.274249
3074.840, 5.988789
3076.769, 5.842561
3078.697, 5.524936
3080.625, 5.800115
3082.554, 5.931822
3084.482, 6.079894
3086.411, 6.088122
3088.339, 6.071118
3090.268, 6.215537
3092.196, 5.508816
3094.125, 4.992618
3096.053, 4.998104
3097.982, 4.579672
3099.910, 5.649440
3101.839, 4.402308
3103.767, 5.421201
3105.696, 5.691570
3107.624, 5.029984
3109.552, 4.804841
3111.481, 6.130731
3113.409, 6.086628
3115.338, 5.944002
3117.266, 5.913182
3119.195, 6.154433
3121.123, 5.695680
3123.052, 5.135253
3124.980, 5.295150
3126.909, 5.055606
3128.837, 5.029859
3130.766, 5.310230
3132.694, 5.118486
3134.623, 5.627528
3136.551, 5.716564
3138.479, 5.953384
3140.408, 6.426322
3142.336, 6.999617
3144.265, 6.519723
3146.193, 6.178146
3148.122, 7.079647
3150.050, 7.020948
3151.979, 6.752832
3153.907, 6.506023
3155.836, 7.461835
3157.764, 7.451393
3159.693, 7.075541
3161.621, 7.044711
3163.550, 6.564820
3165.478, 6.476990
3167.406, 7.076098
3169.335, 7.616216
3171.263, 7.308032
3173.192, 8.211922
3175.120, 8.411205
3177.049, 8.094030
3178.977, 9.460045
3180.906, 9.492839
3182.834, 9.260406
3184.763, 9.437135
3186.691, 9.630138
3188.620, 10.11886
3190.548, 10.30898
3192.477, 10.75270
3194.405, 11.23004
3196.333, 12.35414
3198.262, 13.23256
3200.190, 13.54163
3202.119, 13.09589
3204.047, 13.06524
3205.976, 14.12995
3207.904, 14.90598
3209.833, 14.29509
3211.761, 14.35215
3213.690, 12.99871
3215.618, 13.03966
3217.547, 12.08490
3219.475, 11.34734
3221.404, 12.13522
3223.332, 11.45497
3225.260, 12.66218
3227.189, 11.50486
3229.117, 11.41706
3231.046, 11.69909
3232.974, 10.13430
3234.903, 12.80500
3236.831, 14.41124
3238.760, 13.91705
3240.688, 13.29472
3242.617, 13.50580
3244.545, 13.61432
3246.474, 13.38566
3248.402, 12.12394
3250.330, 12.59535
3252.259, 13.74732
3254.187, 14.86949
3256.116, 15.78945
3258.044, 15.24011
3259.973, 15.76865
3261.901, 16.77579
3263.830, 17.30498
3265.758, 15.16500
3267.687, 14.37786
3269.615, 14.70043
3271.543, 15.10010
3273.472, 13.16890
3275.400, 13.33057
3277.329, 13.53763
3279.257, 12.66421
3281.186, 11.79057
3283.114, 12.69308
3285.043, 13.16908
3286.971, 13.24729
3288.900, 13.63067
3290.828, 14.57042
3292.757, 16.44031
3294.685, 18.91538
3296.614, 21.03944
3298.542, 22.19181
3300.470, 24.47989
3302.399, 27.15615
3304.327, 29.59157
3306.256, 32.80981
3308.184, 36.70639
3310.113, 39.48633
3312.041, 43.68107
3313.970, 47.14019
3315.898, 50.59576
3317.827, 51.32128
3319.755, 50.34231
3321.684, 51.11607
3323.612, 47.67995
3325.541, 44.23216
3327.469, 41.08603
3329.397, 36.98199
3331.326, 34.68713
3333.254, 31.26455
3335.183, 27.72268
3337.111, 25.54010
3339.040, 24.77851
3340.968, 22.68051
3342.897, 21.40296
3344.825, 20.58916
3346.754, 19.27861
3348.682, 17.41266
3350.611, 16.44002
3352.539, 16.01443
3354.468, 15.94191
3356.396, 16.09457
3358.324, 14.91502
3360.253, 15.45633
3362.181, 16.57555
3364.110, 15.75429
3366.038, 16.64496
3367.967, 15.09871
3369.895, 16.56829
3371.824, 15.82276
3373.752, 14.08864
3375.681, 14.61053
3377.609, 14.51380
3379.538, 14.08188
3381.466, 15.17363
3383.395, 16.51375
3385.323, 16.70225
3387.251, 16.44340
3389.180, 16.64471
3391.108, 16.59946
3393.037, 17.60859
3394.965, 17.01452
3396.894, 17.44913
3398.822, 18.56917
3400.751, 17.48803
3402.679, 18.71953
3404.608, 20.05144
3406.536, 19.77415
3408.465, 17.45383
3410.393, 18.86353
3412.322, 18.88375
3414.250, 18.69847
3416.178, 19.87626
3418.107, 18.40219
3420.035, 16.86890
3421.964, 17.45646
3423.892, 19.08877
3425.821, 19.44788
3427.749, 18.91273
3429.678, 18.23328
3431.606, 18.56667
3433.535, 17.65281
3435.463, 17.30669
3437.392, 16.65698
3439.320, 16.13367
3441.249, 16.15288
3443.177, 15.48447
3445.105, 15.86704
3447.034, 15.42931
3448.962, 14.76802
3450.891, 14.63093
3452.819, 14.54405
3454.748, 15.30076
3456.676, 14.99873
3458.605, 15.36872
3460.533, 16.14113
3462.462, 16.34748
3464.390, 17.30365
3466.319, 16.26542
3468.247, 15.81236
3470.176, 17.15283
3472.104, 19.41154
3474.032, 20.20036
3475.961, 19.49043
3477.889, 19.71728
3479.818, 21.38835
3481.746, 22.21045
3483.675, 21.54307
3485.603, 20.75516
3487.532, 20.13066
3489.460, 19.52668
3491.389, 18.65156
3493.317, 17.73308
3495.246, 15.77257
3497.174, 14.59411
3499.103, 14.84062
3501.031, 13.90825
3502.959, 11.36921
3504.888, 12.89534
3506.816, 14.36127
3508.745, 12.70525
3510.673, 11.19384
3512.602, 12.27189
3514.530, 12.41695
3516.459, 12.36862
3518.387, 12.93527
3520.316, 12.91744
3522.244, 12.17746
3524.173, 13.07911
3526.101, 13.33638
3528.030, 12.39847
3529.958, 13.36804
3531.886, 14.70687
3533.815, 13.99721
3535.743, 13.79936
3537.672, 14.22263
3539.600, 12.19310
3541.529, 12.29968
3543.457, 11.21482
3545.386, 10.62318
3547.314, 10.15002
3549.243, 9.108170
3551.171, 7.318789
3553.100, 7.410941
3555.028, 6.379076
3556.957, 5.698274
3558.885, 7.209461
3560.813, 6.659350
3562.742, 4.509166
3564.670, 4.689139
3566.599, 5.737006
3568.527, 5.646802
3570.456, 5.981759
3572.384, 5.219946
3574.313, 5.021052
3576.241, 5.747021
3578.170, 6.047028
3580.098, 3.702415
3582.027, 5.993497
3583.955, 4.996408
3585.884, 3.951596
3587.812, 4.806984
3589.740, 3.979110
3591.669, 5.569922
3593.597, 4.097097
3595.526, 5.715934
3597.454, 6.658358
3599.383, 4.884542
3601.311, 5.615106
3603.240, 5.196588
3605.168, 5.192515
3607.097, 5.030749
3609.025, 5.122270
3610.954, 6.350362
3612.882, 6.525864
3614.811, 6.583769
3616.739, 6.751824
3618.667, 5.952616
3620.596, 6.436881
3622.524, 5.251101
3624.453, 5.311642
3626.381, 4.311925
3628.310, 4.186666
3630.238, 5.263741
3632.167, 6.112360
3634.095, 4.002060
3636.024, 4.510516
3637.952, 4.294924
3639.881, 4.860502
3641.809, 6.254604
3643.738, 5.059093
3645.666, 3.615256
3647.594, 4.614167
3649.523, 4.288720
3651.451, 3.880980
3653.380, 4.642771
3655.308, 3.334178
3657.237, 5.331831
3659.165, 5.170764
3661.094, 3.661639
3663.022, 3.611377
3664.951, 5.712667
3666.879, 4.713025
3668.808, 6.187157
3670.736, 7.213496
3672.665, 6.878606
3674.593, 6.467641
3676.521, 7.127346
3678.450, 6.492919
3680.378, 5.659287
3682.307, 7.087162
3684.235, 6.826322
3686.164, 5.013364
3688.092, 5.018470
3690.021, 5.289602
3691.949, 5.879643
3693.878, 5.006850
3695.806, 4.599474
3697.735, 6.142178
3699.663, 5.474830
3701.592, 5.456156
3703.520, 5.585031
3705.448, 4.638917
3707.377, 4.079318
3709.305, 5.254097
3711.234, 6.993460
3713.162, 4.838977
3715.091, 5.094226
3717.019, 3.682472
3718.948, 3.020620
3720.876, 2.988230
3722.805, 2.017662
3724.733, 2.493868
3726.662, 3.026883
3728.590, 2.047461
3730.519, 2.212726
3732.447, 2.760986
3734.375, 1.928489
3736.304, 0.8185919
3738.232, 0.7498908
3740.161, 0.8153046
3742.089, 0.3335980
3744.018, 1.494938
3745.946, 2.829453
3747.875, 2.523105
3749.803, 2.123127
3751.732, 2.012472
3753.660, 2.289439
3755.589, 2.049484
3757.517, 1.808539
3759.446, 2.328157
3761.374, 2.417747
3763.302, 2.197914
3765.231, 1.002098
3767.159, 1.614283
3769.088, 1.318509
3771.016, 0.7085217
3772.945, 1.258769
3774.873, 0.9500262
3776.802, 0.3294623
3778.730, 4.5830961E-02
3780.659, 0.2229981
3782.587, 1.296701
3784.516, 2.397722
3786.444, -3.4841139E-02
3788.373, 0.8581680
3790.301, -0.1140189
3792.229, 7.1065657E-02
3794.158, 1.015297
3796.086, 1.125396
3798.015, 0.4470522
3799.943, 1.845310
3801.872, 0.5314926
3803.800, 1.366838
3805.729, 1.739863
3807.657, 1.364795
3809.586, 1.365682
3811.514, 1.889903
3813.443, 1.198152
3815.371, 2.308846
3817.300, 2.764468
3819.228, 2.032986
3821.156, 0.5496426
3823.085, -0.7677293
3825.013, -0.9141114
3826.942, -0.8586637
3828.870, 1.066273
3830.799, 0.6342245
3832.727, 1.466954
3834.656, 2.345540
3836.584, 1.959538
3838.513, 0.5855028
3840.441, 0.3793959
3842.370, -0.3026558
3844.298, -0.8132890
3846.227, 1.151064
3848.155, 1.328397
3850.083, 0.3619552
3852.012, 1.417628
3853.940, -0.6019128
3855.869, 1.622972
3857.797, 0.7009479
3859.726, 1.448293
3861.654, 1.058081
3863.583, 8.0471657E-02
3865.511, 0.8101856
3867.440, 1.828495
3869.368, 0.7213961
3871.297, 0.9325393
3873.225, -0.2236096
3875.154, -0.6660732
3877.082, -0.8636282
3879.010, -0.7289337
3880.939, 0.3520898
3882.867, -7.8745723E-02
3884.796, 1.849346
3886.724, 0.6230462
3888.653, 1.874484
3890.581, 2.380646
3892.510, 2.259974
3894.438, 1.884508
3896.367, -0.4864682
3898.295, -0.7814554
3900.224, 2.303810
3902.152, -0.1445830
3904.081, 0.4569462
3906.009, 1.216081
3907.938, 0.8626628
3909.866, 1.204088
3911.794, 1.841207
3913.723, 0.9483323
3915.651, -1.111128
3917.580, 0.1756350
3919.508, 0.1810153
3921.437, 1.232684
3923.365, 1.313769
3925.294, -0.5537875
3927.222, -0.4995691
3929.151, 0.3591904
3931.079, -0.3099102
3933.008, -6.9411263E-02
3934.936, 1.351771
3936.865, 1.370981
3938.793, 1.177304
3940.721, 1.223110
3942.650, 1.547326
3944.578, 1.707784
3946.507, 2.150950
3948.435, 2.291967
3950.364, 2.118994
3952.292, -0.3012409
3954.221, 0.6198884
3956.149, 0.1128670
3958.078, -0.9457822
3960.006, -3.5315271E-02
3961.935, -0.2581733
3963.863, 0.9910401
3965.792, -0.1380974
3967.720, 0.9031947
3969.648, 1.573344
3971.577, 0.6960218
3973.505, 0.5968924
3975.434, 1.755208
3977.362, 0.1705795
3979.291, 1.179240
3981.219, 0.8992392
3983.148, 1.398356
3985.076, 1.102552
3987.005, 5.2906789E-02
3988.933, 0.5768933
3990.862, 1.438253
3992.790, -2.0929649E-02
3994.719, 1.245082
3996.647, 0.9066395
3998.575, -0.2472388
4000.504, 2.107448
4002.432, 0.2021836
4004.361, -0.7796859
4006.289, 9.9966861E-02
4008.218, 0.4747811
4010.146, 0.4569516
4012.075, 0.6163837
4014.003, -0.5544077
4015.932, -0.2079900
4017.860, -0.4388193
4019.789, 0.1251883
4021.717, -0.3186643
4023.646, -0.6961126
4025.574, -0.4375583
4027.502, 1.008880
4029.431, 1.114937
4031.359, 1.300329
4033.288, 0.9611977
4035.216, 0.6908041
4037.145, 0.8827597
4039.073, 0.8358915
4041.002, 0.7093758
4042.930, 0.3285230
4044.859, -0.6409612
4046.787, 0.2537603
4048.716, 0.7197558
4050.644, 2.010761
4052.573, 2.031844
4054.501, 1.898036
4056.429, 1.949757
4058.358, 2.137949
4060.286, 1.381709
4062.215, 1.326780
4064.143, 0.8545223
4066.072, 0.8705217
4068.000, 1.910349
4069.929, 1.032627
4071.857, 1.523929
4073.786, 1.538010
4075.714, -0.1686789
4077.643, -0.6126959
4079.571, -0.1364757
4081.500, 0.6254904
4083.428, 0.9738644
4085.356, 0.5060575
4087.285, 1.241873
4089.213, -7.9036057E-02
4091.142, 1.709811
4093.070, 1.283378
4094.999, 0.9768945
4096.927, 0.3130157
4098.855, 0.4849483
4100.784, -2.2276333E-02
4102.712, -0.1061781
4104.641, -0.6353734
4106.569, -0.4361976
4108.498, -0.7407293
4110.426, 0.2378858
4112.355, 2.588363
4114.283, 1.031632
4116.212, 3.043252
4118.140, -0.2504781
4120.069, 0.6098367
4121.997, 1.481745
4123.926, 0.6838149
4125.854, 1.993071
4127.783, 2.126751
4129.711, 0.6661804
4131.640, 1.052409
4133.568, 0.7406400
4135.497, 0.9164656
4137.425, 1.056326
4139.354, 0.9651152
4141.282, 0.7446205
4143.210, 1.003654
4145.139, 0.4219770
4147.067, 0.7303630
4148.996, 0.8571399
4150.924, 1.792154
4152.853, 2.059092
4154.781, 1.335462
4156.709, 1.863716
4158.638, 0.4184203
4160.566, -0.1763145
4162.495, -8.5384093E-02
4164.423, -0.8114220
4166.352, -0.3545571
4168.280, -1.025240
4170.209, 0.5148719
4172.137, 0.9771003
4174.066, 1.437262
4175.994, 0.7123404
4177.923, 0.5830262
4179.851, 1.209072
4181.780, 0.5229066
4183.708, 0.5376784
4185.637, -1.275108
4187.565, -0.4530565
4189.494, -0.4093737
4191.422, -2.250787
4193.351, 0.1184812
4195.279, -0.1873320
4197.208, -0.5719778
4199.136, 2.7627841E-02
4201.064, 0.4519101
4202.993, 1.286204
4204.921, 0.6173162
4206.850, -0.7283050
4208.778, -0.4904491
4210.707, -0.4425318
4212.635, -0.7308057
4214.563, 0.8607839
4216.492, 2.9826909E-02
4218.420, -1.075401
4220.349, 0.4102959
4222.277, -0.6146969
4224.206, 0.6019621
4226.134, 1.015669
4228.063, 0.7840612
4229.991, 2.347305
4231.920, 1.790356
4233.848, 2.175253
4235.777, 1.099686
4237.705, -0.5441422
4239.634, 0.6875149
4241.562, 1.354899
4243.491, 1.259693
4245.419, -0.8774590
4247.348, -1.475665
4249.276, -9.2021316E-02
4251.205, 1.894046
4253.133, -0.3413669
4255.062, 0.9732305
4256.990, 1.573081
4258.918, 1.994832
4260.847, -0.4556607
4262.775, -1.105455
4264.704, 0.1966740
4266.632, -9.3218163E-02
4268.561, 0.8676656
4270.489, 2.070951
4272.417, 1.895297
4274.346, 1.453834
4276.274, 0.3946130
4278.203, 0.7423224
4280.131, 2.718297
4282.060, 1.218748
4283.988, -0.2973927
4285.917, 0.3097036
4287.845, -1.389588
4289.774, 0.4202910
4291.702, -1.206767
4293.631, 0.9719107
4295.559, 2.976866
4297.488, -0.7706714
4299.416, -0.1190026
4301.345, -0.3485138
4303.273, -7.9695642E-02
4305.202, 0.9694131
4307.130, -6.6099741E-02
4309.059, -0.1665138
4310.987, 0.9820016
4312.916, 1.256982
4314.844, 0.5775980
4316.772, -0.1464323
4318.701, 0.6027448
4320.629, 1.307609
4322.558, 0.4370074
4324.486, 0.6745948
4326.415, 0.7293409
4328.343, 1.209129
4330.271, 0.4201922
4332.200, 0.3746060
4334.128, -0.3964939
4336.057, 1.228112
4337.985, 0.5361189
4339.914, 1.074201
4341.842, -1.509023
4343.771, 2.0495920E-02
4345.699, -0.5609523
4347.628, 1.418816
4349.556, 0.4579295
4351.485, 2.8322120E-03
4353.413, 2.009019
4355.342, 0.3374391
4357.270, -0.9060899
4359.199, 0.4311714
4361.127, 1.346498
4363.056, 1.108603
4364.984, 1.926546
4366.913, 1.618380
4368.841, 2.310264
4370.770, 1.051202
4372.698, 0.9181399
4374.626, 0.7658903
4376.555, -1.597877
4378.483, -0.4180707
##END=



