##NAMES=Philipsburgite
##RRUFFID=R061036
##IDEAL CHEMISTRY=Cu_5_Zn(AsO_4_)(PO_4_)(OH)_6_·H_2_O
##LOCALITY=Black Pine mine, Granite county, Montana, USA
##OWNER=RRUFF
##SOURCE=Michael Scott
##DESCRIPTION=Dark green, almost black subparallel rosettes, associated with lighter greenish blue spherules of zapatalite
##STATUS=The identification of this mineral is not yet confirmed
##URL=https://www.rruff.net/odr/rruff_sample/R061036
##FILETYPE=Raman RAW
##RAMAN WAVELENGTH=532

86.04785, 68.69037
87.97632, 68.16555
89.90479, 67.27169
91.83325, 67.84482
93.76172, 68.67552
95.69019, 70.53288
97.61865, 77.44949
99.54712, 88.53162
101.4756, 105.7603
103.4041, 131.6276
105.3325, 153.8540
107.2610, 195.3872
109.1895, 263.4707
111.1179, 353.0093
113.0464, 477.6750
114.9749, 633.1029
116.9033, 821.2308
118.8318, 1062.112
120.7603, 1373.798
122.6887, 1721.141
124.6172, 2084.003
126.5457, 2477.961
128.4741, 2860.929
130.4026, 3232.225
132.3311, 3591.021
134.2595, 3915.344
136.1880, 4221.272
138.1165, 4486.038
140.0449, 4671.620
141.9734, 4748.684
143.9019, 4770.199
145.8303, 4720.035
147.7588, 4584.740
149.6873, 4482.896
151.6157, 4437.541
153.5442, 4443.241
155.4727, 4497.138
157.4011, 4614.886
159.3296, 4764.628
161.2581, 4932.500
163.1865, 5145.951
165.1150, 5321.747
167.0435, 5450.952
168.9719, 5528.567
170.9004, 5543.220
172.8289, 5445.847
174.7573, 5296.347
176.6858, 5163.476
178.6143, 5055.529
180.5427, 4958.280
182.4712, 4874.019
184.3997, 4806.828
186.3281, 4730.404
188.2566, 4637.810
190.1851, 4534.155
192.1135, 4427.872
194.0420, 4311.242
195.9705, 4199.517
197.8989, 4103.351
199.8274, 4024.295
201.7559, 3948.908
203.6843, 3872.244
205.6128, 3794.096
207.5413, 3720.292
209.4697, 3647.766
211.3982, 3580.207
213.3267, 3519.690
215.2551, 3468.418
217.1836, 3421.130
219.1121, 3378.200
221.0405, 3341.323
222.9690, 3301.276
224.8975, 3250.116
226.8259, 3199.648
228.7544, 3161.060
230.6829, 3136.165
232.6113, 3123.467
234.5398, 3127.066
236.4683, 3149.131
238.3967, 3169.310
240.3252, 3182.472
242.2537, 3191.958
244.1821, 3203.427
246.1106, 3227.591
248.0391, 3244.383
249.9675, 3244.667
251.8960, 3229.389
253.8245, 3205.202
255.7529, 3169.751
257.6814, 3126.777
259.6099, 3085.253
261.5384, 3039.955
263.4668, 3000.657
265.3953, 2971.375
267.3238, 2950.539
269.2522, 2942.335
271.1807, 2946.628
273.1092, 2963.096
275.0376, 2991.166
276.9661, 3028.363
278.8946, 3077.893
280.8230, 3142.949
282.7515, 3229.511
284.6800, 3314.004
286.6084, 3393.903
288.5369, 3468.365
290.4654, 3536.633
292.3938, 3599.497
294.3223, 3654.774
296.2508, 3703.504
298.1792, 3748.562
300.1077, 3779.634
302.0362, 3788.428
303.9646, 3779.495
305.8931, 3779.609
307.8216, 3802.619
309.7500, 3823.359
311.6785, 3828.093
313.6070, 3812.449
315.5354, 3782.365
317.4639, 3730.688
319.3924, 3661.590
321.3208, 3593.734
323.2493, 3528.132
325.1778, 3464.127
327.1062, 3401.507
329.0347, 3325.583
330.9632, 3270.906
332.8916, 3244.542
334.8201, 3242.623
336.7486, 3251.905
338.6770, 3271.139
340.6055, 3303.903
342.5340, 3351.783
344.4624, 3413.998
346.3909, 3494.015
348.3194, 3590.676
350.2478, 3705.514
352.1763, 3841.807
354.1048, 4018.075
356.0332, 4201.299
357.9617, 4375.936
359.8902, 4532.893
361.8186, 4709.686
363.7471, 4927.906
365.6756, 5168.813
367.6040, 5399.561
369.5325, 5601.207
371.4610, 5810.866
373.3894, 6038.409
375.3179, 6285.147
377.2464, 6549.564
379.1748, 6858.540
381.1033, 7177.583
383.0318, 7460.669
384.9602, 7745.809
386.8887, 7950.604
388.8172, 8051.465
390.7456, 8044.854
392.6741, 7954.548
394.6026, 7746.613
396.5310, 7467.745
398.4595, 7158.737
400.3880, 6766.906
402.3164, 6398.020
404.2449, 6045.927
406.1734, 5721.845
408.1018, 5470.194
410.0303, 5319.212
411.9588, 5231.338
413.8872, 5182.097
415.8157, 5180.085
417.7442, 5213.383
419.6726, 5291.030
421.6011, 5407.102
423.5296, 5539.193
425.4580, 5690.408
427.3865, 5854.008
429.3150, 6031.592
431.2434, 6248.805
433.1719, 6419.280
435.1004, 6551.474
437.0288, 6627.488
438.9573, 6636.779
440.8858, 6550.230
442.8142, 6436.832
444.7427, 6307.801
446.6712, 6158.024
448.5996, 6045.154
450.5281, 5979.530
452.4566, 5945.814
454.3850, 5928.348
456.3135, 5923.296
458.2420, 5947.446
460.1705, 6011.169
462.0989, 6107.774
464.0274, 6201.080
465.9559, 6283.987
467.8843, 6367.748
469.8128, 6452.131
471.7413, 6532.996
473.6697, 6632.703
475.5982, 6767.571
477.5267, 6917.610
479.4551, 7055.745
481.3836, 7196.039
483.3121, 7309.514
485.2405, 7377.703
487.1690, 7409.208
489.0975, 7437.365
491.0259, 7478.332
492.9544, 7509.152
494.8829, 7516.413
496.8113, 7502.487
498.7398, 7458.429
500.6683, 7384.651
502.5967, 7275.767
504.5252, 7121.708
506.4537, 6902.517
508.3821, 6650.166
510.3106, 6363.115
512.2391, 6035.947
514.1675, 5716.428
516.0960, 5398.496
518.0245, 5098.260
519.9529, 4820.583
521.8814, 4561.233
523.8099, 4345.957
525.7383, 4182.628
527.6668, 4065.282
529.5953, 3970.360
531.5237, 3891.439
533.4522, 3840.993
535.3807, 3822.918
537.3091, 3835.481
539.2376, 3872.980
541.1661, 3953.204
543.0945, 4043.136
545.0230, 4124.371
546.9515, 4213.112
548.8799, 4248.836
550.8084, 4191.706
552.7369, 4073.031
554.6653, 3947.974
556.5938, 3795.461
558.5223, 3658.918
560.4507, 3554.605
562.3792, 3484.019
564.3077, 3413.794
566.2361, 3343.481
568.1646, 3271.828
570.0931, 3198.532
572.0215, 3123.584
573.9500, 3046.059
575.8785, 2956.978
577.8069, 2867.485
579.7354, 2797.423
581.6639, 2746.812
583.5923, 2713.275
585.5208, 2700.162
587.4493, 2705.361
589.3777, 2714.093
591.3062, 2731.186
593.2347, 2746.966
595.1631, 2756.274
597.0916, 2758.371
599.0201, 2757.029
600.9485, 2750.486
602.8770, 2741.280
604.8055, 2731.526
606.7339, 2717.657
608.6624, 2710.218
610.5909, 2711.474
612.5193, 2720.968
614.4478, 2735.295
616.3763, 2754.608
618.3047, 2777.826
620.2332, 2811.235
622.1617, 2854.798
624.0901, 2874.979
626.0186, 2857.518
627.9471, 2826.268
629.8755, 2795.154
631.8040, 2766.484
633.7325, 2731.798
635.6609, 2685.628
637.5894, 2635.212
639.5179, 2587.574
641.4464, 2540.600
643.3748, 2499.122
645.3033, 2464.096
647.2318, 2433.953
649.1602, 2404.416
651.0887, 2372.916
653.0172, 2344.004
654.9456, 2320.705
656.8741, 2302.847
658.8026, 2286.491
660.7310, 2273.583
662.6595, 2262.480
664.5880, 2253.182
666.5164, 2247.104
668.4449, 2239.743
670.3734, 2224.862
672.3018, 2211.477
674.2303, 2207.999
676.1588, 2219.259
678.0872, 2225.638
680.0157, 2221.484
681.9442, 2210.068
683.8726, 2198.772
685.8011, 2187.486
687.7296, 2177.054
689.6580, 2169.270
691.5865, 2163.049
693.5150, 2154.424
695.4434, 2135.992
697.3719, 2123.457
699.3004, 2125.886
701.2288, 2146.295
703.1573, 2157.320
705.0858, 2152.405
707.0142, 2143.935
708.9427, 2138.471
710.8712, 2135.990
712.7996, 2137.569
714.7281, 2145.473
716.6566, 2156.966
718.5850, 2170.121
720.5135, 2187.527
722.4420, 2203.019
724.3704, 2214.380
726.2989, 2224.016
728.2274, 2234.651
730.1558, 2244.539
732.0843, 2258.685
734.0128, 2281.669
735.9412, 2309.798
737.8697, 2332.986
739.7982, 2353.224
741.7266, 2366.672
743.6551, 2366.473
745.5836, 2357.253
747.5120, 2359.299
749.4405, 2379.772
751.3690, 2403.558
753.2974, 2426.256
755.2259, 2448.341
757.1544, 2462.864
759.0828, 2457.692
761.0113, 2455.335
762.9398, 2468.049
764.8682, 2496.669
766.7967, 2527.468
768.7252, 2555.457
770.6536, 2588.912
772.5821, 2633.394
774.5106, 2691.223
776.4390, 2750.375
778.3675, 2805.808
780.2960, 2863.849
782.2244, 2931.025
784.1529, 3009.324
786.0814, 3090.359
788.0098, 3174.932
789.9383, 3261.093
791.8668, 3346.143
793.7952, 3429.073
795.7237, 3515.451
797.6522, 3611.029
799.5806, 3709.767
801.5091, 3800.713
803.4376, 3880.885
805.3660, 3957.686
807.2945, 4035.903
809.2230, 4108.579
811.1514, 4164.718
813.0799, 4195.608
815.0084, 4225.447
816.9368, 4261.303
818.8653, 4301.798
820.7938, 4342.959
822.7222, 4372.376
824.6507, 4418.931
826.5792, 4496.817
828.5077, 4599.198
830.4362, 4698.175
832.3646, 4790.535
834.2931, 4884.967
836.2216, 4979.705
838.1500, 5076.348
840.0785, 5188.159
842.0070, 5326.233
843.9354, 5467.882
845.8639, 5596.402
847.7924, 5719.466
849.7208, 5881.327
851.6493, 6075.377
853.5778, 6316.688
855.5062, 6614.994
857.4347, 6964.858
859.3632, 7362.573
861.2916, 7898.880
863.2201, 8379.012
865.1486, 8780.394
867.0770, 9093.603
869.0055, 9186.933
870.9340, 9024.855
872.8624, 8707.993
874.7909, 8204.461
876.7194, 7559.537
878.6478, 6940.005
880.5763, 6332.744
882.5048, 5793.707
884.4332, 5347.700
886.3617, 4994.954
888.2902, 4679.416
890.2186, 4391.340
892.1471, 4146.211
894.0756, 3958.279
896.0040, 3824.612
897.9325, 3709.048
899.8610, 3612.208
901.7894, 3532.123
903.7179, 3468.091
905.6464, 3419.053
907.5748, 3383.103
909.5033, 3365.104
911.4318, 3355.646
913.3602, 3344.465
915.2887, 3336.398
917.2172, 3364.277
919.1456, 3437.325
921.0741, 3531.347
923.0026, 3639.136
924.9310, 3762.340
926.8595, 3909.456
928.7880, 4093.858
930.7164, 4282.356
932.6449, 4481.657
934.5734, 4680.094
936.5018, 4826.728
938.4303, 4900.913
940.3588, 4949.787
942.2872, 4950.103
944.2157, 4934.479
946.1442, 4970.251
948.0726, 5052.668
950.0011, 5197.587
951.9296, 5391.190
953.8580, 5655.584
955.7865, 6042.902
957.7150, 6590.521
959.6434, 7206.088
961.5719, 7922.134
963.5004, 8675.683
965.4288, 9403.360
967.3573, 10217.40
969.2858, 10742.05
971.2142, 10910.43
973.1427, 10746.95
975.0712, 10266.58
976.9996, 9414.816
978.9281, 8545.507
980.8566, 7659.356
982.7850, 6836.218
984.7135, 6144.766
986.6420, 5612.450
988.5704, 5154.671
990.4989, 4772.168
992.4274, 4459.792
994.3558, 4224.759
996.2843, 4066.229
998.2128, 3951.492
1000.141, 3881.313
1002.070, 3852.305
1003.998, 3866.687
1005.927, 3921.292
1007.855, 3988.458
1009.784, 4085.213
1011.712, 4171.444
1013.641, 4246.062
1015.569, 4304.158
1017.497, 4307.384
1019.426, 4235.024
1021.354, 4143.207
1023.283, 4032.441
1025.211, 3913.977
1027.140, 3806.842
1029.068, 3709.445
1030.997, 3629.930
1032.925, 3573.231
1034.854, 3534.366
1036.782, 3510.158
1038.711, 3506.722
1040.639, 3503.882
1042.568, 3500.273
1044.496, 3496.434
1046.424, 3491.238
1048.353, 3482.919
1050.281, 3485.771
1052.210, 3511.257
1054.138, 3540.124
1056.067, 3566.758
1057.995, 3589.784
1059.924, 3593.340
1061.852, 3573.890
1063.781, 3533.368
1065.709, 3468.364
1067.638, 3381.434
1069.566, 3290.589
1071.495, 3189.417
1073.423, 3092.397
1075.351, 2999.012
1077.280, 2912.274
1079.208, 2837.552
1081.137, 2773.343
1083.065, 2723.104
1084.994, 2695.502
1086.922, 2677.755
1088.851, 2659.550
1090.779, 2641.180
1092.708, 2620.726
1094.636, 2594.824
1096.565, 2570.281
1098.493, 2551.755
1100.422, 2539.996
1102.350, 2525.646
1104.278, 2508.250
1106.207, 2488.496
1108.135, 2463.538
1110.064, 2435.583
1111.992, 2412.955
1113.921, 2398.431
1115.849, 2381.582
1117.778, 2357.725
1119.706, 2330.727
1121.635, 2303.534
1123.563, 2274.555
1125.492, 2254.260
1127.420, 2251.632
1129.349, 2252.928
1131.277, 2249.818
1133.205, 2241.292
1135.134, 2235.993
1137.062, 2237.637
1138.991, 2238.044
1140.919, 2233.279
1142.848, 2224.796
1144.776, 2217.803
1146.705, 2212.282
1148.633, 2208.250
1150.562, 2204.115
1152.490, 2202.445
1154.419, 2207.065
1156.347, 2219.327
1158.276, 2229.017
1160.204, 2231.414
1162.132, 2233.066
1164.061, 2239.075
1165.989, 2250.038
1167.918, 2253.269
1169.846, 2237.064
1171.775, 2227.226
1173.703, 2236.706
1175.632, 2256.845
1177.560, 2265.207
1179.489, 2256.062
1181.417, 2251.782
1183.346, 2264.112
1185.274, 2277.572
1187.203, 2276.282
1189.131, 2260.780
1191.059, 2254.044
1192.988, 2266.948
1194.916, 2279.955
1196.845, 2285.403
1198.773, 2284.415
1200.702, 2280.786
1202.630, 2268.065
1204.559, 2262.096
1206.487, 2268.340
1208.416, 2279.499
1210.344, 2287.136
1212.273, 2289.312
1214.201, 2293.281
1216.130, 2308.573
1218.058, 2317.116
1219.986, 2301.430
1221.915, 2271.388
1223.843, 2261.139
1225.772, 2281.791
1227.700, 2299.609
1229.629, 2296.492
1231.557, 2287.928
1233.486, 2292.874
1235.414, 2314.856
1237.343, 2329.484
1239.271, 2326.401
1241.200, 2322.103
1243.128, 2324.280
1245.057, 2331.869
1246.985, 2337.103
1248.913, 2337.572
1250.842, 2338.311
1252.770, 2340.927
1254.699, 2343.520
1256.627, 2342.594
1258.556, 2337.538
1260.484, 2338.601
1262.413, 2354.798
1264.341, 2369.386
1266.270, 2371.025
1268.198, 2364.857
1270.127, 2362.588
1272.055, 2364.477
1273.984, 2369.584
1275.912, 2381.449
1277.840, 2393.117
1279.769, 2397.854
1281.697, 2394.260
1283.626, 2394.847
1285.554, 2408.165
1287.483, 2417.304
1289.411, 2412.488
1291.340, 2400.677
1293.268, 2398.342
1295.197, 2410.895
1297.125, 2422.465
1299.054, 2433.487
1300.982, 2442.312
1302.911, 2449.378
1304.839, 2454.035
1306.767, 2450.125
1308.696, 2430.912
1310.624, 2416.911
1312.553, 2413.142
1314.481, 2419.632
1316.410, 2440.396
1318.338, 2476.457
1320.267, 2499.864
1322.195, 2501.915
1324.124, 2495.314
1326.052, 2478.992
1327.981, 2459.219
1329.909, 2455.521
1331.838, 2477.936
1333.766, 2495.000
1335.694, 2500.938
1337.623, 2503.254
1339.551, 2507.076
1341.480, 2512.134
1343.408, 2513.027
1345.337, 2503.709
1347.265, 2497.590
1349.194, 2498.597
1351.122, 2502.551
1353.051, 2505.328
1354.979, 2507.081
1356.908, 2507.740
1358.836, 2507.932
1360.765, 2507.138
1362.693, 2502.735
1364.621, 2498.803
1366.550, 2502.376
1368.478, 2514.725
1370.407, 2525.947
1372.335, 2536.256
1374.264, 2541.730
1376.192, 2535.304
1378.121, 2521.770
1380.049, 2519.160
1381.978, 2531.903
1383.906, 2542.353
1385.835, 2548.038
1387.763, 2549.099
1389.692, 2543.451
1391.620, 2531.921
1393.548, 2525.815
1395.477, 2531.745
1397.405, 2535.420
1399.334, 2532.880
1401.262, 2529.692
1403.191, 2530.445
1405.119, 2535.198
1407.048, 2543.143
1408.976, 2563.708
1410.905, 2574.601
1412.833, 2561.561
1414.762, 2541.230
1416.690, 2534.378
1418.619, 2541.364
1420.547, 2550.227
1422.475, 2563.292
1424.404, 2573.538
1426.332, 2574.576
1428.261, 2572.578
1430.189, 2576.686
1432.118, 2586.896
1434.046, 2593.504
1435.975, 2594.180
1437.903, 2591.659
1439.832, 2584.235
1441.760, 2575.981
1443.689, 2574.232
1445.617, 2580.389
1447.546, 2586.705
1449.474, 2592.886
1451.402, 2599.037
1453.331, 2608.567
1455.259, 2617.097
1457.188, 2612.891
1459.116, 2587.637
1461.045, 2576.450
1462.973, 2594.058
1464.902, 2611.942
1466.830, 2622.337
1468.759, 2624.318
1470.687, 2614.616
1472.616, 2580.252
1474.544, 2563.070
1476.473, 2576.345
1478.401, 2591.534
1480.329, 2596.215
1482.258, 2594.929
1484.186, 2597.616
1486.115, 2607.460
1488.043, 2612.278
1489.972, 2602.310
1491.900, 2597.274
1493.829, 2612.917
1495.757, 2636.559
1497.686, 2640.036
1499.614, 2618.804
1501.543, 2609.209
1503.471, 2625.702
1505.400, 2641.739
1507.328, 2645.302
1509.256, 2642.654
1511.185, 2643.837
1513.113, 2648.963
1515.042, 2650.650
1516.970, 2642.552
1518.899, 2638.335
1520.827, 2648.243
1522.756, 2662.003
1524.684, 2666.164
1526.613, 2661.183
1528.541, 2660.867
1530.470, 2669.123
1532.398, 2678.789
1534.327, 2690.637
1536.255, 2700.858
1538.183, 2704.734
1540.112, 2702.852
1542.040, 2701.343
1543.969, 2699.962
1545.897, 2699.733
1547.826, 2698.486
1549.754, 2700.448
1551.683, 2711.415
1553.611, 2729.624
1555.540, 2742.487
1557.468, 2749.424
1559.397, 2751.777
1561.325, 2745.304
1563.254, 2738.430
1565.182, 2735.336
1567.111, 2735.298
1569.039, 2736.240
1570.968, 2738.196
1572.896, 2741.328
1574.824, 2747.772
1576.753, 2753.718
1578.681, 2759.996
1580.610, 2764.373
1582.538, 2760.791
1584.467, 2745.075
1586.395, 2738.126
1588.324, 2744.048
1590.252, 2753.683
1592.181, 2769.400
1594.109, 2784.379
1596.038, 2791.173
1597.966, 2789.661
1599.895, 2785.687
1601.823, 2769.473
1603.751, 2766.738
1605.680, 2799.264
1607.608, 2828.541
1609.537, 2820.735
1611.465, 2786.785
1613.394, 2771.111
1615.322, 2784.751
1617.251, 2794.861
1619.179, 2798.318
1621.108, 2800.207
1623.036, 2802.308
1624.965, 2803.811
1626.893, 2805.149
1628.822, 2808.339
1630.750, 2802.061
1632.678, 2778.105
1634.607, 2758.521
1636.535, 2747.260
1638.464, 2742.556
1640.392, 2745.292
1642.321, 2753.755
1644.249, 2758.041
1646.178, 2751.309
1648.106, 2750.164
1650.035, 2763.388
1651.963, 2771.424
1653.892, 2757.026
1655.820, 2735.945
1657.749, 2737.175
1659.677, 2766.932
1661.605, 2783.489
1663.534, 2781.164
1665.462, 2776.066
1667.391, 2767.369
1669.319, 2760.342
1671.248, 2758.549
1673.176, 2761.523
1675.105, 2768.613
1677.033, 2786.478
1678.962, 2792.993
1680.890, 2771.528
1682.819, 2758.256
1684.747, 2776.403
1686.676, 2804.051
1688.604, 2812.514
1690.532, 2801.390
1692.461, 2792.644
1694.389, 2786.156
1696.318, 2782.361
1698.246, 2778.953
1700.175, 2780.564
1702.103, 2797.855
1704.032, 2819.501
1705.960, 2819.354
1707.889, 2789.958
1709.817, 2771.219
1711.746, 2770.174
1713.674, 2769.859
1715.603, 2765.151
1717.531, 2761.863
1719.459, 2765.198
1721.388, 2773.575
1723.316, 2781.572
1725.245, 2790.272
1727.173, 2796.074
1729.102, 2802.598
1731.030, 2801.980
1732.959, 2783.193
1734.887, 2763.660
1736.816, 2763.584
1738.744, 2779.697
1740.673, 2783.870
1742.601, 2762.546
1744.530, 2761.590
1746.458, 2807.062
1748.386, 2844.521
1750.315, 2850.585
1752.243, 2842.579
1754.172, 2840.200
1756.100, 2842.925
1758.029, 2836.469
1759.957, 2812.667
1761.886, 2803.322
1763.814, 2828.016
1765.743, 2849.885
1767.671, 2854.423
1769.600, 2849.481
1771.528, 2841.214
1773.457, 2830.322
1775.385, 2827.900
1777.313, 2836.504
1779.242, 2843.730
1781.170, 2845.450
1783.099, 2846.417
1785.027, 2845.818
1786.956, 2847.242
1788.884, 2858.718
1790.813, 2877.549
1792.741, 2885.759
1794.670, 2881.379
1796.598, 2873.637
1798.527, 2861.581
1800.455, 2851.980
1802.384, 2849.057
1804.312, 2849.758
1806.240, 2850.806
1808.169, 2852.733
1810.097, 2857.074
1812.026, 2863.527
1813.954, 2875.826
1815.883, 2901.665
1817.811, 2921.345
1819.740, 2922.744
1821.668, 2916.802
1823.597, 2909.798
1825.525, 2903.571
1827.454, 2906.636
1829.382, 2920.881
1831.311, 2932.863
1833.239, 2946.326
1835.167, 2950.802
1837.096, 2937.213
1839.024, 2920.553
1840.953, 2909.213
1842.881, 2903.792
1844.810, 2908.245
1846.738, 2925.975
1848.667, 2931.937
1850.595, 2915.593
1852.524, 2904.151
1854.452, 2904.115
1856.381, 2906.614
1858.309, 2906.134
1860.238, 2906.765
1862.166, 2917.062
1864.094, 2936.912
1866.023, 2944.336
1867.951, 2929.802
1869.880, 2927.354
1871.808, 2955.069
1873.737, 2973.851
1875.665, 2962.949
1877.594, 2944.168
1879.522, 2934.744
1881.451, 2933.259
1883.379, 2936.301
1885.308, 2944.396
1887.236, 2949.255
1889.165, 2948.944
1891.093, 2948.426
1893.021, 2948.651
1894.950, 2949.519
1896.878, 2952.787
1898.807, 2955.383
1900.735, 2952.224
1902.664, 2944.771
1904.592, 2940.542
1906.521, 2940.573
1908.449, 2941.896
1910.378, 2950.111
1912.306, 2950.886
1914.235, 2930.993
1916.163, 2910.318
1918.092, 2901.022
1920.020, 2902.872
1921.948, 2919.749
1923.877, 2954.076
1925.805, 2973.917
1927.734, 2969.912
1929.662, 2966.336
1931.591, 2959.124
1933.519, 2959.448
1935.448, 2982.921
1937.376, 3005.994
1939.305, 3004.118
1941.233, 2984.852
1943.162, 2970.523
1945.090, 2961.108
1947.019, 2954.329
1948.947, 2948.376
1950.875, 2949.590
1952.804, 2962.180
1954.732, 2977.839
1956.661, 2998.490
1958.589, 3015.604
1960.518, 3018.501
1962.446, 3012.158
1964.375, 3007.818
1966.303, 3005.374
1968.232, 3007.434
1970.160, 3017.350
1972.089, 3023.056
1974.017, 3021.945
1975.946, 3016.629
1977.874, 3005.943
1979.802, 2994.368
1981.731, 2984.382
1983.659, 2977.467
1985.588, 2977.803
1987.516, 2985.907
1989.445, 2997.756
1991.373, 3019.619
1993.302, 3030.413
1995.230, 3016.068
1997.159, 3006.240
1999.087, 3015.000
2001.016, 3028.243
2002.944, 3038.516
2004.873, 3044.282
2006.801, 3038.135
2008.729, 3022.631
2010.658, 3020.233
2012.586, 3034.596
2014.515, 3047.944
2016.443, 3056.576
2018.372, 3064.592
2020.300, 3075.154
2022.229, 3083.079
2024.157, 3083.119
2026.086, 3079.417
2028.014, 3078.163
2029.943, 3078.692
2031.871, 3076.084
2033.800, 3067.505
2035.728, 3068.143
2037.656, 3086.490
2039.585, 3099.458
2041.513, 3100.635
2043.442, 3100.070
2045.370, 3097.993
2047.299, 3098.429
2049.227, 3107.386
2051.156, 3119.867
2053.084, 3124.775
2055.013, 3123.644
2056.941, 3128.190
2058.870, 3140.000
2060.798, 3150.677
2062.727, 3156.438
2064.655, 3165.390
2066.583, 3184.613
2068.512, 3201.115
2070.440, 3210.887
2072.369, 3212.522
2074.297, 3198.732
2076.226, 3177.376
2078.154, 3171.112
2080.083, 3181.550
2082.011, 3188.919
2083.940, 3192.252
2085.868, 3194.716
2087.797, 3193.225
2089.725, 3197.276
2091.654, 3216.126
2093.582, 3231.709
2095.510, 3231.365
2097.439, 3224.684
2099.367, 3218.913
2101.296, 3215.480
2103.224, 3219.006
2105.153, 3229.741
2107.081, 3235.895
2109.010, 3233.039
2110.938, 3237.484
2112.867, 3261.559
2114.795, 3274.603
2116.724, 3261.721
2118.652, 3249.170
2120.581, 3243.769
2122.509, 3248.108
2124.438, 3270.060
2126.366, 3300.414
2128.294, 3322.703
2130.223, 3337.083
2132.151, 3344.777
2134.080, 3345.071
2136.008, 3345.782
2137.937, 3347.320
2139.865, 3350.869
2141.794, 3362.167
2143.722, 3369.425
2145.651, 3361.467
2147.579, 3358.101
2149.508, 3377.230
2151.436, 3404.707
2153.365, 3422.983
2155.293, 3434.317
2157.221, 3447.993
2159.150, 3463.026
2161.078, 3462.795
2163.007, 3442.571
2164.935, 3443.039
2166.864, 3480.028
2168.792, 3509.477
2170.721, 3518.096
2172.649, 3517.639
2174.578, 3507.589
2176.506, 3495.648
2178.435, 3483.344
2180.363, 3475.438
2182.292, 3483.495
2184.220, 3501.324
2186.148, 3503.338
2188.077, 3489.867
2190.005, 3494.245
2191.934, 3521.008
2193.862, 3537.619
2195.791, 3535.687
2197.719, 3537.410
2199.648, 3551.420
2201.576, 3564.158
2203.505, 3574.133
2205.433, 3575.627
2207.362, 3557.527
2209.290, 3535.506
2211.219, 3529.346
2213.147, 3533.324
2215.075, 3531.333
2217.004, 3524.733
2218.932, 3536.711
2220.861, 3569.838
2222.789, 3576.216
2224.718, 3543.213
2226.646, 3526.261
2228.575, 3542.793
2230.503, 3561.635
2232.432, 3576.402
2234.360, 3585.594
2236.289, 3586.522
2238.217, 3582.885
2240.146, 3571.872
2242.074, 3561.613
2244.002, 3564.198
2245.931, 3576.916
2247.859, 3597.035
2249.788, 3622.078
2251.716, 3623.783
2253.645, 3600.235
2255.573, 3589.904
2257.502, 3601.308
2259.430, 3608.779
2261.359, 3606.752
2263.287, 3601.536
2265.216, 3584.354
2267.144, 3578.536
2269.073, 3609.395
2271.001, 3638.344
2272.929, 3630.582
2274.858, 3612.356
2276.786, 3616.573
2278.715, 3630.989
2280.643, 3626.598
2282.572, 3609.892
2284.500, 3613.727
2286.429, 3639.537
2288.357, 3651.851
2290.286, 3644.778
2292.214, 3638.576
2294.143, 3636.947
2296.071, 3599.761
2298.000, 3641.503
2299.928, 3665.829
2301.856, 3673.677
2303.785, 3615.689
2305.713, 3642.714
2307.642, 3635.670
2309.570, 3627.229
2311.499, 3666.219
2313.427, 3617.806
2315.356, 3656.045
2317.284, 3659.693
2319.213, 3679.173
2321.141, 3664.373
2323.070, 3660.161
2324.998, 3690.239
2326.927, 3701.330
2328.855, 3682.583
2330.783, 3703.069
2332.712, 3653.460
2334.640, 3665.359
2336.569, 3703.799
2338.497, 3686.775
2340.426, 3707.888
2342.354, 3714.476
2344.283, 3655.060
2346.211, 3710.432
2348.140, 3716.163
2350.068, 3670.920
2351.997, 3722.361
2353.925, 3684.145
2355.854, 3677.932
2357.782, 3695.801
2359.710, 3688.564
2361.639, 3692.120
2363.567, 3688.804
2365.496, 3690.844
2367.424, 3701.683
2369.353, 3703.877
2371.281, 3694.178
2373.210, 3691.390
2375.138, 3700.998
2377.067, 3706.463
2378.995, 3702.269
2380.924, 3696.376
2382.852, 3687.830
2384.781, 3682.760
2386.709, 3687.936
2388.637, 3692.217
2390.566, 3685.279
2392.494, 3678.666
2394.423, 3685.092
2396.351, 3696.111
2398.280, 3701.436
2400.208, 3703.684
2402.137, 3708.438
2404.065, 3713.243
2405.994, 3706.786
2407.922, 3690.728
2409.851, 3695.556
2411.779, 3726.499
2413.708, 3732.388
2415.636, 3708.011
2417.564, 3707.877
2419.493, 3744.544
2421.421, 3761.813
2423.350, 3743.396
2425.278, 3723.961
2427.207, 3699.184
2429.135, 3692.466
2431.064, 3724.285
2432.992, 3752.478
2434.921, 3768.599
2436.849, 3767.801
2438.778, 3733.848
2440.706, 3700.792
2442.635, 3690.975
2444.563, 3695.428
2446.491, 3709.048
2448.420, 3728.814
2450.348, 3758.429
2452.277, 3786.644
2454.205, 3784.352
2456.134, 3762.026
2458.062, 3758.352
2459.991, 3767.107
2461.919, 3755.438
2463.848, 3725.750
2465.776, 3722.366
2467.705, 3753.835
2469.633, 3761.126
2471.562, 3731.014
2473.490, 3716.717
2475.418, 3719.531
2477.347, 3736.620
2479.275, 3775.734
2481.204, 3795.934
2483.132, 3779.576
2485.061, 3765.050
2486.989, 3768.749
2488.918, 3768.259
2490.846, 3747.149
2492.775, 3736.746
2494.703, 3761.513
2496.632, 3783.861
2498.560, 3781.004
2500.489, 3775.284
2502.417, 3781.610
2504.345, 3789.818
2506.274, 3793.668
2508.202, 3792.208
2510.131, 3777.490
2512.059, 3763.388
2513.988, 3776.838
2515.916, 3800.996
2517.845, 3802.809
2519.773, 3790.826
2521.702, 3783.793
2523.630, 3779.173
2525.559, 3765.365
2527.487, 3745.521
2529.416, 3750.944
2531.344, 3781.210
2533.272, 3788.756
2535.201, 3775.099
2537.129, 3758.063
2539.058, 3738.437
2540.986, 3734.316
2542.915, 3751.706
2544.843, 3766.092
2546.772, 3775.984
2548.700, 3781.483
2550.629, 3780.029
2552.557, 3780.029
2554.486, 3782.668
2556.414, 3786.386
2558.343, 3796.264
2560.271, 3796.793
2562.199, 3771.872
2564.128, 3759.652
2566.056, 3776.660
2567.985, 3795.117
2569.913, 3811.920
2571.842, 3820.271
2573.770, 3812.942
2575.699, 3801.901
2577.627, 3788.735
2579.556, 3778.941
2581.484, 3782.152
2583.413, 3782.153
2585.341, 3756.550
2587.270, 3739.730
2589.198, 3767.689
2591.126, 3798.613
2593.055, 3794.126
2594.983, 3779.421
2596.912, 3773.727
2598.840, 3776.312
2600.769, 3794.945
2602.697, 3813.904
2604.626, 3810.337
2606.554, 3796.796
2608.483, 3788.581
2610.411, 3784.158
2612.340, 3782.149
2614.268, 3781.059
2616.197, 3775.827
2618.125, 3769.154
2620.053, 3769.213
2621.982, 3772.831
2623.910, 3773.897
2625.839, 3771.227
2627.767, 3757.744
2629.696, 3738.024
2631.624, 3733.551
2633.553, 3743.307
2635.481, 3762.754
2637.410, 3788.185
2639.338, 3797.414
2641.267, 3791.328
2643.195, 3783.762
2645.124, 3774.632
2647.052, 3775.183
2648.980, 3785.849
2650.909, 3779.074
2652.837, 3756.152
2654.766, 3740.078
2656.694, 3732.385
2658.623, 3741.820
2660.551, 3774.430
2662.480, 3777.987
2664.408, 3746.929
2666.337, 3726.816
2668.265, 3718.570
2670.194, 3720.837
2672.122, 3734.346
2674.051, 3746.960
2675.979, 3759.333
2677.907, 3764.892
2679.836, 3764.018
2681.764, 3752.579
2683.693, 3727.587
2685.621, 3724.404
2687.550, 3750.873
2689.478, 3774.004
2691.407, 3795.195
2693.335, 3797.164
2695.264, 3773.018
2697.192, 3756.368
2699.121, 3750.056
2701.049, 3749.480
2702.978, 3758.209
2704.906, 3755.540
2706.834, 3726.996
2708.763, 3715.450
2710.691, 3726.516
2712.620, 3732.466
2714.548, 3729.683
2716.477, 3723.226
2718.405, 3707.870
2720.334, 3708.283
2722.262, 3745.452
2724.191, 3750.476
2726.119, 3713.085
2728.048, 3684.697
2729.976, 3672.253
2731.905, 3664.719
2733.833, 3663.489
2735.761, 3658.545
2737.690, 3643.766
2739.618, 3644.407
2741.547, 3666.635
2743.475, 3671.489
2745.404, 3650.887
2747.332, 3633.520
2749.261, 3625.780
2751.189, 3612.950
2753.118, 3591.700
2755.046, 3578.443
2756.975, 3575.274
2758.903, 3570.823
2760.832, 3563.881
2762.760, 3556.509
2764.688, 3543.488
2766.617, 3551.985
2768.545, 3587.284
2770.474, 3599.558
2772.402, 3583.764
2774.331, 3576.661
2776.259, 3583.100
2778.188, 3589.766
2780.116, 3597.572
2782.045, 3602.284
2783.973, 3604.263
2785.902, 3596.614
2787.830, 3578.821
2789.759, 3579.196
2791.687, 3598.812
2793.615, 3618.671
2795.544, 3638.158
2797.472, 3659.135
2799.401, 3678.771
2801.329, 3668.074
2803.258, 3629.694
2805.186, 3598.910
2807.115, 3577.435
2809.043, 3586.815
2810.972, 3618.053
2812.900, 3617.174
2814.829, 3593.978
2816.757, 3595.408
2818.686, 3612.085
2820.614, 3601.902
2822.542, 3577.982
2824.471, 3588.242
2826.399, 3618.311
2828.328, 3640.122
2830.256, 3652.646
2832.185, 3647.606
2834.113, 3636.872
2836.042, 3643.804
2837.970, 3660.483
2839.899, 3679.347
2841.827, 3695.446
2843.756, 3695.380
2845.684, 3694.515
2847.613, 3716.468
2849.541, 3741.233
2851.469, 3747.699
2853.398, 3748.282
2855.326, 3755.659
2857.255, 3760.279
2859.183, 3749.588
2861.112, 3741.419
2863.040, 3751.588
2864.969, 3761.267
2866.897, 3756.924
2868.826, 3752.722
2870.754, 3752.901
2872.683, 3759.363
2874.611, 3783.199
2876.540, 3793.249
2878.468, 3772.207
2880.396, 3753.357
2882.325, 3744.612
2884.253, 3745.094
2886.182, 3756.403
2888.110, 3770.935
2890.039, 3788.688
2891.967, 3803.990
2893.896, 3818.921
2895.824, 3819.735
2897.753, 3798.507
2899.681, 3794.361
2901.610, 3809.795
2903.538, 3831.084
2905.467, 3858.381
2907.395, 3871.967
2909.323, 3871.118
2911.252, 3876.185
2913.180, 3886.102
2915.109, 3887.060
2917.037, 3883.092
2918.966, 3899.830
2920.894, 3927.006
2922.823, 3922.596
2924.751, 3900.986
2926.680, 3893.362
2928.608, 3898.692
2930.537, 3927.653
2932.465, 3957.747
2934.394, 3949.585
2936.322, 3934.556
2938.250, 3947.298
2940.179, 3965.622
2942.107, 3972.461
2944.036, 3976.912
2945.964, 3986.448
2947.893, 3993.877
2949.821, 3994.067
2951.750, 3996.264
2953.678, 4005.716
2955.607, 4016.124
2957.535, 4028.457
2959.464, 4033.927
2961.392, 4027.512
2963.321, 4026.590
2965.249, 4039.929
2967.177, 4038.887
2969.106, 4011.878
2971.034, 4025.677
2972.963, 4083.187
2974.891, 4095.602
2976.820, 4057.886
2978.748, 4056.887
2980.677, 4086.993
2982.605, 4096.004
2984.534, 4091.715
2986.462, 4101.709
2988.391, 4117.262
2990.319, 4111.341
2992.248, 4105.173
2994.176, 4148.457
2996.104, 4193.464
2998.033, 4179.660
2999.961, 4159.196
3001.890, 4181.030
3003.818, 4203.570
3005.747, 4197.459
3007.675, 4191.899
3009.604, 4193.908
3011.532, 4207.954
3013.461, 4250.239
3015.389, 4276.044
3017.318, 4275.636
3019.246, 4281.310
3021.175, 4302.491
3023.103, 4313.406
3025.031, 4307.351
3026.960, 4321.730
3028.888, 4354.136
3030.817, 4374.158
3032.745, 4382.610
3034.674, 4395.156
3036.602, 4408.764
3038.531, 4407.923
3040.459, 4405.945
3042.388, 4419.741
3044.316, 4450.937
3046.245, 4523.227
3048.173, 4585.110
3050.102, 4579.313
3052.030, 4564.230
3053.959, 4562.002
3055.887, 4577.542
3057.816, 4638.892
3059.744, 4669.778
3061.673, 4643.796
3063.601, 4635.329
3065.530, 4664.780
3067.458, 4700.409
3069.386, 4740.917
3071.315, 4777.398
3073.243, 4808.874
3075.172, 4834.845
3077.100, 4856.015
3079.029, 4876.126
3080.957, 4897.105
3082.886, 4926.742
3084.814, 4959.335
3086.743, 4981.706
3088.671, 5007.994
3090.600, 5058.813
3092.528, 5109.203
3094.457, 5144.240
3096.385, 5169.246
3098.313, 5175.024
3100.242, 5190.022
3102.170, 5223.441
3104.099, 5258.521
3106.027, 5295.728
3107.956, 5326.452
3109.884, 5349.531
3111.813, 5378.041
3113.741, 5411.787
3115.670, 5448.831
3117.598, 5488.241
3119.527, 5532.537
3121.455, 5575.930
3123.384, 5605.244
3125.312, 5630.446
3127.240, 5665.363
3129.169, 5698.218
3131.097, 5706.750
3133.026, 5734.308
3134.954, 5805.647
3136.883, 5879.206
3138.811, 5954.411
3140.740, 5996.474
3142.668, 5994.349
3144.597, 6006.305
3146.525, 6036.543
3148.454, 6096.503
3150.382, 6179.685
3152.311, 6237.291
3154.239, 6273.998
3156.167, 6292.046
3158.096, 6309.711
3160.024, 6357.199
3161.953, 6411.303
3163.881, 6456.604
3165.810, 6493.494
3167.738, 6508.121
3169.667, 6540.358
3171.595, 6615.972
3173.524, 6669.847
3175.452, 6690.211
3177.381, 6713.861
3179.309, 6743.811
3181.238, 6789.316
3183.166, 6845.119
3185.094, 6871.136
3187.023, 6889.592
3188.951, 6966.237
3190.880, 7052.754
3192.808, 7080.626
3194.737, 7094.361
3196.665, 7118.114
3198.594, 7148.854
3200.522, 7189.950
3202.451, 7229.006
3204.379, 7266.535
3206.308, 7285.938
3208.236, 7272.785
3210.165, 7313.282
3212.093, 7398.751
3214.021, 7436.892
3215.950, 7445.547
3217.878, 7479.100
3219.807, 7519.259
3221.735, 7525.554
3223.664, 7539.464
3225.592, 7604.000
3227.521, 7665.423
3229.449, 7690.546
3231.378, 7726.824
3233.306, 7796.635
3235.235, 7823.034
3237.163, 7786.334
3239.092, 7772.114
3241.020, 7780.438
3242.948, 7809.518
3244.877, 7850.023
3246.805, 7885.134
3248.734, 7911.323
3250.662, 7919.060
3252.591, 7922.243
3254.519, 7918.817
3256.448, 7938.001
3258.376, 8010.355
3260.305, 8037.050
3262.233, 7985.731
3264.162, 7931.902
3266.090, 7987.082
3268.019, 8024.854
3269.947, 8046.141
3271.875, 8001.591
3273.804, 8042.063
3275.732, 8048.457
3277.661, 8053.462
3279.589, 8105.893
3281.518, 8070.927
3283.446, 8122.604
3285.375, 8139.699
3287.303, 8172.617
3289.232, 8171.264
3291.160, 8180.490
3293.089, 8171.820
3295.017, 8147.949
3296.946, 8167.344
3298.874, 8204.851
3300.802, 8220.459
3302.731, 8234.389
3304.659, 8271.144
3306.588, 8297.360
3308.516, 8289.426
3310.445, 8285.355
3312.373, 8289.424
3314.302, 8310.309
3316.230, 8346.687
3318.159, 8332.760
3320.087, 8290.533
3322.016, 8327.115
3323.944, 8374.462
3325.873, 8321.418
3327.801, 8272.353
3329.729, 8325.755
3331.658, 8358.165
3333.586, 8303.075
3335.515, 8313.416
3337.443, 8427.587
3339.372, 8464.715
3341.300, 8433.271
3343.229, 8419.530
3345.157, 8418.387
3347.086, 8418.405
3349.014, 8418.351
3350.943, 8411.973
3352.871, 8412.733
3354.800, 8431.362
3356.728, 8445.554
3358.656, 8448.864
3360.585, 8462.511
3362.513, 8488.107
3364.442, 8513.396
3366.370, 8534.039
3368.299, 8528.679
3370.227, 8524.102
3372.156, 8567.979
3374.084, 8598.698
3376.013, 8556.927
3377.941, 8557.421
3379.870, 8652.319
3381.798, 8716.170
3383.727, 8743.338
3385.655, 8753.311
3387.583, 8749.821
3389.512, 8726.205
3391.440, 8708.815
3393.369, 8724.918
3395.297, 8762.198
3397.226, 8839.832
3399.154, 8876.125
3401.083, 8838.515
3403.011, 8850.241
3404.940, 8921.683
3406.868, 8991.422
3408.797, 9051.463
3410.725, 9068.050
3412.654, 9084.364
3414.582, 9167.021
3416.510, 9243.129
3418.439, 9263.282
3420.367, 9306.793
3422.296, 9392.197
3424.224, 9475.219
3426.153, 9556.773
3428.081, 9655.365
3430.010, 9773.813
3431.938, 9943.729
3433.867, 10101.70
3435.795, 10159.65
3437.724, 10253.81
3439.652, 10439.97
3441.581, 10635.14
3443.509, 10830.01
3445.438, 11016.64
3447.366, 11202.70
3449.294, 11418.74
3451.223, 11661.24
3453.151, 11930.37
3455.080, 12215.38
3457.008, 12504.55
3458.937, 12817.32
3460.865, 13179.69
3462.794, 13514.29
3464.722, 13824.27
3466.651, 14123.82
3468.579, 14433.34
3470.508, 14829.29
3472.436, 15209.63
3474.365, 15483.29
3476.293, 15739.19
3478.221, 16013.14
3480.150, 16266.93
3482.078, 16497.08
3484.007, 16658.09
3485.935, 16763.47
3487.864, 16848.68
3489.792, 16904.57
3491.721, 16901.45
3493.649, 16910.01
3495.578, 16999.60
3497.506, 16949.17
3499.435, 16696.25
3501.363, 16522.75
3503.292, 16415.21
3505.220, 16310.25
3507.148, 16176.05
3509.077, 15971.79
3511.005, 15711.11
3512.934, 15377.14
3514.862, 15069.33
3516.791, 14816.47
3518.719, 14544.80
3520.648, 14254.32
3522.576, 13938.49
3524.505, 13622.87
3526.433, 13325.34
3528.362, 13069.42
3530.290, 12883.20
3532.219, 12705.69
3534.147, 12527.51
3536.075, 12377.62
3538.004, 12256.14
3539.932, 12158.01
3541.861, 12074.60
3543.789, 12014.83
3545.718, 11928.93
3547.646, 11795.69
3549.575, 11614.84
3551.503, 11384.55
3553.432, 11086.00
3555.360, 10729.24
3557.289, 10327.31
3559.217, 9911.679
3561.146, 9498.504
3563.074, 9113.044
3565.002, 8767.580
3566.931, 8435.717
3568.859, 8117.035
3570.788, 7836.700
3572.716, 7585.401
3574.645, 7339.392
3576.573, 7098.638
3578.502, 6845.790
3580.430, 6627.797
3582.359, 6462.065
3584.287, 6300.410
3586.216, 6137.872
3588.144, 5956.998
3590.073, 5788.167
3592.001, 5709.809
3593.929, 5616.092
3595.858, 5434.291
3597.786, 5287.183
3599.715, 5210.715
3601.643, 5133.779
3603.572, 5053.525
3605.500, 4958.114
3607.429, 4860.315
3609.357, 4769.134
3611.286, 4690.254
3613.214, 4628.138
3615.143, 4574.959
3617.071, 4528.857
3619.000, 4478.262
3620.928, 4429.545
3622.856, 4409.646
3624.785, 4375.790
3626.713, 4283.041
3628.642, 4216.644
3630.570, 4189.802
3632.499, 4159.204
3634.427, 4123.971
3636.356, 4085.360
3638.284, 4053.151
3640.213, 4035.523
3642.141, 4028.676
3644.070, 4041.136
3645.998, 4011.991
3647.927, 3948.872
3649.855, 3962.292
3651.783, 3993.382
3653.712, 3948.700
3655.640, 3891.685
3657.569, 3846.393
3659.497, 3813.556
3661.426, 3793.609
3663.354, 3791.982
3665.283, 3798.988
3667.211, 3798.016
3669.140, 3786.152
3671.068, 3743.852
3672.997, 3731.260
3674.925, 3757.997
3676.854, 3757.208
3678.782, 3734.943
3680.710, 3721.220
3682.639, 3705.645
3684.567, 3674.938
3686.496, 3654.372
3688.424, 3652.328
3690.353, 3623.422
3692.281, 3580.077
3694.210, 3598.750
3696.138, 3634.657
3698.067, 3652.775
3699.995, 3646.436
3701.924, 3609.488
3703.852, 3595.195
3705.781, 3603.869
3707.709, 3610.820
3709.637, 3614.802
3711.566, 3615.819
3713.494, 3608.503
3715.423, 3587.082
3717.351, 3586.207
3719.280, 3601.797
3721.208, 3567.499
3723.137, 3529.702
3725.065, 3561.128
3726.994, 3576.331
3728.922, 3544.818
3730.851, 3509.887
3732.779, 3479.366
3734.708, 3484.959
3736.636, 3499.245
3738.564, 3479.290
3740.493, 3473.994
3742.421, 3503.906
3744.350, 3513.714
3746.278, 3502.547
3748.207, 3513.623
3750.135, 3524.705
3752.064, 3505.452
3753.992, 3490.366
3755.921, 3491.955
3757.849, 3483.108
3759.778, 3467.443
3761.706, 3489.904
3763.635, 3511.474
3765.563, 3483.314
3767.491, 3457.420
3769.420, 3445.254
3771.348, 3458.944
3773.277, 3487.778
3775.205, 3482.214
3777.134, 3469.275
3779.062, 3480.432
3780.991, 3466.942
3782.919, 3416.828
3784.848, 3423.447
3786.776, 3463.953
3788.705, 3463.510
3790.633, 3456.442
3792.562, 3465.712
3794.490, 3479.734
3796.418, 3495.849
3798.347, 3489.710
3800.275, 3471.281
3802.204, 3457.687
3804.132, 3449.113
3806.061, 3447.914
3807.989, 3450.466
3809.918, 3455.927
3811.846, 3458.375
3813.775, 3453.989
3815.703, 3432.815
3817.632, 3413.177
3819.560, 3393.907
3821.489, 3420.439
3823.417, 3471.410
3825.345, 3443.524
3827.274, 3408.451
3829.202, 3432.823
3831.131, 3447.344
3833.059, 3436.011
3834.988, 3424.923
3836.916, 3415.955
3838.845, 3408.332
3840.773, 3410.157
3842.702, 3430.223
3844.630, 3442.217
3846.559, 3442.365
3848.487, 3394.393
3850.416, 3350.707
3852.344, 3398.056
3854.272, 3429.305
3856.201, 3407.977
3858.129, 3398.822
3860.058, 3401.741
3861.986, 3411.171
3863.915, 3416.131
3865.843, 3409.141
3867.772, 3409.212
3869.700, 3417.262
3871.629, 3411.695
3873.557, 3403.367
3875.486, 3416.124
3877.414, 3413.021
3879.343, 3379.677
3881.271, 3374.727
3883.199, 3387.862
3885.128, 3368.303
3887.056, 3353.700
3888.985, 3380.617
3890.913, 3382.255
3892.842, 3358.955
3894.770, 3381.583
3896.699, 3404.606
3898.627, 3378.301
3900.556, 3360.528
3902.484, 3362.094
3904.413, 3356.992
3906.341, 3354.072
3908.270, 3368.185
3910.198, 3373.521
3912.126, 3355.997
3914.055, 3359.237
3915.983, 3380.904
3917.912, 3374.066
3919.840, 3358.216
3921.769, 3356.662
3923.697, 3352.083
3925.626, 3344.755
3927.554, 3337.505
3929.483, 3324.378
3931.411, 3323.794
3933.340, 3342.654
3935.268, 3379.226
3937.197, 3380.409
3939.125, 3349.706
3941.053, 3334.779
3942.982, 3329.183
3944.910, 3326.599
3946.839, 3321.264
3948.767, 3308.957
3950.696, 3308.357
3952.624, 3310.994
3954.553, 3301.082
3956.481, 3307.696
3958.410, 3333.565
3960.338, 3326.864
3962.267, 3301.213
3964.195, 3294.752
3966.124, 3300.771
3968.052, 3306.157
3969.980, 3313.938
3971.909, 3320.791
3973.837, 3308.752
3975.766, 3297.886
3977.694, 3308.727
3979.623, 3312.972
3981.551, 3304.054
3983.480, 3317.521
3985.408, 3320.208
3987.337, 3286.806
3989.265, 3277.980
3991.194, 3291.302
3993.122, 3301.698
3995.051, 3310.196
3996.979, 3300.562
3998.907, 3286.624
4000.836, 3276.884
4002.764, 3276.290
4004.693, 3278.749
4006.621, 3279.040
4008.550, 3276.322
4010.478, 3273.451
4012.407, 3274.689
4014.335, 3281.357
4016.264, 3284.721
4018.192, 3296.551
4020.121, 3324.993
4022.049, 3302.807
4023.978, 3266.368
4025.906, 3272.429
4027.834, 3285.297
4029.763, 3293.786
4031.691, 3280.009
4033.620, 3260.403
4035.548, 3265.542
4037.477, 3270.828
4039.405, 3265.894
4041.334, 3263.551
4043.262, 3265.551
4045.191, 3274.748
4047.119, 3280.371
4049.048, 3271.121
4050.976, 3267.005
4052.905, 3268.626
4054.833, 3277.479
4056.761, 3279.780
4058.690, 3256.357
4060.618, 3252.209
4062.547, 3270.436
4064.475, 3278.856
4066.404, 3276.256
4068.332, 3253.213
4070.261, 3249.129
4072.189, 3273.232
4074.118, 3268.535
4076.046, 3254.511
4077.975, 3265.470
4079.903, 3268.129
4081.832, 3254.819
4083.760, 3252.644
4085.688, 3259.882
4087.617, 3271.840
4089.545, 3271.135
4091.474, 3260.755
4093.402, 3264.650
4095.331, 3272.757
4097.259, 3257.904
4099.188, 3247.764
4101.116, 3256.367
4103.045, 3253.213
4104.973, 3237.184
4106.902, 3235.748
4108.830, 3240.721
4110.759, 3232.376
4112.687, 3238.050
4114.616, 3268.473
4116.544, 3268.696
4118.473, 3248.944
4120.401, 3249.096
4122.330, 3252.188
4124.258, 3236.071
4126.187, 3243.809
4128.115, 3246.494
4130.043, 3237.353
4131.972, 3249.056
4133.900, 3271.893
4135.829, 3267.782
4137.757, 3247.644
4139.686, 3232.524
4141.614, 3234.302
4143.542, 3246.207
4145.471, 3247.740
4147.399, 3261.193
4149.328, 3282.697
4151.256, 3283.064
4153.185, 3270.720
4155.113, 3278.108
4157.042, 3281.478
4158.970, 3252.921
4160.899, 3245.527
4162.827, 3267.589
4164.756, 3264.267
4166.684, 3264.396
4168.613, 3269.046
4170.541, 3259.116
4172.470, 3231.200
4174.398, 3226.021
4176.327, 3245.656
4178.255, 3250.998
4180.184, 3248.149
4182.112, 3229.903
4184.041, 3237.043
4185.969, 3274.701
4187.897, 3293.778
4189.826, 3295.688
4191.754, 3274.161
4193.683, 3280.827
4195.611, 3309.386
4197.540, 3307.996
4199.468, 3306.531
4201.396, 3316.227
4203.325, 3326.454
4205.253, 3334.574
4207.182, 3319.423
4209.110, 3300.615
4211.039, 3279.566
4212.967, 3291.783
4214.896, 3317.276
4216.824, 3285.765
4218.753, 3259.416
4220.681, 3274.353
4222.610, 3290.622
4224.538, 3303.728
4226.467, 3303.483
4228.395, 3292.802
4230.324, 3267.356
4232.252, 3252.854
4234.181, 3251.468
4236.109, 3279.320
4238.038, 3286.416
4239.966, 3247.670
4241.895, 3235.818
4243.823, 3245.037
4245.751, 3276.779
4247.680, 3287.865
4249.608, 3265.697
4251.537, 3238.712
4253.465, 3230.556
4255.394, 3294.596
4257.322, 3317.506
4259.250, 3280.642
4261.179, 3263.613
4263.107, 3257.699
4265.036, 3260.841
4266.964, 3249.584
4268.893, 3224.264
4270.821, 3201.716
4272.750, 3194.321
4274.678, 3218.748
4276.607, 3244.083
4278.535, 3261.862
4280.464, 3245.123
4282.392, 3225.230
4284.321, 3218.204
4286.249, 3216.910
4288.178, 3219.381
4290.106, 3220.524
4292.035, 3226.723
4293.963, 3242.983
4295.892, 3248.804
4297.820, 3249.762
4299.749, 3256.397
4301.677, 3253.213
4303.605, 3237.278
4305.534, 3255.259
4307.462, 3273.896
4309.391, 3252.102
4311.319, 3242.047
4313.248, 3245.854
4315.176, 3248.210
4317.104, 3241.114
4319.033, 3207.485
4320.961, 3230.242
4322.890, 3279.794
4324.818, 3261.389
4326.747, 3238.363
4328.675, 3230.590
4330.604, 3235.469
4332.532, 3244.256
4334.461, 3246.444
4336.389, 3247.573
4338.318, 3248.261
4340.246, 3229.262
4342.175, 3215.719
4344.103, 3229.305
4346.032, 3236.793
4347.960, 3236.727
4349.889, 3234.998
4351.817, 3232.753
4353.746, 3230.214
4355.674, 3247.595
4357.603, 3263.828
4359.531, 3227.319
4361.459, 3227.239
4363.388, 3272.115
4365.316, 3283.366
4367.245, 3280.420
4369.173, 3283.507
4371.102, 3268.186
4373.030, 3245.178
4374.958, 3259.096
4376.887, 3267.428
4378.815, 3246.811
4380.744, 3254.387
4382.672, 3268.957
4384.601, 3249.403
4386.529, 3250.976
4388.458, 3279.148
4390.386, 3271.171
4392.315, 3257.468
4394.243, 3259.515
4396.172, 3258.390
4398.100, 3252.107
4400.029, 3233.461
4401.957, 3224.009
4403.886, 3230.118
4405.814, 3259.216
4407.743, 3281.430
4409.671, 3266.541
4411.600, 3237.596
4413.528, 3207.751
4415.457, 3214.413
4417.385, 3230.455
4419.313, 3244.636
4421.242, 3251.885
4423.170, 3255.346
4425.099, 3267.921
4427.027, 3248.617
4428.956, 3202.320
4430.884, 3219.985
4432.813, 3236.847
4434.741, 3208.373
4436.669, 3179.625
4438.598, 3166.199
4440.526, 3204.611
4442.455, 3239.580
4444.383, 3258.002
4446.312, 3233.775
4448.240, 3210.239
4450.169, 3215.716
4452.097, 3215.173
4454.026, 3213.847
4455.954, 3236.084
4457.883, 3240.146
4459.811, 3219.522
4461.740, 3199.383
4463.668, 3188.880
4465.597, 3202.215
4467.525, 3193.237
4469.454, 3180.614
4471.382, 3224.312
4473.311, 3242.696
4475.239, 3217.729
4477.167, 3195.387
4479.096, 3185.092
4481.024, 3197.596
4482.953, 3182.164
4484.881, 3156.479
4486.810, 3161.802
4488.738, 3170.137
4490.667, 3175.311
4492.595, 3180.715
4494.523, 3182.506
4496.452, 3175.042
4498.380, 3180.582
4500.309, 3187.742
4502.237, 3169.807
4504.166, 3161.657
4506.094, 3167.344
4508.023, 3186.118
4509.951, 3179.718
4511.880, 3128.223
4513.808, 3140.949
4515.737, 3170.471
4517.665, 3146.359
4519.594, 3131.297
4521.522, 3133.170
4523.451, 3157.968
4525.379, 3171.853
4527.308, 3159.453
4529.236, 3166.297
4531.165, 3165.903
4533.093, 3128.599
4535.021, 3110.594
4536.950, 3112.568
4538.878, 3136.886
4540.807, 3136.734
4542.735, 3113.579
4544.664, 3167.206
4546.592, 3201.656
4548.521, 3140.193
4550.449, 3114.416
4552.377, 3119.398
4554.306, 3164.606
4556.234, 3168.388
4558.163, 3135.746
4560.091, 3115.941
4562.020, 3109.621
4563.948, 3115.095
4565.877, 3102.540
4567.805, 3096.349
4569.734, 3121.959
4571.662, 3130.901
4573.591, 3125.008
4575.519, 3098.654
4577.448, 3110.550
4579.376, 3153.399
4581.305, 3124.228
4583.233, 3102.337
4585.162, 3115.264
4587.090, 3135.781
4589.019, 3151.715
4590.947, 3156.417
4592.875, 3132.865
4594.804, 3105.728
4596.732, 3138.416
4598.661, 3138.636
4600.589, 3103.998
4602.518, 3101.183
4604.446, 3102.079
4606.375, 3098.138
4608.303, 3139.256
4610.231, 3170.110
4612.160, 3139.462
4614.088, 3094.170
4616.017, 3058.306
4617.945, 3070.005
4619.874, 3102.734
4621.802, 3137.615
4623.731, 3111.484
4625.659, 3086.769
4627.588, 3080.358
4629.516, 3073.684
4631.445, 3070.062
4633.373, 3072.954
4635.302, 3076.299
4637.230, 3087.352
4639.159, 3124.225
4641.087, 3100.151
4643.016, 3053.797
4644.944, 3104.303
4646.873, 3112.422
4648.801, 3069.511
4650.729, 3094.205
4652.658, 3113.570
4654.586, 3098.169
4656.515, 3077.301
4658.443, 3058.143
4660.372, 3044.137
4662.300, 3039.921
4664.229, 3042.863
4666.157, 3050.686
4668.085, 3068.641
4670.014, 3081.382
4671.942, 3035.904
4673.871, 3025.423
4675.799, 3052.953
4677.728, 3039.373
4679.656, 3026.850
4681.585, 3029.792
4683.513, 3023.035
4685.442, 3019.152
4687.370, 3026.766
4689.299, 3040.091
4691.227, 3050.771
4693.156, 3049.777
4695.084, 3051.240
4697.013, 3050.852
4698.941, 3038.433
4700.870, 3025.010
4702.798, 3013.391
4704.727, 3002.402
4706.655, 3008.701
4708.583, 3032.134
4710.512, 3059.646
4712.440, 3072.024
4714.369, 3060.497
4716.297, 3054.677
4718.226, 3043.778
4720.154, 3020.425
4722.083, 3018.038
4724.011, 3018.719
4725.939, 3000.132
4727.868, 3004.706
4729.796, 3018.975
4731.725, 3015.818
4733.653, 3027.689
4735.582, 3043.032
4737.510, 3025.921
4739.439, 2996.600
4741.367, 2970.550
4743.296, 2994.129
4745.224, 3010.825
4747.153, 3004.787
4749.081, 2970.908
4751.010, 2967.765
4752.938, 3010.856
4754.867, 3011.875
4756.795, 2999.618
4758.724, 2989.122
4760.652, 3017.467
4762.581, 3040.006
4764.509, 3020.622
4766.438, 3014.494
4768.366, 3008.510
4770.294, 2970.558
4772.223, 2975.281
4774.151, 3004.687
4776.080, 3030.084
4778.008, 3021.719
4779.937, 2996.090
4781.865, 2993.496
4783.793, 2998.692
4785.722, 3006.909
4787.650, 3019.535
4789.579, 3000.019
4791.507, 2957.930
4793.436, 2970.012
4795.364, 2975.020
4797.293, 2955.302
4799.221, 2926.166
4801.150, 2923.697
4803.078, 2956.087
4805.007, 2968.467
4806.935, 2977.095
4808.864, 2992.401
4810.792, 2981.584
4812.721, 2980.087
4814.649, 3008.502
4816.578, 3011.988
4818.506, 2992.578
4820.435, 2937.656
4822.363, 2935.032
4824.292, 2961.665
4826.220, 3001.890
4828.148, 2993.664
4830.077, 2962.391
4832.005, 2936.114
4833.934, 2922.597
4835.862, 2919.043
4837.791, 2920.029
4839.719, 2946.333
4841.647, 2972.247
4843.576, 2951.670
4845.504, 2934.221
4847.433, 2923.681
4849.361, 2916.000
4851.290, 2921.219
4853.218, 2934.470
4855.147, 2951.303
4857.075, 2938.453
4859.004, 2913.603
4860.932, 2935.574
4862.861, 2948.463
4864.789, 2943.872
4866.718, 2913.911
4868.646, 2915.693
4870.575, 2943.444
4872.503, 2953.286
4874.432, 2950.152
4876.360, 2936.048
4878.289, 2903.185
4880.217, 2896.033
4882.146, 2911.346
4884.074, 2901.005
4886.002, 2901.760
4887.931, 2913.627
4889.859, 2896.407
4891.788, 2895.845
4893.716, 2911.085
4895.645, 2899.025
4897.573, 2887.968
4899.501, 2880.230
4901.430, 2841.294
4903.358, 2851.771
4905.287, 2899.843
4907.215, 2872.597
4909.144, 2864.461
4911.072, 2885.637
4913.001, 2874.963
4914.929, 2861.986
4916.858, 2855.716
4918.786, 2870.347
4920.715, 2864.123
4922.643, 2838.924
4924.572, 2839.373
4926.500, 2841.337
4928.429, 2841.950
4930.357, 2854.450
4932.286, 2852.454
4934.214, 2838.195
4936.143, 2824.483
4938.071, 2847.322
4940.000, 2884.040
4941.928, 2845.518
4943.856, 2825.944
4945.785, 2829.228
4947.713, 2830.361
4949.642, 2817.009
4951.570, 2802.632
4953.499, 2831.844
4955.427, 2812.831
4957.355, 2769.348
4959.284, 2764.388
4961.212, 2789.529
4963.141, 2818.174
4965.069, 2804.533
4966.998, 2816.839
4968.926, 2825.410
4970.855, 2774.756
4972.783, 2766.312
4974.712, 2778.657
4976.640, 2770.650
4978.569, 2796.410
4980.497, 2820.795
4982.426, 2810.517
4984.354, 2782.247
4986.283, 2754.729
4988.211, 2739.467
4990.140, 2767.847
4992.068, 2796.528
4993.997, 2794.480
4995.925, 2791.229
4997.854, 2790.207
4999.782, 2793.074
5001.710, 2793.649
5003.639, 2785.755
5005.567, 2768.288
5007.496, 2769.619
5009.424, 2791.220
5011.353, 2821.459
5013.281, 2784.241
5015.209, 2760.994
5017.138, 2762.168
5019.066, 2751.277
5020.995, 2746.570
5022.923, 2740.942
5024.852, 2694.427
5026.780, 2695.729
5028.709, 2726.563
5030.637, 2736.809
5032.566, 2709.287
5034.494, 2683.166
5036.423, 2720.925
5038.351, 2721.612
5040.280, 2722.923
5042.208, 2765.855
5044.137, 2743.405
5046.065, 2700.031
5047.994, 2667.904
5049.922, 2714.758
5051.851, 2748.210
5053.779, 2726.733
5055.708, 2717.985
5057.636, 2704.224
5059.564, 2685.765
5061.493, 2695.156
5063.421, 2681.407
5065.350, 2656.379
5067.278, 2717.365
5069.207, 2721.771
5071.135, 2683.707
5073.063, 2670.175
5074.992, 2660.729
5076.920, 2662.547
5078.849, 2700.652
5080.777, 2692.615
5082.706, 2657.503
5084.634, 2609.483
5086.563, 2625.676
5088.491, 2635.643
5090.420, 2608.922
5092.348, 2621.291
5094.277, 2631.820
5096.205, 2627.122
5098.134, 2608.227
5100.062, 2629.258
5101.991, 2668.152
5103.919, 2636.333
5105.848, 2622.836
5107.776, 2628.204
5109.705, 2645.461
5111.633, 2613.606
5113.562, 2588.835
5115.490, 2622.819
5117.418, 2634.119
5119.347, 2612.957
5121.275, 2563.788
5123.204, 2556.282
5125.132, 2547.487
5127.061, 2531.793
5128.989, 2570.347
5130.917, 2573.531
5132.846, 2550.553
5134.774, 2558.889
5136.703, 2566.110
5138.631, 2565.305
5140.560, 2551.862
5142.488, 2541.674
5144.417, 2536.006
5146.345, 2535.775
5148.274, 2487.972
5150.202, 2489.231
5152.131, 2543.363
5154.059, 2489.118
5155.988, 2475.195
5157.916, 2502.278
5159.845, 2493.968
5161.773, 2492.402
5163.702, 2493.407
5165.630, 2485.467
5167.559, 2489.126
5169.487, 2506.375
5171.416, 2532.934
5173.344, 2493.254
5175.272, 2465.195
5177.201, 2470.062
5179.129, 2475.470
5181.058, 2463.830
5182.986, 2445.290
5184.915, 2443.989
5186.843, 2433.186
5188.771, 2417.076
5190.700, 2400.581
5192.628, 2407.997
5194.557, 2411.288
5196.485, 2397.530
5198.414, 2359.399
5200.342, 2354.949
5202.271, 2375.774
5204.199, 2369.845
5206.128, 2363.746
5208.056, 2362.560
5209.985, 2368.371
5211.913, 2387.993
5213.842, 2389.994
5215.770, 2361.741
5217.699, 2353.282
5219.627, 2342.996
5221.556, 2330.400
5223.484, 2337.186
5225.413, 2307.310
5227.341, 2280.890
5229.270, 2325.480
5231.198, 2309.016
5233.126, 2292.967
5235.055, 2306.553
5236.983, 2292.509
5238.912, 2294.689
5240.840, 2309.219
5242.769, 2286.135
5244.697, 2307.609
5246.625, 2337.844
5248.554, 2330.471
5250.482, 2305.493
5252.411, 2273.014
5254.339, 2246.829
5256.268, 2294.699
5258.196, 2294.752
5260.125, 2257.174
5262.053, 2249.968
5263.982, 2267.956
5265.910, 2279.463
5267.839, 2260.509
5269.767, 2233.413
5271.696, 2222.464
5273.624, 2232.746
5275.553, 2260.582
5277.481, 2270.088
5279.410, 2265.240
5281.338, 2255.970
5283.267, 2248.036
5285.195, 2248.216
5287.124, 2256.701
5289.052, 2230.559
5290.980, 2238.538
5292.909, 2259.096
5294.837, 2213.463
5296.766, 2207.630
5298.694, 2206.818
5300.623, 2175.102
5302.551, 2203.622
5304.479, 2204.060
5306.408, 2176.008
5308.336, 2210.763
5310.265, 2213.031
5312.193, 2191.762
5314.122, 2169.501
5316.050, 2183.790
5317.979, 2202.814
5319.907, 2212.969
5321.836, 2222.716
5323.764, 2214.819
5325.693, 2197.416
5327.621, 2183.185
5329.550, 2194.105
5331.478, 2199.693
5333.407, 2189.714
5335.335, 2190.195
5337.264, 2179.729
5339.192, 2171.897
5341.121, 2200.816
5343.049, 2194.323
5344.978, 2177.797
5346.906, 2167.683
5348.834, 2184.388
5350.763, 2183.359
5352.691, 2171.318
5354.620, 2173.279
5356.548, 2132.197
5358.477, 2112.131
5360.405, 2139.115
5362.333, 2124.352
5364.262, 2125.955
5366.190, 2141.481
5368.119, 2150.503
5370.047, 2159.640
5371.976, 2172.169
5373.904, 2183.301
5375.833, 2154.646
5377.761, 2159.592
5379.690, 2173.185
5381.618, 2134.075
5383.547, 2153.905
5385.475, 2160.276
5387.404, 2131.431
5389.332, 2111.112
5391.261, 2108.446
5393.189, 2118.763
5395.118, 2135.181
5397.046, 2125.270
5398.975, 2127.368
5400.903, 2145.794
5402.832, 2146.671
5404.760, 2137.056
5406.688, 2121.417
5408.617, 2102.476
5410.545, 2127.675
5412.474, 2113.370
5414.402, 2076.993
5416.331, 2101.130
5418.259, 2086.187
5420.188, 2080.741
5422.116, 2110.337
5424.044, 2080.594
5425.973, 2098.584
5427.901, 2127.367
5429.830, 2081.708
5431.758, 2056.440
5433.687, 2085.655
5435.615, 2140.297
5437.544, 2074.558
5439.472, 2081.049
5441.401, 2102.457
5443.329, 2074.114
5445.258, 2107.522
5447.186, 2099.110
5449.115, 2045.656
5451.043, 1982.393
5452.972, 1992.006
5454.900, 2029.916
5456.829, 2066.355
5458.757, 2093.317
5460.686, 2063.898
5462.614, 2027.367
5464.542, 2035.796
5466.471, 2033.276
5468.399, 2047.632
5470.328, 2071.131
5472.256, 2062.740
5474.185, 2078.923
5476.113, 2083.614
5478.042, 2075.038
5479.970, 2179.288
5481.898, 2158.883
5483.827, 2099.872
5485.755, 2112.536
5487.684, 2046.118
5489.612, 2038.711
5491.541, 2078.505
5493.469, 2070.124
5495.398, 2040.860
5497.326, 2048.232
5499.255, 2088.434
5501.183, 2025.509
5503.112, 2011.104
5505.040, 2032.418
5506.969, 2059.227
5508.897, 2052.678
5510.826, 2052.928
5512.754, 2056.311
5514.683, 2047.659
5516.611, 2051.983
5518.540, 2054.611
5520.468, 2056.421
5522.396, 2078.570
5524.325, 2073.968
5526.253, 2065.040
5528.182, 2060.346
5530.110, 2030.207
5532.039, 2039.260
5533.967, 2057.626
5535.896, 2054.676
5537.824, 2038.933
5539.752, 2020.330
5541.681, 2015.084
5543.609, 2039.177
5545.538, 2039.433
5547.466, 2041.306
5549.395, 2046.535
5551.323, 2040.903
5553.252, 2029.151
5555.180, 2022.138
5557.109, 2021.956
5559.037, 2020.440
5560.966, 2037.755
5562.894, 2033.458
5564.823, 1997.793
5566.751, 2003.779
5568.680, 2008.729
5570.608, 2019.558
5572.537, 2044.018
5574.465, 2060.335
5576.394, 2030.504
5578.322, 1995.480
5580.250, 2011.088
5582.179, 2025.925
5584.107, 2013.378
5586.036, 1998.507
5587.964, 2025.814
5589.893, 2034.030
5591.821, 2037.730
5593.750, 2042.863
5595.678, 2049.667
5597.606, 2037.326
5599.535, 2037.043
5601.463, 2049.762
5603.392, 2040.151
5605.320, 2029.761
5607.249, 2028.664
5609.177, 2035.399
5611.106, 2028.138
5613.034, 2036.737
5614.963, 2044.319
5616.891, 2045.055
5618.820, 2063.477
5620.748, 2089.907
5622.677, 2099.423
5624.605, 2083.399
5626.534, 2069.698
5628.462, 2069.176
5630.391, 2076.456
5632.319, 2083.499
5634.248, 2069.177
5636.176, 2059.352
5638.104, 2056.161
5640.033, 2058.062
5641.961, 2072.387
5643.890, 2077.492
5645.818, 2069.256
5647.747, 2048.941
5649.675, 2028.131
5651.604, 2044.532
5653.532, 2074.652
5655.460, 2087.285
5657.389, 2042.605
5659.317, 2038.989
5661.246, 2059.164
5663.174, 2070.372
5665.103, 2085.981
5667.031, 2088.191
5668.960, 2077.474
5670.888, 2058.392
5672.817, 2057.009
5674.745, 2047.913
5676.674, 2034.786
5678.602, 2027.178
5680.531, 2051.530
5682.459, 2048.712
5684.388, 2035.434
5686.316, 2034.287
5688.245, 2021.263
5690.173, 2048.824
5692.102, 2066.973
5694.030, 2042.916
5695.958, 2068.707
5697.887, 2073.401
5699.815, 2063.082
5701.744, 2050.732
5703.672, 2032.665
5705.601, 2017.968
5707.529, 2014.115
5709.458, 2018.936
5711.386, 1998.838
5713.314, 1996.773
5715.243, 1996.876
5717.171, 1991.777
5719.100, 1997.030
5721.028, 1999.604
5722.957, 2006.875
5724.885, 2014.242
5726.814, 1999.872
5728.742, 1988.981
5730.671, 1997.278
5732.599, 2010.059
5734.528, 1990.641
5736.456, 2002.019
5738.385, 2013.009
5740.313, 2012.348
5742.242, 2002.761
5744.170, 1988.907
5746.099, 1979.916
5748.027, 1977.947
5749.956, 1982.457
5751.884, 1989.383
5753.813, 1999.493
5755.741, 2003.604
5757.669, 1995.469
5759.598, 1994.320
5761.526, 1970.225
5763.455, 1962.748
5765.383, 1986.799
5767.312, 1983.775
5769.240, 1978.689
5771.168, 2000.962
5773.097, 2030.386
5775.025, 1993.396
5776.954, 1956.044
5778.882, 1926.258
5780.811, 1917.044
5782.739, 1944.044
5784.668, 1938.964
5786.596, 1944.290
5788.525, 1955.148
5790.453, 1955.025
5792.382, 1969.211
5794.310, 1958.311
5796.239, 1948.277
5798.167, 1957.721
5800.096, 1972.730
5802.024, 1928.981
5803.953, 1917.153
5805.881, 1942.303
5807.810, 1903.933
5809.738, 1917.795
5811.667, 1937.341
5813.595, 1940.544
5815.523, 1924.713
5817.452, 1939.762
5819.380, 1930.953
5821.309, 1930.761
5823.237, 1958.272
5825.166, 1928.930
5827.094, 1906.628
5829.022, 1915.321
5830.951, 1930.199
5832.879, 1879.083
5834.808, 1885.112
5836.736, 1900.420
5838.665, 1907.034
5840.593, 1907.245
5842.522, 1887.640
5844.450, 1910.288
5846.379, 1922.580
5848.307, 1894.551
5850.236, 1903.135
5852.164, 1919.350
5854.093, 1942.712
5856.021, 1949.615
5857.950, 1880.025
5859.878, 1909.105
5861.807, 1890.949
5863.735, 1863.538
5865.664, 1889.925
5867.592, 1892.888
5869.521, 1867.067
5871.449, 1849.222
5873.377, 1860.117
5875.306, 1903.450
5877.234, 1926.635
5879.163, 1900.110
5881.091, 1877.148
5883.020, 1904.735
5884.948, 1867.510
5886.876, 1880.341
5888.805, 1891.491
5890.733, 1879.928
5892.662, 1889.425
5894.590, 1877.449
5896.519, 1874.860
5898.447, 1893.970
5900.376, 1929.789
5902.304, 1943.801
5904.233, 1900.150
5906.161, 1865.145
5908.090, 1862.975
5910.018, 1861.643
5911.947, 1848.843
5913.875, 1868.915
5915.804, 1890.337
5917.732, 1879.875
5919.661, 1894.518
5921.589, 1892.077
5923.518, 1887.215
5925.446, 1882.934
5927.375, 1864.240
5929.303, 1878.453
5931.231, 1863.341
5933.160, 1848.678
5935.088, 1856.709
5937.017, 1841.815
5938.945, 1863.699
5940.874, 1877.876
5942.802, 1882.242
5944.730, 1895.231
5946.659, 1890.817
5948.587, 1854.592
5950.516, 1834.386
5952.444, 1846.331
5954.373, 1870.397
5956.301, 1851.744
5958.230, 1837.332
5960.158, 1849.528
5962.087, 1884.261
5964.015, 1899.587
5965.944, 1855.339
5967.872, 1849.481
5969.801, 1865.410
5971.729, 1848.694
5973.658, 1845.649
5975.586, 1824.485
5977.515, 1822.070
5979.443, 1842.318
5981.372, 1857.767
5983.300, 1884.692
5985.229, 1867.069
5987.157, 1850.317
5989.085, 1855.125
5991.014, 1839.330
5992.942, 1850.957
5994.871, 1861.501
5996.799, 1849.071
5998.728, 1822.055
6000.656, 1851.320
6002.584, 1857.987
6004.513, 1835.073
6006.441, 1815.069
6008.370, 1824.378
6010.299, 1835.448
6012.227, 1800.123
6014.156, 1808.855
6016.084, 1847.504
6018.013, 1851.604
6019.941, 1874.872
6021.870, 1839.813
6023.798, 1814.454
6025.727, 1812.904
6027.655, 1798.365
6029.583, 1828.894
6031.512, 1829.832
6033.440, 1832.637
6035.369, 1846.602
6037.297, 1843.511
6039.226, 1804.795
6041.154, 1808.963
6043.083, 1833.359
6045.011, 1850.173
6046.939, 1849.459
6048.868, 1833.898
6050.796, 1828.944
6052.725, 1847.939
6054.653, 1875.241
6056.582, 1863.070
6058.510, 1868.397
6060.439, 1865.424
6062.367, 1844.925
6064.296, 1826.034
6066.224, 1859.948
6068.153, 1854.820
6070.081, 1824.925
6072.010, 1807.005
6073.938, 1809.583
6075.867, 1806.608
6077.795, 1812.913
6079.724, 1804.085
6081.652, 1804.602
6083.581, 1816.182
6085.509, 1806.279
6087.438, 1816.635
6089.366, 1806.959
6091.294, 1787.561
6093.223, 1783.313
6095.151, 1817.282
6097.080, 1823.211
6099.008, 1795.105
6100.937, 1791.876
6102.865, 1809.742
6104.793, 1802.352
6106.722, 1796.241
6108.650, 1811.942
6110.579, 1817.197
6112.507, 1805.067
6114.436, 1789.671
6116.364, 1793.590
6118.293, 1815.693
6120.221, 1814.717
6122.150, 1813.653
6124.078, 1835.467
6126.007, 1817.725
6127.935, 1801.018
6129.864, 1806.238
6131.792, 1804.591
6133.721, 1782.383
6135.649, 1772.589
6137.578, 1795.796
6139.506, 1796.767
6141.435, 1785.420
6143.363, 1780.525
6145.292, 1788.243
6147.220, 1772.407
6149.148, 1764.126
6151.077, 1821.013
6153.005, 1870.171
6154.934, 1818.709
6156.862, 1781.150
6158.791, 1791.745
6160.719, 1803.459
6162.647, 1786.867
6164.576, 1760.394
6166.504, 1803.258
6168.433, 1814.633
6170.361, 1812.718
6172.290, 1818.814
6174.218, 1815.667
6176.147, 1771.108
6178.075, 1796.312
6180.004, 1806.314
6181.932, 1789.993
6183.861, 1787.077
6185.789, 1814.093
6187.718, 1779.410
6189.646, 1760.861
6191.575, 1761.236
6193.503, 1771.498
6195.432, 1783.082
6197.360, 1790.483
6199.289, 1805.014
6201.217, 1798.559
6203.146, 1786.113
6205.074, 1784.196
6207.002, 1797.981
6208.931, 1810.968
6210.859, 1777.353
6212.788, 1767.602
6214.716, 1777.808
6216.645, 1782.443
6218.573, 1765.048
6220.501, 1739.252
6222.430, 1774.228
6224.358, 1804.468
6226.287, 1797.803
6228.215, 1773.267
6230.144, 1815.273
6232.072, 1796.772
6234.001, 1777.613
6235.929, 1808.956
6237.858, 1838.169
6239.786, 1778.388
6241.715, 1771.234
6243.643, 1787.158
6245.572, 1741.550
6247.500, 1735.132
6249.429, 1789.101
6251.357, 1771.371
6253.286, 1742.141
6255.214, 1771.463
6257.143, 1795.828
6259.071, 1795.934
6261.000, 1794.899
6262.928, 1827.490
6264.856, 1770.722
6266.785, 1756.922
6268.713, 1756.250
6270.642, 1762.102
6272.570, 1777.786
6274.499, 1744.382
6276.427, 1755.900
6278.355, 1778.641
6280.284, 1766.732
6282.212, 1746.769
6284.141, 1762.435
6286.069, 1745.647
6287.998, 1748.717
6289.926, 1775.575
6291.855, 1777.122
6293.783, 1749.637
6295.712, 1732.209
6297.640, 1777.240
6299.569, 1762.603
6301.497, 1731.698
6303.426, 1744.419
6305.354, 1771.273
6307.283, 1738.782
6309.211, 1761.152
6311.140, 1773.848
6313.068, 1768.411
6314.997, 1741.707
6316.925, 1724.138
6318.854, 1750.776
6320.782, 1767.035
6322.710, 1761.689
6324.639, 1743.754
6326.567, 1739.007
6328.496, 1745.449
6330.424, 1745.145
6332.353, 1749.174
6334.281, 1733.070
6336.209, 1741.928
6338.138, 1776.015
6340.066, 1777.711
6341.995, 1719.078
6343.923, 1722.175
6345.852, 1717.710
6347.780, 1751.196
6349.709, 1761.871
6351.637, 1755.798
6353.566, 1761.595
6355.494, 1748.814
6357.423, 1769.113
6359.351, 1719.671
6361.280, 1711.654
6363.208, 1734.423
6365.137, 1740.235
6367.065, 1729.403
6368.994, 1699.919
6370.922, 1750.226
6372.851, 1755.180
6374.779, 1743.395
6376.708, 1736.909
6378.636, 1720.192
6380.564, 1754.184
6382.493, 1740.323
6384.421, 1735.024
6386.350, 1741.068
6388.278, 1741.855
6390.207, 1731.693
6392.135, 1725.983
6394.063, 1741.559
6395.992, 1715.069
6397.920, 1714.064
6399.849, 1724.763
6401.777, 1723.492
6403.706, 1716.921
6405.634, 1707.303
6407.563, 1709.703
6409.491, 1720.942
6411.420, 1739.945
6413.348, 1722.341
6415.277, 1675.518
6417.205, 1711.810
6419.134, 1716.920
6421.062, 1701.708
6422.991, 1705.206
6424.919, 1710.318
6426.848, 1703.215
6428.776, 1696.834
6430.705, 1715.466
6432.633, 1714.534
6434.562, 1695.633
6436.490, 1697.780
6438.418, 1701.011
6440.347, 1691.625
6442.275, 1690.849
6444.204, 1687.151
6446.132, 1737.674
6448.061, 1725.130
6449.989, 1686.439
6451.917, 1678.404
6453.846, 1696.539
6455.774, 1689.218
6457.703, 1704.938
6459.631, 1809.828
6461.560, 1768.152
6463.488, 1693.422
6465.417, 1663.283
6467.345, 1659.995
6469.274, 1659.709
6471.202, 1686.155
6473.131, 1700.849
6475.059, 1655.210
6476.988, 1669.101
6478.916, 1696.182
6480.845, 1671.715
6482.773, 1693.059
6484.702, 1705.122
6486.630, 1695.375
6488.559, 1678.019
6490.487, 1676.716
6492.416, 1670.963
6494.344, 1667.977
6496.272, 1712.646
6498.201, 1687.938
6500.129, 1673.888
6502.058, 1674.771
6503.986, 1665.611
6505.915, 1648.334
6507.843, 1648.093
6509.771, 1680.699
6511.700, 1655.993
6513.628, 1679.152
6515.557, 1674.619
6517.485, 1673.908
6519.414, 1661.748
6521.342, 1649.694
6523.271, 1663.805
6525.199, 1655.624
6527.128, 1658.096
6529.056, 1649.283
6530.985, 1668.843
6532.913, 1687.253
6534.842, 1678.344
6536.770, 1661.207
6538.699, 1684.013
6540.627, 1639.661
6542.556, 1628.978
6544.484, 1653.522
6546.413, 1651.418
6548.341, 1609.962
6550.270, 1589.110
6552.198, 1629.699
6554.126, 1651.321
6556.055, 1641.718
6557.983, 1620.140
6559.912, 1635.905
6561.840, 1646.802
6563.769, 1632.851
6565.697, 1618.611
6567.625, 1631.943
6569.554, 1627.757
6571.482, 1624.878
6573.411, 1644.036
6575.339, 1634.627
6577.268, 1650.011
6579.196, 1638.405
6581.125, 1585.886
6583.053, 1625.609
6584.982, 1617.602
6586.910, 1617.148
6588.839, 1626.722
6590.767, 1613.197
6592.696, 1613.760
6594.624, 1621.318
6596.553, 1616.236
6598.481, 1637.404
6600.410, 1625.468
6602.338, 1635.530
6604.267, 1632.098
6606.195, 1640.826
6608.124, 1620.072
6610.052, 1601.608
6611.980, 1616.818
6613.909, 1607.663
6615.837, 1630.567
6617.766, 1603.598
6619.694, 1589.057
6621.623, 1616.519
6623.551, 1617.297
6625.479, 1593.016
##END=



