##NAMES=Phillipsite-Na
##RRUFFID=R061094
##IDEAL CHEMISTRY=Na_6_(Si_10_Al_6_)O_32_·12H_2_O
##LOCALITY=Faraglione dei Ciccopi, Aci Castello, Catania Province, Sicily, Italy
##OWNER=RRUFF
##SOURCE=Michael Scott
##DESCRIPTION=Spherical aggregates of translucent white blocky, pseudotetragonal crystals, associated with chabazite-Na, R070440
##STATUS=The identification of this mineral is confirmed by single-crystal X-ray diffraction and chemical analysis
##URL=https://www.rruff.net/odr/rruff_sample/R061094
##MEASURED CHEMISTRY=(Na_2.76_K_1.26_[box]_1.14_Ca_0.84_)(Si_10.30_Al_5.70_)O_32_·7.58H_2_O
##DIFFRACTION SAMPLE DESCRIPTION=Single crystal, powder profile is calculated
##CELL PARAMETERS=a: 9.9563 b: 14.24 c: 14.24 alpha: 90 beta: 90 gamma: 90 volume: 2018.9 crystal system: orthorhombic
##FILETYPE=Raman Processed
##RAMAN WAVELENGTH=785

152.4507, 3511.678
154.3792, 3406.289
156.3076, 3284.790
158.2361, 3187.124
160.1646, 3111.200
162.0930, 3060.979
164.0215, 3054.116
165.9500, 3082.575
167.8784, 3086.541
169.8069, 3059.107
171.7354, 3027.780
173.6638, 3003.835
175.5923, 2976.499
177.5208, 2935.404
179.4492, 2884.400
181.3777, 2833.997
183.3062, 2780.729
185.2346, 2746.158
187.1631, 2746.994
189.0916, 2746.467
191.0200, 2731.936
192.9485, 2707.547
194.8770, 2672.157
196.8054, 2629.301
198.7339, 2611.260
200.6624, 2632.594
202.5908, 2640.844
204.5193, 2611.101
206.4478, 2573.264
208.3762, 2540.130
210.3047, 2513.229
212.2332, 2498.880
214.1616, 2496.987
216.0901, 2494.215
218.0186, 2488.812
219.9470, 2481.436
221.8755, 2473.570
223.8040, 2463.510
225.7324, 2449.074
227.6609, 2430.731
229.5894, 2409.436
231.5178, 2383.192
233.4463, 2364.154
235.3748, 2343.590
237.3032, 2358.040
239.2317, 2364.965
241.1602, 2364.769
243.0886, 2336.128
245.0171, 2344.219
246.9456, 2337.589
248.8740, 2330.356
250.8025, 2343.616
252.7310, 2319.113
254.6594, 2332.048
256.5879, 2330.039
258.5164, 2334.869
260.4448, 2324.888
262.3733, 2319.482
264.3018, 2317.269
266.2302, 2317.143
268.1587, 2315.219
270.0872, 2307.594
272.0156, 2301.147
273.9441, 2300.148
275.8726, 2303.368
277.8010, 2309.575
279.7295, 2318.463
281.6580, 2323.423
283.5864, 2321.336
285.5149, 2320.598
287.4434, 2324.967
289.3718, 2329.411
291.3003, 2328.658
293.2288, 2326.358
295.1572, 2331.031
297.0857, 2341.875
299.0142, 2348.146
300.9426, 2344.468
302.8711, 2345.156
304.7996, 2354.926
306.7280, 2367.730
308.6565, 2378.291
310.5850, 2377.752
312.5134, 2405.054
314.4419, 2424.832
316.3704, 2437.489
318.2988, 2421.700
320.2273, 2442.644
322.1558, 2448.868
324.0842, 2484.374
326.0127, 2511.506
327.9412, 2527.718
329.8697, 2521.701
331.7981, 2498.912
333.7266, 2478.849
335.6551, 2464.779
337.5835, 2444.808
339.5120, 2404.747
341.4405, 2374.752
343.3689, 2372.368
345.2974, 2376.856
347.2259, 2369.529
349.1543, 2353.632
351.0828, 2333.802
353.0113, 2309.445
354.9397, 2294.612
356.8682, 2297.799
358.7967, 2300.150
360.7251, 2300.866
362.6536, 2296.950
364.5821, 2281.915
366.5105, 2263.538
368.4390, 2253.062
370.3675, 2249.570
372.2959, 2247.854
374.2244, 2247.721
376.1529, 2249.613
378.0813, 2255.827
380.0098, 2261.173
381.9383, 2264.354
383.8667, 2265.714
385.7952, 2261.697
387.7237, 2257.380
389.6521, 2263.849
391.5806, 2281.383
393.5091, 2296.730
395.4375, 2302.393
397.3660, 2318.171
399.2945, 2359.657
401.2229, 2394.161
403.1514, 2404.409
405.0799, 2403.436
407.0083, 2403.338
408.9368, 2402.836
410.8653, 2398.336
412.7937, 2389.414
414.7222, 2380.075
416.6507, 2375.365
418.5791, 2362.829
420.5076, 2333.687
422.4361, 2306.084
424.3645, 2284.892
426.2930, 2272.486
428.2215, 2272.574
430.1499, 2282.367
432.0784, 2295.260
434.0069, 2310.842
435.9353, 2330.708
437.8638, 2354.343
439.7923, 2383.618
441.7207, 2424.792
443.6492, 2463.986
445.5777, 2490.287
447.5061, 2516.895
449.4346, 2560.837
451.3631, 2611.855
453.2915, 2647.121
455.2200, 2665.356
457.1485, 2684.252
459.0769, 2702.953
461.0054, 2724.559
462.9339, 2739.326
464.8623, 2770.724
466.7908, 2840.031
468.7193, 2913.684
470.6477, 2963.434
472.5762, 3005.971
474.5047, 3060.863
476.4331, 3128.200
478.3616, 3211.836
480.2901, 3327.247
482.2185, 3413.560
484.1470, 3452.093
486.0755, 3496.073
488.0039, 3574.989
489.9324, 3632.016
491.8609, 3639.083
493.7893, 3613.363
495.7178, 3566.870
497.6463, 3501.570
499.5747, 3422.602
501.5032, 3330.049
503.4317, 3213.653
505.3601, 3058.003
507.2886, 2913.104
509.2171, 2778.263
511.1455, 2655.508
513.0740, 2546.545
515.0024, 2448.414
516.9309, 2362.930
518.8594, 2284.679
520.7878, 2205.873
522.7163, 2131.779
524.6448, 2075.519
526.5732, 2037.039
528.5017, 2004.519
530.4302, 1981.154
532.3586, 1954.882
534.2871, 1922.024
536.2156, 1894.695
538.1440, 1875.355
540.0725, 1862.590
542.0010, 1861.936
543.9294, 1860.723
545.8579, 1846.029
547.7864, 1826.517
549.7148, 1819.010
551.6433, 1820.632
553.5718, 1809.673
555.5002, 1781.987
557.4287, 1764.583
559.3572, 1759.081
561.2856, 1759.111
563.2141, 1768.687
565.1426, 1772.694
567.0710, 1759.172
568.9995, 1747.841
570.9280, 1755.961
572.8564, 1766.221
574.7849, 1761.332
576.7134, 1747.109
578.6419, 1732.972
580.5704, 1719.892
582.4988, 1722.755
584.4273, 1746.746
586.3558, 1755.069
588.2842, 1743.307
590.2127, 1729.790
592.1412, 1714.914
594.0696, 1705.658
595.9981, 1710.829
597.9266, 1712.835
599.8550, 1698.821
601.7835, 1680.998
603.7120, 1669.099
605.6404, 1661.199
607.5689, 1652.935
609.4974, 1645.488
611.4258, 1646.694
613.3543, 1657.556
615.2828, 1661.857
617.2112, 1659.083
619.1397, 1651.028
621.0682, 1633.726
622.9966, 1626.062
624.9251, 1641.351
626.8536, 1651.584
628.7820, 1638.133
630.7105, 1623.168
632.6390, 1621.457
634.5674, 1621.997
636.4959, 1611.091
638.4244, 1595.329
640.3528, 1586.716
642.2813, 1584.923
644.2098, 1589.914
646.1382, 1601.469
648.0667, 1611.204
649.9952, 1619.575
651.9236, 1617.352
653.8521, 1599.558
655.7806, 1587.209
657.7090, 1588.772
659.6375, 1589.543
661.5660, 1581.016
663.4944, 1574.088
665.4229, 1578.405
667.3514, 1580.764
669.2798, 1565.672
671.2083, 1546.420
673.1368, 1540.879
675.0652, 1544.976
676.9937, 1550.676
678.9222, 1557.292
680.8506, 1560.402
682.7791, 1560.188
684.7076, 1560.334
686.6360, 1561.504
688.5645, 1554.469
690.4930, 1534.943
692.4214, 1520.130
694.3499, 1515.209
696.2784, 1512.565
698.2068, 1512.778
700.1353, 1510.874
702.0638, 1499.980
703.9922, 1492.716
705.9207, 1503.705
707.8492, 1515.173
709.7776, 1507.643
711.7061, 1490.997
713.6346, 1477.863
715.5630, 1468.202
717.4915, 1460.664
719.4200, 1456.630
721.3484, 1465.768
723.2769, 1485.906
725.2054, 1493.179
727.1339, 1485.632
729.0623, 1477.905
730.9908, 1471.899
732.9193, 1463.999
734.8477, 1451.297
736.7762, 1442.261
738.7047, 1437.463
740.6331, 1438.666
742.5616, 1453.767
744.4901, 1464.372
746.4185, 1457.346
748.3470, 1450.475
750.2755, 1460.973
752.2039, 1470.196
754.1324, 1452.877
756.0609, 1431.830
757.9893, 1439.746
759.9178, 1461.552
761.8463, 1472.922
763.7747, 1475.874
765.7032, 1475.372
767.6317, 1470.439
769.5601, 1452.954
771.4886, 1424.870
773.4171, 1410.676
775.3455, 1412.469
777.2740, 1410.870
779.2025, 1403.039
781.1309, 1398.184
783.0594, 1399.922
784.9879, 1397.651
786.9163, 1383.798
788.8448, 1376.897
790.7733, 1387.635
792.7017, 1392.393
794.6302, 1384.050
796.5587, 1370.984
798.4871, 1349.444
800.4156, 1333.240
802.3441, 1333.445
804.2725, 1336.619
806.2010, 1333.147
808.1295, 1328.647
810.0579, 1331.298
811.9864, 1332.674
813.9149, 1319.858
815.8433, 1302.836
817.7718, 1293.227
819.7003, 1290.233
821.6287, 1296.565
823.5572, 1306.748
825.4857, 1304.547
827.4141, 1293.127
829.3426, 1288.170
831.2711, 1288.931
833.1995, 1284.279
835.1280, 1273.713
837.0565, 1268.001
838.9849, 1267.737
840.9134, 1270.478
842.8419, 1277.409
844.7703, 1283.713
846.6988, 1292.610
848.6273, 1293.432
850.5557, 1279.161
852.4842, 1269.977
854.4127, 1269.156
856.3411, 1268.293
858.2696, 1266.439
860.1981, 1264.563
862.1265, 1262.246
864.0550, 1260.994
865.9835, 1263.324
867.9119, 1262.899
869.8404, 1255.418
871.7689, 1248.709
873.6973, 1246.144
875.6258, 1244.854
877.5543, 1246.215
879.4827, 1244.116
881.4112, 1229.632
883.3397, 1218.591
885.2681, 1224.763
887.1966, 1233.519
889.1251, 1234.181
891.0535, 1232.996
892.9820, 1235.032
894.9105, 1237.235
896.8389, 1237.815
898.7674, 1236.200
900.6959, 1230.757
902.6243, 1223.844
904.5528, 1216.149
906.4813, 1210.709
908.4097, 1213.858
910.3382, 1220.587
912.2667, 1223.188
914.1951, 1223.050
916.1236, 1222.890
918.0521, 1221.863
919.9805, 1216.154
921.9090, 1208.996
923.8375, 1209.669
925.7659, 1215.515
927.6944, 1219.433
929.6229, 1221.459
931.5513, 1221.662
933.4798, 1220.123
935.4083, 1215.693
937.3367, 1209.789
939.2652, 1211.205
941.1937, 1217.641
943.1221, 1212.821
945.0506, 1186.349
946.9791, 1204.947
948.9075, 1216.021
950.8360, 1219.975
952.7645, 1195.482
954.6929, 1207.722
956.6214, 1205.241
958.5499, 1202.157
960.4783, 1219.567
962.4068, 1199.212
964.3353, 1216.297
966.2637, 1218.436
968.1922, 1227.416
970.1207, 1221.584
972.0491, 1221.813
973.9776, 1224.331
975.9061, 1225.387
977.8345, 1223.827
979.7630, 1219.950
981.6915, 1217.671
983.6199, 1217.221
985.5484, 1220.837
987.4769, 1228.356
989.4053, 1239.287
991.3338, 1252.505
993.2623, 1255.624
995.1907, 1248.935
997.1192, 1235.669
999.0477, 1217.872
1000.976, 1214.216
1002.905, 1223.343
1004.833, 1230.440
1006.762, 1235.262
1008.690, 1240.339
1010.618, 1244.667
1012.547, 1239.042
1014.475, 1225.840
1016.404, 1221.258
1018.332, 1223.742
1020.261, 1222.545
1022.189, 1218.967
1024.118, 1220.534
1026.046, 1226.188
1027.975, 1234.342
1029.903, 1241.397
1031.832, 1228.641
1033.760, 1204.504
1035.688, 1198.792
1037.617, 1206.146
1039.545, 1213.188
1041.474, 1217.961
1043.402, 1211.781
1045.331, 1201.241
1047.259, 1203.861
1049.188, 1212.723
1051.116, 1210.133
1053.045, 1205.538
1054.973, 1221.339
1056.902, 1243.514
1058.830, 1246.756
1060.759, 1242.922
1062.687, 1249.752
1064.615, 1259.924
1066.544, 1265.660
1068.472, 1267.232
1070.401, 1259.561
1072.329, 1253.979
1074.258, 1269.378
1076.186, 1283.996
1078.115, 1266.878
1080.043, 1254.539
1081.972, 1289.750
1083.900, 1322.747
1085.829, 1312.758
1087.757, 1297.129
1089.686, 1298.101
1091.614, 1300.475
1093.543, 1295.920
1095.471, 1291.796
1097.400, 1294.754
1099.328, 1293.125
1101.256, 1279.972
1103.185, 1266.573
1105.113, 1253.079
1107.042, 1245.060
1108.970, 1243.702
1110.899, 1247.805
1112.827, 1264.514
1114.756, 1272.320
1116.684, 1267.753
1118.613, 1257.401
1120.541, 1236.550
1122.470, 1222.993
1124.398, 1218.110
1126.327, 1216.863
1128.255, 1220.852
1130.183, 1216.791
1132.112, 1204.242
1134.040, 1198.462
1135.969, 1198.497
1137.897, 1188.689
1139.826, 1171.785
1141.754, 1163.968
1143.683, 1161.397
1145.611, 1151.311
1147.540, 1137.991
1149.468, 1128.724
1151.397, 1124.196
1153.325, 1130.796
1155.254, 1137.195
1157.182, 1126.674
1159.110, 1114.881
1161.039, 1117.706
1162.967, 1119.175
1164.896, 1105.865
1166.824, 1093.254
1168.753, 1090.709
1170.681, 1087.704
1172.610, 1077.464
1174.538, 1073.044
1176.467, 1082.084
1178.395, 1085.868
1180.324, 1078.112
1182.252, 1073.415
1184.181, 1075.604
1186.109, 1071.858
1188.037, 1060.095
1189.966, 1047.650
1191.894, 1034.375
1193.823, 1032.750
1195.751, 1041.393
1197.680, 1044.222
1199.608, 1042.375
1201.537, 1038.010
1203.465, 1034.116
1205.394, 1040.129
1207.322, 1049.394
1209.251, 1052.137
1211.179, 1051.279
1213.108, 1046.555
1215.036, 1044.301
1216.964, 1057.875
1218.893, 1062.117
1220.821, 1035.637
1222.750, 1016.490
1224.678, 1018.550
1226.607, 1028.294
1228.535, 1047.047
1230.464, 1048.110
1232.392, 1023.348
1234.321, 1015.069
1236.249, 1028.371
1238.178, 1033.532
1240.106, 1029.044
1242.035, 1018.782
1243.963, 1005.944
1245.891, 1005.765
1247.820, 1012.900
1249.748, 1014.655
1251.677, 1014.480
1253.605, 1018.159
1255.534, 1022.083
1257.462, 1021.435
1259.391, 1021.166
1261.319, 1027.260
1263.248, 1030.392
1265.176, 1022.874
1267.105, 1019.708
1269.033, 1028.016
1270.962, 1025.320
1272.890, 1005.143
1274.818, 1002.401
1276.747, 1019.762
1278.675, 1025.427
1280.604, 1020.810
1282.532, 1028.961
1284.461, 1043.759
1286.389, 1045.235
1288.318, 1039.772
1290.246, 1036.610
1292.175, 1034.006
1294.103, 1031.156
1296.032, 1026.545
1297.960, 1016.168
1299.889, 1008.642
1301.817, 1009.249
1303.745, 1010.032
1305.674, 1009.983
1307.602, 1008.171
1309.531, 1003.570
1311.459, 1007.052
1313.388, 1017.966
1315.316, 1015.846
1317.245, 1004.555
1319.173, 1000.831
1321.102, 1000.159
1323.030, 991.4741
1324.959, 984.3751
1326.887, 996.2079
1328.816, 1002.867
1330.744, 980.3212
1332.672, 962.5765
1334.601, 963.9325
1336.529, 970.1000
1338.458, 980.5048
1340.386, 991.9267
1342.315, 1005.888
1344.243, 1008.571
1346.172, 1000.917
1348.100, 990.7089
1350.029, 981.7488
1351.957, 988.5005
1353.886, 997.7551
1355.814, 992.2593
1357.743, 984.8596
1359.671, 987.0627
1361.599, 984.2264
1363.528, 961.7690
1365.456, 954.7206
1367.385, 978.6275
1369.313, 993.6168
1371.242, 997.7567
1373.170, 990.3626
1375.099, 973.7396
1377.027, 962.2488
1378.956, 955.8373
1380.884, 957.9626
1382.813, 960.6575
1384.741, 953.2112
1386.670, 948.0186
1388.598, 953.7720
1390.526, 957.6702
1392.455, 955.9957
1394.383, 949.9398
1396.312, 938.0346
1398.240, 935.7491
1400.169, 942.4882
1402.097, 948.9827
1404.026, 953.5099
1405.954, 952.8174
1407.883, 945.9408
1409.811, 922.8956
1411.740, 907.3209
1413.668, 913.8169
1415.597, 927.0056
1417.525, 945.8321
1419.453, 950.9437
1421.382, 938.0943
1423.310, 936.7557
1425.239, 945.8483
1427.167, 943.8031
1429.096, 936.1579
1431.024, 934.8367
1432.953, 935.7551
1434.881, 936.6134
1436.810, 934.9520
1438.738, 930.6496
1440.667, 919.7104
1442.595, 898.7661
1444.524, 892.8507
1446.452, 903.8335
1448.380, 914.3000
1450.309, 922.9766
1452.237, 931.9740
1454.166, 934.4835
1456.094, 914.7119
1458.023, 893.1999
1459.951, 883.1973
1461.880, 877.2132
1463.808, 872.2944
1465.737, 877.9602
1467.665, 894.9357
1469.594, 898.7535
1471.522, 891.8166
1473.451, 891.4789
1475.379, 891.2784
1477.307, 877.8622
1479.236, 864.3035
1481.164, 859.2070
1483.093, 859.8259
1485.021, 867.4883
1486.950, 874.1863
1488.878, 879.2100
1490.807, 875.0290
1492.735, 864.8959
1494.664, 862.5377
1496.592, 863.4955
1498.521, 862.2247
1500.449, 860.4140
1502.378, 858.6749
1504.306, 857.8763
1506.234, 860.7885
1508.163, 853.9349
1510.091, 837.0972
1512.020, 841.9825
1513.948, 858.0908
1515.877, 851.7386
1517.805, 839.7025
1519.734, 837.0309
1521.662, 839.2141
1523.591, 849.1154
1525.519, 852.0975
1527.448, 843.3444
1529.376, 840.2363
1531.305, 841.8395
1533.233, 835.7182
1535.161, 829.4169
1537.090, 839.9933
1539.018, 848.8607
1540.947, 840.6163
1542.875, 832.9433
1544.804, 830.0543
1546.732, 833.3124
1548.661, 842.8141
1550.589, 836.8588
1552.518, 823.0026
1554.446, 819.7659
1556.375, 819.7358
1558.303, 816.0745
1560.232, 815.8724
1562.160, 822.4600
1564.089, 831.8208
1566.017, 844.2389
1567.945, 843.2167
1569.874, 832.5146
1571.802, 821.6061
1573.731, 810.6987
1575.659, 797.3668
1577.588, 790.3990
1579.516, 794.3437
1581.445, 800.1975
1583.373, 806.8754
1585.302, 809.0080
1587.230, 807.7491
1589.159, 807.2489
1591.087, 804.3799
1593.016, 791.0669
1594.944, 786.4706
1596.872, 799.7913
1598.801, 803.7382
1600.729, 795.0063
1602.658, 795.3802
1604.586, 801.2176
1606.515, 804.5169
1608.443, 805.8672
1610.372, 804.6752
1612.300, 803.9038
1614.229, 804.1642
1616.157, 808.1323
1618.086, 813.8845
1620.014, 796.8999
1621.943, 777.1871
1623.871, 795.8126
1625.799, 818.6486
1627.728, 826.2538
1629.656, 828.5864
1631.585, 827.1406
1633.513, 824.2526
1635.442, 819.3177
1637.370, 806.3152
1639.299, 794.5209
1641.227, 798.6444
1643.156, 800.1548
1645.084, 790.1813
1647.013, 786.8265
1648.941, 790.8333
1650.870, 790.2091
1652.798, 786.6457
1654.726, 783.8483
1656.655, 780.8876
1658.583, 778.8124
1660.512, 771.9478
1662.440, 758.7949
1664.369, 750.5576
1666.297, 746.6802
1668.226, 742.7042
1670.154, 740.9833
1672.083, 746.1231
1674.011, 750.2571
1675.940, 751.3746
1677.868, 747.4123
1679.797, 739.5464
1681.725, 740.7559
1683.653, 741.1326
1685.582, 723.4017
1687.510, 706.5002
1689.439, 698.9839
1691.367, 698.1844
1693.296, 703.8428
1695.224, 701.5344
1697.153, 696.7646
1699.081, 704.5176
1701.010, 707.2147
1702.938, 688.2541
1704.867, 675.5178
1706.795, 672.4951
1708.724, 684.2173
1710.652, 700.8704
1712.580, 693.2264
1714.509, 682.9985
1716.437, 684.8253
1718.366, 685.3365
1720.294, 682.4911
1722.223, 666.5671
1724.151, 646.9140
1726.080, 657.0674
1728.008, 669.5229
1729.937, 665.3626
1731.865, 660.1269
1733.794, 657.5103
1735.722, 653.0922
1737.651, 648.5503
1739.579, 652.3307
1741.507, 652.9507
1743.436, 640.1436
1745.364, 632.6708
1747.293, 634.9892
1749.221, 643.8000
1751.150, 653.4118
1753.078, 649.2273
1755.007, 638.5365
1756.935, 622.6666
1758.864, 615.1626
1760.792, 618.6461
1762.721, 630.1998
1764.649, 641.5525
1766.578, 631.5898
1768.506, 621.5355
1770.434, 622.3173
1772.363, 621.4937
1774.291, 618.0752
1776.220, 623.4807
1778.148, 631.1170
1780.077, 629.2996
1782.005, 628.7016
1783.934, 634.6550
1785.862, 629.5804
1787.791, 615.7657
1789.719, 619.7007
1791.648, 624.9953
1793.576, 606.9490
1795.505, 595.0371
1797.433, 596.5341
1799.361, 607.0775
1801.290, 617.8180
1803.218, 599.8865
1805.147, 583.4388
1807.075, 597.4073
1809.004, 603.9575
1810.932, 599.1847
1812.861, 594.2271
1814.789, 591.8712
1816.718, 603.1456
1818.646, 606.9880
1820.575, 586.8380
1822.503, 581.3947
1824.432, 587.9480
1826.360, 581.3112
1828.288, 571.1737
1830.217, 562.2360
1832.145, 568.3211
1834.074, 595.5642
1836.002, 585.0432
1837.931, 558.3663
1839.859, 567.9431
1841.788, 577.1130
1843.716, 558.6383
1845.645, 554.5731
1847.573, 563.8142
1849.502, 554.3819
1851.430, 541.6715
1853.359, 539.9455
1855.287, 544.6044
1857.215, 556.2636
1859.144, 556.0988
1861.072, 549.6804
1863.001, 550.3700
1864.929, 549.3345
1866.858, 539.9514
1868.786, 536.9529
1870.715, 539.7731
1872.643, 541.9033
1874.572, 537.4769
1876.500, 519.7619
1878.429, 517.8401
1880.357, 536.0603
1882.286, 530.0679
1884.214, 518.2557
1886.142, 529.5347
1888.071, 535.2180
1889.999, 522.7309
1891.928, 516.7017
1893.856, 516.2645
1895.785, 516.7223
1897.713, 514.7884
1899.642, 507.5259
1901.570, 498.9992
1903.499, 491.6538
1905.427, 497.9195
1907.356, 502.7112
1909.284, 495.1094
1911.213, 493.6845
1913.141, 497.7755
1915.069, 494.0952
1916.998, 489.0781
1918.926, 491.5965
1920.855, 495.3781
1922.783, 498.2777
1924.712, 495.4254
1926.640, 490.1382
1928.569, 485.2733
1930.497, 480.7963
1932.426, 476.7249
1934.354, 475.4629
1936.283, 477.5312
1938.211, 478.5440
1940.140, 476.2119
1942.068, 472.3699
1943.996, 469.6032
1945.925, 467.7401
1947.853, 465.8670
1949.782, 464.8148
1951.710, 470.8863
1953.639, 464.2750
1955.567, 449.5282
1957.496, 447.8480
1959.424, 449.9883
1961.353, 453.6722
1963.281, 455.9140
1965.210, 456.5640
1967.138, 452.3984
1969.067, 447.3123
1970.995, 445.8371
1972.923, 444.6573
1974.852, 441.2438
1976.780, 434.3581
1978.709, 431.7379
1980.637, 441.8023
1982.566, 439.3362
1984.494, 424.8838
1986.423, 418.2886
1988.351, 415.4348
1990.280, 412.4707
1992.208, 412.7577
1994.137, 414.3222
1996.065, 416.5120
1997.994, 419.9887
1999.922, 425.4353
2001.850, 424.1664
2003.779, 415.8380
2005.707, 412.6625
2007.636, 412.2394
2009.564, 419.2744
2011.493, 421.6282
2013.421, 414.4601
2015.350, 411.7832
2017.278, 411.4261
2019.207, 414.8824
2021.135, 409.8675
2023.064, 395.0938
2024.992, 386.7038
2026.921, 385.4623
2028.849, 392.7157
2030.777, 396.0500
2032.706, 397.4245
2034.634, 396.8121
2036.563, 394.9976
2038.491, 398.1777
2040.420, 390.3056
2042.348, 377.0106
2044.277, 386.2262
2046.205, 392.4304
2048.134, 384.3582
2050.062, 381.0699
2051.990, 382.3851
2053.919, 377.3714
2055.848, 372.2026
2057.776, 370.7713
2059.705, 375.5357
2061.633, 378.4552
2063.562, 367.5585
2065.490, 363.6134
2067.418, 368.9189
2069.347, 369.8800
2071.275, 368.6915
2073.204, 364.3493
2075.132, 358.3246
2077.061, 353.5069
2078.989, 357.3810
2080.918, 362.1699
2082.846, 360.7479
2084.775, 354.3549
2086.703, 344.7970
2088.632, 329.6183
2090.560, 326.7005
2092.489, 351.1272
2094.417, 355.2907
2096.345, 347.5475
2098.274, 347.1149
2100.202, 345.5872
2102.131, 338.8286
2104.059, 343.0970
2105.988, 349.2050
2107.916, 342.2664
2109.845, 338.9670
2111.773, 341.3546
2113.702, 337.0391
2115.630, 334.6102
2117.559, 339.8228
2119.487, 338.5594
2121.416, 333.7149
2123.344, 332.6239
2125.272, 332.3319
2127.201, 332.3284
2129.129, 324.8497
2131.058, 317.6054
2132.986, 320.1953
2134.915, 322.4906
2136.843, 322.3030
2138.772, 309.9635
2140.700, 304.9647
2142.629, 320.9579
2144.557, 318.6735
2146.486, 305.7792
2148.414, 306.0770
2150.343, 309.8248
2152.271, 313.9118
2154.199, 306.6430
2156.128, 299.2669
2158.056, 305.4764
2159.985, 305.7433
2161.913, 299.6930
2163.842, 297.9400
2165.770, 297.2043
2167.699, 296.1039
2169.627, 299.3402
2171.556, 303.2461
2173.484, 299.7664
2175.413, 298.3430
2177.341, 300.4369
2179.270, 293.1179
2181.198, 286.7676
2183.126, 288.0692
2185.055, 292.5338
2186.983, 295.9746
2188.912, 283.8588
2190.840, 282.0266
2192.769, 294.5128
2194.697, 287.2267
2196.626, 277.2283
2198.554, 281.9263
2200.483, 283.4643
2202.411, 279.9265
2204.340, 276.5475
2206.268, 272.7282
2208.197, 268.2161
2210.125, 275.6274
2212.053, 281.6817
2213.982, 274.3274
2215.910, 272.2787
2217.839, 271.5932
2219.767, 266.8299
2221.696, 262.4196
2223.624, 261.0042
2225.553, 263.8870
2227.481, 265.0830
2229.410, 260.2416
2231.338, 259.0339
2233.267, 259.9192
2235.195, 256.1177
2237.124, 250.8447
2239.052, 245.7810
2240.980, 245.9872
2242.909, 243.3513
2244.837, 230.6544
2246.766, 236.2976
2248.694, 250.3643
2250.623, 251.7689
2252.551, 245.5555
2254.480, 241.7032
2256.408, 248.0280
2258.337, 246.2076
2260.265, 234.6693
2262.194, 230.4523
2264.122, 229.1107
2266.051, 226.3350
2267.979, 225.4947
2269.907, 225.3380
2271.836, 230.7756
2273.764, 230.4361
2275.693, 221.3839
2277.621, 224.7583
2279.550, 231.0451
2281.478, 229.2210
2283.407, 221.5075
2285.335, 219.7841
2287.264, 218.8914
2289.192, 219.4480
2291.121, 226.4952
2293.049, 231.4659
2294.978, 230.0723
2296.906, 221.7878
2298.834, 214.0074
2300.763, 209.6264
2302.691, 207.8266
2304.620, 208.2276
2306.548, 208.5944
2308.477, 210.3702
2310.405, 204.7932
2312.334, 195.7286
2314.262, 203.7328
2316.191, 210.8335
2318.119, 211.4145
2320.048, 205.9279
2321.976, 200.4839
2323.905, 197.2989
2325.833, 204.9696
2327.761, 212.5377
2329.690, 210.3638
2331.618, 210.8438
2333.547, 209.8624
2335.475, 196.7390
2337.404, 186.6246
2339.332, 183.2729
2341.261, 191.1738
2343.189, 191.6289
2345.118, 177.5710
2347.046, 188.2132
2348.975, 206.9986
2350.903, 202.8703
2352.832, 189.8149
2354.760, 182.2965
2356.688, 181.6149
2358.617, 187.8156
2360.545, 191.0665
2362.474, 177.8854
2364.402, 167.9240
2366.331, 169.2260
2368.259, 182.7045
2370.188, 187.2859
2372.116, 184.8370
2374.045, 182.5745
2375.973, 181.8660
2377.902, 184.1850
2379.830, 175.5714
2381.759, 172.4664
2383.687, 175.6726
2385.615, 174.1443
2387.544, 176.1626
2389.472, 175.1787
2391.401, 174.6682
2393.329, 174.0575
2395.258, 167.0977
2397.186, 165.8166
2399.115, 167.9458
2401.043, 165.4603
2402.972, 163.3294
2404.900, 161.2446
2406.829, 165.2411
2408.757, 168.1281
2410.686, 168.5886
2412.614, 162.3309
2414.542, 164.9355
2416.471, 165.7394
2418.399, 162.1840
2420.328, 164.3422
2422.256, 167.2019
2424.185, 163.7435
2426.113, 161.4554
2428.042, 156.4773
2429.970, 151.1579
2431.899, 147.7500
2433.827, 154.2192
2435.756, 159.7885
2437.684, 151.6309
2439.613, 151.1618
2441.541, 176.8608
2443.469, 174.0715
2445.398, 148.2066
2447.326, 150.6861
2449.255, 158.9553
2451.183, 148.1239
2453.112, 146.5541
2455.040, 156.1389
2456.969, 148.2788
2458.897, 137.0390
2460.826, 136.8276
2462.754, 137.9111
2464.683, 133.5847
2466.611, 132.6002
2468.540, 134.3207
2470.468, 136.7692
2472.396, 139.6517
2474.325, 138.3175
2476.253, 139.7747
2478.182, 143.3608
2480.110, 144.3392
2482.039, 141.4634
2483.967, 131.4957
2485.896, 131.4545
2487.824, 131.4383
2489.753, 124.3067
2491.681, 127.2108
2493.610, 129.3468
2495.538, 126.8043
2497.467, 131.3558
2499.395, 135.3669
2501.323, 132.7398
2503.252, 129.1414
2505.180, 125.1800
2507.109, 121.0865
2509.037, 122.5595
2510.966, 126.4046
2512.894, 126.2961
2514.823, 126.7689
2516.751, 127.1483
2518.680, 118.9038
2520.608, 118.2148
2522.537, 123.5809
2524.465, 121.7823
2526.394, 124.3925
2528.322, 126.1524
2530.250, 127.6043
2532.179, 128.9362
2534.107, 117.3902
2536.036, 112.1506
2537.964, 113.4035
2539.893, 117.0480
2541.821, 117.7262
2543.750, 115.3454
2545.678, 112.1470
2547.607, 111.8017
2549.535, 110.9400
2551.464, 106.1200
2553.392, 106.5015
2555.321, 105.5082
2557.249, 102.1543
2559.177, 108.7004
2561.106, 104.4684
2563.034, 97.47314
2564.963, 100.8745
2566.891, 106.1231
2568.820, 111.4016
2570.748, 113.6801
2572.677, 104.6872
2574.605, 96.80832
2576.534, 102.1570
2578.462, 102.5406
2580.391, 100.1651
2582.319, 98.35870
2584.248, 98.86628
2586.176, 101.0215
2588.104, 106.5563
2590.033, 104.9763
2591.961, 100.4387
2593.890, 96.95240
2595.818, 94.32018
2597.747, 93.56198
2599.675, 96.81624
2601.604, 96.60840
2603.532, 93.91187
2605.461, 87.21520
2607.389, 99.78447
2609.318, 102.8131
2611.246, 86.65298
2613.175, 90.15966
2615.103, 91.38711
2617.031, 85.34382
2618.960, 84.37476
2620.888, 84.88304
2622.817, 85.11163
2624.745, 82.06109
2626.674, 81.79471
2628.602, 82.90983
2630.531, 84.39158
2632.459, 88.14544
2634.388, 93.23552
2636.316, 102.3538
2638.245, 92.49725
2640.173, 76.67212
2642.102, 81.24620
2644.030, 90.27271
2645.958, 95.11720
2647.887, 87.13652
2649.815, 85.74742
2651.744, 84.17421
2653.672, 75.96664
2655.601, 73.99670
2657.529, 75.56989
2659.458, 78.25526
2661.386, 77.64484
2663.315, 77.85102
2665.243, 79.72197
2667.172, 71.84228
2669.100, 71.92078
2671.029, 81.22357
2672.957, 80.81055
2674.885, 76.69808
2676.814, 73.17643
2678.742, 77.29514
2680.671, 76.60274
2682.599, 73.92159
2684.528, 75.85549
2686.456, 75.05314
2688.385, 73.76539
2690.313, 76.11211
2692.242, 71.94257
2694.170, 68.65209
2696.099, 73.25777
2698.027, 69.74017
2699.956, 68.97379
2701.884, 73.54403
2703.813, 73.95679
2705.741, 73.89243
2707.669, 72.20911
2709.598, 70.81976
2711.526, 69.02747
2713.455, 66.83958
2715.383, 65.47899
2717.312, 66.26554
2719.240, 68.46292
2721.169, 69.19337
2723.097, 68.85419
2725.026, 68.85806
2726.954, 67.09044
2728.883, 67.52769
2730.811, 67.92312
2732.740, 66.56215
2734.668, 62.70927
2736.596, 60.17945
2738.525, 60.39267
2740.453, 66.29697
2742.382, 65.19265
2744.310, 62.07859
2746.239, 61.45272
2748.167, 64.27383
2750.096, 61.60359
2752.024, 53.99241
2753.953, 59.08585
2755.881, 64.69877
2757.810, 61.51643
2759.738, 60.06031
2761.667, 60.18567
2763.595, 57.68193
2765.523, 61.64050
2767.452, 59.38845
2769.380, 53.44258
2771.309, 55.49404
2773.237, 56.76722
2775.166, 55.90603
2777.094, 52.07983
2779.023, 60.66072
2780.951, 62.99208
2782.880, 58.94824
2784.808, 61.98736
2786.737, 56.26523
2788.665, 52.31073
2790.594, 58.54633
2792.522, 55.96235
2794.450, 53.15741
2796.379, 50.89073
2798.307, 58.03357
2800.236, 60.41018
2802.164, 45.49805
2804.093, 51.35534
2806.021, 60.13840
2807.950, 53.64991
2809.878, 47.93252
2811.807, 53.40615
2813.735, 55.35990
2815.664, 51.50815
2817.592, 57.21052
2819.521, 59.84798
2821.449, 47.56915
2823.377, 47.26862
2825.306, 45.74379
2827.234, 45.75708
2829.163, 55.34167
2831.091, 55.01479
2833.020, 46.13851
2834.948, 47.88745
2836.877, 53.46476
2838.805, 50.77040
2840.734, 49.20647
2842.662, 43.53857
2844.591, 43.15501
2846.519, 50.40932
2848.448, 48.50858
2850.376, 47.39548
2852.304, 44.52438
2854.233, 41.12095
2856.161, 50.19910
2858.090, 52.50933
2860.018, 46.09054
2861.947, 43.94495
2863.875, 42.58100
2865.804, 42.53968
2867.732, 47.86059
2869.661, 46.17764
2871.589, 40.51765
2873.518, 44.14072
2875.446, 47.19191
2877.375, 42.72629
2879.303, 37.82887
2881.231, 37.19534
2883.160, 43.65312
2885.088, 40.51941
2887.017, 35.57362
2888.945, 37.29824
2890.874, 38.65904
2892.802, 37.92814
2894.731, 35.33782
2896.659, 32.44146
2898.588, 38.82533
2900.516, 45.45943
2902.445, 46.05669
2904.373, 49.34955
2906.302, 42.26446
2908.230, 32.82042
2910.158, 43.92121
2912.087, 48.11189
2914.015, 43.30111
2915.944, 39.01671
2917.872, 38.35875
2919.801, 38.53147
2921.729, 36.31916
2923.658, 35.10808
2925.586, 32.25205
2927.515, 30.10914
2929.443, 37.73180
2931.372, 37.33527
2933.300, 36.83048
2935.229, 37.87320
2937.157, 26.21316
2939.085, 25.25436
2941.014, 35.30770
2942.942, 40.31166
2944.871, 33.56623
2946.799, 31.56013
2948.728, 32.09826
2950.656, 34.11290
2952.585, 36.48538
2954.513, 35.38522
2956.442, 37.16580
2958.370, 31.19768
2960.299, 30.43214
2962.227, 34.87577
2964.156, 28.65728
2966.084, 25.22481
2968.012, 27.79857
2969.941, 22.84274
2971.869, 24.01670
2973.798, 33.01650
2975.726, 39.84134
2977.655, 32.59398
2979.583, 28.66025
2981.512, 27.46585
2983.440, 25.38328
2985.369, 28.64133
2987.297, 38.18466
2989.226, 36.07135
2991.154, 20.71263
2993.083, 26.40246
2995.011, 36.63857
2996.939, 35.10918
2998.868, 23.19254
3000.796, 26.53757
3002.725, 33.14937
3004.653, 36.41129
3006.582, 27.75190
3008.510, 26.93047
3010.439, 32.88267
3012.367, 27.21912
3014.296, 28.13789
3016.224, 25.90149
3018.153, 20.84564
3020.081, 30.01993
3022.010, 33.58774
3023.938, 34.15170
3025.866, 31.31424
3027.795, 23.38851
3029.723, 24.26563
3031.652, 27.33730
3033.580, 35.25972
3035.509, 26.86294
3037.437, 29.60586
3039.366, 38.42686
3041.294, 21.62367
3043.223, 26.74777
3045.151, 30.44649
3047.080, 24.20158
3049.008, 26.46414
3050.937, 29.07779
3052.865, 28.83361
3054.793, 22.84270
3056.722, 20.95779
3058.650, 26.91492
3060.579, 28.65131
3062.507, 17.78827
3064.436, 24.54073
3066.364, 23.96677
3068.293, 22.44428
3070.221, 33.84895
3072.150, 30.20949
3074.078, 28.74756
3076.007, 30.25461
3077.935, 29.72950
3079.864, 21.85814
3081.792, 23.34854
3083.720, 30.27489
3085.649, 18.95615
3087.577, 31.36499
3089.506, 35.70671
3091.434, 28.62855
3093.363, 30.20550
3095.291, 26.98346
3097.220, 28.46296
3099.148, 33.62071
3101.077, 26.08437
3103.005, 26.35126
3104.934, 29.72371
3106.862, 32.32210
3108.791, 39.38257
3110.719, 32.00065
3112.647, 25.53068
3114.576, 26.75521
3116.504, 16.90026
3118.433, 18.15413
3120.361, 21.52991
3122.290, 21.18239
3124.218, 23.36646
3126.147, 23.32195
3128.075, 24.40425
3130.004, 28.57019
3131.932, 27.75315
3133.861, 28.88702
3135.789, 29.49398
3137.718, 28.33270
3139.646, 31.79047
3141.574, 25.69053
3143.503, 23.41057
3145.431, 30.08844
3147.360, 22.63738
3149.288, 24.00979
3151.217, 29.97721
3153.145, 35.52308
3155.074, 35.04856
3157.002, 26.62228
3158.931, 22.23131
3160.859, 26.23910
3162.788, 28.12004
3164.716, 24.72115
3166.645, 20.22752
3168.573, 18.26186
3170.501, 22.32696
3172.430, 20.39981
3174.358, 21.47655
3176.287, 26.76160
3178.215, 24.76056
3180.144, 18.94856
3182.072, 24.70808
3184.001, 33.60374
3185.929, 22.24174
3187.858, 22.39213
3189.786, 21.30472
3191.715, 20.56473
3193.643, 26.33089
3195.572, 24.74673
3197.500, 23.33996
3199.428, 24.12641
3201.357, 30.11308
3203.285, 32.24389
3205.214, 29.48173
3207.142, 26.57418
3209.071, 28.91437
3210.999, 22.24607
3212.928, 39.42153
3214.856, 41.84021
3216.785, 18.11317
3218.713, 27.66091
3220.642, 24.51913
3222.570, 15.60153
3224.499, 10.58283
3226.427, 26.76011
3228.355, 25.11569
3230.284, 22.03439
3232.212, 20.42890
3234.141, 16.91780
3236.069, 12.48731
3237.998, 15.81815
3239.926, 18.49344
3241.855, 15.18131
3243.783, 27.92692
3245.712, 24.24092
3247.640, 16.78957
3249.569, 17.50675
3251.497, 22.15034
3253.426, 21.88843
3255.354, 22.17102
3257.282, 23.92936
3259.211, 22.02062
3261.139, 32.94918
3263.068, 26.49250
3264.996, 17.15627
3266.925, 23.79420
3268.853, 23.52589
3270.782, 24.46539
3272.710, 23.67247
3274.639, 20.87076
3276.567, 15.32529
3278.496, 18.04030
3280.424, 20.84267
3282.353, 21.26211
3284.281, 18.64121
3286.209, 16.53655
3288.138, 22.29008
3290.066, 31.37660
3291.995, 34.65330
3293.923, 19.59571
3295.852, 19.05133
3297.780, 24.29111
3299.709, 26.18226
3301.637, 18.77704
3303.566, 13.99119
3305.494, 23.71003
3307.423, 27.81478
3309.351, 17.02767
3311.280, 12.05051
3313.208, 16.07753
3315.136, 25.89716
3317.065, 31.55235
3318.993, 18.15597
3320.922, 19.83710
3322.850, 13.48238
3324.779, 10.13780
3326.707, 18.22191
3328.636, 22.58979
3330.564, 22.91006
3332.493, 20.22827
3334.421, 20.79914
3336.350, 32.11590
3338.278, 25.24349
3340.207, 18.51421
3342.135, 20.98276
3344.063, 26.97419
3345.992, 22.83360
3347.920, 23.29655
3349.849, 19.10425
3351.777, 15.90891
3353.706, 16.11793
3355.634, 10.38165
3357.563, 14.74760
3359.491, 18.58854
3361.420, 20.07668
3363.348, 24.87459
3365.277, 19.87025
3367.205, 19.48895
3369.134, 21.19900
3371.062, 21.02894
3372.990, 17.80533
3374.919, 28.67541
3376.847, 25.70148
3378.776, 21.92408
3380.704, 26.50415
3382.633, 33.81800
3384.561, 30.01681
3386.490, 20.00542
3388.418, 13.97364
3390.347, 17.86744
3392.275, 26.01971
3394.204, 23.21148
3396.132, 14.36417
3398.061, 11.49831
3399.989, 20.53160
3401.917, 25.45430
3403.846, 27.46170
3405.774, 17.02782
3407.703, 7.139174
3409.631, 14.55683
3411.560, 16.46746
3413.488, 17.82273
3415.417, 17.89017
3417.345, 19.19769
3419.274, 23.98817
3421.202, 12.06386
3423.131, 20.21306
3425.059, 20.46609
3426.988, 11.41190
3428.916, 14.14711
3430.844, 12.37110
3432.773, 15.00084
3434.701, 16.98021
3436.630, 17.36445
3438.558, 19.69769
3440.487, 19.46666
3442.415, 19.11521
3444.344, 17.42273
3446.272, 15.86942
3448.201, 17.68818
3450.129, 18.08872
3452.058, 12.28545
3453.986, 11.95168
3455.915, 20.99761
3457.843, 34.08857
3459.771, 10.38046
3461.700, 12.92405
3463.628, 17.04381
3465.557, 12.75389
3467.485, 7.890416
3469.414, 18.83677
3471.342, 10.41724
3473.271, 9.888756
3475.199, 16.72895
3477.128, 17.70102
3479.056, 6.402799
3480.985, 4.065477
3482.913, 12.50859
3484.842, 16.02043
3486.770, 8.189005
3488.698, 3.562530
3490.627, 21.15458
3492.555, 23.71285
3494.484, 18.78277
3496.412, 12.81548
3498.341, 1.713740
3500.269, 5.104550
3502.198, 8.208019
3504.126, 7.034431
3506.055, 10.23085
3507.983, 22.88402
3509.912, 12.32661
3511.840, 25.14477
3513.769, 16.09509
3515.697, 6.801437
3517.625, 16.83125
3519.554, 12.29101
3521.482, 19.54779
3523.411, 17.34719
3525.339, 12.39319
3527.268, 10.27692
3529.196, 9.038435
3531.125, 10.36819
3533.053, 12.32347
3534.982, 15.49188
3536.910, 18.29110
3538.839, 19.43430
3540.767, 21.31847
3542.696, 8.161824
3544.624, 10.30088
3546.552, 14.89583
3548.481, 13.45122
3550.409, 11.13668
3552.338, 15.70758
3554.266, 9.363136
3556.195, 11.37690
3558.123, 21.79291
3560.052, 27.72457
3561.980, 14.16118
3563.909, 12.67084
3565.837, 16.70098
3567.766, 17.61905
3569.694, 12.85082
3571.623, 6.651559
3573.551, 12.58829
3575.479, 13.35592
3577.408, 10.20562
3579.336, 6.330511
3581.265, 4.832643
3583.193, 8.496182
3585.122, 22.72619
3587.050, 13.65604
3588.979, 5.201301
3590.907, 6.460232
3592.836, 8.695490
3594.764, -0.6721432
3596.693, 14.32154
3598.621, 10.36044
3600.550, 8.210003
3602.478, 9.707852
3604.406, 8.096090
3606.335, 2.929392
3608.263, -1.513532
3610.192, 3.568276
3612.120, 7.905222
3614.049, 15.46500
3615.977, 24.58216
3617.906, 10.90915
3619.834, 5.523035
3621.763, 9.995367
3623.691, 13.18370
3625.620, 16.90077
3627.548, 18.63758
3629.477, -2.247564
3631.405, 15.60570
3633.333, 4.650312
3635.262, 1.837195
3637.190, 5.347211
3639.119, 4.644145
3641.047, 8.954307
3642.976, -0.1585115
3644.904, 10.89057
3646.833, 7.053673
3648.761, 5.749190
3650.690, 10.13511
3652.618, -3.366239
3654.547, 7.381082
3656.475, 12.61608
3658.404, 10.88208
3660.332, 9.096481
3662.260, 8.802266
3664.189, 7.838239
3666.117, 8.754998
3668.046, 4.702209
3669.974, 4.375620
3671.903, 4.263725
3673.831, 6.959668
3675.760, 11.30002
3677.688, 4.865394
3679.617, 5.856095
3681.545, 1.310926
3683.474, 4.224452
3685.402, 0.3922035
3687.331, -7.121528
3689.259, 1.900026
3691.188, 9.364147
3693.116, 15.24971
3695.044, 7.735301
3696.973, 3.679303
3698.901, 3.157727
3700.830, 1.3637470E-02
3702.758, 0.9847314
3704.687, -6.967730
3706.615, 3.810200
3708.544, 15.89598
3710.472, 10.13042
3712.401, -1.351528
3714.329, 1.880970
3716.258, -0.2680965
3718.186, -1.394255
3720.115, -6.420598
3722.043, 4.146071
3723.971, 9.421198
3725.900, 3.238756
3727.828, 4.031124
3729.757, -2.675615
3731.685, -2.193734
3733.614, 4.345595
3735.542, 2.606518
3737.471, 2.530640
3739.399, 5.916826
3741.328, -0.3753223
3743.256, -3.047249
3745.185, 10.90898
3747.113, 3.768255
3749.042, -1.353806
3750.970, 8.609525
3752.898, 19.16255
3754.827, 11.20657
3756.755, 3.429930
3758.684, -5.912018
3760.612, -12.76950
3762.541, -15.32706
3764.469, -4.067161
3766.398, 6.758508
3768.326, -2.569485
3770.255, 1.950835
3772.183, 13.35445
3774.112, 9.984853
3776.040, 12.03207
3777.969, 10.11063
3779.897, -2.861845
3781.825, -12.67654
3783.754, 11.74792
3785.682, 1.304317
3787.611, 10.06541
3789.539, 2.392131
3791.468, -2.309641
3793.396, 2.459360
3795.325, 6.927172
3797.253, 6.210617
3799.182, 6.097814
3801.110, 15.82753
3803.039, 19.24146
3804.967, 7.506205
3806.896, -1.211720
3808.824, -0.6942575
3810.752, 6.673021
3812.681, 23.78929
3814.609, 16.44402
3816.538, 7.313396
3818.466, 13.35975
3820.395, 10.75896
3822.323, 7.431420
3824.252, 9.866484
3826.180, 14.02194
3828.109, 25.58429
3830.037, 1.517206
3831.966, 3.275483
3833.894, 13.89346
3835.823, 3.161194
3837.751, -9.978229
3839.679, -4.051012
3841.608, 9.829834
3843.536, -4.308749
3845.465, 8.362936
3847.393, -3.844900
3849.322, -2.395415
3851.250, 8.070983
3853.179, 8.742453
3855.107, 0.6496870
3857.036, -4.046628
3858.964, -2.452725
3860.893, 1.193446
3862.821, 21.51309
3864.750, 2.927112
3866.678, -4.955115
3868.606, -5.949895
3870.535, -2.188090
3872.463, 4.826707
3874.392, 1.568338
3876.320, 3.063111
3878.249, 5.516737
3880.177, 15.36054
3882.106, 5.873883
3884.034, 3.762629
3885.963, 3.384077
3887.891, 1.665479
3889.820, 4.834652
3891.748, 4.886714
3893.677, 3.728942
3895.605, 1.885494
3897.533, -0.9049171
3899.462, 8.227944
3901.390, 5.190797
3903.319, 4.159827
3905.247, 6.713716
3907.176, 1.352870
3909.104, 3.050243
3911.033, 9.338911
3912.961, 9.493168
3914.890, -6.906387
3916.818, -7.845920
3918.747, 5.070899
3920.675, 6.948905
3922.604, -0.1786363
3924.532, -1.167177
3926.460, 4.155488
3928.389, 17.24693
3930.317, 9.235321
3932.246, 1.9955000E-02
3934.174, 1.901676
3936.103, 11.37388
3938.031, 7.309379
3939.960, 8.850689
3941.888, 11.87538
3943.817, -6.475288
3945.745, -9.505602
3947.674, -2.482950
3949.602, 3.690575
3951.531, 1.346864
3953.459, 6.693637
3955.387, -0.3322902
3957.316, 2.388714
3959.244, 8.638706
3961.173, 6.721012
3963.101, 9.100844
3965.030, 13.00762
3966.958, 2.804715
3968.887, 3.833175
3970.815, 10.92856
3972.744, 14.41672
3974.672, -5.299875
3976.601, -13.44872
3978.529, -6.638133
3980.458, 3.318527
3982.386, 8.465739
3984.314, -3.983473
3986.243, 1.785015
3988.171, 10.22215
3990.100, 11.71791
3992.028, 7.415086
3993.957, 8.311888
3995.885, 5.233497
3997.814, 0.2766367
3999.742, -1.806101
4001.671, 4.503112
4003.599, 11.93859
4005.528, -1.209561
4007.456, -9.554235
4009.385, -0.8515236
4011.313, 2.274827
4013.241, 4.199820
4015.170, 8.984076
4017.098, 3.803217
4019.027, 0.4217550
4020.955, 0.9921555
4022.884, 4.694606
4024.812, 7.228596
4026.741, 0.8105343
4028.669, 1.766146
4030.598, -2.113935
4032.526, 1.356625
4034.455, -1.814340
4036.383, 8.432998
4038.312, 9.614070
4040.240, 3.620171
4042.168, 8.643152
4044.097, 11.77331
4046.025, 4.561924
4047.954, -2.638580
4049.882, -3.989709
4051.811, 3.881314
4053.739, 0.8743373
4055.668, -3.135667
4057.596, 5.843011
4059.525, 7.346856
4061.453, 17.36494
4063.382, 3.751936
4065.310, -1.675758
4067.239, 4.053982
4069.167, 10.91190
4071.095, 8.059732
4073.024, -1.569927
4074.952, 4.567712
4076.881, 11.62769
4078.809, -2.540715
4080.738, 1.607619
4082.666, 1.825347
4084.595, 0.6155443
4086.523, 1.434359
4088.452, 5.314692
4090.380, -3.498465
4092.309, 4.941151
4094.237, 11.18295
4096.166, 5.019351
4098.094, -2.091170
4100.022, 2.443902
4101.951, 25.11645
4103.879, 5.483975
4105.808, 5.910925
4107.736, 8.709510
4109.665, -4.192674
4111.593, -2.129887
4113.522, -0.5247166
4115.450, 1.995223
4117.379, 0.8451953
4119.307, -5.316964
4121.236, -6.372870
4123.164, 2.133857
4125.093, 3.695911
4127.021, 1.591015
4128.950, 7.014579
4130.878, 7.034742
4132.807, 6.478992
4134.735, -1.923859
4136.664, -16.57276
4138.592, 0.2586660
4140.521, 5.948492
4142.449, -3.355706
4144.377, 7.227834
4146.306, 7.736552
4148.234, -3.136265
4150.163, -2.372135
4152.091, -5.204127
4154.020, 4.698581
4155.948, 11.58481
4157.876, 6.058990
4159.805, 7.126613
4161.733, 14.42748
4163.662, 9.413208
4165.590, -11.06241
4167.519, 3.117222
4169.447, 6.424676
4171.376, -6.589657
4173.304, -3.934958
4175.233, -2.619205
4177.161, 9.229051
4179.090, 6.167024
4181.018, -0.6646178
4182.947, 2.126874
4184.875, 14.02770
4186.804, 3.752256
4188.732, 8.463944
4190.661, 5.798066
4192.589, 4.898963
4194.518, 0.8908009
4196.446, -7.533694
4198.375, 6.862944
4200.303, 15.48715
4202.231, -1.621956
4204.160, 1.003300
4206.088, 10.67231
4208.017, 0.1513737
4209.945, -7.929240
4211.874, 2.670503
4213.802, -4.485046
4215.730, 17.66641
4217.659, 10.28429
4219.587, 11.37482
4221.516, 8.161304
4223.444, 1.771252
4225.373, 8.655896
4227.301, 2.684535
4229.230, 0.5464135
4231.158, 6.716181
4233.087, -5.313044
4235.015, 1.000063
4236.944, 16.16266
4238.872, 9.136055
4240.801, 1.949032
4242.729, 2.569960
4244.658, 3.609037
4246.586, 4.285996
4248.515, 1.276653
4250.443, 20.06146
4252.372, 14.50502
4254.300, 0.3871030
4256.229, -1.136003
4258.157, 14.52116
4260.085, 0.2949158
4262.014, 6.254506
4263.942, 5.892935
4265.871, 12.01830
4267.799, 6.987781
4269.728, 4.201834
4271.656, 10.89740
4273.584, 13.14340
4275.513, 12.07120
4277.441, 3.751670
4279.370, 11.45344
4281.298, 7.596481
4283.227, -0.1416458
4285.155, 11.79036
4287.084, -1.698646
4289.012, 2.595442
4290.941, -1.203025
4292.869, 8.421013
4294.798, 7.690154
4296.726, 6.418218
4298.655, 15.01741
##END=



