##NAMES=Phosphoferrite
##RRUFFID=R130690
##IDEAL CHEMISTRY=Fe^2+^_3_(PO_4_)_2_·3H_2_O
##LOCALITY=Hagendorf, Waidhaus, Vohenstrauß, Oberpfälzer Wald, Upper Palatinate, Bavaria, Germany
##OWNER=RRUFF
##SOURCE=Rob Lavinsky
##DESCRIPTION=Euhedral dark-grey zoned crystals with striations. Interior is colorless, clear, and exterior is dark brown. This sample represents the interior, the exterior is R140624.
##STATUS=The identification of this mineral is confirmed by single-crystal X-ray diffraction and chemical analysis
##URL=https://www.rruff.net/odr/rruff_sample/R130690
##MEASURED CHEMISTRY=(Fe^2+^_2.04_Mn_0.84_Mg_0.03_)(PO_4_)_2_·3.08H_2_O
##DIFFRACTION SAMPLE DESCRIPTION=Single crystal fragment of the interior, clear part of the crystal, powder profile is calculated
##CELL PARAMETERS=a: 9.4884 b: 10.089 c: 8.692 alpha: 90 beta: 90 gamma: 90 volume: 832.1 crystal system: orthorhombic
##FILETYPE=Raman RAW
##RAMAN WAVELENGTH=780

7.826855e+001, 3.087911e+002
8.019702e+001, 2.906425e+002
8.212549e+001, 2.838749e+002
8.405396e+001, 2.910133e+002
8.598242e+001, 3.077119e+002
8.791089e+001, 3.288015e+002
8.983936e+001, 3.539088e+002
9.176782e+001, 3.805202e+002
9.369629e+001, 4.098912e+002
9.562476e+001, 4.035815e+002
9.755322e+001, 3.941853e+002
9.948169e+001, 3.870474e+002
1.014102e+002, 3.809255e+002
1.033386e+002, 3.756677e+002
1.052671e+002, 3.720499e+002
1.071956e+002, 3.698220e+002
1.091240e+002, 3.687141e+002
1.110525e+002, 3.681774e+002
1.129810e+002, 3.684912e+002
1.149094e+002, 3.700721e+002
1.168379e+002, 3.726605e+002
1.187664e+002, 3.753188e+002
1.206948e+002, 3.780949e+002
1.226233e+002, 3.802911e+002
1.245518e+002, 3.816961e+002
1.264802e+002, 3.821916e+002
1.284087e+002, 3.815719e+002
1.303372e+002, 3.797906e+002
1.322656e+002, 3.778425e+002
1.341941e+002, 3.755337e+002
1.361226e+002, 3.733087e+002
1.380510e+002, 3.717417e+002
1.399795e+002, 3.698971e+002
1.419080e+002, 3.664030e+002
1.438364e+002, 3.613748e+002
1.457649e+002, 3.580153e+002
1.476934e+002, 3.566835e+002
1.496218e+002, 3.568813e+002
1.515503e+002, 3.584033e+002
1.534788e+002, 3.616727e+002
1.554072e+002, 3.669416e+002
1.573357e+002, 3.741012e+002
1.592642e+002, 3.826087e+002
1.611926e+002, 3.934750e+002
1.631211e+002, 4.042631e+002
1.650496e+002, 4.172202e+002
1.669780e+002, 4.276547e+002
1.689065e+002, 4.330215e+002
1.708350e+002, 4.338002e+002
1.727634e+002, 4.310421e+002
1.746919e+002, 4.232974e+002
1.766204e+002, 4.141982e+002
1.785488e+002, 4.027820e+002
1.804773e+002, 3.912376e+002
1.824058e+002, 3.804245e+002
1.843342e+002, 3.702973e+002
1.862627e+002, 3.608914e+002
1.881912e+002, 3.522759e+002
1.901196e+002, 3.442552e+002
1.920481e+002, 3.368818e+002
1.939766e+002, 3.299377e+002
1.959050e+002, 3.231250e+002
1.978335e+002, 3.168649e+002
1.997620e+002, 3.118085e+002
2.016904e+002, 3.079951e+002
2.036189e+002, 3.039287e+002
2.055474e+002, 2.991521e+002
2.074758e+002, 2.954627e+002
2.094043e+002, 2.934519e+002
2.113328e+002, 2.926772e+002
2.132612e+002, 2.931836e+002
2.151897e+002, 2.946755e+002
2.171182e+002, 2.960337e+002
2.190466e+002, 2.971814e+002
2.209751e+002, 2.986969e+002
2.229036e+002, 3.008394e+002
2.248320e+002, 3.030617e+002
2.267605e+002, 3.051974e+002
2.286890e+002, 3.072285e+002
2.306174e+002, 3.095109e+002
2.325459e+002, 3.119705e+002
2.344744e+002, 3.124528e+002
2.364028e+002, 3.104434e+002
2.383313e+002, 3.078458e+002
2.402598e+002, 3.049459e+002
2.421882e+002, 3.020059e+002
2.441167e+002, 2.989417e+002
2.460452e+002, 2.959936e+002
2.479736e+002, 2.938658e+002
2.499021e+002, 2.925238e+002
2.518306e+002, 2.919200e+002
2.537590e+002, 2.923130e+002
2.556875e+002, 2.930724e+002
2.576160e+002, 2.939101e+002
2.595444e+002, 2.950204e+002
2.614729e+002, 2.968338e+002
2.634014e+002, 2.991764e+002
2.653298e+002, 3.012852e+002
2.672583e+002, 3.032281e+002
2.691868e+002, 3.045222e+002
2.711152e+002, 3.055527e+002
2.730437e+002, 3.053775e+002
2.749722e+002, 3.029904e+002
2.769006e+002, 2.993008e+002
2.788291e+002, 2.958938e+002
2.807576e+002, 2.927235e+002
2.826860e+002, 2.890789e+002
2.846145e+002, 2.842759e+002
2.865430e+002, 2.801455e+002
2.884714e+002, 2.774951e+002
2.903999e+002, 2.751577e+002
2.923284e+002, 2.722741e+002
2.942568e+002, 2.691128e+002
2.961853e+002, 2.661621e+002
2.981138e+002, 2.634261e+002
3.000422e+002, 2.609226e+002
3.019707e+002, 2.585973e+002
3.038992e+002, 2.566115e+002
3.058276e+002, 2.553627e+002
3.077561e+002, 2.541738e+002
3.096846e+002, 2.523698e+002
3.116130e+002, 2.502200e+002
3.135415e+002, 2.482997e+002
3.154700e+002, 2.466840e+002
3.173984e+002, 2.450493e+002
3.193269e+002, 2.436329e+002
3.212554e+002, 2.418083e+002
3.231838e+002, 2.393394e+002
3.251123e+002, 2.364346e+002
3.270408e+002, 2.331546e+002
3.289692e+002, 2.296151e+002
3.308977e+002, 2.260950e+002
3.328262e+002, 2.223216e+002
3.347546e+002, 2.193984e+002
3.366831e+002, 2.181275e+002
3.386116e+002, 2.165308e+002
3.405400e+002, 2.137287e+002
3.424685e+002, 2.107185e+002
3.443970e+002, 2.081613e+002
3.463254e+002, 2.060047e+002
3.482539e+002, 2.040699e+002
3.501824e+002, 2.022754e+002
3.521108e+002, 2.010728e+002
3.540393e+002, 2.008720e+002
3.559678e+002, 2.004580e+002
3.578962e+002, 1.992183e+002
3.598247e+002, 1.979382e+002
3.617532e+002, 1.971552e+002
3.636816e+002, 1.967259e+002
3.656101e+002, 1.962463e+002
3.675386e+002, 1.956304e+002
3.694670e+002, 1.956175e+002
3.713955e+002, 1.965081e+002
3.733240e+002, 1.971317e+002
3.752524e+002, 1.969604e+002
3.771809e+002, 1.966906e+002
3.791094e+002, 1.967061e+002
3.810378e+002, 1.968718e+002
3.829663e+002, 1.970234e+002
3.848948e+002, 1.971599e+002
3.868232e+002, 1.970606e+002
3.887517e+002, 1.965854e+002
3.906802e+002, 1.966239e+002
3.926086e+002, 1.977188e+002
3.945371e+002, 1.987592e+002
3.964656e+002, 1.989704e+002
3.983940e+002, 1.991411e+002
4.003225e+002, 2.001191e+002
4.022510e+002, 2.017362e+002
4.041794e+002, 2.032007e+002
4.061079e+002, 2.044851e+002
4.080364e+002, 2.062287e+002
4.099648e+002, 2.089297e+002
4.118933e+002, 2.110107e+002
4.138218e+002, 2.118305e+002
4.157502e+002, 2.120137e+002
4.176787e+002, 2.116038e+002
4.196072e+002, 2.109297e+002
4.215356e+002, 2.106629e+002
4.234641e+002, 2.106963e+002
4.253926e+002, 2.102974e+002
4.273210e+002, 2.093318e+002
4.292495e+002, 2.085372e+002
4.311780e+002, 2.078055e+002
4.331064e+002, 2.077146e+002
4.350349e+002, 2.086446e+002
4.369634e+002, 2.100890e+002
4.388918e+002, 2.116652e+002
4.408203e+002, 2.134291e+002
4.427488e+002, 2.156542e+002
4.446772e+002, 2.182671e+002
4.466057e+002, 2.202871e+002
4.485342e+002, 2.213464e+002
4.504626e+002, 2.225283e+002
4.523911e+002, 2.246390e+002
4.543196e+002, 2.260871e+002
4.562480e+002, 2.260629e+002
4.581765e+002, 2.252637e+002
4.601050e+002, 2.242837e+002
4.620334e+002, 2.230799e+002
4.639619e+002, 2.215112e+002
4.658904e+002, 2.195753e+002
4.678188e+002, 2.175621e+002
4.697473e+002, 2.150792e+002
4.716758e+002, 2.133779e+002
4.736042e+002, 2.132798e+002
4.755327e+002, 2.130387e+002
4.774612e+002, 2.119258e+002
4.793896e+002, 2.103350e+002
4.813181e+002, 2.083309e+002
4.832466e+002, 2.062239e+002
4.851750e+002, 2.048395e+002
4.871035e+002, 2.042947e+002
4.890320e+002, 2.031469e+002
4.909604e+002, 2.009377e+002
4.928889e+002, 1.987862e+002
4.948174e+002, 1.964385e+002
4.967458e+002, 1.945518e+002
4.986743e+002, 1.934532e+002
5.006028e+002, 1.928141e+002
5.025313e+002, 1.925485e+002
5.044597e+002, 1.924663e+002
5.063882e+002, 1.921162e+002
5.083167e+002, 1.915009e+002
5.102451e+002, 1.915748e+002
5.121736e+002, 1.925652e+002
5.141021e+002, 1.937374e+002
5.160305e+002, 1.951788e+002
5.179590e+002, 1.965922e+002
5.198875e+002, 1.976260e+002
5.218159e+002, 1.989892e+002
5.237444e+002, 2.013144e+002
5.256729e+002, 2.040273e+002
5.276013e+002, 2.065589e+002
5.295298e+002, 2.089555e+002
5.314583e+002, 2.113955e+002
5.333867e+002, 2.139005e+002
5.353152e+002, 2.162913e+002
5.372437e+002, 2.185358e+002
5.391721e+002, 2.207490e+002
5.411006e+002, 2.229310e+002
5.430291e+002, 2.250853e+002
5.449575e+002, 2.270307e+002
5.468860e+002, 2.291361e+002
5.488145e+002, 2.318348e+002
5.507429e+002, 2.347046e+002
5.526714e+002, 2.370605e+002
5.545999e+002, 2.390134e+002
5.565283e+002, 2.412769e+002
5.584568e+002, 2.438641e+002
5.603853e+002, 2.461476e+002
5.623137e+002, 2.483857e+002
5.642422e+002, 2.488621e+002
5.661707e+002, 2.462456e+002
5.680991e+002, 2.434198e+002
5.700276e+002, 2.415504e+002
5.719561e+002, 2.397095e+002
5.738845e+002, 2.372647e+002
5.758130e+002, 2.344732e+002
5.777415e+002, 2.313494e+002
5.796699e+002, 2.282019e+002
5.815984e+002, 2.263048e+002
5.835269e+002, 2.255581e+002
5.854553e+002, 2.246752e+002
5.873838e+002, 2.236202e+002
5.893123e+002, 2.220220e+002
5.912407e+002, 2.200392e+002
5.931692e+002, 2.170762e+002
5.950977e+002, 2.125600e+002
5.970261e+002, 2.076358e+002
5.989546e+002, 2.030179e+002
6.008831e+002, 1.982162e+002
6.028115e+002, 1.925735e+002
6.047400e+002, 1.864195e+002
6.066685e+002, 1.802649e+002
6.085969e+002, 1.741969e+002
6.105254e+002, 1.686519e+002
6.124539e+002, 1.636593e+002
6.143823e+002, 1.591919e+002
6.163108e+002, 1.555081e+002
6.182393e+002, 1.518189e+002
6.201677e+002, 1.477873e+002
6.220962e+002, 1.440801e+002
6.240247e+002, 1.408740e+002
6.259531e+002, 1.380977e+002
6.278816e+002, 1.358163e+002
6.298101e+002, 1.338497e+002
6.317385e+002, 1.319970e+002
6.336670e+002, 1.303066e+002
6.355955e+002, 1.289415e+002
6.375239e+002, 1.278786e+002
6.394524e+002, 1.267235e+002
6.413809e+002, 1.253778e+002
6.433093e+002, 1.242925e+002
6.452378e+002, 1.236861e+002
6.471663e+002, 1.229732e+002
6.490947e+002, 1.219680e+002
6.510232e+002, 1.210762e+002
6.529517e+002, 1.204214e+002
6.548801e+002, 1.198967e+002
6.568086e+002, 1.193737e+002
6.587371e+002, 1.190247e+002
6.606655e+002, 1.190494e+002
6.625940e+002, 1.193013e+002
6.645225e+002, 1.196164e+002
6.664509e+002, 1.199483e+002
6.683794e+002, 1.200454e+002
6.703079e+002, 1.199019e+002
6.722363e+002, 1.195786e+002
6.741648e+002, 1.190246e+002
6.760933e+002, 1.185105e+002
6.780217e+002, 1.180366e+002
6.799502e+002, 1.176586e+002
6.818787e+002, 1.173870e+002
6.838071e+002, 1.172138e+002
6.857356e+002, 1.169342e+002
6.876641e+002, 1.170414e+002
6.895925e+002, 1.184941e+002
6.915210e+002, 1.197317e+002
6.934495e+002, 1.188961e+002
6.953779e+002, 1.171511e+002
6.973064e+002, 1.164997e+002
6.992349e+002, 1.166651e+002
7.011633e+002, 1.165988e+002
7.030918e+002, 1.163058e+002
7.050203e+002, 1.159073e+002
7.069487e+002, 1.153890e+002
7.088772e+002, 1.151896e+002
7.108057e+002, 1.154179e+002
7.127341e+002, 1.156234e+002
7.146626e+002, 1.157212e+002
7.165911e+002, 1.157507e+002
7.185195e+002, 1.156867e+002
7.204480e+002, 1.155962e+002
7.223765e+002, 1.154152e+002
7.243049e+002, 1.153185e+002
7.262334e+002, 1.154491e+002
7.281619e+002, 1.156979e+002
7.300903e+002, 1.161355e+002
7.320188e+002, 1.165086e+002
7.339473e+002, 1.162204e+002
7.358757e+002, 1.155354e+002
7.378042e+002, 1.152285e+002
7.397327e+002, 1.152467e+002
7.416611e+002, 1.153262e+002
7.435896e+002, 1.154497e+002
7.455181e+002, 1.155610e+002
7.474465e+002, 1.156603e+002
7.493750e+002, 1.156857e+002
7.513035e+002, 1.155557e+002
7.532319e+002, 1.155049e+002
7.551604e+002, 1.155198e+002
7.570889e+002, 1.156927e+002
7.590173e+002, 1.163089e+002
7.609458e+002, 1.167259e+002
7.628743e+002, 1.165608e+002
7.648027e+002, 1.162131e+002
7.667312e+002, 1.160039e+002
7.686597e+002, 1.157117e+002
7.705881e+002, 1.149365e+002
7.725166e+002, 1.140765e+002
7.744451e+002, 1.136702e+002
7.763735e+002, 1.135802e+002
7.783020e+002, 1.136034e+002
7.802305e+002, 1.136684e+002
7.821589e+002, 1.133544e+002
7.840874e+002, 1.126248e+002
7.860159e+002, 1.122860e+002
7.879443e+002, 1.125163e+002
7.898728e+002, 1.124910e+002
7.918013e+002, 1.119991e+002
7.937297e+002, 1.116683e+002
7.956582e+002, 1.114983e+002
7.975867e+002, 1.115287e+002
7.995151e+002, 1.119367e+002
8.014436e+002, 1.122296e+002
8.033721e+002, 1.121864e+002
8.053005e+002, 1.121714e+002
8.072290e+002, 1.123594e+002
8.091575e+002, 1.125723e+002
8.110859e+002, 1.127700e+002
8.130144e+002, 1.128570e+002
8.149429e+002, 1.127509e+002
8.168713e+002, 1.125180e+002
8.187998e+002, 1.121929e+002
8.207283e+002, 1.118081e+002
8.226567e+002, 1.112042e+002
8.245852e+002, 1.106820e+002
8.265137e+002, 1.111266e+002
8.284421e+002, 1.122225e+002
8.303706e+002, 1.127401e+002
8.322991e+002, 1.127140e+002
8.342275e+002, 1.123799e+002
8.361560e+002, 1.117223e+002
8.380845e+002, 1.114012e+002
8.400129e+002, 1.114295e+002
8.419414e+002, 1.114731e+002
8.438699e+002, 1.114843e+002
8.457983e+002, 1.119218e+002
8.477268e+002, 1.130666e+002
8.496553e+002, 1.132102e+002
8.515837e+002, 1.116706e+002
8.535122e+002, 1.104896e+002
8.554407e+002, 1.102984e+002
8.573691e+002, 1.102258e+002
8.592976e+002, 1.101147e+002
8.612261e+002, 1.098787e+002
8.631545e+002, 1.093620e+002
8.650830e+002, 1.088869e+002
8.670115e+002, 1.086890e+002
8.689399e+002, 1.084297e+002
8.708684e+002, 1.077629e+002
8.727969e+002, 1.071636e+002
8.747253e+002, 1.070680e+002
8.766538e+002, 1.071283e+002
8.785823e+002, 1.070119e+002
8.805107e+002, 1.068708e+002
8.824392e+002, 1.069936e+002
8.843677e+002, 1.071163e+002
8.862961e+002, 1.065616e+002
8.882246e+002, 1.058890e+002
8.901531e+002, 1.063519e+002
8.920815e+002, 1.074036e+002
8.940100e+002, 1.077463e+002
8.959385e+002, 1.077156e+002
8.978669e+002, 1.085282e+002
8.997954e+002, 1.099038e+002
9.017239e+002, 1.102654e+002
9.036523e+002, 1.097628e+002
9.055808e+002, 1.101988e+002
9.075093e+002, 1.116278e+002
9.094377e+002, 1.129410e+002
9.113662e+002, 1.140197e+002
9.132947e+002, 1.157006e+002
9.152231e+002, 1.179729e+002
9.171516e+002, 1.211025e+002
9.190801e+002, 1.254388e+002
9.210085e+002, 1.296981e+002
9.229370e+002, 1.329716e+002
9.248655e+002, 1.379692e+002
9.267939e+002, 1.448516e+002
9.287224e+002, 1.531709e+002
9.306509e+002, 1.630618e+002
9.325793e+002, 1.740849e+002
9.345078e+002, 1.867407e+002
9.364363e+002, 1.992806e+002
9.383647e+002, 2.114188e+002
9.402932e+002, 2.231478e+002
9.422217e+002, 2.333713e+002
9.441501e+002, 2.457075e+002
9.460786e+002, 2.615575e+002
9.480071e+002, 2.789669e+002
9.499355e+002, 2.965359e+002
9.518640e+002, 3.169625e+002
9.537925e+002, 3.416419e+002
9.557209e+002, 3.691364e+002
9.576494e+002, 4.010505e+002
9.595779e+002, 4.318614e+002
9.615063e+002, 4.614073e+002
9.634348e+002, 4.850650e+002
9.653633e+002, 5.022210e+002
9.672917e+002, 5.100233e+002
9.692202e+002, 5.066543e+002
9.711487e+002, 4.937669e+002
9.730771e+002, 4.691044e+002
9.750056e+002, 4.393171e+002
9.769341e+002, 4.065614e+002
9.788625e+002, 3.735317e+002
9.807910e+002, 3.401712e+002
9.827195e+002, 3.100110e+002
9.846479e+002, 2.861772e+002
9.865764e+002, 2.667764e+002
9.885049e+002, 2.505038e+002
9.904333e+002, 2.372615e+002
9.923618e+002, 2.273936e+002
9.942903e+002, 2.199902e+002
9.962188e+002, 2.146809e+002
9.981472e+002, 2.107495e+002
1.000076e+003, 2.080217e+002
1.002004e+003, 2.056207e+002
1.003933e+003, 2.025990e+002
1.005861e+003, 1.992533e+002
1.007790e+003, 1.962911e+002
1.009718e+003, 1.928999e+002
1.011646e+003, 1.876734e+002
1.013575e+003, 1.817420e+002
1.015503e+003, 1.763117e+002
1.017432e+003, 1.713003e+002
1.019360e+003, 1.667168e+002
1.021289e+003, 1.623777e+002
1.023217e+003, 1.577354e+002
1.025146e+003, 1.534678e+002
1.027074e+003, 1.503796e+002
1.029003e+003, 1.483442e+002
1.030931e+003, 1.473902e+002
1.032860e+003, 1.472018e+002
1.034788e+003, 1.474472e+002
1.036717e+003, 1.481064e+002
1.038645e+003, 1.492788e+002
1.040573e+003, 1.507369e+002
1.042502e+003, 1.525845e+002
1.044430e+003, 1.541854e+002
1.046359e+003, 1.547112e+002
1.048287e+003, 1.545584e+002
1.050216e+003, 1.542695e+002
1.052144e+003, 1.535602e+002
1.054073e+003, 1.517791e+002
1.056001e+003, 1.496511e+002
1.057930e+003, 1.482761e+002
1.059858e+003, 1.468199e+002
1.061787e+003, 1.441408e+002
1.063715e+003, 1.409759e+002
1.065644e+003, 1.380852e+002
1.067572e+003, 1.352307e+002
1.069500e+003, 1.319570e+002
1.071429e+003, 1.288146e+002
1.073357e+003, 1.263407e+002
1.075286e+003, 1.243424e+002
1.077214e+003, 1.228170e+002
1.079143e+003, 1.214643e+002
1.081071e+003, 1.199637e+002
1.083000e+003, 1.185538e+002
1.084928e+003, 1.173555e+002
1.086857e+003, 1.164369e+002
1.088785e+003, 1.160441e+002
1.090714e+003, 1.157103e+002
1.092642e+003, 1.151940e+002
1.094571e+003, 1.144832e+002
1.096499e+003, 1.135651e+002
1.098427e+003, 1.124627e+002
1.100356e+003, 1.110854e+002
1.102284e+003, 1.096690e+002
1.104213e+003, 1.082977e+002
1.106141e+003, 1.069896e+002
1.108070e+003, 1.058839e+002
1.109998e+003, 1.046468e+002
1.111927e+003, 1.030668e+002
1.113855e+003, 1.014320e+002
1.115784e+003, 9.963528e+001
1.117712e+003, 9.816888e+001
1.119641e+003, 9.737800e+001
1.121569e+003, 9.660888e+001
1.123498e+003, 9.569962e+001
1.125426e+003, 9.474258e+001
1.127354e+003, 9.381758e+001
1.129283e+003, 9.268893e+001
1.131211e+003, 9.111044e+001
1.133140e+003, 8.982588e+001
1.135068e+003, 8.915291e+001
1.136997e+003, 8.825206e+001
1.138925e+003, 8.693400e+001
1.140854e+003, 8.556441e+001
1.142782e+003, 8.402154e+001
1.144711e+003, 8.323598e+001
1.146639e+003, 8.352309e+001
1.148568e+003, 8.324246e+001
1.150496e+003, 8.217553e+001
1.152425e+003, 8.130933e+001
1.154353e+003, 8.071043e+001
1.156281e+003, 8.010487e+001
1.158210e+003, 7.948161e+001
1.160138e+003, 7.938805e+001
1.162067e+003, 7.977100e+001
1.163995e+003, 7.957253e+001
1.165924e+003, 7.886486e+001
1.167852e+003, 7.827225e+001
1.169781e+003, 7.778468e+001
1.171709e+003, 7.729057e+001
1.173638e+003, 7.683095e+001
1.175566e+003, 7.655359e+001
1.177495e+003, 7.638982e+001
1.179423e+003, 7.622665e+001
1.181352e+003, 7.604016e+001
1.183280e+003, 7.579983e+001
1.185208e+003, 7.550381e+001
1.187137e+003, 7.494990e+001
1.189065e+003, 7.456394e+001
1.190994e+003, 7.497710e+001
1.192922e+003, 7.544563e+001
1.194851e+003, 7.548708e+001
1.196779e+003, 7.529166e+001
1.198708e+003, 7.485879e+001
1.200636e+003, 7.442554e+001
1.202565e+003, 7.404427e+001
1.204493e+003, 7.386582e+001
1.206422e+003, 7.413360e+001
1.208350e+003, 7.410094e+001
1.210279e+003, 7.338488e+001
1.212207e+003, 7.293220e+001
1.214135e+003, 7.306615e+001
1.216064e+003, 7.297560e+001
1.217992e+003, 7.244958e+001
1.219921e+003, 7.217717e+001
1.221849e+003, 7.225539e+001
1.223778e+003, 7.236494e+001
1.225706e+003, 7.247171e+001
1.227635e+003, 7.237545e+001
1.229563e+003, 7.210343e+001
1.231492e+003, 7.216178e+001
1.233420e+003, 7.244523e+001
1.235349e+003, 7.232759e+001
1.237277e+003, 7.191749e+001
1.239206e+003, 7.143269e+001
1.241134e+003, 7.096384e+001
1.243063e+003, 7.066284e+001
1.244991e+003, 7.051378e+001
1.246919e+003, 7.058646e+001
1.248848e+003, 7.068681e+001
1.250776e+003, 7.069778e+001
1.252705e+003, 7.054249e+001
1.254633e+003, 6.989257e+001
1.256562e+003, 6.948104e+001
1.258490e+003, 6.993743e+001
1.260419e+003, 7.032275e+001
1.262347e+003, 7.015862e+001
1.264276e+003, 7.014268e+001
1.266204e+003, 7.066235e+001
1.268133e+003, 7.076415e+001
1.270061e+003, 7.007593e+001
1.271990e+003, 6.998219e+001
1.273918e+003, 7.068975e+001
1.275846e+003, 7.110688e+001
1.277775e+003, 7.119081e+001
1.279703e+003, 7.108419e+001
1.281632e+003, 7.082810e+001
1.283560e+003, 7.060625e+001
1.285489e+003, 7.045776e+001
1.287417e+003, 7.057960e+001
1.289346e+003, 7.077232e+001
1.291274e+003, 7.057557e+001
1.293203e+003, 7.035780e+001
1.295131e+003, 7.054677e+001
1.297060e+003, 7.083298e+001
1.298988e+003, 7.114879e+001
1.300917e+003, 7.118183e+001
1.302845e+003, 7.060159e+001
1.304773e+003, 7.005383e+001
1.306702e+003, 6.975050e+001
1.308630e+003, 6.957898e+001
1.310559e+003, 6.949959e+001
1.312487e+003, 6.964397e+001
1.314416e+003, 7.011033e+001
1.316344e+003, 7.034711e+001
1.318273e+003, 7.032481e+001
1.320201e+003, 7.007104e+001
1.322130e+003, 6.963600e+001
1.324058e+003, 6.943923e+001
1.325987e+003, 6.938267e+001
1.327915e+003, 6.916143e+001
1.329844e+003, 6.890085e+001
1.331772e+003, 6.883658e+001
1.333700e+003, 6.880531e+001
1.335629e+003, 6.857050e+001
1.337557e+003, 6.840951e+001
1.339486e+003, 6.860202e+001
1.341414e+003, 6.869785e+001
1.343343e+003, 6.844327e+001
1.345271e+003, 6.838775e+001
1.347200e+003, 6.871495e+001
1.349128e+003, 6.887368e+001
1.351057e+003, 6.877937e+001
1.352985e+003, 6.878989e+001
1.354914e+003, 6.889700e+001
1.356842e+003, 6.862059e+001
1.358771e+003, 6.806815e+001
1.360699e+003, 6.766312e+001
1.362627e+003, 6.739843e+001
1.364556e+003, 6.733909e+001
1.366484e+003, 6.730993e+001
1.368413e+003, 6.712593e+001
1.370341e+003, 6.685195e+001
1.372270e+003, 6.633631e+001
1.374198e+003, 6.608343e+001
1.376127e+003, 6.648636e+001
1.378055e+003, 6.686813e+001
1.379984e+003, 6.722079e+001
1.381912e+003, 6.715443e+001
1.383841e+003, 6.654256e+001
1.385769e+003, 6.633867e+001
1.387698e+003, 6.655297e+001
1.389626e+003, 6.709530e+001
1.391554e+003, 6.765083e+001
1.393483e+003, 6.688650e+001
1.395411e+003, 6.583363e+001
1.397340e+003, 6.624152e+001
1.399268e+003, 6.683060e+001
1.401197e+003, 6.647520e+001
1.403125e+003, 6.599852e+001
1.405054e+003, 6.567339e+001
1.406982e+003, 6.566610e+001
1.408911e+003, 6.631017e+001
1.410839e+003, 6.647089e+001
1.412768e+003, 6.574297e+001
1.414696e+003, 6.568193e+001
1.416625e+003, 6.626377e+001
1.418553e+003, 6.637746e+001
1.420481e+003, 6.612746e+001
1.422410e+003, 6.573955e+001
1.424338e+003, 6.538702e+001
1.426267e+003, 6.535377e+001
1.428195e+003, 6.546426e+001
1.430124e+003, 6.570799e+001
1.432052e+003, 6.581715e+001
1.433981e+003, 6.568411e+001
1.435909e+003, 6.536660e+001
1.437838e+003, 6.482627e+001
1.439766e+003, 6.443431e+001
1.441695e+003, 6.423318e+001
1.443623e+003, 6.463453e+001
1.445552e+003, 6.543887e+001
1.447480e+003, 6.567785e+001
1.449408e+003, 6.549876e+001
1.451337e+003, 6.493918e+001
1.453265e+003, 6.444286e+001
1.455194e+003, 6.462203e+001
1.457122e+003, 6.474731e+001
1.459051e+003, 6.434022e+001
1.460979e+003, 6.410237e+001
1.462908e+003, 6.417384e+001
1.464836e+003, 6.465153e+001
1.466765e+003, 6.550505e+001
1.468693e+003, 6.509251e+001
1.470622e+003, 6.374960e+001
1.472550e+003, 6.322692e+001
1.474479e+003, 6.322187e+001
1.476407e+003, 6.335689e+001
1.478335e+003, 6.348860e+001
1.480264e+003, 6.353083e+001
1.482192e+003, 6.345317e+001
1.484121e+003, 6.318719e+001
1.486049e+003, 6.290646e+001
1.487978e+003, 6.260729e+001
1.489906e+003, 6.243522e+001
1.491835e+003, 6.239660e+001
1.493763e+003, 6.254955e+001
1.495692e+003, 6.273579e+001
1.497620e+003, 6.232999e+001
1.499549e+003, 6.182100e+001
1.501477e+003, 6.179358e+001
1.503406e+003, 6.192449e+001
1.505334e+003, 6.213559e+001
1.507262e+003, 6.219316e+001
1.509191e+003, 6.183257e+001
1.511119e+003, 6.186645e+001
1.513048e+003, 6.252477e+001
1.514976e+003, 6.203272e+001
1.516905e+003, 6.075991e+001
1.518833e+003, 6.095295e+001
1.520762e+003, 6.174752e+001
1.522690e+003, 6.179933e+001
1.524619e+003, 6.163605e+001
1.526547e+003, 6.148557e+001
1.528476e+003, 6.152038e+001
1.530404e+003, 6.188660e+001
1.532333e+003, 6.210264e+001
1.534261e+003, 6.209723e+001
1.536189e+003, 6.180165e+001
1.538118e+003, 6.134580e+001
1.540046e+003, 6.145708e+001
1.541975e+003, 6.184530e+001
1.543903e+003, 6.210217e+001
1.545832e+003, 6.229291e+001
1.547760e+003, 6.250352e+001
1.549689e+003, 6.254041e+001
1.551617e+003, 6.230052e+001
1.553546e+003, 6.220678e+001
1.555474e+003, 6.231049e+001
1.557403e+003, 6.225029e+001
1.559331e+003, 6.207597e+001
1.561260e+003, 6.191584e+001
1.563188e+003, 6.188491e+001
1.565116e+003, 6.219361e+001
1.567045e+003, 6.260114e+001
1.568973e+003, 6.310517e+001
1.570902e+003, 6.334621e+001
1.572830e+003, 6.321704e+001
1.574759e+003, 6.325039e+001
1.576687e+003, 6.341915e+001
1.578616e+003, 6.298290e+001
1.580544e+003, 6.241977e+001
1.582473e+003, 6.284248e+001
1.584401e+003, 6.347316e+001
1.586330e+003, 6.373999e+001
1.588258e+003, 6.376568e+001
1.590187e+003, 6.338576e+001
1.592115e+003, 6.328619e+001
1.594043e+003, 6.352265e+001
1.595972e+003, 6.366092e+001
1.597900e+003, 6.365749e+001
1.599829e+003, 6.338534e+001
1.601757e+003, 6.295556e+001
1.603686e+003, 6.242533e+001
1.605614e+003, 6.189804e+001
1.607543e+003, 6.122541e+001
1.609471e+003, 6.105037e+001
1.611400e+003, 6.171638e+001
1.613328e+003, 6.165342e+001
1.615257e+003, 6.101786e+001
1.617185e+003, 6.072012e+001
1.619114e+003, 6.058862e+001
1.621042e+003, 6.051249e+001
1.622970e+003, 6.024502e+001
1.624899e+003, 5.946123e+001
1.626827e+003, 5.909898e+001
1.628756e+003, 5.949804e+001
1.630684e+003, 5.949461e+001
1.632613e+003, 5.915501e+001
1.634541e+003, 5.921736e+001
1.636470e+003, 5.928407e+001
1.638398e+003, 5.854222e+001
1.640327e+003, 5.790165e+001
1.642255e+003, 5.785606e+001
1.644184e+003, 5.779261e+001
1.646112e+003, 5.758033e+001
1.648041e+003, 5.723516e+001
1.649969e+003, 5.680526e+001
1.651897e+003, 5.651756e+001
1.653826e+003, 5.628992e+001
1.655754e+003, 5.592114e+001
1.657683e+003, 5.575493e+001
1.659611e+003, 5.603375e+001
1.661540e+003, 5.614691e+001
1.663468e+003, 5.600409e+001
1.665397e+003, 5.618314e+001
1.667325e+003, 5.648140e+001
1.669254e+003, 5.608828e+001
1.671182e+003, 5.549829e+001
1.673111e+003, 5.521331e+001
1.675039e+003, 5.498381e+001
1.676968e+003, 5.470795e+001
1.678896e+003, 5.457196e+001
1.680824e+003, 5.458067e+001
1.682753e+003, 5.448638e+001
1.684681e+003, 5.439869e+001
1.686610e+003, 5.468491e+001
1.688538e+003, 5.485651e+001
1.690467e+003, 5.441766e+001
1.692395e+003, 5.400006e+001
1.694324e+003, 5.372198e+001
1.696252e+003, 5.358919e+001
1.698181e+003, 5.357436e+001
1.700109e+003, 5.350032e+001
1.702038e+003, 5.346966e+001
1.703966e+003, 5.373520e+001
1.705895e+003, 5.384065e+001
1.707823e+003, 5.343140e+001
1.709751e+003, 5.317445e+001
1.711680e+003, 5.313179e+001
1.713608e+003, 5.294026e+001
1.715537e+003, 5.272619e+001
1.717465e+003, 5.289130e+001
1.719394e+003, 5.301306e+001
1.721322e+003, 5.281155e+001
1.723251e+003, 5.251793e+001
1.725179e+003, 5.212027e+001
1.727108e+003, 5.223472e+001
1.729036e+003, 5.265818e+001
1.730965e+003, 5.237380e+001
1.732893e+003, 5.202883e+001
1.734822e+003, 5.246537e+001
1.736750e+003, 5.250275e+001
1.738678e+003, 5.165611e+001
1.740607e+003, 5.137528e+001
1.742535e+003, 5.172025e+001
1.744464e+003, 5.210201e+001
1.746392e+003, 5.239388e+001
1.748321e+003, 5.248481e+001
1.750249e+003, 5.222610e+001
1.752178e+003, 5.144291e+001
1.754106e+003, 5.112220e+001
1.756035e+003, 5.130724e+001
1.757963e+003, 5.090230e+001
1.759892e+003, 5.040667e+001
1.761820e+003, 5.100996e+001
1.763749e+003, 5.135752e+001
1.765677e+003, 5.049852e+001
1.767605e+003, 5.006564e+001
1.769534e+003, 5.019230e+001
1.771462e+003, 4.981037e+001
1.773391e+003, 4.937399e+001
1.775319e+003, 5.002467e+001
1.777248e+003, 5.067647e+001
1.779176e+003, 5.060159e+001
1.781105e+003, 5.039905e+001
1.783033e+003, 5.013359e+001
1.784962e+003, 4.995714e+001
1.786890e+003, 4.981513e+001
1.788819e+003, 4.948995e+001
1.790747e+003, 4.932335e+001
1.792676e+003, 4.975044e+001
1.794604e+003, 4.987012e+001
1.796532e+003, 4.957522e+001
1.798461e+003, 4.906325e+001
1.800389e+003, 4.863951e+001
1.802318e+003, 4.913989e+001
1.804246e+003, 4.955809e+001
1.806175e+003, 4.925100e+001
1.808103e+003, 4.895197e+001
1.810032e+003, 4.875207e+001
1.811960e+003, 4.869061e+001
1.813889e+003, 4.876450e+001
1.815817e+003, 4.914644e+001
1.817746e+003, 4.927337e+001
1.819674e+003, 4.876451e+001
1.821603e+003, 4.852639e+001
1.823531e+003, 4.863555e+001
1.825459e+003, 4.859150e+001
1.827388e+003, 4.848051e+001
1.829316e+003, 4.838700e+001
1.831245e+003, 4.838553e+001
1.833173e+003, 4.854267e+001
1.835102e+003, 4.841976e+001
1.837030e+003, 4.806731e+001
1.838959e+003, 4.796802e+001
1.840887e+003, 4.800636e+001
1.842816e+003, 4.811767e+001
1.844744e+003, 4.820157e+001
1.846673e+003, 4.823713e+001
1.848601e+003, 4.831381e+001
1.850530e+003, 4.829491e+001
1.852458e+003, 4.746721e+001
1.854386e+003, 4.686556e+001
1.856315e+003, 4.757900e+001
1.858243e+003, 4.796463e+001
1.860172e+003, 4.782742e+001
1.862100e+003, 4.720932e+001
1.864029e+003, 4.662609e+001
1.865957e+003, 4.716157e+001
1.867886e+003, 4.759280e+001
1.869814e+003, 4.727056e+001
1.871743e+003, 4.707864e+001
1.873671e+003, 4.701748e+001
1.875600e+003, 4.663007e+001
1.877528e+003, 4.636811e+001
1.879457e+003, 4.696766e+001
1.881385e+003, 4.720060e+001
1.883313e+003, 4.673486e+001
1.885242e+003, 4.620318e+001
1.887170e+003, 4.578504e+001
1.889099e+003, 4.599116e+001
1.891027e+003, 4.623010e+001
1.892956e+003, 4.618882e+001
1.894884e+003, 4.599314e+001
1.896813e+003, 4.568472e+001
1.898741e+003, 4.560357e+001
1.900670e+003, 4.567610e+001
1.902598e+003, 4.595414e+001
1.904527e+003, 4.593336e+001
1.906455e+003, 4.535806e+001
1.908384e+003, 4.513253e+001
1.910312e+003, 4.516757e+001
1.912240e+003, 4.534953e+001
1.914169e+003, 4.539157e+001
1.916097e+003, 4.513515e+001
1.918026e+003, 4.478869e+001
1.919954e+003, 4.442345e+001
1.921883e+003, 4.444390e+001
1.923811e+003, 4.445668e+001
1.925740e+003, 4.405939e+001
1.927668e+003, 4.352480e+001
1.929597e+003, 4.291906e+001
1.931525e+003, 4.287423e+001
1.933454e+003, 4.301968e+001
1.935382e+003, 4.253960e+001
1.937311e+003, 4.226596e+001
1.939239e+003, 4.253406e+001
1.941167e+003, 4.244460e+001
1.943096e+003, 4.206837e+001
1.945024e+003, 4.192167e+001
1.946953e+003, 4.176953e+001
1.948881e+003, 4.135501e+001
1.950810e+003, 4.128169e+001
1.952738e+003, 4.146244e+001
1.954667e+003, 4.069287e+001
1.956595e+003, 3.986021e+001
1.958524e+003, 4.006941e+001
1.960452e+003, 4.017528e+001
1.962381e+003, 3.997519e+001
1.964309e+003, 3.973669e+001
1.966238e+003, 3.951033e+001
1.968166e+003, 3.930513e+001
1.970094e+003, 3.924170e+001
1.972023e+003, 3.941703e+001
1.973951e+003, 3.956041e+001
1.975880e+003, 3.955741e+001
1.977808e+003, 3.890593e+001
1.979737e+003, 3.846679e+001
1.981665e+003, 3.889111e+001
1.983594e+003, 3.899590e+001
1.985522e+003, 3.879301e+001
1.987451e+003, 3.844716e+001
1.989379e+003, 3.821598e+001
1.991308e+003, 3.831665e+001
1.993236e+003, 3.835267e+001
1.995165e+003, 3.829488e+001
1.997093e+003, 3.836397e+001
1.999021e+003, 3.826731e+001
2.000950e+003, 3.777082e+001
2.002878e+003, 3.705270e+001
2.004807e+003, 3.621839e+001
2.006735e+003, 3.664904e+001
2.008664e+003, 3.723029e+001
2.010592e+003, 3.663811e+001
2.012521e+003, 3.617385e+001
2.014449e+003, 3.610223e+001
2.016378e+003, 3.624736e+001
2.018306e+003, 3.642331e+001
2.020235e+003, 3.643718e+001
2.022163e+003, 3.620785e+001
2.024092e+003, 3.574130e+001
2.026020e+003, 3.583987e+001
2.027948e+003, 3.610081e+001
2.029877e+003, 3.580116e+001
2.031805e+003, 3.570708e+001
2.033734e+003, 3.598680e+001
2.035662e+003, 3.569187e+001
2.037591e+003, 3.515044e+001
2.039519e+003, 3.479424e+001
2.041448e+003, 3.477218e+001
2.043376e+003, 3.511428e+001
2.045305e+003, 3.551145e+001
2.047233e+003, 3.563764e+001
2.049162e+003, 3.470745e+001
2.051090e+003, 3.410270e+001
2.053019e+003, 3.427187e+001
2.054947e+003, 3.414708e+001
2.056875e+003, 3.398591e+001
2.058804e+003, 3.436612e+001
2.060732e+003, 3.452954e+001
2.062661e+003, 3.417627e+001
2.064589e+003, 3.401695e+001
2.066518e+003, 3.391552e+001
2.068446e+003, 3.362830e+001
2.070375e+003, 3.343205e+001
2.072303e+003, 3.343252e+001
2.074232e+003, 3.334496e+001
2.076160e+003, 3.322243e+001
2.078089e+003, 3.308566e+001
2.080017e+003, 3.313622e+001
2.081946e+003, 3.344767e+001
2.083874e+003, 3.311618e+001
2.085802e+003, 3.267985e+001
2.087731e+003, 3.287636e+001
2.089659e+003, 3.274281e+001
2.091588e+003, 3.212056e+001
2.093516e+003, 3.251365e+001
2.095445e+003, 3.292004e+001
2.097373e+003, 3.221331e+001
2.099302e+003, 3.166154e+001
2.101230e+003, 3.163811e+001
2.103159e+003, 3.378308e+001
2.105087e+003, 3.520288e+001
2.107016e+003, 3.321556e+001
2.108944e+003, 3.189990e+001
2.110873e+003, 3.157912e+001
2.112801e+003, 3.127100e+001
2.114729e+003, 3.112284e+001
2.116658e+003, 3.129288e+001
2.118586e+003, 3.109791e+001
2.120515e+003, 3.073361e+001
2.122443e+003, 3.101895e+001
2.124372e+003, 3.108294e+001
2.126300e+003, 3.049057e+001
2.128229e+003, 3.036371e+001
2.130157e+003, 3.051899e+001
2.132086e+003, 3.065597e+001
2.134014e+003, 3.051211e+001
2.135943e+003, 3.000604e+001
2.137871e+003, 2.994412e+001
2.139800e+003, 3.011081e+001
2.141728e+003, 3.033859e+001
2.143656e+003, 3.039924e+001
2.145585e+003, 3.026913e+001
2.147513e+003, 2.978414e+001
2.149442e+003, 2.945719e+001
2.151370e+003, 2.986376e+001
2.153299e+003, 2.974192e+001
2.155227e+003, 2.922013e+001
2.157156e+003, 2.924460e+001
2.159084e+003, 2.935048e+001
2.161013e+003, 2.936088e+001
2.162941e+003, 2.905069e+001
2.164870e+003, 2.868746e+001
2.166798e+003, 2.888804e+001
2.168727e+003, 2.897865e+001
2.170655e+003, 2.877886e+001
2.172583e+003, 2.861591e+001
2.174512e+003, 2.851223e+001
2.176440e+003, 2.852989e+001
2.178369e+003, 2.833777e+001
2.180297e+003, 2.800438e+001
2.182226e+003, 2.824069e+001
2.184154e+003, 2.835768e+001
2.186083e+003, 2.798867e+001
2.188011e+003, 2.793945e+001
2.189940e+003, 2.802170e+001
2.191868e+003, 2.761978e+001
2.193797e+003, 2.743929e+001
2.195725e+003, 2.761604e+001
2.197654e+003, 2.757959e+001
2.199582e+003, 2.742756e+001
2.201510e+003, 2.720202e+001
2.203439e+003, 2.712497e+001
2.205367e+003, 2.715811e+001
2.207296e+003, 2.705465e+001
2.209224e+003, 2.701811e+001
2.211153e+003, 2.718107e+001
2.213081e+003, 2.717694e+001
2.215010e+003, 2.708233e+001
2.216938e+003, 2.704367e+001
2.218867e+003, 2.692176e+001
2.220795e+003, 2.671937e+001
2.222724e+003, 2.681978e+001
2.224652e+003, 2.699149e+001
2.226581e+003, 2.711720e+001
2.228509e+003, 2.710148e+001
2.230438e+003, 2.697798e+001
2.232366e+003, 2.681479e+001
2.234294e+003, 2.660742e+001
2.236223e+003, 2.634802e+001
2.238151e+003, 2.649678e+001
2.240080e+003, 2.662082e+001
2.242008e+003, 2.635033e+001
2.243937e+003, 2.604318e+001
2.245865e+003, 2.579472e+001
2.247794e+003, 2.579681e+001
2.249722e+003, 2.585172e+001
2.251651e+003, 2.589655e+001
2.253579e+003, 2.596774e+001
2.255508e+003, 2.590611e+001
2.257436e+003, 2.550245e+001
2.259365e+003, 2.516634e+001
2.261293e+003, 2.500218e+001
2.263221e+003, 2.535096e+001
2.265150e+003, 2.535553e+001
2.267078e+003, 2.477232e+001
2.269007e+003, 2.490801e+001
2.270935e+003, 2.518977e+001
2.272864e+003, 2.489661e+001
2.274792e+003, 2.476925e+001
2.276721e+003, 2.473413e+001
2.278649e+003, 2.417089e+001
2.280578e+003, 2.398374e+001
2.282506e+003, 2.441974e+001
2.284435e+003, 2.425768e+001
2.286363e+003, 2.395913e+001
2.288292e+003, 2.409338e+001
2.290220e+003, 2.389068e+001
2.292148e+003, 2.349796e+001
2.294077e+003, 2.344033e+001
2.296005e+003, 2.335519e+001
2.297934e+003, 2.314407e+001
2.299862e+003, 2.323485e+001
2.301791e+003, 2.325196e+001
2.303719e+003, 2.274241e+001
2.305648e+003, 2.285587e+001
2.307576e+003, 2.312834e+001
2.309505e+003, 2.246813e+001
2.311433e+003, 2.209458e+001
2.313362e+003, 2.223066e+001
2.315290e+003, 2.258531e+001
2.317219e+003, 2.278367e+001
2.319147e+003, 2.260892e+001
2.321075e+003, 2.250910e+001
2.323004e+003, 2.251040e+001
2.324932e+003, 2.271765e+001
2.326861e+003, 2.237946e+001
2.328789e+003, 2.167435e+001
2.330718e+003, 2.160428e+001
2.332646e+003, 2.153214e+001
2.334575e+003, 2.127129e+001
2.336503e+003, 2.094774e+001
2.338432e+003, 2.077070e+001
2.340360e+003, 2.091290e+001
2.342289e+003, 2.073303e+001
2.344217e+003, 2.049893e+001
2.346146e+003, 2.092655e+001
2.348074e+003, 2.096352e+001
2.350002e+003, 2.057749e+001
2.351931e+003, 2.021870e+001
2.353859e+003, 2.014888e+001
2.355788e+003, 2.042544e+001
2.357716e+003, 2.039125e+001
2.359645e+003, 2.021859e+001
2.361573e+003, 2.005646e+001
2.363502e+003, 1.971152e+001
2.365430e+003, 1.945029e+001
2.367359e+003, 1.989547e+001
2.369287e+003, 1.996679e+001
2.371216e+003, 1.966143e+001
2.373144e+003, 1.969668e+001
2.375073e+003, 1.980755e+001
2.377001e+003, 1.990819e+001
2.378929e+003, 1.973615e+001
2.380858e+003, 1.954436e+001
2.382786e+003, 1.948655e+001
2.384715e+003, 1.979574e+001
2.386643e+003, 2.006494e+001
2.388572e+003, 1.968558e+001
2.390500e+003, 1.941293e+001
2.392429e+003, 1.933746e+001
2.394357e+003, 1.951213e+001
2.396286e+003, 1.949711e+001
2.398214e+003, 1.921785e+001
2.400143e+003, 1.926007e+001
2.402071e+003, 1.926619e+001
2.404000e+003, 1.906991e+001
2.405928e+003, 1.914544e+001
2.407856e+003, 1.920941e+001
2.409785e+003, 1.898297e+001
2.411713e+003, 1.882095e+001
2.413642e+003, 1.873706e+001
2.415570e+003, 1.874345e+001
2.417499e+003, 1.866625e+001
2.419427e+003, 1.850255e+001
2.421356e+003, 1.824276e+001
2.423284e+003, 1.823876e+001
2.425213e+003, 1.848412e+001
2.427141e+003, 1.840453e+001
2.429070e+003, 1.821341e+001
2.430998e+003, 1.801357e+001
2.432927e+003, 1.783877e+001
2.434855e+003, 1.786757e+001
2.436783e+003, 1.842254e+001
2.438712e+003, 1.853444e+001
2.440640e+003, 1.832901e+001
2.442569e+003, 1.787628e+001
2.444497e+003, 1.777429e+001
2.446426e+003, 1.788250e+001
2.448354e+003, 1.783508e+001
2.450283e+003, 1.756259e+001
2.452211e+003, 1.720756e+001
2.454140e+003, 1.754611e+001
2.456068e+003, 1.776476e+001
2.457997e+003, 1.763470e+001
2.459925e+003, 1.742071e+001
2.461854e+003, 1.728223e+001
2.463782e+003, 1.730377e+001
2.465710e+003, 1.725955e+001
2.467639e+003, 1.714295e+001
2.469567e+003, 1.694723e+001
2.471496e+003, 1.684877e+001
2.473424e+003, 1.685263e+001
2.475353e+003, 1.699585e+001
2.477281e+003, 1.673824e+001
2.479210e+003, 1.636231e+001
2.481138e+003, 1.638844e+001
2.483067e+003, 1.630116e+001
2.484995e+003, 1.619827e+001
2.486924e+003, 1.658278e+001
2.488852e+003, 1.676131e+001
2.490781e+003, 1.665241e+001
2.492709e+003, 1.639741e+001
2.494637e+003, 1.614455e+001
2.496566e+003, 1.595229e+001
2.498494e+003, 1.595545e+001
2.500423e+003, 1.585777e+001
2.502351e+003, 1.561463e+001
2.504280e+003, 1.581120e+001
2.506208e+003, 1.595382e+001
2.508137e+003, 1.580566e+001
2.510065e+003, 1.584863e+001
2.511994e+003, 1.594175e+001
2.513922e+003, 1.603894e+001
2.515851e+003, 1.562091e+001
2.517779e+003, 1.531180e+001
2.519708e+003, 1.586684e+001
2.521636e+003, 1.556386e+001
2.523564e+003, 1.512813e+001
2.525493e+003, 1.537565e+001
2.527421e+003, 1.542505e+001
2.529350e+003, 1.533363e+001
2.531278e+003, 1.524029e+001
2.533207e+003, 1.520276e+001
2.535135e+003, 1.517470e+001
2.537064e+003, 1.502460e+001
2.538992e+003, 1.535205e+001
2.540921e+003, 1.574280e+001
2.542849e+003, 1.517963e+001
2.544778e+003, 1.475338e+001
2.546706e+003, 1.459344e+001
2.548635e+003, 1.458550e+001
2.550563e+003, 1.498565e+001
2.552491e+003, 1.548928e+001
2.554420e+003, 1.500449e+001
2.556348e+003, 1.455931e+001
2.558277e+003, 1.437215e+001
2.560205e+003, 1.450209e+001
2.562134e+003, 1.460946e+001
2.564062e+003, 1.463881e+001
2.565991e+003, 1.467579e+001
2.567919e+003, 1.473478e+001
2.569848e+003, 1.475750e+001
2.571776e+003, 1.441959e+001
2.573705e+003, 1.436053e+001
2.575633e+003, 1.457051e+001
2.577562e+003, 1.422077e+001
2.579490e+003, 1.406141e+001
2.581418e+003, 1.418594e+001
2.583347e+003, 1.392112e+001
2.585275e+003, 1.365229e+001
2.587204e+003, 1.350095e+001
2.589132e+003, 1.357971e+001
2.591061e+003, 1.357526e+001
2.592989e+003, 1.343568e+001
2.594918e+003, 1.360713e+001
2.596846e+003, 1.353461e+001
2.598775e+003, 1.315098e+001
2.600703e+003, 1.334002e+001
2.602632e+003, 1.335888e+001
2.604560e+003, 1.307545e+001
2.606489e+003, 1.326540e+001
2.608417e+003, 1.329989e+001
2.610345e+003, 1.305028e+001
2.612274e+003, 1.295264e+001
2.614202e+003, 1.270260e+001
2.616131e+003, 1.233157e+001
2.618059e+003, 1.249639e+001
2.619988e+003, 1.261298e+001
2.621916e+003, 1.254304e+001
2.623845e+003, 1.240056e+001
2.625773e+003, 1.228274e+001
2.627702e+003, 1.224056e+001
2.629630e+003, 1.245032e+001
2.631559e+003, 1.236162e+001
2.633487e+003, 1.202210e+001
2.635416e+003, 1.195146e+001
2.637344e+003, 1.186158e+001
2.639272e+003, 1.173761e+001
2.641201e+003, 1.167670e+001
2.643129e+003, 1.173791e+001
2.645058e+003, 1.182444e+001
2.646986e+003, 1.167067e+001
2.648915e+003, 1.162567e+001
2.650843e+003, 1.168727e+001
2.652772e+003, 1.182716e+001
2.654700e+003, 1.168905e+001
2.656629e+003, 1.140543e+001
2.658557e+003, 1.120240e+001
2.660486e+003, 1.116902e+001
2.662414e+003, 1.117734e+001
2.664343e+003, 1.103666e+001
2.666271e+003, 1.128359e+001
2.668199e+003, 1.146496e+001
2.670128e+003, 1.111256e+001
2.672056e+003, 1.073156e+001
2.673985e+003, 1.053675e+001
2.675913e+003, 1.063858e+001
2.677842e+003, 1.078305e+001
2.679770e+003, 1.075288e+001
2.681699e+003, 1.047917e+001
2.683627e+003, 1.071124e+001
2.685556e+003, 1.083979e+001
2.687484e+003, 1.062183e+001
2.689413e+003, 1.048511e+001
2.691341e+003, 1.046720e+001
2.693270e+003, 1.051564e+001
2.695198e+003, 1.033185e+001
2.697126e+003, 1.016491e+001
2.699055e+003, 1.005652e+001
2.700983e+003, 9.907734e+000
2.702912e+003, 9.657193e+000
2.704840e+003, 9.471617e+000
2.706769e+003, 9.829182e+000
2.708697e+003, 1.005820e+001
2.710626e+003, 1.004860e+001
2.712554e+003, 9.717213e+000
2.714483e+003, 9.551825e+000
2.716411e+003, 9.482078e+000
2.718340e+003, 9.376058e+000
2.720268e+003, 9.306110e+000
2.722197e+003, 9.248448e+000
2.724125e+003, 9.188902e+000
2.726053e+003, 9.003180e+000
2.727982e+003, 8.939773e+000
2.729910e+003, 9.126235e+000
2.731839e+003, 9.166215e+000
2.733767e+003, 9.284128e+000
2.735696e+003, 9.476058e+000
2.737624e+003, 9.187298e+000
2.739553e+003, 8.931857e+000
2.741481e+003, 8.786971e+000
2.743410e+003, 8.617908e+000
2.745338e+003, 8.533720e+000
2.747267e+003, 8.551901e+000
2.749195e+003, 8.720303e+000
2.751124e+003, 8.594134e+000
2.753052e+003, 8.404338e+000
2.754980e+003, 8.382587e+000
2.756909e+003, 8.756535e+000
2.758837e+003, 9.014227e+000
2.760766e+003, 8.884827e+000
2.762694e+003, 8.416591e+000
2.764623e+003, 8.073578e+000
2.766551e+003, 7.985077e+000
2.768480e+003, 8.143926e+000
2.770408e+003, 8.070527e+000
2.772337e+003, 7.816557e+000
2.774265e+003, 7.674267e+000
2.776194e+003, 7.699757e+000
2.778122e+003, 7.794707e+000
2.780051e+003, 7.832833e+000
2.781979e+003, 7.932103e+000
2.783907e+003, 7.876880e+000
2.785836e+003, 7.453561e+000
2.787764e+003, 7.770853e+000
2.789693e+003, 7.791690e+000
2.791621e+003, 7.256444e+000
2.793550e+003, 7.514528e+000
2.795478e+003, 7.539445e+000
2.797407e+003, 7.307211e+000
2.799335e+003, 7.269557e+000
2.801264e+003, 7.370418e+000
2.803192e+003, 7.422232e+000
2.805121e+003, 7.239321e+000
2.807049e+003, 7.166713e+000
2.808978e+003, 7.193603e+000
2.810906e+003, 7.271590e+000
2.812834e+003, 7.179517e+000
2.814763e+003, 7.219163e+000
2.816691e+003, 7.347741e+000
2.818620e+003, 6.957017e+000
2.820548e+003, 7.002068e+000
2.822477e+003, 7.218626e+000
2.824405e+003, 6.782078e+000
2.826334e+003, 7.062892e+000
2.828262e+003, 7.242420e+000
2.830191e+003, 6.656127e+000
2.832119e+003, 6.370541e+000
2.834048e+003, 6.314529e+000
2.835976e+003, 6.384532e+000
2.837905e+003, 6.331471e+000
2.839833e+003, 6.203310e+000
2.841761e+003, 6.074491e+000
2.843690e+003, 6.021526e+000
2.845618e+003, 6.183717e+000
2.847547e+003, 6.276621e+000
2.849475e+003, 6.039691e+000
2.851404e+003, 6.267847e+000
2.853332e+003, 6.167352e+000
2.855261e+003, 5.653527e+000
2.857189e+003, 5.736146e+000
2.859118e+003, 5.722032e+000
2.861046e+003, 5.672060e+000
2.862975e+003, 5.847896e+000
2.864903e+003, 5.939787e+000
2.866832e+003, 5.962073e+000
2.868760e+003, 5.930246e+000
2.870688e+003, 5.575428e+000
2.872617e+003, 5.594814e+000
2.874545e+003, 5.917014e+000
2.876474e+003, 5.692002e+000
2.878402e+003, 5.609075e+000
2.880331e+003, 5.585886e+000
2.882259e+003, 5.447059e+000
2.884188e+003, 5.660991e+000
2.886116e+003, 5.740957e+000
2.888045e+003, 5.533577e+000
2.889973e+003, 5.288847e+000
2.891902e+003, 4.979328e+000
2.893830e+003, 4.840251e+000
2.895759e+003, 5.336543e+000
2.897687e+003, 5.693312e+000
2.899615e+003, 5.645563e+000
2.901544e+003, 5.082139e+000
2.903472e+003, 5.016591e+000
2.905401e+003, 5.018374e+000
2.907329e+003, 4.994475e+000
2.909258e+003, 4.986112e+000
2.911186e+003, 5.090714e+000
2.913115e+003, 5.068784e+000
2.915043e+003, 4.750676e+000
2.916972e+003, 5.047377e+000
2.918900e+003, 5.188108e+000
2.920829e+003, 5.040405e+000
2.922757e+003, 4.941767e+000
2.924686e+003, 4.961051e+000
2.926614e+003, 4.853655e+000
2.928542e+003, 4.449296e+000
2.930471e+003, 4.286903e+000
2.932399e+003, 4.277495e+000
2.934328e+003, 4.375175e+000
2.936256e+003, 4.667686e+000
2.938185e+003, 4.582684e+000
2.940113e+003, 4.485397e+000
2.942042e+003, 4.749962e+000
2.943970e+003, 4.606528e+000
2.945899e+003, 4.490789e+000
2.947827e+003, 4.495438e+000
2.949756e+003, 4.418410e+000
2.951684e+003, 4.456191e+000
2.953613e+003, 4.469152e+000
2.955541e+003, 4.296488e+000
2.957469e+003, 4.407197e+000
2.959398e+003, 4.444016e+000
2.961326e+003, 4.342206e+000
2.963255e+003, 4.166282e+000
2.965183e+003, 4.392205e+000
2.967112e+003, 4.562348e+000
2.969040e+003, 4.300451e+000
2.970969e+003, 4.466189e+000
2.972897e+003, 4.353200e+000
2.974826e+003, 4.000792e+000
2.976754e+003, 3.808430e+000
2.978683e+003, 4.003770e+000
2.980611e+003, 4.133481e+000
2.982540e+003, 3.988069e+000
2.984468e+003, 4.076704e+000
2.986396e+003, 3.924553e+000
2.988325e+003, 3.758443e+000
2.990253e+003, 3.997867e+000
2.992182e+003, 3.599127e+000
2.994110e+003, 3.332778e+000
2.996039e+003, 3.449075e+000
2.997967e+003, 3.706968e+000
2.999896e+003, 3.508392e+000
3.001824e+003, 3.348791e+000
3.003753e+003, 3.671793e+000
3.005681e+003, 3.304303e+000
3.007610e+003, 3.442584e+000
3.009538e+003, 3.870503e+000
3.011467e+003, 3.471977e+000
3.013395e+003, 3.514169e+000
3.015323e+003, 3.594201e+000
3.017252e+003, 3.509542e+000
3.019180e+003, 3.721605e+000
3.021109e+003, 3.716503e+000
3.023037e+003, 3.553346e+000
3.024966e+003, 3.377493e+000
3.026894e+003, 3.276316e+000
3.028823e+003, 3.435341e+000
3.030751e+003, 3.696550e+000
3.032680e+003, 3.626304e+000
3.034608e+003, 3.746458e+000
3.036537e+003, 3.791163e+000
3.038465e+003, 3.596223e+000
3.040394e+003, 3.119613e+000
3.042322e+003, 2.980801e+000
3.044250e+003, 2.998566e+000
3.046179e+003, 2.947839e+000
3.048107e+003, 3.191538e+000
3.050036e+003, 3.164112e+000
3.051964e+003, 2.912178e+000
3.053893e+003, 2.768539e+000
3.055821e+003, 2.776076e+000
3.057750e+003, 2.903898e+000
3.059678e+003, 3.058033e+000
3.061607e+003, 3.010210e+000
3.063535e+003, 2.978165e+000
3.065464e+003, 2.887124e+000
3.067392e+003, 2.725160e+000
3.069321e+003, 3.063962e+000
3.071249e+003, 3.155813e+000
3.073177e+003, 2.943339e+000
3.075106e+003, 2.412045e+000
3.077034e+003, 3.551915e+000
3.078963e+003, 3.756265e+000
3.080891e+003, 3.097995e+000
3.082820e+003, 2.844043e+000
3.084748e+003, 2.950958e+000
3.086677e+003, 2.982765e+000
3.088605e+003, 2.869679e+000
3.090534e+003, 2.927895e+000
3.092462e+003, 2.661207e+000
3.094391e+003, 2.546736e+000
3.096319e+003, 2.737819e+000
3.098248e+003, 2.518347e+000
3.100176e+003, 2.577779e+000
3.102104e+003, 2.682155e+000
3.104033e+003, 2.606297e+000
3.105961e+003, 2.341145e+000
3.107890e+003, 2.528079e+000
3.109818e+003, 2.744813e+000
3.111747e+003, 2.496588e+000
3.113675e+003, 2.560982e+000
3.115604e+003, 2.450657e+000
3.117532e+003, 2.239600e+000
3.119461e+003, 2.180730e+000
3.121389e+003, 2.482311e+000
3.123318e+003, 2.695335e+000
3.125246e+003, 2.748336e+000
3.127175e+003, 2.724348e+000
3.129103e+003, 2.819471e+000
3.131031e+003, 2.971549e+000
3.132960e+003, 2.990367e+000
3.134888e+003, 2.517632e+000
3.136817e+003, 2.265197e+000
3.138745e+003, 2.335026e+000
3.140674e+003, 2.485923e+000
3.142602e+003, 2.045513e+000
3.144531e+003, 2.193218e+000
3.146459e+003, 2.392274e+000
3.148388e+003, 2.384293e+000
3.150316e+003, 2.397673e+000
3.152245e+003, 2.553465e+000
3.154173e+003, 2.469695e+000
3.156102e+003, 2.135725e+000
3.158030e+003, 2.218449e+000
3.159958e+003, 2.303337e+000
3.161887e+003, 2.281593e+000
3.163815e+003, 2.126444e+000
3.165744e+003, 1.780366e+000
3.167672e+003, 1.831334e+000
3.169601e+003, 1.980238e+000
3.171529e+003, 2.026941e+000
3.173458e+003, 2.026783e+000
3.175386e+003, 2.128972e+000
3.177315e+003, 2.194999e+000
3.179243e+003, 2.180043e+000
3.181172e+003, 2.338650e+000
3.183100e+003, 2.178543e+000
3.185029e+003, 2.158934e+000
3.186957e+003, 2.395008e+000
3.188885e+003, 2.126424e+000
3.190814e+003, 2.158714e+000
3.192742e+003, 2.097638e+000
3.194671e+003, 1.842764e+000
3.196599e+003, 1.961247e+000
3.198528e+003, 2.267117e+000
3.200456e+003, 2.217156e+000
3.202385e+003, 1.846931e+000
3.204313e+003, 1.990075e+000
3.206242e+003, 1.643567e+000
3.208170e+003, 1.569918e+000
3.210099e+003, 1.913600e+000
3.212027e+003, 2.177812e+000
3.213956e+003, 1.993809e+000
3.215884e+003, 1.824487e+000
3.217813e+003, 1.837496e+000
3.219741e+003, 2.017748e+000
3.221669e+003, 2.033456e+000
3.223598e+003, 1.910954e+000
3.225526e+003, 1.767904e+000
3.227455e+003, 1.761278e+000
3.229383e+003, 1.760099e+000
3.231312e+003, 1.419217e+000
3.233240e+003, 1.177668e+000
3.235169e+003, 1.626078e+000
3.237097e+003, 1.917244e+000
3.239026e+003, 1.898123e+000
3.240954e+003, 1.813173e+000
3.242883e+003, 1.873933e+000
3.244811e+003, 1.866751e+000
3.246740e+003, 1.938612e+000
3.248668e+003, 1.891073e+000
3.250596e+003, 1.690972e+000
3.252525e+003, 1.808447e+000
3.254453e+003, 2.028702e+000
3.256382e+003, 1.755291e+000
3.258310e+003, 1.261468e+000
3.260239e+003, 1.911031e+000
3.262167e+003, 1.920679e+000
3.264096e+003, 1.708734e+000
3.266024e+003, 1.573222e+000
3.267953e+003, 1.634640e+000
3.269881e+003, 1.664352e+000
3.271810e+003, 1.630332e+000
3.273738e+003, 1.680742e+000
3.275667e+003, 1.926213e+000
3.277595e+003, 1.849327e+000
3.279523e+003, 1.739557e+000
3.281452e+003, 1.654176e+000
3.283380e+003, 1.593685e+000
3.285309e+003, 1.556173e+000
3.287237e+003, 1.553019e+000
3.289166e+003, 1.479338e+000
3.291094e+003, 1.394513e+000
3.293023e+003, 1.507390e+000
3.294951e+003, 1.797191e+000
3.296880e+003, 1.829200e+000
3.298808e+003, 1.646327e+000
3.300737e+003, 1.448477e+000
3.302665e+003, 1.190062e+000
3.304594e+003, 1.165682e+000
3.306522e+003, 1.263189e+000
3.308450e+003, 1.353036e+000
3.310379e+003, 1.369363e+000
3.312307e+003, 1.455076e+000
3.314236e+003, 1.404485e+000
3.316164e+003, 1.286985e+000
3.318093e+003, 1.352285e+000
3.320021e+003, 1.479548e+000
3.321950e+003, 1.557343e+000
3.323878e+003, 1.567903e+000
3.325807e+003, 1.537392e+000
3.327735e+003, 1.538300e+000
3.329664e+003, 1.745793e+000
3.331592e+003, 1.733474e+000
3.333521e+003, 1.392517e+000
3.335449e+003, 9.225393e-001
3.337377e+003, 8.251858e-001
3.339306e+003, 2.527580e+000
3.341234e+003, 3.481950e+000
3.343163e+003, 1.466443e+000
3.345091e+003, 1.605563e+000
3.347020e+003, 1.617121e+000
3.348948e+003, 1.414685e+000
3.350877e+003, 1.266655e+000
3.352805e+003, 1.425927e+000
3.354734e+003, 1.472388e+000
3.356662e+003, 1.534401e+000
3.358591e+003, 1.596941e+000
3.360519e+003, 1.587021e+000
3.362448e+003, 1.448581e+000
3.364376e+003, 1.165396e+000
3.366304e+003, 9.914897e-001
3.368233e+003, 1.064193e+000
3.370161e+003, 1.440193e+000
3.372090e+003, 1.032483e+000
3.374018e+003, 1.042962e+000
3.375947e+003, 1.224918e+000
3.377875e+003, 1.245996e+000
3.379804e+003, 1.687094e+000
3.381732e+003, 1.654763e+000
3.383661e+003, 1.686503e+000
3.385589e+003, 1.745675e+000
3.387518e+003, 1.486418e+000
3.389446e+003, 1.621667e+000
3.391375e+003, 1.533379e+000
3.393303e+003, 1.597961e+000
3.395231e+003, 1.758501e+000
3.397160e+003, 1.312882e+000
3.399088e+003, 1.261762e+000
3.401017e+003, 1.495158e+000
3.402945e+003, 1.631628e+000
3.404874e+003, 1.519729e+000
3.406802e+003, 1.628534e+000
3.408731e+003, 1.586669e+000
3.410659e+003, 1.434446e+000
3.412588e+003, 1.423277e+000
3.414516e+003, 1.731313e+000
3.416445e+003, 1.950053e+000
3.418373e+003, 1.477636e+000
3.420302e+003, 1.303194e+000
3.422230e+003, 1.582222e+000
3.424158e+003, 1.721407e+000
3.426087e+003, 1.830569e+000
3.428015e+003, 1.608950e+000
3.429944e+003, 1.589535e+000
3.431872e+003, 1.928973e+000
3.433801e+003, 2.132933e+000
3.435729e+003, 1.672690e+000
3.437658e+003, 1.583009e+000
3.439586e+003, 1.614697e+000
3.441515e+003, 1.640288e+000
3.443443e+003, 2.370572e+000
3.445372e+003, 1.993444e+000
3.447300e+003, 1.902960e+000
3.449229e+003, 1.909594e+000
3.451157e+003, 1.621990e+000
3.453085e+003, 1.755427e+000
3.455014e+003, 1.429096e+000
3.456942e+003, 1.263163e+000
##END=



