##NAMES=Phosphoferrite
##RRUFFID=R090065
##IDEAL CHEMISTRY=Fe^2+^_3_(PO_4_)_2_·3H_2_O
##LOCALITY=Germany
##OWNER=RRUFF
##SOURCE=Royal Ontario Museum 
##DESCRIPTION=Dark brown pseudo-octahedral crystals on matrix
##STATUS=The identification of this mineral is confirmed by single-crystal X-ray diffraction and chemical analysis
##URL=https://www.rruff.net/odr/rruff_sample/R090065
##MEASURED CHEMISTRY=(Fe^+2^_2.376_Mn^+2^_0.758_Ca_0.03_)(P_0.967_O_4_)_2_·3H_2_O
##DIFFRACTION SAMPLE DESCRIPTION=Single crystal, powder profile is calculated
##CELL PARAMETERS=a: 9.4677 b: 10.0872 c: 8.6688 alpha: 90 beta: 90 gamma: 90 volume: 827.9 crystal system: orthorhombic
##FILETYPE=Raman RAW
##RAMAN WAVELENGTH=780

82.56664, 453.3824
84.49510, 489.8428
86.42357, 523.7820
88.35204, 553.6027
90.28050, 575.7574
92.20897, 557.2156
94.13744, 532.4512
96.06590, 511.4039
97.99437, 494.6519
99.92284, 479.8696
101.8513, 466.1205
103.7798, 453.5091
105.7082, 441.9952
107.6367, 431.0014
109.5652, 421.5036
111.4936, 412.9157
113.4221, 405.1457
115.3506, 397.1164
117.2790, 389.7659
119.2075, 384.9077
121.1360, 382.9539
123.0644, 381.6486
124.9929, 381.0076
126.9214, 380.4378
128.8498, 379.5391
130.7783, 378.4688
132.7068, 377.5302
134.6352, 376.7064
136.5637, 375.9927
138.4922, 376.2173
140.4206, 375.5151
142.3491, 372.0816
144.2776, 367.7357
146.2060, 365.0383
148.1345, 364.5367
150.0630, 363.8106
151.9914, 362.0896
153.9199, 361.2039
155.8484, 362.4181
157.7768, 364.4138
159.7053, 366.2312
161.6338, 368.1605
163.5622, 367.5836
165.4907, 362.9849
167.4192, 359.0180
169.3476, 357.5415
171.2761, 356.9474
173.2046, 355.6638
175.1330, 353.6917
177.0615, 353.1538
178.9900, 354.7409
180.9184, 355.7138
182.8469, 355.0495
184.7754, 353.9981
186.7038, 353.2368
188.6323, 352.7936
190.5608, 352.9542
192.4892, 354.1374
194.4177, 353.8922
196.3462, 350.5827
198.2746, 347.7654
200.2031, 347.4183
202.1316, 348.4738
204.0600, 349.0038
205.9885, 348.9193
207.9170, 349.0332
209.8454, 349.9064
211.7739, 349.7942
213.7024, 346.7420
215.6308, 343.4432
217.5593, 342.8004
219.4878, 344.6031
221.4162, 345.4005
223.3447, 344.9904
225.2732, 344.3880
227.2016, 343.9492
229.1301, 343.3480
231.0586, 342.0428
232.9870, 340.5393
234.9155, 340.3884
236.8440, 341.5654
238.7724, 341.5672
240.7009, 339.2321
242.6294, 337.0500
244.5578, 335.4930
246.4863, 334.7045
248.4148, 335.2202
250.3432, 336.8472
252.2717, 338.4379
254.2002, 340.0726
256.1286, 341.1725
258.0571, 341.4972
259.9856, 341.3664
261.9140, 341.2057
263.8425, 340.6334
265.7710, 338.3195
267.6994, 334.4133
269.6279, 332.2340
271.5564, 333.5786
273.4848, 334.4258
275.4133, 333.7242
277.3418, 332.2560
279.2702, 330.3984
281.1987, 328.3481
283.1272, 326.6113
285.0556, 325.2967
286.9841, 323.8752
288.9126, 323.0565
290.8410, 321.0844
292.7695, 316.2113
294.6980, 310.8450
296.6264, 307.8506
298.5549, 306.6212
300.4834, 304.9195
302.4118, 302.3906
304.3403, 299.8534
306.2688, 296.9982
308.1972, 294.5928
310.1257, 293.2691
312.0542, 292.3653
313.9826, 291.2923
315.9111, 289.9952
317.8396, 288.0720
319.7680, 284.8455
321.6965, 282.1841
323.6250, 280.1082
325.5534, 278.5929
327.4819, 278.2719
329.4104, 278.2339
331.3388, 277.1813
333.2673, 275.0412
335.1958, 273.7596
337.1242, 274.0749
339.0527, 274.1027
340.9812, 273.8477
342.9096, 273.1562
344.8381, 271.7188
346.7666, 269.8789
348.6950, 267.6823
350.6235, 265.0656
352.5520, 264.1176
354.4804, 265.7734
356.4089, 267.0751
358.3374, 267.5780
360.2658, 267.8137
362.1943, 268.1407
364.1228, 268.3728
366.0512, 268.1670
367.9797, 267.5101
369.9082, 266.7908
371.8366, 265.8580
373.7651, 265.3726
375.6936, 265.4250
377.6220, 265.9064
379.5505, 267.2100
381.4790, 268.5401
383.4074, 269.1686
385.3359, 269.2062
387.2644, 269.3204
389.1928, 269.5903
391.1213, 270.0734
393.0498, 270.9887
394.9782, 271.5015
396.9067, 271.2505
398.8352, 270.5007
400.7636, 268.8072
402.6921, 266.9692
404.6206, 267.1121
406.5490, 269.2982
408.4775, 269.9413
410.4060, 268.6520
412.3344, 267.0694
414.2629, 265.2166
416.1914, 263.7787
418.1198, 263.6154
420.0483, 263.6258
421.9768, 262.0591
423.9052, 259.4152
425.8337, 258.1867
427.7622, 258.3820
429.6906, 259.2840
431.6191, 261.7078
433.5476, 262.6651
435.4760, 260.0732
437.4045, 257.2028
439.3330, 255.7550
441.2614, 255.2917
443.1899, 255.3355
445.1184, 255.8529
447.0468, 256.6701
448.9753, 257.8963
450.9038, 258.4346
452.8322, 257.6788
454.7607, 256.8165
456.6892, 256.0651
458.6176, 255.4961
460.5461, 255.1355
462.4746, 254.8909
464.4030, 254.7154
466.3315, 254.5219
468.2600, 253.8235
470.1884, 252.1358
472.1169, 251.6783
474.0454, 254.2966
475.9738, 255.8373
477.9023, 254.4241
479.8308, 252.4269
481.7592, 251.1722
483.6877, 250.5998
485.6162, 250.9763
487.5446, 252.1586
489.4731, 252.7186
491.4016, 252.2826
493.3300, 252.0451
495.2585, 251.7192
497.1870, 252.1882
499.1154, 254.5321
501.0439, 256.7911
502.9724, 257.2885
504.9008, 257.2723
506.8293, 258.3194
508.7578, 260.1887
510.6862, 261.2683
512.6147, 260.8736
514.5432, 261.6490
516.4716, 264.3327
518.4001, 266.8383
520.3286, 269.0731
522.2570, 270.7332
524.1855, 271.1613
526.1140, 271.3966
528.0424, 272.4695
529.9709, 273.9807
531.8994, 275.1738
533.8278, 276.2105
535.7563, 276.4138
537.6848, 275.2051
539.6132, 274.5199
541.5417, 274.8101
543.4702, 275.3710
545.3986, 275.8743
547.3271, 276.4164
549.2556, 277.2724
551.1840, 278.3163
553.1125, 279.1316
555.0410, 279.7720
556.9694, 280.7776
558.8979, 282.2983
560.8264, 282.8367
562.7548, 281.9973
564.6833, 281.6990
566.6118, 282.9156
568.5402, 283.5609
570.4687, 281.8721
572.3972, 280.2133
574.3256, 280.4898
576.2541, 281.2634
578.1826, 280.6241
580.1110, 278.7733
582.0395, 276.4805
583.9680, 273.7521
585.8964, 270.7032
587.8249, 267.3429
589.7534, 263.6623
591.6818, 259.3532
593.6103, 255.3498
595.5388, 252.5242
597.4672, 249.4599
599.3957, 245.1208
601.3242, 240.3961
603.2526, 236.1948
605.1811, 232.4470
607.1096, 228.7829
609.0380, 225.2368
610.9665, 222.2881
612.8950, 219.9729
614.8234, 217.5735
616.7519, 214.9198
618.6804, 212.4461
620.6088, 210.1537
622.5373, 208.1463
624.4658, 206.6247
626.3942, 205.2632
628.3227, 203.8961
630.2512, 202.5054
632.1796, 200.9699
634.1081, 199.4940
636.0366, 198.5373
637.9650, 197.9633
639.8935, 196.9323
641.8220, 195.2814
643.7504, 193.8865
645.6789, 192.4485
647.6074, 192.0799
649.5358, 194.3163
651.4643, 195.4929
653.3928, 193.4498
655.3212, 191.2452
657.2497, 190.9631
659.1782, 191.3605
661.1066, 191.1102
663.0351, 190.5530
664.9636, 190.2976
666.8920, 190.3747
668.8205, 190.7382
670.7490, 191.4010
672.6774, 191.9577
674.6059, 192.6417
676.5344, 192.8698
678.4628, 192.4808
680.3913, 191.7903
682.3198, 190.4650
684.2482, 189.4358
686.1767, 189.2651
688.1052, 189.4434
690.0336, 189.6929
691.9621, 189.9492
693.8906, 190.1593
695.8190, 190.2861
697.7475, 190.4857
699.6760, 190.1786
701.6044, 190.3427
703.5329, 189.2493
705.4614, 188.2710
707.3898, 187.3177
709.3183, 186.5204
711.2468, 185.7881
713.1752, 185.7053
715.1037, 186.8721
717.0322, 187.5845
718.9606, 186.7955
720.8891, 185.9640
722.8176, 185.6199
724.7460, 185.7944
726.6745, 187.0183
728.6030, 188.4170
730.5314, 188.6571
732.4599, 188.1727
734.3884, 188.0517
736.3168, 188.2708
738.2453, 188.5444
740.1738, 188.8155
742.1022, 188.5558
744.0307, 187.7017
745.9592, 187.4295
747.8876, 188.1319
749.8161, 188.1411
751.7446, 186.6856
753.6730, 185.4311
755.6015, 185.0066
757.5300, 184.8003
759.4584, 184.8121
761.3869, 184.6845
763.3154, 183.9841
765.2438, 183.2845
767.1723, 182.9946
769.1008, 183.0740
771.0292, 183.8942
772.9577, 184.9212
774.8862, 184.7216
776.8146, 183.7193
778.7431, 183.2003
780.6716, 183.1456
782.6000, 183.4902
784.5285, 184.2866
786.4570, 184.3236
788.3854, 183.1864
790.3139, 182.6390
792.2424, 183.1826
794.1708, 183.7246
796.0993, 184.1769
798.0278, 184.5547
799.9562, 184.7724
801.8847, 184.9617
803.8132, 185.3412
805.7416, 185.4929
807.6701, 184.9322
809.5986, 184.3457
811.5270, 184.3674
813.4555, 184.5634
815.3840, 184.3520
817.3124, 184.1202
819.2409, 184.7118
821.1694, 185.5321
823.0978, 184.9990
825.0263, 183.5233
826.9548, 183.1326
828.8832, 183.7945
830.8117, 183.9135
832.7402, 183.3483
834.6686, 183.2042
836.5971, 183.8920
838.5256, 183.8644
840.4540, 182.7298
842.3825, 181.7080
844.3110, 180.8275
846.2394, 180.2890
848.1679, 180.0715
850.0964, 180.2614
852.0248, 181.1949
853.9533, 181.8748
855.8818, 182.0062
857.8102, 181.6749
859.7387, 180.4705
861.6672, 179.5237
863.5956, 179.7769
865.5241, 180.1594
867.4526, 179.8679
869.3810, 180.1319
871.3095, 179.7303
873.2380, 180.0685
875.1664, 180.0136
877.0949, 179.6547
879.0234, 178.9219
880.9518, 178.1532
882.8803, 178.1642
884.8088, 178.6130
886.7372, 178.5108
888.6657, 178.0236
890.5942, 177.8185
892.5226, 177.8735
894.4511, 178.0803
896.3796, 178.4337
898.3080, 178.6613
900.2365, 178.7944
902.1650, 180.0727
904.0934, 182.6117
906.0219, 184.5522
907.9504, 185.6105
909.8788, 186.8211
911.8073, 188.1967
913.7358, 190.6895
915.6642, 193.5202
917.5927, 198.5778
919.5212, 201.0827
921.4496, 204.9001
923.3781, 209.9848
925.3066, 217.5323
927.2350, 228.4107
929.1635, 240.6786
931.0920, 253.5826
933.0204, 268.4451
934.9489, 286.1858
936.8774, 305.0518
938.8058, 326.2086
940.7343, 345.7223
942.6628, 362.6443
944.5912, 376.1602
946.5197, 385.1255
948.4482, 391.4833
950.3766, 395.8016
952.3051, 398.7643
954.2336, 401.2563
956.1620, 402.0872
958.0905, 400.8524
960.0190, 396.9296
961.9474, 389.5287
963.8759, 379.3099
965.8044, 366.4879
967.7328, 351.6406
969.6613, 333.7745
971.5898, 315.8667
973.5182, 301.3610
975.4467, 286.6508
977.3752, 275.1371
979.3036, 262.3663
981.2321, 252.1696
983.1606, 244.2006
985.0891, 238.2937
987.0175, 233.9249
988.9460, 230.6035
990.8745, 227.7693
992.8029, 224.1801
994.7314, 220.2128
996.6599, 216.4244
998.5883, 213.0593
1000.517, 211.2724
1002.445, 207.9260
1004.374, 207.3154
1006.302, 203.3678
1008.231, 201.3037
1010.159, 200.5260
1012.088, 198.9974
1014.016, 197.0987
1015.945, 196.2643
1017.873, 196.1872
1019.801, 195.7673
1021.730, 195.1491
1023.658, 194.9822
1025.587, 194.0771
1027.515, 194.0573
1029.444, 192.4640
1031.372, 191.3586
1033.301, 190.6753
1035.229, 190.1935
1037.158, 189.7709
1039.086, 188.6602
1041.015, 188.4766
1042.943, 186.9970
1044.871, 187.5522
1046.800, 187.3683
1048.728, 186.6063
1050.657, 185.8643
1052.585, 185.0094
1054.514, 183.2570
1056.442, 181.0327
1058.371, 179.6421
1060.299, 179.0219
1062.228, 179.2556
1064.156, 179.8214
1066.085, 179.2976
1068.013, 178.0088
1069.942, 176.6748
1071.870, 175.3600
1073.798, 173.8558
1075.727, 172.6199
1077.655, 173.2866
1079.584, 174.6590
1081.512, 174.1702
1083.441, 172.5552
1085.369, 170.8548
1087.298, 169.3926
1089.226, 169.1263
1091.155, 167.7239
1093.083, 167.8900
1095.012, 166.1341
1096.940, 165.0307
1098.869, 164.5503
1100.797, 165.6319
1102.725, 166.3943
1104.654, 163.6954
1106.582, 160.1170
1108.511, 158.5530
1110.439, 157.6599
1112.368, 156.0036
1114.296, 154.4487
1116.225, 154.2217
1118.153, 153.9476
1120.082, 151.9859
1122.010, 150.1979
1123.939, 150.5657
1125.867, 150.7225
1127.796, 148.6348
1129.724, 146.5305
1131.652, 145.8013
1133.581, 145.3436
1135.509, 144.7944
1137.438, 143.9028
1139.366, 142.2065
1141.295, 140.9425
1143.223, 140.6926
1145.152, 140.7076
1147.080, 140.9830
1149.009, 140.8087
1150.937, 139.7667
1152.866, 138.9960
1154.794, 139.0089
1156.723, 138.1709
1158.651, 137.7830
1160.579, 137.5060
1162.508, 136.3467
1164.436, 136.6427
1166.365, 135.0240
1168.293, 134.0181
1170.222, 133.9016
1172.150, 133.8916
1174.079, 133.9870
1176.007, 134.5434
1177.936, 135.4318
1179.864, 135.7085
1181.793, 135.4274
1183.721, 135.1349
1185.650, 134.8466
1187.578, 134.3886
1189.506, 133.7904
1191.435, 133.1136
1193.363, 132.4693
1195.292, 131.9849
1197.220, 131.8258
1199.149, 132.6036
1201.077, 133.3212
1203.006, 132.4516
1204.934, 131.3617
1206.863, 131.6099
1208.791, 131.9470
1210.720, 131.2620
1212.648, 130.5541
1214.577, 130.2753
1216.505, 130.2245
1218.433, 130.5228
1220.362, 130.9004
1222.290, 131.4496
1224.219, 131.5330
1226.147, 130.5646
1228.076, 130.1314
1230.004, 130.8615
1231.933, 131.1702
1233.861, 130.7172
1235.790, 130.3814
1237.718, 130.1338
1239.647, 130.5530
1241.575, 130.0459
1243.504, 130.0136
1245.432, 129.8398
1247.360, 129.6107
1249.289, 130.1991
1251.217, 130.1009
1253.146, 129.6308
1255.074, 129.2773
1257.003, 128.9977
1258.931, 128.9276
1260.860, 128.9288
1262.788, 128.6886
1264.717, 128.4548
1266.645, 128.4845
1268.574, 128.6449
1270.502, 128.8904
1272.431, 129.1825
1274.359, 129.4320
1276.287, 130.0161
1278.216, 131.0478
1280.144, 131.5134
1282.073, 131.3859
1284.001, 130.9948
1285.930, 130.2876
1287.858, 130.1300
1289.787, 130.6280
1291.715, 130.9752
1293.644, 131.0087
1295.572, 131.0509
1297.501, 131.2754
1299.429, 132.0368
1301.358, 132.7433
1303.286, 132.3408
1305.214, 131.6165
1307.143, 131.2727
1309.071, 131.1673
1311.000, 131.5439
1312.928, 131.6688
1314.857, 130.6446
1316.785, 130.0669
1318.714, 130.9420
1320.642, 130.9431
1322.571, 129.2963
1324.499, 129.4886
1326.428, 132.1061
1328.356, 132.4504
1330.285, 130.4369
1332.213, 129.2556
1334.141, 128.8469
1336.070, 128.6121
1337.998, 128.6159
1339.927, 128.6919
1341.855, 128.8333
1343.784, 129.7209
1345.712, 130.3064
1347.641, 129.5393
1349.569, 128.6913
1351.498, 128.3759
1353.426, 128.2480
1355.355, 128.0069
1357.283, 127.5598
1359.212, 127.1701
1361.140, 126.9041
1363.068, 126.4672
1364.997, 126.0744
1366.925, 126.0498
1368.854, 126.4817
1370.782, 127.0522
1372.711, 127.4977
1374.639, 127.5593
1376.568, 127.2876
1378.496, 126.6879
1380.425, 124.7423
1382.353, 123.9219
1384.282, 125.4694
1386.210, 126.5431
1388.139, 126.9342
1390.067, 126.7843
1391.995, 127.1493
1393.924, 126.8377
1395.852, 126.5268
1397.781, 126.2898
1399.709, 126.0100
1401.638, 124.7557
1403.566, 125.2600
1405.495, 124.6927
1407.423, 123.7477
1409.352, 124.4028
1411.280, 125.2212
1413.209, 123.9436
1415.137, 123.1990
1417.066, 124.4032
1418.994, 124.6333
1420.922, 123.5618
1422.851, 124.0647
1424.779, 125.9248
1426.708, 125.9197
1428.636, 124.5534
1430.565, 123.7052
1432.493, 123.1045
1434.422, 123.0686
1436.350, 123.3805
1438.279, 122.9054
1440.207, 122.3777
1442.136, 123.1066
1444.064, 123.8044
1445.993, 123.6031
1447.921, 123.1834
1449.849, 122.8776
1451.778, 123.3047
1453.706, 123.8783
1455.635, 123.6439
1457.563, 123.2272
1459.492, 123.1078
1461.420, 122.7364
1463.349, 121.4433
1465.277, 120.4563
1467.206, 120.8163
1469.134, 121.4080
1471.063, 121.7300
1472.991, 121.8532
1474.920, 121.7536
1476.848, 121.5079
1478.776, 121.2595
1480.705, 121.0809
1482.633, 120.9336
1484.562, 120.9344
1486.490, 120.3540
1488.419, 118.6398
1490.347, 117.9945
1492.276, 118.6021
1494.204, 119.5825
1496.133, 121.3488
1498.061, 122.0752
1499.990, 121.4647
1501.918, 120.5448
1503.847, 119.5275
1505.775, 119.6581
1507.703, 118.9271
1509.632, 119.2673
1511.560, 118.5628
1513.489, 119.1812
1515.417, 119.5918
1517.346, 119.6024
1519.274, 119.5007
1521.203, 119.2099
1523.131, 119.2470
1525.060, 119.4906
1526.988, 118.8551
1528.917, 118.0281
1530.845, 117.8689
1532.774, 118.0241
1534.702, 118.7965
1536.630, 119.4259
1538.559, 119.2072
1540.487, 118.7809
1542.416, 118.4291
1544.344, 118.2117
1546.273, 118.1847
1548.201, 118.6992
1550.130, 119.3718
1552.058, 119.4938
1553.987, 119.1824
1555.915, 118.4179
1557.844, 118.1701
1559.772, 118.7601
1561.701, 118.0608
1563.629, 118.2456
1565.557, 117.9132
1567.486, 117.8146
1569.414, 117.1648
1571.343, 116.2526
1573.271, 115.8958
1575.200, 116.1055
1577.128, 116.6096
1579.057, 116.2317
1580.985, 115.4598
1582.914, 116.0906
1584.842, 115.1592
1586.771, 115.8316
1588.699, 114.2344
1590.628, 113.8257
1592.556, 113.8104
1594.484, 114.0734
1596.413, 114.1296
1598.341, 113.6693
1600.270, 113.7023
1602.198, 113.3190
1604.127, 112.9695
1606.055, 112.7261
1607.984, 112.4003
1609.912, 112.3926
1611.841, 112.5804
1613.769, 112.7172
1615.698, 111.9680
1617.626, 111.1214
1619.555, 110.8368
1621.483, 110.3755
1623.411, 109.4715
1625.340, 109.1839
1627.268, 109.1366
1629.197, 108.2671
1631.125, 107.6701
1633.054, 108.2637
1634.982, 108.1001
1636.911, 107.0761
1638.839, 107.0836
1640.768, 107.4426
1642.696, 107.1040
1644.625, 106.6878
1646.553, 106.6270
1648.482, 106.1031
1650.410, 104.7143
1652.339, 103.9553
1654.267, 103.2907
1656.195, 102.5874
1658.124, 102.3649
1660.052, 103.3910
1661.981, 104.5929
1663.909, 104.4537
1665.838, 103.7429
1667.766, 102.7550
1669.695, 102.6739
1671.623, 101.7370
1673.552, 102.7737
1675.480, 100.7755
1677.409, 100.3936
1679.337, 100.8225
1681.266, 101.7911
1683.194, 102.4778
1685.122, 101.7010
1687.051, 100.5019
1688.979, 99.67368
1690.908, 99.42631
1692.836, 99.26587
1694.765, 98.78590
1696.693, 98.84756
1698.622, 99.47447
1700.550, 99.68856
1702.479, 99.81177
1704.407, 100.1252
1706.336, 100.0764
1708.264, 98.83145
1710.193, 97.32171
1712.121, 97.18334
1714.049, 97.53181
1715.978, 97.87804
1717.906, 97.48356
1719.835, 97.52790
1721.763, 97.37955
1723.692, 96.85329
1725.620, 97.02348
1727.549, 96.42919
1729.477, 96.31933
1731.406, 96.20151
1733.334, 96.12164
1735.263, 96.14768
1737.191, 96.23251
1739.120, 96.31794
1741.048, 96.25772
1742.976, 96.45922
1744.905, 96.38138
1746.833, 95.40822
1748.762, 94.33482
1750.690, 93.75967
1752.619, 93.36827
1754.547, 93.50692
1756.476, 93.30695
1758.404, 93.08133
1760.333, 93.32746
1762.261, 92.73559
1764.190, 92.38294
1766.118, 92.40198
1768.047, 92.75646
1769.975, 93.21411
1771.903, 93.32368
1773.832, 92.67414
1775.760, 91.47966
1777.689, 90.45956
1779.617, 90.81145
1781.546, 91.53338
1783.474, 91.68232
1785.403, 91.68025
1787.331, 91.82362
1789.260, 91.58010
1791.188, 90.34303
1793.117, 89.42223
1795.045, 89.75188
1796.974, 88.78634
1798.902, 89.82937
1800.830, 88.27633
1802.759, 87.71307
1804.687, 88.07828
1806.616, 88.99680
1808.544, 89.13895
1810.473, 88.41847
1812.401, 88.67910
1814.330, 88.87459
1816.258, 88.69028
1818.187, 88.97222
1820.115, 88.68096
1822.044, 87.32500
1823.972, 85.91320
1825.901, 85.97014
1827.829, 86.76320
1829.757, 87.02202
1831.686, 87.22421
1833.614, 86.96821
1835.543, 85.68528
1837.471, 85.19166
1839.400, 85.93694
1841.328, 86.48725
1843.257, 85.75724
1845.185, 84.95370
1847.114, 84.49730
1849.042, 84.20745
1850.971, 84.81815
1852.899, 84.69514
1854.828, 84.27935
1856.756, 84.12884
1858.684, 84.03755
1860.613, 83.48094
1862.541, 83.89594
1864.470, 83.90074
1866.398, 83.74363
1868.327, 83.49745
1870.255, 82.49561
1872.184, 81.38737
1874.112, 81.52065
1876.041, 81.49375
1877.969, 80.67410
1879.898, 81.19456
1881.826, 80.89811
1883.755, 80.70305
1885.683, 80.74796
1887.611, 80.15733
1889.540, 79.70435
1891.468, 78.84119
1893.397, 78.86333
1895.325, 79.03616
1897.254, 79.88054
1899.182, 80.94563
1901.111, 80.97733
1903.039, 80.08188
1904.968, 79.35738
1906.896, 79.21409
1908.825, 78.98988
1910.753, 78.10158
1912.682, 77.96217
1914.610, 78.64133
1916.538, 78.56628
1918.467, 78.01489
1920.395, 77.12580
1922.324, 77.00572
1924.252, 76.85776
1926.181, 76.78314
1928.109, 77.08461
1930.038, 76.96939
1931.966, 77.04398
1933.895, 76.76844
1935.823, 76.82281
1937.752, 77.16055
1939.680, 75.91409
1941.609, 74.03085
1943.537, 74.04742
1945.465, 74.23357
1947.394, 73.86494
1949.322, 73.63996
1951.251, 73.09762
1953.179, 72.39120
1955.108, 73.25105
1957.036, 74.88231
1958.965, 74.31267
1960.893, 73.43841
1962.822, 72.46117
1964.750, 72.55320
1966.679, 73.79614
1968.607, 73.39851
1970.536, 72.71964
1972.464, 71.90593
1974.392, 71.73441
1976.321, 72.50173
1978.249, 72.80952
1980.178, 72.42896
1982.106, 71.06386
1984.035, 71.06264
1985.963, 71.23515
1987.892, 70.16869
1989.820, 70.35083
1991.749, 69.94337
1993.677, 70.96370
1995.606, 69.72424
1997.534, 69.85918
1999.463, 70.49263
2001.391, 70.14335
2003.319, 68.66005
2005.248, 68.29035
2007.176, 69.06571
2009.105, 69.43819
2011.033, 69.17995
2012.962, 68.24036
2014.890, 67.33274
2016.819, 67.37690
2018.747, 68.18528
2020.676, 68.69821
2022.604, 68.18381
2024.533, 66.93603
2026.461, 66.16142
2028.390, 66.83237
2030.318, 67.16011
2032.246, 67.17772
2034.175, 67.63698
2036.103, 67.16451
2038.032, 66.25130
2039.960, 65.66757
2041.889, 65.90392
2043.817, 66.41811
2045.746, 65.95648
2047.674, 66.32603
2049.603, 64.37136
2051.531, 65.84597
2053.459, 64.40906
2055.388, 62.65834
2057.316, 63.14379
2059.245, 64.38946
2061.173, 64.49368
2063.102, 63.60995
2065.030, 62.31011
2066.959, 61.87972
2068.887, 62.67645
2070.816, 63.20124
2072.744, 62.79403
2074.673, 62.07162
2076.601, 61.45369
2078.530, 61.88231
2080.458, 63.24049
2082.386, 63.74636
2084.315, 62.55592
2086.243, 61.09723
2088.172, 61.41878
2090.100, 60.99922
2092.029, 60.27011
2093.957, 60.36460
2095.886, 60.38839
2097.814, 60.63516
2099.743, 60.54907
2101.671, 60.45006
2103.600, 60.03370
2105.528, 59.66250
2107.457, 59.65831
2109.385, 59.59843
2111.313, 59.58203
2113.242, 59.39251
2115.170, 59.63676
2117.099, 58.90398
2119.027, 58.62065
2120.956, 58.21635
2122.884, 58.72880
2124.813, 58.15201
2126.741, 58.22071
2128.670, 57.70807
2130.598, 57.90175
2132.527, 58.05413
2134.455, 57.95842
2136.384, 56.05173
2138.312, 55.00951
2140.240, 56.34811
2142.169, 56.96159
2144.097, 56.88362
2146.026, 57.54707
2147.954, 56.23166
2149.883, 57.33576
2151.811, 56.67926
2153.740, 55.31353
2155.668, 55.07799
2157.597, 55.21359
2159.525, 55.21033
2161.454, 55.36015
2163.382, 55.65742
2165.311, 55.96099
2167.239, 54.70733
2169.167, 53.87231
2171.096, 54.57177
2173.024, 55.19078
2174.953, 55.17721
2176.881, 53.79144
2178.810, 53.28753
2180.738, 53.69258
2182.667, 53.53656
2184.595, 53.85141
2186.524, 54.06573
2188.452, 53.67144
2190.381, 53.84574
2192.309, 52.88432
2194.238, 51.13711
2196.166, 50.50140
2198.094, 50.32233
2200.023, 50.71211
2201.951, 50.85167
2203.880, 50.46049
2205.808, 50.58915
2207.737, 50.86237
2209.665, 51.04708
2211.594, 51.03135
2213.522, 51.06087
2215.451, 50.74960
2217.379, 50.80645
2219.308, 49.95130
2221.236, 49.61672
2223.165, 49.22114
2225.093, 49.06433
2227.021, 50.27487
2228.950, 50.59978
2230.878, 49.92625
2232.807, 49.60520
2234.735, 49.52288
2236.664, 49.30175
2238.592, 48.62366
2240.521, 48.14433
2242.449, 48.32731
2244.378, 48.78011
2246.306, 48.94090
2248.235, 48.99061
2250.163, 49.32904
2252.092, 48.97726
2254.020, 49.29698
2255.948, 49.37343
2257.877, 48.32361
2259.805, 46.61401
2261.734, 46.60859
2263.662, 46.15428
2265.591, 46.47292
2267.519, 45.78991
2269.448, 46.64177
2271.376, 45.08662
2273.305, 45.45147
2275.233, 46.13797
2277.162, 45.45554
2279.090, 45.52716
2281.019, 46.28460
2282.947, 45.14993
2284.875, 44.44278
2286.804, 45.20479
2288.732, 45.19709
2290.661, 44.77763
2292.589, 44.49724
2294.518, 44.28413
2296.446, 44.20987
2298.375, 44.20729
2300.303, 44.04874
2302.232, 44.14043
2304.160, 43.82166
2306.089, 43.19056
2308.017, 42.95855
2309.946, 43.35474
2311.874, 43.82178
2313.802, 43.09363
2315.731, 41.86618
2317.659, 41.01232
2319.588, 42.68210
2321.516, 43.70675
2323.445, 42.39486
2325.373, 41.53794
2327.302, 42.30410
2329.230, 42.87352
2331.159, 41.98914
2333.087, 40.86203
2335.016, 39.68800
2336.944, 39.81846
2338.873, 40.71797
2340.801, 39.84399
2342.729, 39.77314
2344.658, 41.04353
2346.586, 39.43200
2348.515, 37.68883
2350.443, 38.64436
2352.372, 39.13144
2354.300, 38.40130
2356.229, 38.12505
2358.157, 39.11005
2360.086, 39.57272
2362.014, 38.91850
2363.943, 39.03997
2365.871, 39.23847
2367.800, 39.00949
2369.728, 38.79575
2371.656, 38.84685
2373.585, 38.38232
2375.513, 38.37589
2377.442, 38.45675
2379.370, 38.11393
2381.299, 38.12923
2383.227, 37.94617
2385.156, 37.66703
2387.084, 37.96431
2389.013, 36.32641
2390.941, 35.92227
2392.870, 36.65047
2394.798, 37.28297
2396.727, 37.81895
2398.655, 37.09834
2400.583, 36.62072
2402.512, 36.58643
2404.440, 36.74524
2406.369, 35.80613
2408.297, 34.33952
2410.226, 34.74049
2412.154, 35.34800
2414.083, 36.18071
2416.011, 35.99115
2417.940, 35.01844
2419.868, 34.74296
2421.797, 34.47062
2423.725, 34.07668
2425.654, 34.72433
2427.582, 34.56443
2429.510, 33.95486
2431.439, 34.25063
2433.367, 33.77515
2435.296, 33.08013
2437.224, 33.72234
2439.153, 34.03359
2441.081, 34.15329
2443.010, 34.28373
2444.938, 33.70586
2446.867, 32.27190
2448.795, 33.24863
2450.724, 34.25663
2452.652, 32.62925
2454.581, 32.11613
2456.509, 31.93802
2458.438, 32.98249
2460.366, 32.89701
2462.294, 31.66080
2464.223, 31.09058
2466.151, 31.34009
2468.080, 32.53012
2470.008, 32.39017
2471.937, 31.12712
2473.865, 30.45712
2475.794, 30.11378
2477.722, 29.93899
2479.651, 30.25725
2481.579, 30.18314
2483.508, 30.43548
2485.436, 31.37172
2487.365, 31.00591
2489.293, 31.23635
2491.221, 31.61322
2493.150, 31.27239
2495.078, 30.63289
2497.007, 31.56595
2498.935, 31.51587
2500.864, 30.32001
2502.792, 28.84307
2504.721, 28.65476
2506.649, 30.31968
2508.578, 30.35884
2510.506, 30.17826
2512.435, 29.17057
2514.363, 29.42215
2516.292, 30.50017
2518.220, 30.85521
2520.148, 29.65651
2522.077, 28.56564
2524.005, 28.23759
2525.934, 27.60958
2527.862, 27.16186
2529.791, 27.26625
2531.719, 26.78137
2533.648, 26.93060
2535.576, 27.33376
2537.505, 27.75738
2539.433, 28.26325
2541.362, 27.41749
2543.290, 27.91003
2545.219, 28.96375
2547.147, 28.72045
2549.075, 26.95575
2551.004, 25.41236
2552.932, 26.59697
2554.861, 26.45685
2556.789, 25.68049
2558.718, 25.32228
2560.646, 26.35984
2562.575, 27.82161
2564.503, 27.89114
2566.432, 27.24957
2568.360, 26.27991
2570.289, 25.68397
2572.217, 25.90060
2574.146, 26.74014
2576.074, 26.20894
2578.002, 25.63120
2579.931, 25.77500
2581.859, 25.40751
2583.788, 25.67443
2585.716, 25.23826
2587.645, 26.32235
2589.573, 26.35703
2591.502, 26.61347
2593.430, 24.85307
2595.359, 23.61829
2597.287, 24.38003
2599.216, 24.35021
2601.144, 24.54410
2603.073, 25.46528
2605.001, 24.29478
2606.929, 23.41343
2608.858, 23.58798
2610.786, 21.49224
2612.715, 20.80475
2614.643, 22.31822
2616.572, 23.48480
2618.500, 23.61719
2620.429, 23.52854
2622.357, 22.60591
2624.286, 22.07590
2626.214, 22.83316
2628.143, 23.74731
2630.071, 23.59823
2632.000, 22.58504
2633.928, 22.08215
2635.856, 22.76754
2637.785, 24.02750
2639.713, 22.46512
2641.642, 21.96204
2643.570, 22.63162
2645.499, 22.11083
2647.427, 21.33811
2649.356, 20.68201
2651.284, 20.10458
2653.213, 19.96393
2655.141, 19.11329
2657.070, 19.82781
2658.998, 19.86172
2660.927, 19.53741
2662.855, 21.10443
2664.783, 20.80906
2666.712, 19.82859
2668.640, 20.65916
2670.569, 21.56557
2672.497, 21.28918
2674.426, 21.87344
2676.354, 19.67414
2678.283, 21.67276
2680.211, 19.94066
2682.140, 18.69196
2684.068, 18.76533
2685.997, 19.66223
2687.925, 20.65200
2689.854, 20.52151
2691.782, 18.70933
2693.710, 18.64401
2695.639, 18.90899
2697.567, 18.79626
2699.496, 19.76193
2701.424, 19.60715
2703.353, 19.66184
2705.281, 19.14127
2707.210, 19.29640
2709.138, 18.64779
2711.067, 18.13334
2712.995, 17.78228
2714.924, 17.84690
2716.852, 18.11191
2718.781, 17.40138
2720.709, 16.70175
2722.637, 17.00486
2724.566, 18.59936
2726.494, 19.58459
2728.423, 17.96674
2730.351, 16.98342
2732.280, 16.59590
2734.208, 17.04555
2736.137, 17.13933
2738.065, 16.59623
2739.994, 15.97036
2741.922, 16.69549
2743.851, 17.50799
2745.779, 17.83392
2747.708, 17.76352
2749.636, 17.96287
2751.564, 16.82369
2753.493, 17.34019
2755.421, 16.35592
2757.350, 15.17626
2759.278, 16.59694
2761.207, 15.64179
2763.135, 14.09950
2765.064, 14.42230
2766.992, 15.75209
2768.921, 16.58445
2770.849, 15.99233
2772.778, 15.13328
2774.706, 15.29355
2776.635, 14.95014
2778.563, 15.55263
2780.491, 14.59999
2782.420, 14.31055
2784.348, 13.31724
2786.277, 13.37004
2788.205, 13.98269
2790.134, 13.66168
2792.062, 13.49008
2793.991, 13.77700
2795.919, 13.76942
2797.848, 14.82651
2799.776, 14.17638
2801.705, 14.62899
2803.633, 14.72604
2805.562, 14.36545
2807.490, 15.49396
2809.418, 15.06390
2811.347, 15.73787
2813.275, 15.81502
2815.204, 15.38366
2817.132, 15.57381
2819.061, 14.78279
2820.989, 13.94628
2822.918, 13.42087
2824.846, 12.85922
2826.775, 12.00506
2828.703, 13.28851
2830.632, 13.90857
2832.560, 13.60342
2834.489, 13.91034
2836.417, 13.93258
2838.345, 13.50951
2840.274, 12.73282
2842.202, 13.11976
2844.131, 12.72727
2846.059, 12.84352
2847.988, 12.41465
2849.916, 13.02930
2851.845, 12.74011
2853.773, 12.41401
2855.702, 12.74267
2857.630, 13.42891
2859.559, 13.68787
2861.487, 12.81477
2863.416, 11.86820
2865.344, 10.87582
2867.272, 12.12047
2869.201, 11.19172
2871.129, 11.55387
2873.058, 10.63330
2874.986, 11.95856
2876.915, 12.60311
2878.843, 12.88848
2880.772, 11.23584
2882.700, 10.32481
2884.629, 10.63881
2886.557, 10.44033
2888.486, 11.40987
2890.414, 12.36668
2892.343, 11.94735
2894.271, 12.35679
2896.199, 11.72533
2898.128, 11.42301
2900.056, 10.26387
2901.985, 10.86706
2903.913, 10.31268
2905.842, 10.98678
2907.770, 11.04768
2909.699, 10.50815
2911.627, 9.430745
2913.556, 9.471521
2915.484, 9.951780
2917.413, 10.20152
2919.341, 9.956741
2921.270, 9.819950
2923.198, 9.760408
2925.126, 9.590802
2927.055, 9.593163
2928.983, 10.57390
2930.912, 12.13828
2932.840, 9.985992
2934.769, 8.220556
2936.697, 7.684545
2938.626, 9.605079
2940.554, 9.694905
2942.483, 8.609427
2944.411, 7.310737
2946.340, 8.765477
2948.268, 9.047494
2950.197, 8.591796
2952.125, 10.05306
2954.053, 9.361514
2955.982, 8.580896
2957.910, 8.615815
2959.839, 9.001235
2961.767, 8.191551
2963.696, 7.215266
2965.624, 7.293835
2967.553, 8.127563
2969.481, 6.853549
2971.410, 7.460814
2973.338, 7.523944
2975.267, 7.197793
2977.195, 7.598124
2979.124, 9.405756
2981.052, 7.360382
2982.980, 5.278153
2984.909, 5.260750
2986.837, 8.297920
2988.766, 7.642108
2990.694, 6.455759
2992.623, 9.569518
2994.551, 9.512050
2996.480, 8.827268
2998.408, 8.199782
3000.337, 6.659858
3002.265, 7.151988
3004.194, 7.434535
3006.122, 5.590974
3008.051, 7.359066
3009.979, 7.473282
3011.907, 6.456263
3013.836, 7.891936
3015.764, 7.322407
3017.693, 7.432543
3019.621, 9.165986
3021.550, 7.479709
3023.478, 7.612481
3025.407, 7.835121
3027.335, 6.060988
3029.264, 6.581359
3031.192, 5.931463
3033.121, 5.029357
3035.049, 6.102593
3036.978, 6.374869
3038.906, 6.624465
3040.834, 7.525876
3042.763, 6.634498
3044.691, 7.230047
3046.620, 7.007097
3048.548, 7.304286
3050.477, 6.751290
3052.405, 6.417308
3054.334, 6.524447
3056.262, 5.378512
3058.191, 5.914540
3060.119, 7.017875
3062.048, 6.939918
3063.976, 6.301864
3065.905, 4.979987
3067.833, 4.839972
3069.761, 6.746327
3071.690, 3.284316
3073.618, 3.807792
3075.547, 6.591577
3077.475, 5.308539
3079.404, 5.675796
3081.332, 5.923859
3083.261, 5.799685
3085.189, 5.825808
3087.118, 4.236796
3089.046, 3.722429
3090.975, 5.632186
3092.903, 7.906506
3094.832, 6.679338
3096.760, 5.348611
3098.688, 6.300414
3100.617, 6.656360
3102.545, 6.513944
3104.474, 5.851135
3106.402, 4.909992
3108.331, 5.143388
3110.259, 5.569059
3112.188, 5.529412
3114.116, 4.455086
3116.045, 5.570172
3117.973, 5.070524
3119.902, 3.267529
3121.830, 5.145555
3123.759, 5.023789
3125.687, 4.090895
3127.615, 3.219733
3129.544, 3.189173
3131.472, 4.174841
3133.401, 2.781770
3135.329, 5.045588
3137.258, 4.876225
3139.186, 3.359729
3141.115, 2.931221
3143.043, 3.263206
3144.972, 2.967683
3146.900, 4.830681
3148.829, 4.115222
3150.757, 5.926338
3152.686, 7.514519
3154.614, 6.355565
3156.542, 4.067179
3158.471, 4.493515
3160.399, 4.172252
3162.328, 4.492831
3164.256, 5.233321
3166.185, 4.028029
3168.113, 4.948277
3170.042, 5.633008
3171.970, 4.255714
3173.899, 2.628205
3175.827, 2.648145
3177.756, 1.966804
3179.684, 1.933772
3181.613, 2.329428
3183.541, 2.584298
3185.469, 3.718006
3187.398, 4.440578
3189.326, 3.645412
3191.255, 2.700602
3193.183, 3.060569
3195.112, 3.897168
3197.040, 2.991266
3198.969, 3.256485
3200.897, 4.099525
3202.826, 4.462826
3204.754, 4.795423
3206.683, 2.400709
3208.611, 2.923748
3210.540, 4.393634
3212.468, 1.542938
3214.396, 4.397565
3216.325, 4.688911
3218.253, 3.269808
3220.182, 5.670328
3222.110, 4.906967
3224.039, 6.107251
3225.967, 6.907489
3227.896, 2.220963
3229.824, 2.403002
3231.753, 3.241288
3233.681, 4.013283
3235.610, 4.617859
3237.538, 3.898105
3239.467, 2.147373
3241.395, 1.879017
3243.323, 3.919395
3245.252, 6.636718
3247.180, 3.914014
3249.109, 2.292982
3251.037, 4.453915
3252.966, 0.8993704
3254.894, 2.367647
3256.823, 4.793211
3258.751, 5.345018
3260.680, 6.780550
3262.608, 6.312408
3264.537, 7.787465
3266.465, 4.583394
3268.394, 2.885288
3270.322, 2.942248
3272.250, 3.073141
3274.179, 3.080117
3276.107, 3.523964
3278.036, 3.518141
3279.964, 3.619985
3281.893, 3.869674
3283.821, 3.888509
3285.750, 4.106153
3287.678, 4.668789
3289.607, 4.589824
3291.535, 4.364739
3293.464, 3.403983
3295.392, 2.944940
3297.321, 1.588249
3299.249, 1.016562
3301.177, 4.240850
3303.106, 1.680388
3305.034, 2.566340
3306.963, 4.272094
3308.891, 2.353788
3310.820, 3.399583
3312.748, 4.118077
3314.677, 3.628120
3316.605, 2.621388
3318.534, 4.111910
3320.462, 3.663776
3322.391, 2.185293
3324.319, 1.677461
3326.248, 3.034621
3328.176, 4.598105
3330.104, 4.196996
3332.033, 4.010760
3333.961, 5.354156
3335.890, 3.037103
3337.818, 4.255742
3339.747, 3.995543
3341.675, 1.823760
3343.604, 3.298510
3345.532, 4.236201
3347.461, 2.887591
3349.389, 1.765829
3351.318, 3.078474
3353.246, 0.8083480
3355.175, 2.255548
3357.103, 5.099151
3359.031, 6.388339
3360.960, 4.086393
3362.888, 4.271373
3364.817, 2.816377
3366.745, 2.231287
3368.674, 2.112292
3370.602, 1.632205
3372.531, 2.005210
3374.459, 1.266886
3376.388, 1.684438
3378.316, 0.7737342
3380.245, 1.952124
3382.173, 1.163484
3384.102, 5.8782481E-02
3386.030, 1.526309
3387.958, 3.423507
3389.887, 2.678520
3391.815, 3.183574
3393.744, 4.846671
3395.672, 4.731794
3397.601, 1.790215
3399.529, 2.788724
3401.458, 3.860927
3403.386, 2.812996
3405.315, 4.095823
3407.243, 5.313251
3409.172, 3.534461
3411.100, 4.801861
3413.029, 4.929863
3414.957, 4.246649
3416.885, 4.912746
3418.814, 2.877159
3420.742, 0.4860419
3422.671, 0.6301559
3424.599, 2.552903
3426.528, 2.368695
3428.456, 3.114192
3430.385, 5.461662
3432.313, 3.993853
3434.242, 2.796855
3436.170, 1.235652
3438.099, 2.067330
3440.027, 1.166994
3441.956, 3.766040
3443.884, 1.014027
3445.813, 0.6316825
3447.741, 0.4251281
3449.669, -1.699744
3451.598, 0.7872268
3453.526, 1.771994
3455.455, 2.629429
3457.383, 2.292761
3459.312, 2.925646
3461.240, 2.367962
3463.169, 3.219634
3465.097, 4.781013
3467.026, 5.164617
3468.954, 3.932411
3470.883, 1.809328
3472.811, 1.363035
3474.740, 0.3038379
3476.668, 1.223328
3478.596, 3.354007
3480.525, 3.137668
3482.453, 1.327712
3484.382, -0.3723939
3486.310, 2.2311730E-02
3488.239, 0.3538850
3490.167, 2.676630
3492.096, 2.769183
3494.024, 3.877308
3495.953, 4.234264
3497.881, 2.751387
3499.810, 1.878563
3501.738, 2.903343
3503.667, 2.197720
3505.595, 2.560470
3507.523, 2.269181
3509.452, 3.180195
3511.380, 3.313228
3513.309, 3.777188
3515.237, 3.275044
3517.166, 3.210430
3519.094, 3.432239
3521.023, 2.468045
3522.951, 3.366768
3524.880, 3.135573
3526.808, 2.273595
3528.737, 1.837243
3530.665, 1.997703
3532.594, 0.9847967
3534.522, 1.235680
3536.450, 0.2043108
3538.379, 1.515170
3540.307, 2.722337
3542.236, 3.444246
3544.164, 3.900125
3546.093, 3.615582
3548.021, 4.852930
3549.950, 2.291370
3551.878, 5.429359
3553.807, 5.682670
3555.735, 2.974835
3557.664, 1.794008
3559.592, 1.404418
3561.521, 1.769374
3563.449, -0.7248317
3565.377, -1.901869
3567.306, 3.455622
3569.234, 1.588677
3571.163, 2.534189
3573.091, 1.117362
3575.020, -0.7565075
3576.948, 4.5031351E-03
3578.877, 2.214385
3580.805, 2.152507
3582.734, 3.358958
3584.662, 3.079847
3586.591, 0.9527016
3588.519, -4.6104629E-02
3590.448, -1.059427
3592.376, 2.541281
3594.304, 3.369215
3596.233, 2.297906
3598.161, 2.596498
3600.090, 2.522586
3602.018, 1.980394
3603.947, 2.078662
3605.875, 1.847249
3607.804, 1.971791
3609.732, 1.447682
3611.661, 1.895859
3613.589, 1.363767
3615.518, 0.9236871
3617.446, -8.6047642E-02
3619.375, -0.5501187
3621.303, -0.3130315
3623.231, -1.604221
3625.160, -0.5555612
3627.088, -0.9696561
3629.017, 3.086152
3630.945, -0.2753173
3632.874, 4.7224041E-02
3634.802, 1.675446
3636.731, -4.6443660E-02
3638.659, -0.7465310
3640.588, 1.106131
3642.516, 2.262359
3644.445, -0.5531398
3646.373, 2.229357
3648.302, -0.2199939
3650.230, -1.703727
3652.158, 1.721116
3654.087, 3.616445
3656.015, 4.645177
3657.944, 1.365501
3659.872, -7.4108718E-03
3661.801, 0.6327279
3663.729, 1.420148
3665.658, 2.570376
3667.586, 4.114676
3669.515, 3.476808
3671.443, 3.269751
3673.372, 2.369758
3675.300, 1.440246
3677.229, 1.046706
3679.157, 1.006226
3681.085, 0.1927999
3683.014, 1.185113
3684.942, 1.941331
3686.871, 1.166040
3688.799, 1.790231
3690.728, -0.8159282
3692.656, -0.9413130
3694.585, -6.3330144E-02
3696.513, 0.4591181
3698.442, 1.191120
3700.370, 4.028792
3702.299, -0.2524854
3704.227, -0.6397189
3706.156, -0.1473816
3708.084, 1.907350
3710.012, 3.517342
3711.941, 0.1158076
3713.869, 1.650156
3715.798, -0.1314939
3717.726, 0.7526656
3719.655, 2.112388
3721.583, 1.791261
3723.512, 0.6389605
3725.440, 0.9207359
3727.369, 1.036882
3729.297, 0.2729357
3731.226, 2.484403
3733.154, 2.420343
3735.083, -1.211187
3737.011, 3.727252
3738.939, -0.6759284
3740.868, 2.813295
3742.796, 0.6131936
3744.725, -1.477492
3746.653, -0.1298691
3748.582, -0.9137766
3750.510, 0.4033432
3752.439, -0.3706765
3754.367, 1.261755
3756.296, 2.520736
3758.224, 1.001513
3760.153, 2.695616
3762.081, -0.7310057
3764.010, 3.481574
3765.938, 0.7902075
3767.866, 3.3574030E-02
3769.795, 4.132209
3771.723, 6.646706
3773.652, 2.078877
3775.580, -0.2122039
3777.509, 2.191344
3779.437, 3.609286
3781.366, 3.009442
3783.294, 1.677880
3785.223, 0.8607521
3787.151, 0.9386463
3789.080, 2.301693
3791.008, 1.510967
3792.937, 2.949211
3794.865, 4.478187
3796.793, 3.041072
3798.722, 0.5078174
3800.650, 1.882758
3802.579, 1.657798
3804.507, 1.650464
3806.436, 0.1005054
3808.364, -0.2656904
3810.293, 1.402900
3812.221, 1.921267
3814.150, 2.501796
3816.078, -0.4566603
3818.007, 3.786561
3819.935, 1.297898
3821.864, 1.444367
3823.792, 2.030493
3825.720, 0.8993434
3827.649, 0.7418376
3829.577, -0.4377789
3831.506, -0.9419152
3833.434, 1.594946
3835.363, 1.985308
3837.291, 1.347834
3839.220, 1.873096
3841.148, 2.044689
3843.077, 1.848090
3845.005, 1.911593
3846.934, 2.208632
3848.862, -0.5306779
3850.791, 0.3269895
3852.719, 0.6632476
3854.647, -1.832251
3856.576, -0.1326012
3858.504, 0.5899963
3860.433, 1.408454
3862.361, 1.048631
3864.290, 0.8199160
3866.218, -0.1963081
3868.147, -0.1827529
3870.075, 2.459754
3872.004, 3.141517
3873.932, -0.6709400
3875.861, 2.505502
3877.789, 0.5001571
3879.718, 2.072220
3881.646, 3.921613
3883.574, 3.536602
3885.503, 3.864887
3887.431, 0.8685323
3889.360, 0.9830965
3891.288, 1.382182
3893.217, 1.010671
3895.145, 1.374985
3897.074, 1.259411
3899.002, 0.2351652
3900.931, -0.2952477
3902.859, -0.5129037
3904.788, -1.844030
3906.716, 1.240643
3908.645, 0.7743827
3910.573, 0.8305035
3912.501, 1.095160
3914.430, 0.6405892
3916.358, 0.8994593
3918.287, 1.229006
3920.215, 1.403309
3922.144, -0.2799398
3924.072, 0.4443284
3926.001, -2.253019
3927.929, -3.343223
3929.858, -1.522696
3931.786, 0.4374575
3933.715, 2.368366
3935.643, -0.7490390
3937.572, -2.447938
3939.500, -0.9212538
3941.428, -1.231561
3943.357, 0.7171237
3945.285, 3.106757
3947.214, 1.408338
3949.142, 2.891019
3951.071, 2.970078
3952.999, 3.069979
3954.928, 2.763522
3956.856, -0.3403605
3958.785, 1.675202
3960.713, -0.4612507
3962.642, 4.4802349E-02
3964.570, 3.601155
3966.499, 1.881997
3968.427, 2.154568
3970.355, 0.1449793
3972.284, -1.194425
3974.212, -2.202281
3976.141, -0.4139237
3978.069, 0.9345885
3979.998, 1.369546
3981.926, 1.560734
3983.855, 3.022953
3985.783, 2.166728
3987.712, -0.6132716
3989.640, 0.5430629
3991.569, 0.7855781
3993.497, -1.570355
3995.426, 0.7430098
3997.354, -1.291940
3999.282, 3.650194
4001.211, 0.5881996
4003.139, 9.8224431E-02
4005.068, 2.101219
4006.996, 1.013587
4008.925, 0.5540991
4010.853, 1.559222
4012.782, -0.5899830
4014.710, 0.2592250
4016.639, 4.121285
4018.567, 0.3598965
4020.496, 2.123132
4022.424, 1.880920
4024.353, -1.503039
4026.281, -1.301175
4028.209, 1.330725
4030.138, 0.5091656
4032.066, 0.3039542
4033.995, 2.408313
4035.923, 1.819716
4037.852, 0.1450491
4039.780, 0.9408343
4041.709, -0.3264217
4043.637, -2.967262
4045.566, -2.276369
4047.494, -1.556071
4049.423, 1.130377
4051.351, -2.712354
4053.280, -1.900910
4055.208, 0.4124255
4057.136, 0.1587827
4059.065, 0.6582870
4060.993, 1.874757
4062.922, 0.6711122
4064.850, 1.461507
4066.779, -0.1762276
4068.707, 1.696198
4070.636, 0.9075745
4072.564, 1.112017
4074.493, -1.363863
4076.421, -1.205186
4078.350, -2.661767
4080.278, -5.096547
4082.207, -3.343018
4084.135, -3.980330
4086.063, -3.141901
4087.992, -2.489474
4089.920, 0.1916618
4091.849, 0.8009578
4093.777, 0.9522955
4095.706, 2.073747
4097.634, 6.8535410E-02
4099.563, 9.4332792E-02
4101.491, -1.105404
4103.419, -1.576825
4105.348, 2.9152110E-02
4107.276, 0.8082195
4109.205, -0.5614175
4111.133, -2.038592
4113.062, -2.360066
4114.990, -2.350941
4116.919, -0.2287976
4118.847, -1.816644
4120.776, 1.092115
4122.704, 0.1763475
4124.633, -1.126097
4126.561, -0.9235913
4128.490, 0.4967977
4130.418, 1.582216
4132.347, -1.826202
4134.275, 1.138659
4136.204, -3.332530
4138.132, -0.5924351
4140.061, -0.2548321
4141.989, 9.3511492E-03
4143.917, -0.6844022
4145.846, 0.6853693
4147.774, -0.8628662
4149.703, 1.034884
4151.631, 1.963980
4153.560, -1.505547
4155.488, -1.396018
4157.417, -3.185486
4159.345, -0.2764378
4161.273, -2.993113
4163.202, 1.643170
4165.130, 2.429665
4167.059, -1.238688
4168.987, 0.6075153
4170.916, -0.8539996
4172.844, 2.362299
4174.773, -1.927286
4176.701, -2.381817
4178.630, -2.519152
4180.558, -3.550670
4182.487, 1.343558
4184.415, -1.247816
4186.344, 2.931797
4188.272, -0.3250957
4190.201, 0.3684922
4192.129, 0.6373584
4194.058, -0.1948851
4195.986, -0.3651409
4197.915, -0.9087468
4199.843, -1.149505
4201.771, -0.9011112
4203.700, -0.7430080
4205.628, -2.466485
4207.557, -2.291479
4209.485, 0.5242287
4211.414, -2.288950
4213.342, 1.718844
4215.271, 3.672804
4217.199, -0.9266908
4219.127, -0.1389326
4221.056, -1.480717
4222.984, 0.2807446
4224.913, 7.3079810E-02
4226.841, 0.9576489
4228.770, -0.1441479
4230.698, -0.8728648
4232.627, -0.2277422
4234.555, 0.7569991
4236.484, 0.4815739
4238.412, -5.7092998E-02
4240.341, -0.1150854
4242.269, -0.8702601
4244.198, 1.571283
4246.126, 2.109919
4248.055, 2.526266
4249.983, 0.5531067
4251.912, -0.9178646
4253.840, -1.287266
4255.769, -1.160275
4257.697, 3.818154
4259.625, 0.5425230
4261.554, 1.973829
4263.482, 2.643243
4265.411, -0.8270169
4267.339, -1.987261
4269.268, -0.4800695
4271.196, -0.6358904
4273.125, -8.7004744E-02
4275.053, 2.037454
4276.981, 1.263589
4278.910, 5.5998922E-03
4280.838, -0.3240088
4282.767, 1.332082
4284.695, 1.739071
4286.624, 1.099564
4288.552, -0.2056055
4290.481, 2.177080
4292.409, 0.9720868
4294.338, 1.314466
4296.266, 0.1235414
4298.195, 0.3492271
4300.123, -0.7854054
4302.052, 1.321938
4303.980, 0.1617277
4305.909, -0.9590572
4307.837, 1.593294
4309.766, 3.006513
4311.694, 1.681252
4313.623, 1.780607
4315.551, 2.468274
4317.479, -0.3891773
4319.408, -1.095378
4321.336, 2.436743
4323.265, -1.953618
4325.193, -0.5867509
4327.122, -2.091540
4329.050, 0.7844343
4330.979, -1.325099
4332.907, 2.064491
4334.835, 1.616290
4336.764, -0.2387308
4338.692, -1.325892
4340.621, 5.7685431E-02
4342.549, 0.3957740
4344.478, 0.9168957
4346.406, 1.171613
4348.335, 0.2496178
4350.263, 1.041289
4352.192, 0.2996131
4354.120, 5.2627850E-02
4356.049, 0.7637495
4357.977, 0.2608385
4359.906, 0.8926562
4361.834, 0.7515063
4363.763, 0.9591705
4365.691, 0.2011740
4367.620, 4.7752898E-02
4369.548, 1.453139
4371.477, 0.9734399
4373.405, 0.1807951
4375.333, -1.132727
4377.262, -2.180451
4379.190, -2.031930
##END=



