##NAMES=Pickeringite
##RRUFFID=R060108
##IDEAL CHEMISTRY=MgAl_2_(SO_4_)_4_·22H_2_O
##LOCALITY=Tucumcari, New Mexico, USA
##OWNER=RRUFF
##SOURCE=University of Arizona Mineral Museum
##DESCRIPTION=Colorless acicular aggregates
##STATUS=The identification of this mineral has been confirmed by X-ray diffraction and chemical analysis
##URL=https://www.rruff.net/odr/rruff_sample/R060108
##MEASURED CHEMISTRY=(Mg_0.88_Mn_0.12_)Al_2.00_(S_1.00_O_4_)_4_·22H_2_O
##DIFFRACTION SAMPLE DESCRIPTION=Powder
##CELL PARAMETERS=a: 6.18 b: 24.268 c: 21.217 alpha: 90 beta: 100.31 gamma: 90 volume: 3130.9 crystal system: monoclinic
##FILETYPE=Raman Processed
##RAMAN WAVELENGTH=780

183.6574, 102.3869
185.5859, 101.9460
187.5144, 101.0904
189.4428, 100.4017
191.3713, 100.4395
193.2998, 100.7199
195.2282, 100.4495
197.1567, 99.36881
199.0852, 98.73717
201.0136, 98.91764
202.9421, 99.06880
204.8706, 98.79271
206.7990, 98.47969
208.7275, 98.51396
210.6560, 98.91126
212.5844, 99.21113
214.5129, 99.45319
216.4414, 99.53633
218.3698, 99.02866
220.2983, 98.34822
222.2268, 98.33641
224.1552, 98.09254
226.0837, 97.62901
228.0122, 96.28806
229.9406, 96.08013
231.8691, 94.42106
233.7976, 93.33396
235.7260, 93.28045
237.6545, 93.41115
239.5830, 92.57697
241.5114, 90.66482
243.4399, 89.48472
245.3684, 89.32507
247.2968, 89.05208
249.2253, 88.29379
251.1538, 87.39277
253.0822, 86.38775
255.0107, 85.44300
256.9392, 85.17837
258.8676, 85.76498
260.7961, 85.93730
262.7246, 85.36004
264.6530, 84.81962
266.5815, 84.73609
268.5100, 84.79225
270.4384, 84.62919
272.3669, 84.27367
274.2954, 84.18632
276.2238, 84.42726
278.1523, 84.65479
280.0808, 84.76497
282.0092, 84.85723
283.9377, 84.90606
285.8662, 85.01364
287.7946, 85.43502
289.7231, 86.14004
291.6516, 86.58102
293.5800, 86.60645
295.5085, 86.76184
297.4370, 87.40878
299.3654, 88.01900
301.2939, 88.16512
303.2224, 88.08676
305.1508, 88.42553
307.0793, 89.13311
309.0078, 89.54382
310.9362, 89.09570
312.8647, 89.61155
314.7932, 89.80368
316.7216, 89.68458
318.6501, 88.59643
320.5786, 88.54964
322.5070, 87.95720
324.4355, 87.25449
326.3640, 87.09227
328.2924, 85.41428
330.2209, 84.44052
332.1494, 83.97838
334.0778, 83.64304
336.0063, 83.11819
337.9348, 82.44754
339.8632, 81.69658
341.7917, 80.85300
343.7202, 80.13570
345.6486, 79.56977
347.5771, 79.16139
349.5056, 79.12881
351.4340, 79.05167
353.3625, 78.58874
355.2910, 77.85457
357.2194, 76.94582
359.1479, 75.82516
361.0764, 75.20877
363.0048, 75.63823
364.9333, 75.87218
366.8618, 75.59122
368.7902, 75.27043
370.7187, 75.15977
372.6472, 75.21378
374.5756, 75.38097
376.5041, 75.66841
378.4326, 76.07160
380.3610, 76.77223
382.2895, 77.27718
384.2180, 77.39025
386.1464, 77.53365
388.0749, 77.82188
390.0034, 78.28185
391.9318, 79.00715
393.8603, 79.97501
395.7888, 80.88142
397.7172, 81.66101
399.6457, 82.53117
401.5742, 83.58558
403.5026, 84.53760
405.4311, 84.89000
407.3596, 85.58768
409.2880, 87.62974
411.2165, 90.40776
413.1450, 92.24386
415.0734, 92.88937
417.0019, 94.11536
418.9304, 96.27320
420.8588, 98.02100
422.7873, 98.95410
424.7158, 99.59774
426.6442, 100.2196
428.5727, 100.6927
430.5012, 100.8437
432.4296, 100.7248
434.3581, 100.5617
436.2866, 100.2397
438.2150, 100.4806
440.1435, 101.7611
442.0720, 102.6080
444.0004, 101.9851
445.9289, 100.8095
447.8574, 101.4850
449.7858, 101.8854
451.7143, 102.0232
453.6428, 101.2406
455.5712, 101.5481
457.4997, 101.3585
459.4282, 101.1074
461.3566, 101.4454
463.2851, 100.5756
465.2136, 100.8176
467.1420, 100.5557
469.0705, 100.4617
470.9990, 99.86798
472.9274, 99.37238
474.8559, 97.43200
476.7844, 95.59444
478.7128, 93.89039
480.6413, 91.95728
482.5698, 89.68611
484.4982, 87.24093
486.4267, 84.43513
488.3552, 81.74351
490.2836, 79.46939
492.2121, 77.46607
494.1406, 75.46670
496.0690, 73.61394
497.9975, 72.56179
499.9260, 72.44151
501.8544, 72.01645
503.7829, 70.88985
505.7114, 69.85439
507.6398, 68.76726
509.5683, 68.04864
511.4968, 68.27926
513.4252, 68.85515
515.3537, 69.03125
517.2822, 68.91124
519.2106, 68.69170
521.1391, 68.37624
523.0676, 68.22849
524.9960, 68.53170
526.9245, 68.46288
528.8530, 67.64510
530.7814, 66.90624
532.7099, 66.40887
534.6384, 66.16328
536.5668, 66.55653
538.4953, 67.04619
540.4238, 66.67860
542.3522, 65.57430
544.2807, 64.94800
546.2092, 65.09518
548.1376, 64.91657
550.0661, 64.01001
551.9946, 63.42820
553.9230, 63.53670
555.8515, 63.71239
557.7800, 63.53691
559.7084, 63.44525
561.6369, 63.77928
563.5654, 64.37766
565.4938, 65.00007
567.4223, 65.67337
569.3508, 66.50587
571.2792, 67.67484
573.2077, 68.34543
575.1362, 68.18005
577.0646, 68.32510
578.9931, 69.18437
580.9216, 70.20477
582.8500, 71.08215
584.7785, 72.03941
586.7070, 73.30944
588.6354, 74.65527
590.5639, 75.77516
592.4924, 76.73696
594.4208, 77.52926
596.3493, 78.05696
598.2778, 78.99808
600.2062, 80.48221
602.1347, 82.06917
604.0632, 84.04187
605.9916, 85.27473
607.9201, 84.64341
609.8486, 83.87457
611.7770, 84.11636
613.7055, 84.52762
615.6340, 83.95869
617.5624, 82.79362
619.4909, 82.20522
621.4194, 82.08776
623.3478, 81.55236
625.2763, 80.59587
627.2048, 79.34159
629.1332, 77.68628
631.0617, 76.10502
632.9902, 74.88659
634.9186, 73.54977
636.8471, 71.69882
638.7756, 69.89689
640.7040, 68.62901
642.6325, 67.55663
644.5610, 66.26054
646.4894, 64.93851
648.4179, 63.96508
650.3464, 63.22115
652.2748, 62.31899
654.2033, 61.25573
656.1318, 60.38373
658.0602, 59.71912
659.9887, 59.26231
661.9172, 59.28610
663.8456, 59.10315
665.7741, 58.21537
667.7026, 57.59805
669.6310, 58.14235
671.5595, 58.71169
673.4880, 58.20317
675.4164, 57.12878
677.3449, 56.05444
679.2734, 55.17181
681.2018, 54.96789
683.1303, 55.36572
685.0588, 55.51986
686.9872, 55.37506
688.9157, 55.17349
690.8442, 54.88194
692.7726, 54.63494
694.7011, 54.41293
696.6296, 54.19056
698.5580, 53.99706
700.4865, 53.81685
702.4149, 53.45122
704.3434, 53.26427
706.2719, 53.86340
708.2003, 54.56425
710.1288, 54.50097
712.0573, 53.98226
713.9857, 53.64860
715.9142, 53.45829
717.8427, 53.39549
719.7711, 53.51877
721.6996, 53.71080
723.6281, 54.01340
725.5565, 54.10106
727.4850, 53.92373
729.4135, 53.76701
731.3419, 53.61141
733.2704, 53.50346
735.1989, 53.51687
737.1273, 53.58771
739.0558, 53.64834
740.9843, 53.74737
742.9127, 54.02143
744.8412, 54.23820
746.7697, 54.14614
748.6981, 53.85136
750.6266, 53.30524
752.5551, 52.63832
754.4835, 52.79248
756.4120, 53.73932
758.3405, 54.06697
760.2689, 53.75936
762.1974, 53.31776
764.1259, 52.72615
766.0543, 52.56123
767.9828, 53.04375
769.9113, 53.42105
771.8397, 53.47555
773.7682, 53.47744
775.6967, 53.53688
777.6251, 53.53247
779.5536, 53.27392
781.4821, 53.07166
783.4105, 53.22155
785.3390, 53.49924
787.2675, 53.73462
789.1959, 53.86972
791.1244, 53.71867
793.0529, 53.40920
794.9813, 53.34295
796.9098, 53.46423
798.8383, 53.46593
800.7667, 53.38781
802.6952, 53.62234
804.6237, 54.17299
806.5521, 54.20497
808.4806, 53.51316
810.4091, 53.28661
812.3375, 53.87498
814.2660, 54.34091
816.1945, 54.58228
818.1229, 54.61159
820.0514, 54.22225
821.9799, 53.99720
823.9083, 54.23056
825.8368, 54.41316
827.7653, 54.22399
829.6937, 54.08138
831.6222, 54.41357
833.5507, 54.69435
835.4791, 54.27142
837.4076, 53.78674
839.3361, 54.07410
841.2645, 54.60006
843.1930, 54.77139
845.1215, 54.57774
847.0499, 53.75099
848.9784, 52.63103
850.9069, 52.49421
852.8353, 53.21226
854.7638, 53.73791
856.6923, 54.07401
858.6207, 53.99361
860.5492, 53.37767
862.4777, 52.96811
864.4061, 52.88236
866.3346, 52.81930
868.2631, 52.79517
870.1915, 52.51135
872.1200, 51.81523
874.0485, 51.36395
875.9769, 51.40296
877.9054, 51.39111
879.8339, 51.17669
881.7623, 50.76889
883.6908, 50.06736
885.6193, 49.55544
887.5477, 49.41539
889.4762, 49.38466
891.4047, 49.54328
893.3331, 49.59149
895.2616, 49.23414
897.1901, 48.86340
899.1185, 48.68433
901.0470, 48.58582
902.9755, 48.58397
904.9039, 48.55997
906.8324, 48.35821
908.7609, 48.10319
910.6893, 47.93726
912.6178, 47.83960
914.5463, 47.77239
916.4747, 47.76509
918.4032, 47.74443
920.3317, 47.77982
922.2601, 48.32320
924.1886, 49.21276
926.1171, 49.63988
928.0455, 49.73176
929.9740, 50.04059
931.9025, 50.62632
933.8309, 51.82817
935.7594, 53.53746
937.6879, 54.87541
939.6163, 55.91334
941.5448, 57.73002
943.4733, 60.34393
945.4017, 62.99199
947.3302, 65.62624
949.2587, 68.16779
951.1871, 70.55698
953.1156, 73.44324
955.0441, 76.82389
956.9725, 80.88253
958.9010, 85.54099
960.8295, 91.42625
962.7579, 98.86315
964.6864, 106.7942
966.6149, 115.8403
968.5433, 123.7348
970.4718, 130.4021
972.4003, 135.8839
974.3287, 139.9115
976.2572, 143.1081
978.1857, 145.2454
980.1141, 147.1199
982.0426, 147.6935
983.9711, 150.2890
985.8995, 156.0594
987.8280, 162.8730
989.7565, 171.6177
991.6849, 178.6297
993.6134, 183.7130
995.5419, 185.3777
997.4703, 183.8268
999.3988, 176.9490
1001.327, 162.5388
1003.256, 146.0040
1005.184, 127.9216
1007.113, 110.6663
1009.041, 94.51191
1010.970, 81.01736
1012.898, 71.03348
1014.827, 63.41808
1016.755, 58.19598
1018.683, 54.17510
1020.612, 50.77907
1022.540, 48.68830
1024.469, 48.82389
1026.397, 48.98782
1028.326, 48.23203
1030.254, 47.42440
1032.183, 46.77216
1034.111, 46.37170
1036.040, 46.30166
1037.968, 46.42977
1039.897, 46.79208
1041.825, 47.24124
1043.754, 47.82548
1045.682, 48.23092
1047.610, 48.22581
1049.539, 48.31199
1051.467, 48.68424
1053.396, 49.04976
1055.324, 49.24634
1057.253, 49.58544
1059.181, 50.37073
1061.110, 50.99695
1063.038, 51.15081
1064.967, 51.18691
1066.895, 51.20054
1068.824, 51.27376
1070.752, 51.55678
1072.681, 51.64457
1074.609, 51.32447
1076.537, 51.00801
1078.466, 50.69613
1080.394, 50.46903
1082.323, 50.50999
1084.251, 50.51388
1086.180, 50.38256
1088.108, 50.11562
1090.037, 49.58226
1091.965, 49.23396
1093.894, 49.32714
1095.822, 49.23574
1097.751, 48.69688
1099.679, 48.29829
1101.608, 48.14761
1103.536, 48.08824
1105.464, 48.13569
1107.393, 48.19224
1109.321, 48.31480
1111.250, 48.36675
1113.178, 48.28524
1115.107, 48.22169
1117.035, 48.27161
1118.964, 48.05846
1120.892, 47.43657
1122.821, 47.13581
1124.749, 47.22047
1126.678, 47.19321
1128.606, 47.04096
1130.535, 47.08233
1132.463, 47.30585
1134.391, 47.36182
1136.320, 47.27691
1138.248, 47.10792
1140.177, 46.88229
1142.105, 46.71486
1144.034, 46.57215
1145.962, 46.62911
1147.891, 46.76079
1149.819, 46.24710
1151.748, 45.28851
1153.676, 44.33070
1155.605, 43.42025
1157.533, 42.85620
1159.462, 42.43910
1161.390, 41.82816
1163.318, 41.11053
1165.247, 40.24501
1167.175, 39.32485
1169.104, 38.61334
1171.032, 38.10079
1172.961, 37.63953
1174.889, 37.15582
1176.818, 36.72329
1178.746, 36.36066
1180.675, 35.98409
1182.603, 35.69424
1184.532, 35.57034
1186.460, 35.39630
1188.389, 35.09145
1190.317, 34.94529
1192.245, 35.08408
1194.174, 35.14042
1196.102, 35.01369
1198.031, 34.94941
1199.959, 34.95721
1201.888, 34.92274
1203.816, 34.93024
1205.745, 34.89172
1207.673, 34.70823
1209.602, 34.62858
1211.530, 34.70825
1213.459, 34.69123
1215.387, 34.55595
1217.316, 34.44088
1219.244, 34.39092
1221.172, 34.57804
1223.101, 34.86537
1225.029, 34.82347
1226.958, 34.60710
1228.886, 34.61474
1230.815, 34.70710
1232.743, 34.42355
1234.672, 34.12553
1236.600, 34.42598
1238.529, 34.77647
1240.457, 34.71339
1242.386, 34.62385
1244.314, 34.76949
1246.243, 34.85206
1248.171, 34.62134
1250.099, 34.45559
1252.028, 34.66584
1253.956, 34.89925
1255.885, 34.92347
1257.813, 34.80187
1259.742, 34.56520
1261.670, 34.54172
1263.599, 34.82956
1265.527, 34.85915
1267.456, 34.54049
1269.384, 34.42007
1271.313, 34.92626
1273.241, 35.22344
1275.170, 35.32289
1277.098, 34.63227
1279.026, 34.90416
1280.955, 35.00549
1282.883, 35.28321
1284.812, 35.50422
1286.740, 35.58729
1288.669, 35.52466
1290.597, 35.59849
1292.526, 36.09436
1294.454, 36.42311
1296.383, 36.27534
1298.311, 36.19044
1300.240, 36.27281
1302.168, 36.46560
1304.097, 36.82849
1306.025, 36.71999
1307.953, 36.00252
1309.882, 35.56669
1311.810, 35.55859
1313.739, 35.91690
1315.667, 36.33887
1317.596, 36.11024
1319.524, 35.65455
1321.453, 35.50340
1323.381, 35.38299
1325.310, 35.18600
1327.238, 35.06721
1329.167, 35.07369
1331.095, 35.08113
1333.024, 34.92973
1334.952, 34.78578
1336.880, 34.95803
1338.809, 35.00572
1340.737, 34.63968
1342.666, 34.44214
1344.594, 34.47346
1346.523, 34.57586
1348.451, 34.71924
1350.380, 34.71586
1352.308, 34.55426
1354.237, 34.38060
1356.165, 34.33660
1358.094, 34.44991
1360.022, 34.52368
1361.951, 34.61003
1363.879, 34.73726
1365.807, 34.70403
1367.736, 34.63687
1369.664, 34.76978
1371.593, 34.85467
1373.521, 34.61700
1375.450, 34.37190
1377.378, 34.28679
1379.307, 34.28907
1381.235, 34.39945
1383.164, 34.45063
1385.092, 34.38173
1387.021, 34.41021
1388.949, 34.47544
1390.878, 34.30460
1392.806, 34.18736
1394.734, 34.54713
1396.663, 34.85685
1398.591, 34.53960
1400.520, 34.46397
1402.448, 35.12156
1404.377, 35.37733
1406.305, 34.92932
1408.234, 34.50154
1410.162, 34.29769
1412.091, 34.14875
1414.019, 34.01086
1415.948, 34.28529
1417.876, 34.67879
1419.805, 34.60071
1421.733, 34.47888
1423.661, 34.62199
1425.590, 34.74041
1427.518, 34.86916
1429.447, 34.94637
1431.375, 34.87188
1433.304, 34.65788
1435.232, 34.28479
1437.161, 34.03565
1439.089, 34.01396
1441.018, 34.25787
1442.946, 34.50264
1444.875, 34.41909
1446.803, 34.26197
1448.731, 34.06284
1450.660, 33.86589
1452.588, 33.95480
1454.517, 34.08084
1456.445, 34.12472
1458.374, 34.26575
1460.302, 34.43446
1462.231, 34.17344
1464.159, 33.54287
1466.088, 33.56192
1468.016, 34.02147
1469.945, 33.78536
1471.873, 33.23961
1473.802, 33.07000
1475.730, 33.07430
1477.658, 33.09435
1479.587, 32.94690
1481.515, 32.65351
1483.444, 32.62879
1485.372, 32.72362
1487.301, 32.64140
1489.229, 32.70494
1491.158, 32.90028
1493.086, 32.80445
1495.015, 32.21857
1496.943, 31.68189
1498.872, 31.85505
1500.800, 32.18879
1502.729, 32.19395
1504.657, 32.02672
1506.585, 31.78505
1508.514, 32.13828
1510.442, 32.83950
1512.371, 32.64757
1514.299, 32.01360
1516.228, 31.94506
1518.156, 32.09865
1520.085, 31.98684
1522.013, 31.84760
1523.942, 31.85015
1525.870, 31.93214
1527.799, 32.18286
1529.727, 32.24400
1531.656, 32.06963
1533.584, 31.80902
1535.512, 31.55697
1537.441, 31.53573
1539.369, 31.69312
1541.298, 31.96823
1543.226, 32.18586
1545.155, 32.10355
1547.083, 31.92269
1549.012, 31.79914
1550.940, 31.83867
1552.869, 32.14964
1554.797, 32.28194
1556.726, 32.15640
1558.654, 31.70898
1560.583, 31.31216
1562.511, 31.43365
1564.439, 31.55342
1566.368, 31.80313
1568.296, 31.95239
1570.225, 31.58965
1572.153, 31.69586
1574.082, 32.15550
1576.010, 32.06925
1577.939, 31.79747
1579.867, 32.14059
1581.796, 32.49171
1583.724, 32.23640
1585.653, 32.14843
1587.581, 32.49592
1589.510, 32.63871
1591.438, 32.46108
1593.366, 32.31986
1595.295, 32.26125
1597.223, 32.12345
1599.152, 31.91272
1601.080, 32.09562
1603.009, 32.39705
1604.937, 32.30060
1606.866, 32.16446
1608.794, 32.23816
1610.723, 32.21923
1612.651, 32.11097
1614.580, 32.31581
1616.508, 32.47700
1618.437, 31.95106
1620.365, 31.47198
1622.293, 31.60450
1624.222, 31.71155
1626.150, 31.75511
1628.079, 31.76286
1630.007, 31.56561
1631.936, 31.62867
1633.864, 31.91907
1635.793, 31.77985
1637.721, 31.30676
1639.650, 30.81735
1641.578, 30.74074
1643.507, 30.93312
1645.435, 31.16943
1647.364, 31.37437
1649.292, 31.34179
1651.220, 31.27682
1653.149, 30.92227
1655.077, 30.41236
1657.006, 30.33017
1658.934, 30.61477
1660.863, 30.75562
1662.791, 30.50025
1664.720, 30.41351
1666.648, 30.59807
1668.577, 30.47429
1670.505, 30.16691
1672.434, 30.01911
1674.362, 30.00267
1676.291, 29.98010
1678.219, 29.86046
1680.147, 29.65461
1682.076, 29.51730
1684.004, 29.30289
1685.933, 29.01367
1687.861, 28.91940
1689.790, 29.01620
1691.718, 29.11281
1693.647, 28.93142
1695.575, 28.75163
1697.504, 28.85562
1699.432, 28.94144
1701.361, 28.96268
1703.289, 28.80297
1705.218, 28.26964
1707.146, 28.09498
1709.074, 28.31622
1711.003, 28.18542
1712.931, 27.95508
1714.860, 28.07486
1716.788, 28.08137
1718.717, 27.87396
1720.645, 27.63129
1722.574, 27.13346
1724.502, 26.96299
1726.431, 27.23028
1728.359, 27.45088
1730.288, 27.46600
1732.216, 27.26045
1734.145, 26.87284
1736.073, 26.25613
1738.001, 26.32376
1739.930, 26.83829
1741.858, 26.76864
1743.787, 26.56866
1745.715, 26.54851
1747.644, 26.50387
1749.572, 26.58712
1751.501, 26.72082
1753.429, 26.50794
1755.358, 26.35764
1757.286, 26.35666
1759.215, 25.97052
1761.143, 25.67025
1763.072, 25.72215
1765.000, 25.73972
1766.928, 25.90463
1768.857, 26.09496
1770.785, 26.05937
1772.714, 25.54290
1774.642, 25.06093
1776.571, 25.39985
1778.499, 25.74004
1780.428, 25.66174
1782.356, 25.34707
1784.285, 25.14366
1786.213, 25.31340
1788.142, 25.42158
1790.070, 25.32594
1791.999, 25.16240
1793.927, 25.09447
1795.855, 24.89855
1797.784, 24.46440
1799.712, 24.46369
1801.641, 24.54595
1803.569, 24.15953
1805.498, 23.97326
1807.426, 24.19951
1809.355, 24.30375
1811.283, 24.23502
1813.212, 24.14547
1815.140, 23.97763
1817.069, 23.86700
1818.997, 24.02743
1820.926, 24.22837
1822.854, 23.99858
1824.782, 23.74055
1826.711, 23.81099
1828.639, 23.67866
1830.568, 23.34472
1832.496, 23.34729
1834.425, 23.53769
1836.353, 23.80672
1838.282, 23.96951
1840.210, 23.72688
1842.139, 23.58566
1844.067, 23.76981
1845.996, 23.49651
1847.924, 22.91775
1849.853, 22.82863
1851.781, 22.97982
1853.709, 22.93695
1855.638, 22.76182
1857.566, 22.52518
1859.495, 22.43347
1861.423, 22.56334
1863.352, 22.53752
1865.280, 22.35117
1867.209, 22.26855
1869.137, 22.20261
1871.066, 22.33428
1872.994, 22.31980
1874.923, 22.15033
1876.851, 22.08833
1878.780, 21.92216
1880.708, 21.90466
1882.636, 21.68119
1884.565, 21.31231
1886.493, 21.49281
1888.422, 21.81448
1890.350, 21.69908
1892.279, 21.49234
1894.207, 21.63724
1896.136, 21.84084
1898.064, 21.84448
1899.993, 21.70750
1901.921, 21.56603
1903.850, 21.30704
1905.778, 21.23440
1907.707, 21.34691
1909.635, 21.38049
1911.563, 21.38919
1913.492, 21.32691
1915.420, 21.43288
1917.349, 21.33800
1919.277, 20.89615
1921.206, 20.79609
1923.134, 21.10814
1925.063, 21.12899
1926.991, 20.92400
1928.920, 20.76535
1930.848, 20.62129
1932.777, 20.96331
1934.705, 21.03346
1936.634, 20.47368
1938.562, 20.39729
1940.490, 20.55848
1942.419, 20.23880
1944.347, 19.94256
1946.276, 20.05173
1948.204, 20.25982
1950.133, 20.35420
1952.061, 20.13917
1953.990, 20.04994
1955.918, 20.25165
1957.847, 20.29409
1959.775, 20.12268
1961.704, 19.78303
1963.632, 19.64259
1965.561, 19.95142
1967.489, 20.12387
1969.417, 20.13761
1971.346, 19.73121
1973.274, 19.21685
1975.203, 19.31172
1977.131, 19.40614
1979.060, 19.17594
1980.988, 18.98988
1982.917, 19.16538
1984.845, 19.57046
1986.774, 19.69819
1988.702, 19.54208
1990.631, 19.45480
1992.559, 19.33285
1994.488, 18.56918
1996.416, 18.08669
1998.344, 18.59797
2000.273, 18.87018
2002.201, 18.58301
2004.130, 18.59592
2006.058, 18.85174
2007.987, 18.64021
2009.915, 18.42234
2011.844, 18.38235
2013.772, 18.32575
2015.701, 18.23480
2017.629, 17.95827
2019.558, 17.93983
2021.486, 18.33549
2023.415, 18.26155
2025.343, 17.70116
2027.271, 17.73100
2029.200, 18.14338
2031.128, 18.52991
2033.057, 18.72782
2034.985, 18.44903
2036.914, 18.01439
2038.842, 17.81155
2040.771, 17.60745
2042.699, 17.54824
2044.628, 17.59631
2046.556, 17.51222
2048.485, 17.45172
2050.413, 17.50089
2052.342, 17.33988
2054.270, 17.11102
2056.198, 17.48725
2058.127, 17.76666
2060.055, 17.31038
2061.984, 17.09268
2063.912, 17.18340
2065.841, 16.89093
2067.769, 16.53368
2069.698, 16.49467
2071.626, 16.73890
2073.555, 16.89077
2075.483, 16.77260
2077.412, 16.66843
2079.340, 16.75364
2081.269, 16.73298
2083.197, 16.45364
2085.125, 16.33583
2087.054, 16.44487
2088.982, 16.60339
2090.911, 16.58191
2092.839, 16.39384
2094.768, 15.93482
2096.696, 15.77193
2098.625, 16.21095
2100.553, 16.30983
2102.482, 16.07421
2104.410, 15.88626
2106.339, 15.92030
2108.267, 15.94046
2110.196, 16.10331
2112.124, 16.33541
2114.052, 16.26735
2115.981, 15.74603
2117.909, 15.34054
2119.838, 15.55457
2121.766, 15.74970
2123.695, 15.81810
2125.623, 15.65399
2127.552, 15.35811
2129.480, 15.64598
2131.409, 15.78704
2133.337, 15.46587
2135.266, 15.50291
2137.194, 15.70416
2139.123, 15.25405
2141.051, 14.80438
2142.979, 14.61829
2144.908, 14.79584
2146.836, 15.11401
2148.765, 15.02960
2150.693, 15.08251
2152.622, 15.23793
2154.550, 15.01664
2156.479, 14.77221
2158.407, 14.80115
2160.336, 14.80262
2162.264, 14.83583
2164.193, 15.27433
2166.121, 15.39041
2168.050, 14.69424
2169.978, 14.63791
2171.906, 15.07116
2173.835, 14.81035
2175.763, 14.52548
2177.692, 14.59044
2179.620, 14.63743
2181.549, 14.61715
2183.477, 14.53288
2185.406, 14.47581
2187.334, 14.40880
2189.263, 14.32507
2191.191, 14.33739
2193.120, 14.40714
2195.048, 14.32614
2196.977, 14.19418
2198.905, 13.99248
2200.833, 13.80303
2202.762, 13.81112
2204.690, 14.24545
2206.619, 14.55978
2208.547, 14.18759
2210.476, 14.11000
2212.404, 14.23687
2214.333, 14.13513
2216.261, 13.98550
2218.190, 13.73615
2220.118, 13.66825
2222.047, 13.71220
2223.975, 13.84634
2225.904, 13.70762
2227.832, 13.32122
2229.760, 13.43402
2231.689, 13.71871
2233.617, 13.89177
2235.546, 13.84385
2237.474, 13.73377
2239.403, 13.32780
2241.331, 13.31055
2243.260, 13.95176
2245.188, 13.47299
2247.117, 12.96662
2249.045, 13.46600
2250.974, 13.47606
2252.902, 13.17416
2254.831, 13.38211
2256.759, 13.43672
2258.688, 13.30721
2260.616, 13.30213
2262.544, 13.30552
2264.473, 13.18646
2266.401, 13.08103
2268.330, 13.11360
2270.258, 12.96695
2272.187, 12.95041
2274.115, 13.27030
2276.044, 13.00685
2277.972, 12.73982
2279.901, 13.32775
2281.829, 13.27293
2283.758, 12.71986
2285.686, 12.50068
2287.615, 12.52288
2289.543, 12.85013
2291.471, 12.59822
2293.400, 12.14266
2295.328, 12.06885
2297.257, 12.25406
2299.185, 12.62431
2301.114, 12.60004
2303.042, 12.49413
2304.971, 12.41949
2306.899, 12.42322
2308.828, 12.49852
2310.756, 12.69325
2312.685, 12.57185
2314.613, 12.25413
2316.542, 12.30742
2318.470, 12.32240
2320.398, 12.21254
2322.327, 12.52420
2324.255, 12.70306
2326.184, 12.29756
2328.112, 12.70302
2330.041, 13.11521
2331.969, 12.42383
2333.898, 12.24566
2335.826, 12.56202
2337.755, 12.27003
2339.683, 11.99734
2341.612, 12.02832
2343.540, 12.08176
2345.469, 11.96877
2347.397, 11.53041
2349.325, 11.58546
2351.254, 11.84270
2353.182, 11.41841
2355.111, 11.22673
2357.039, 11.36437
2358.968, 11.71915
2360.896, 11.92058
2362.825, 11.88540
2364.753, 11.67758
2366.682, 11.46210
2368.610, 11.48533
2370.539, 11.62040
2372.467, 11.72690
2374.396, 11.45416
2376.324, 11.39383
2378.252, 11.52959
2380.181, 11.15381
2382.109, 10.89214
2384.038, 11.04088
2385.966, 11.06186
2387.895, 11.13244
2389.823, 11.56811
2391.752, 11.51437
2393.680, 11.22733
2395.609, 11.22726
2397.537, 10.97971
2399.466, 10.59545
2401.394, 11.19941
2403.323, 11.45059
2405.251, 10.84614
2407.179, 11.12099
2409.108, 11.51110
2411.036, 11.42920
2412.965, 11.25729
2414.893, 11.16349
2416.822, 11.30569
2418.750, 10.97929
2420.679, 10.48122
2422.607, 10.67475
2424.536, 10.98476
2426.464, 11.20460
2428.393, 10.79678
2430.321, 10.45823
2432.250, 10.40725
2434.178, 10.49957
2436.106, 10.58938
2438.035, 10.63397
2439.963, 10.79088
2441.892, 10.75905
2443.820, 10.18257
2445.749, 10.28240
2447.677, 10.61613
2449.606, 10.29473
2451.534, 9.964153
2453.463, 9.825506
2455.391, 10.35206
2457.320, 10.44076
2459.248, 10.01125
2461.177, 10.24057
2463.105, 10.36551
2465.033, 10.07041
2466.962, 10.17537
2468.890, 10.38260
2470.819, 10.50593
2472.747, 10.21338
2474.676, 9.956618
2476.604, 10.29975
2478.533, 10.22248
2480.461, 9.969264
2482.390, 9.840247
2484.318, 9.846160
2486.247, 9.899521
2488.175, 9.765052
2490.104, 9.757648
2492.032, 9.833076
2493.960, 10.21416
2495.889, 10.31110
2497.817, 9.973867
2499.746, 9.431540
2501.674, 9.207852
2503.603, 9.505621
2505.531, 9.726409
2507.460, 9.815287
2509.388, 9.577587
2511.317, 9.921417
2513.245, 10.12446
2515.174, 9.531452
2517.102, 9.171542
2519.031, 9.152603
2520.959, 9.304707
2522.887, 9.227319
2524.816, 9.308447
2526.744, 9.746018
2528.673, 9.548292
2530.601, 9.102335
2532.530, 9.119434
2534.458, 9.215512
2536.387, 9.203475
2538.315, 9.308213
2540.244, 9.290466
2542.172, 9.141447
2544.101, 9.322955
2546.029, 9.263050
2547.958, 8.989774
2549.886, 9.554144
2551.814, 9.745346
2553.743, 9.405027
2555.671, 9.137319
2557.600, 8.920368
2559.528, 8.773514
2561.457, 8.677819
2563.385, 8.709416
2565.314, 8.801249
2567.242, 8.909674
2569.171, 9.221803
2571.099, 9.493554
2573.028, 8.982432
2574.956, 8.431498
2576.885, 8.268107
2578.813, 8.417232
2580.741, 8.534204
2582.670, 8.614251
2584.598, 8.222541
2586.527, 7.858872
2588.455, 7.935973
2590.384, 7.934958
2592.312, 7.889065
2594.241, 8.155435
2596.169, 8.001665
2598.098, 7.813764
2600.026, 7.849335
2601.955, 7.935311
2603.883, 8.033412
2605.812, 7.900188
2607.740, 7.980740
2609.668, 7.939613
2611.597, 7.474011
2613.525, 7.435450
2615.454, 7.563367
2617.382, 7.866595
2619.311, 7.858549
2621.239, 7.655452
2623.168, 7.585867
2625.096, 8.048780
2627.025, 8.287058
2628.953, 7.990313
2630.882, 7.580725
2632.810, 7.405340
2634.739, 7.725131
2636.667, 7.806525
2638.595, 7.937333
2640.524, 8.039953
2642.452, 7.269545
2644.381, 6.942665
2646.309, 7.273999
2648.238, 7.272581
2650.166, 7.109089
2652.095, 6.804824
2654.023, 7.013836
2655.952, 7.379180
2657.880, 7.347877
2659.809, 7.362018
2661.737, 7.510102
2663.666, 7.367636
2665.594, 7.635928
2667.522, 7.480340
2669.451, 6.848762
2671.379, 7.209716
2673.308, 7.157473
2675.236, 6.763845
2677.165, 6.879316
2679.093, 6.950109
2681.022, 6.946442
2682.950, 6.637710
2684.879, 6.932604
2686.807, 7.401651
2688.736, 6.747511
2690.664, 6.987089
2692.593, 7.434494
2694.521, 6.935944
2696.449, 6.966856
2698.378, 7.269644
2700.306, 7.003572
2702.235, 6.562147
2704.163, 6.276062
2706.092, 6.683128
2708.020, 6.562538
2709.949, 6.326354
2711.877, 6.822517
2713.806, 6.816943
2715.734, 6.703527
2717.663, 6.785870
2719.591, 6.698556
2721.520, 6.573307
2723.448, 6.511709
2725.376, 6.362933
2727.305, 6.132800
2729.233, 6.252559
2731.162, 6.649209
2733.090, 6.709944
2735.019, 6.791543
2736.947, 6.288671
2738.876, 6.415686
2740.804, 6.810289
2742.733, 6.199515
2744.661, 6.302056
2746.590, 6.709438
2748.518, 6.787341
2750.447, 6.768101
2752.375, 6.526555
2754.303, 5.863532
2756.232, 6.572507
2758.160, 6.837656
2760.089, 6.235904
2762.017, 6.338134
2763.946, 6.362743
2765.874, 6.105409
2767.803, 6.703770
2769.731, 7.011961
2771.660, 6.525545
2773.588, 6.113737
2775.517, 6.152644
2777.445, 6.107285
2779.374, 5.922233
2781.302, 6.548669
2783.230, 6.662753
2785.159, 6.026639
2787.087, 6.354842
2789.016, 6.733901
2790.944, 6.500532
2792.873, 6.564541
2794.801, 6.726870
2796.730, 6.558968
2798.658, 6.336662
2800.587, 6.200514
2802.515, 5.906415
2804.444, 6.076749
2806.372, 6.355173
2808.301, 6.350523
2810.229, 6.058116
2812.157, 5.804461
2814.086, 5.811880
2816.014, 6.194975
2817.943, 5.965705
2819.871, 5.851050
2821.800, 5.706455
2823.728, 5.927449
2825.657, 6.320201
2827.585, 6.317801
2829.514, 6.242189
2831.442, 5.827408
2833.371, 5.518238
2835.299, 5.906493
2837.228, 6.202811
2839.156, 6.250734
2841.084, 5.956283
2843.013, 5.642025
2844.941, 5.849881
2846.870, 6.097045
2848.798, 6.235344
2850.727, 6.690676
2852.655, 6.719889
2854.584, 5.794135
2856.512, 5.850084
2858.441, 6.011331
2860.369, 5.945212
2862.298, 6.238563
2864.226, 5.866510
2866.155, 5.392063
2868.083, 5.811943
2870.011, 5.792311
2871.940, 5.861379
2873.868, 6.033445
2875.797, 6.092431
2877.725, 6.081458
2879.654, 5.893044
2881.582, 5.804433
2883.511, 5.616363
2885.439, 5.587626
2887.368, 5.466021
2889.296, 5.839651
2891.225, 6.194520
2893.153, 6.314230
2895.082, 6.117338
2897.010, 5.855888
2898.938, 5.551984
2900.867, 5.272134
2902.795, 5.393964
2904.724, 5.386343
2906.652, 5.352186
2908.581, 5.861220
2910.509, 5.763894
2912.438, 5.635794
2914.366, 6.034406
2916.295, 6.394628
2918.223, 6.643555
2920.152, 6.737907
2922.080, 6.603362
2924.008, 6.327401
2925.937, 6.529857
2927.865, 5.834091
2929.794, 5.492845
2931.722, 5.613548
2933.651, 5.381408
2935.579, 5.542705
2937.508, 5.503464
2939.436, 5.478347
2941.365, 6.242399
2943.293, 6.009441
2945.221, 5.494303
2947.150, 5.643223
2949.078, 5.780014
2951.007, 5.617777
2952.935, 5.534317
2954.864, 5.134507
2956.792, 4.901976
2958.721, 5.030496
2960.649, 5.550292
2962.578, 5.295557
2964.506, 4.953123
2966.435, 4.780966
2968.363, 5.314363
2970.292, 5.788560
2972.220, 5.712829
2974.148, 4.748963
2976.077, 5.300028
2978.005, 5.773783
2979.934, 5.609953
2981.862, 5.383223
2983.791, 4.992157
2985.719, 4.668643
2987.648, 5.000236
2989.576, 5.384703
2991.505, 5.472755
2993.433, 5.347709
2995.362, 5.212534
2997.290, 5.408852
2999.219, 5.541436
3001.147, 5.404657
3003.075, 5.050525
3005.004, 5.282595
3006.932, 5.556601
3008.861, 5.679968
3010.789, 5.276844
3012.718, 4.899843
3014.646, 5.167506
3016.575, 5.169907
3018.503, 4.995041
3020.432, 4.806563
3022.360, 4.816621
3024.289, 5.322042
3026.217, 5.158940
3028.146, 4.643397
3030.074, 4.963079
3032.002, 5.098510
3033.931, 5.218245
3035.859, 5.114960
3037.788, 4.915243
3039.716, 4.725747
3041.645, 4.256475
3043.573, 4.281237
3045.502, 4.987669
3047.430, 5.423813
3049.359, 5.581106
3051.287, 4.836057
3053.216, 4.514712
3055.144, 4.705641
3057.073, 5.049174
3059.001, 4.955204
3060.929, 4.542223
3062.858, 4.136944
3064.786, 4.673192
3066.715, 4.806465
3068.643, 4.569208
3070.572, 4.344689
3072.500, 4.572457
3074.429, 4.244496
3076.357, 3.828800
3078.286, 3.607622
3080.214, 4.155696
3082.143, 4.107551
3084.071, 4.026728
3086.000, 4.327891
3087.928, 4.833041
3089.856, 5.121360
3091.785, 4.826436
3093.713, 4.693632
3095.642, 4.446062
3097.570, 4.360548
3099.499, 4.335793
3101.427, 4.115333
3103.356, 3.872900
3105.284, 4.264226
3107.213, 4.937612
3109.141, 4.304042
3111.070, 4.115838
3112.998, 4.308135
3114.927, 4.727225
3116.855, 4.084749
3118.783, 3.880578
3120.712, 3.943844
3122.640, 4.180240
3124.569, 4.245729
3126.497, 3.610113
3128.426, 3.458741
3130.354, 4.225796
3132.283, 4.036934
3134.211, 3.967039
3136.140, 4.008788
3138.068, 3.874345
3139.997, 4.207611
3141.925, 3.881336
3143.854, 3.078006
3145.782, 2.799210
3147.710, 3.686707
3149.639, 4.047545
3151.567, 3.661509
3153.496, 3.901029
3155.424, 3.978403
3157.353, 4.028533
3159.281, 3.959220
3161.210, 3.470982
3163.138, 3.744290
3165.067, 3.667578
3166.995, 3.258155
3168.924, 3.240679
3170.852, 3.362315
3172.781, 3.677361
3174.709, 4.052839
3176.637, 4.146936
3178.566, 4.106436
3180.494, 4.048499
3182.423, 4.124104
3184.351, 4.317204
3186.280, 4.162547
3188.208, 4.123784
3190.137, 4.172785
3192.065, 3.638181
3193.994, 3.388870
3195.922, 3.376900
3197.851, 3.475895
3199.779, 3.118163
3201.708, 3.569830
3203.636, 3.837534
3205.564, 3.490127
3207.493, 3.156272
3209.421, 3.380294
3211.350, 3.510021
3213.278, 3.443077
3215.207, 4.128736
3217.135, 3.968659
3219.064, 3.492064
3220.992, 3.057924
3222.921, 2.557803
3224.849, 2.913903
3226.778, 3.477607
3228.706, 3.790720
3230.635, 3.450391
3232.563, 3.591206
3234.491, 3.276336
3236.420, 2.888644
3238.348, 3.333343
3240.277, 3.532784
3242.205, 2.906728
3244.134, 2.369674
3246.062, 3.108417
3247.991, 3.927004
3249.919, 3.816419
3251.848, 3.370704
3253.776, 3.385865
3255.705, 3.600037
3257.633, 3.259446
3259.562, 2.871974
3261.490, 2.730176
3263.418, 2.626484
3265.347, 2.452702
3267.275, 2.715719
3269.204, 3.388082
3271.132, 2.945536
3273.061, 2.841785
3274.989, 3.100750
3276.918, 3.275398
3278.846, 2.462621
3280.775, 2.813359
3282.703, 3.084224
3284.632, 3.044281
3286.560, 2.968589
3288.489, 2.847606
3290.417, 2.829216
3292.345, 2.843834
3294.274, 2.936336
3296.202, 2.881411
3298.131, 2.702786
3300.059, 2.981351
3301.988, 3.525993
3303.916, 3.260266
3305.845, 2.978137
3307.773, 3.046859
3309.702, 3.247018
3311.630, 3.157899
3313.559, 3.561123
3315.487, 3.504748
3317.416, 3.004042
3319.344, 2.359492
3321.272, 2.559466
3323.201, 2.898915
3325.129, 2.832117
3327.058, 2.585166
3328.986, 3.042927
3330.915, 3.407127
3332.843, 3.118411
3334.772, 2.681958
3336.700, 2.851514
3338.629, 2.780826
3340.557, 2.448125
3342.486, 2.495332
3344.414, 2.913928
3346.343, 2.104319
3348.271, 2.880273
3350.199, 3.017773
3352.128, 2.485775
3354.056, 2.565936
3355.985, 2.520944
3357.913, 2.339898
3359.842, 2.438114
3361.770, 2.843820
3363.699, 2.521078
3365.627, 1.877075
3367.556, 2.038388
3369.484, 2.650519
3371.413, 2.575666
3373.341, 2.288256
3375.270, 2.287152
3377.198, 2.653435
3379.126, 3.148796
3381.055, 2.987115
3382.983, 2.960463
3384.912, 2.893950
3386.840, 2.614892
3388.769, 2.072312
3390.697, 1.760211
3392.626, 2.268730
3394.554, 2.947673
3396.483, 3.031510
3398.411, 1.858781
3400.340, 2.451411
3402.268, 2.592857
3404.197, 2.435128
3406.125, 2.519838
3408.053, 1.427776
3409.982, 2.118149
3411.910, 2.757478
3413.839, 2.796190
3415.767, 2.733102
3417.696, 2.673439
3419.624, 2.018751
3421.553, 1.891981
3423.481, 2.402005
3425.410, 2.091382
3427.338, 2.632580
3429.267, 2.172951
3431.195, 2.003634
3433.124, 2.913142
3435.052, 1.805023
3436.980, 2.360659
3438.909, 1.804137
3440.837, 1.723398
3442.766, 4.112545
3444.694, 2.926285
3446.623, 1.687081
3448.551, 1.688929
3450.480, 2.377306
3452.408, 2.531190
3454.337, 2.434414
3456.265, 2.025840
3458.194, 2.019799
3460.122, 2.386551
3462.051, 2.434184
3463.979, 1.652664
3465.907, 1.535602
3467.836, 1.717241
3469.764, 1.780918
3471.693, 1.693521
3473.621, 2.034128
3475.550, 2.035084
3477.478, 1.821451
3479.407, 1.731026
3481.335, 2.091783
3483.264, 1.919407
3485.192, 2.583633
3487.121, 2.713599
3489.049, 1.827451
3490.978, 1.564414
3492.906, 2.614758
3494.834, 2.522920
3496.763, 1.519700
3498.691, 0.7657954
3500.620, 1.760385
3502.548, 1.232713
3504.477, 1.725215
3506.405, 1.972736
3508.334, 1.532161
3510.262, 2.091727
3512.191, 1.397347
3514.119, 3.9595932E-02
3516.048, 0.3487805
3517.976, 2.020514
3519.905, 2.142370
3521.833, 2.275733
3523.761, 1.462228
3525.690, 1.431301
3527.618, 2.000790
3529.547, 1.481287
3531.475, 1.299941
3533.404, 1.106285
3535.332, 0.9662445
3537.261, 1.284714
3539.189, 2.238338
3541.118, 2.214705
3543.046, 1.803773
3544.975, 1.746816
3546.903, 1.885617
3548.832, 1.853044
3550.760, 1.734886
3552.688, 1.553173
3554.617, 1.500149
3556.545, 1.535910
3558.474, 1.621301
3560.402, 1.834971
3562.331, 1.418866
3564.259, 1.185865
3566.188, 0.8087705
3568.116, 0.5883905
3570.045, 1.326778
3571.973, 2.008137
3573.902, 2.318198
3575.830, 2.340858
3577.759, 2.289002
3579.687, 2.193546
3581.615, 1.532164
3583.544, 1.635614
3585.472, 2.292123
3587.401, 2.246032
3589.329, 1.735937
3591.258, 2.488236
3593.186, 2.003319
3595.115, 2.055408
3597.043, 2.469094
3598.972, 2.702141
3600.900, 2.602919
3602.829, 3.083234
3604.757, 3.370323
3606.686, 3.212632
3608.614, 2.668568
3610.542, 2.389914
3612.471, 3.500136
3614.399, 3.570053
3616.328, 3.785476
3618.256, 3.605009
3620.185, 3.287624
3622.113, 3.013900
3624.042, 1.821702
3625.970, 3.076507
3627.899, 3.360055
3629.827, 3.023105
3631.756, 2.860424
3633.684, 2.960632
3635.613, 2.356674
3637.541, 2.553080
3639.469, 2.710187
3641.398, 1.855030
3643.326, 0.9891013
3645.255, 2.185022
3647.183, 2.317641
3649.112, 2.023175
3651.040, 1.174638
3652.969, 1.095473
3654.897, 2.168128
3656.826, 2.706150
3658.754, 3.002766
3660.683, 2.367854
3662.611, 2.353714
3664.540, 2.403514
3666.468, 1.900492
3668.396, 2.136105
3670.325, 1.857517
3672.253, 1.557592
3674.182, 0.9608563
3676.110, 0.7433426
3678.039, 1.294344
3679.967, 1.615292
3681.896, 0.5674924
3683.824, 1.350871
3685.753, 1.552527
3687.681, 1.538278
3689.610, 2.136897
3691.538, 1.697816
3693.467, 1.562317
3695.395, 1.401902
3697.323, 0.7429056
3699.252, 0.5451384
3701.180, 1.166245
3703.109, 1.248564
3705.037, 1.596904
3706.966, 1.545439
3708.894, 1.075495
3710.823, 0.8085858
3712.751, 1.005567
3714.680, 1.275414
3716.608, 0.9514737
3718.537, 1.459110
3720.465, 1.605047
3722.394, 1.442499
3724.322, 1.261352
3726.250, 1.374051
3728.179, 3.422907
3730.107, 2.315956
3732.036, 1.204505
3733.964, 1.118807
3735.893, 1.295939
3737.821, 0.8045512
3739.750, -0.1823169
3741.678, 0.7904426
3743.607, 1.267583
3745.535, 1.416491
3747.464, 1.072099
3749.392, 0.5569987
3751.321, 0.6386392
3753.249, 0.5905944
3755.177, 1.010932
3757.106, 1.557744
3759.034, 1.745275
3760.963, 1.582684
3762.891, 1.476845
3764.820, 2.018085
3766.748, 1.598603
3768.677, 1.295121
3770.605, 0.6468582
3772.534, 0.2664035
3774.462, 0.4027103
3776.391, 0.6655176
3778.319, 1.044068
3780.248, 1.337681
3782.176, 0.9919516
3784.104, 0.9353113
3786.033, 1.031824
3787.961, 0.9216744
3789.890, 0.8004552
3791.818, 1.269557
3793.747, 1.021474
3795.675, 1.435225
3797.604, 1.748836
3799.532, 1.127417
3801.461, 0.5181864
3803.389, 1.493147
3805.318, 1.308607
3807.246, 1.256394
3809.175, 1.569514
3811.103, 1.413196
3813.031, 0.8565857
3814.960, 0.6556958
3816.888, 1.195922
3818.817, 0.7896183
3820.745, 1.110374
3822.674, 0.4215336
3824.602, 0.4430561
3826.531, 0.9688025
3828.459, 1.081862
3830.388, 0.7598439
3832.316, 1.300754
3834.245, 1.130565
3836.173, 0.9476327
3838.102, 0.9436312
3840.030, 0.6435973
3841.958, 0.8361298
3843.887, 1.838448
3845.815, 0.7634416
3847.744, 1.677821
3849.672, -0.5499625
3851.601, 0.5904282
3853.529, 1.750616
3855.458, 0.6843959
3857.386, -0.1539292
3859.315, 1.869821
3861.243, 0.9403839
3863.172, 0.7328157
3865.100, 1.163602
3867.029, 1.142051
3868.957, 0.9715924
3870.885, 1.118227
3872.814, 1.346022
3874.742, 0.7954429
3876.671, 2.855115
3878.599, 1.654950
3880.528, 1.473848
3882.456, 1.148856
3884.385, 0.5493174
3886.313, 0.3471577
3888.242, 0.4109608
3890.170, 9.6460283E-02
3892.099, 0.3470529
3894.027, 0.4689725
3895.956, 0.8018774
3897.884, 1.854853
3899.813, 1.459216
3901.741, 0.3646754
3903.669, 1.063374
3905.598, 0.2269332
3907.526, 1.168414
3909.455, 1.568794
3911.383, 0.7719748
3913.312, 0.7418964
3915.240, 0.9070088
3917.169, 0.4036897
3919.097, -2.0961011E-02
3921.026, 0.9909168
3922.954, 1.146270
3924.883, 0.7861412
3926.811, 0.9040243
3928.740, 0.6234631
3930.668, 0.7299430
3932.596, 1.071201
3934.525, 1.157990
3936.453, 1.525200
3938.382, 0.4917338
3940.310, -0.1414873
3942.239, 0.4648413
3944.167, 1.217252
3946.096, 1.776189
3948.024, 2.048378
3949.953, 1.865872
3951.881, 1.447073
3953.810, 1.479611
3955.738, 5.2108970E-02
3957.667, 1.312168
3959.595, 2.782943
3961.523, 1.706954
3963.452, 1.622969
3965.380, 1.385579
3967.309, 0.9019473
3969.237, 1.051010
3971.166, 0.9737214
3973.094, 1.256159
3975.023, 1.073381
3976.951, 0.2342955
3978.880, 0.5096353
3980.808, 0.7138790
3982.737, 1.077131
3984.665, 1.419624
3986.594, 0.9957438
3988.522, 0.6121251
3990.450, 0.8353384
3992.379, 0.1055087
3994.307, -8.1883460E-02
3996.236, 1.210740
3998.164, 1.054090
4000.093, 2.166203
4002.021, 0.7632788
4003.950, 0.2877384
4005.878, 1.252701
4007.807, 1.560243
4009.735, 1.165329
4011.664, 0.8587853
4013.592, 0.3744896
4015.521, -0.3671538
4017.449, 0.6301199
4019.377, 0.9235860
4021.306, 1.250799
4023.234, 1.229000
4025.163, 0.7016577
4027.091, 0.2521448
4029.020, -0.2447582
4030.948, -0.5391172
4032.877, 1.660116
4034.805, 1.382286
4036.734, 0.9627144
4038.662, 0.8908476
4040.591, 0.7277305
4042.519, 0.8108847
4044.448, 0.8570751
4046.376, 0.6351076
4048.304, 1.293303
4050.233, 1.113209
4052.161, 1.898393
4054.090, 1.714498
4056.018, 1.524204
4057.947, 1.326051
4059.875, 0.7446247
4061.804, 0.7947724
4063.732, 1.392612
4065.661, 1.457608
4067.589, 1.065337
4069.518, 1.037975
4071.446, 0.8749430
4073.375, 2.119604
4075.303, 1.583126
4077.231, 0.3794939
4079.160, 0.9391260
4081.088, 1.431427
4083.017, 0.7184018
4084.945, 0.4603507
4086.874, 1.130731
4088.802, 0.7548817
4090.731, 1.697839
4092.659, 1.542056
4094.588, 0.2672190
4096.516, 0.7035342
4098.444, -1.0111460E-02
4100.373, 0.8854617
4102.301, 1.472385
4104.230, 0.9100975
4106.158, 0.5064415
4108.087, 0.7978319
4110.015, 1.166947
4111.944, 0.6029621
4113.872, 0.4482875
4115.801, 1.114674
4117.729, 1.486223
4119.658, -0.2618967
4121.586, -0.7837887
4123.515, 0.7773238
4125.443, 1.458351
4127.372, 1.475442
4129.300, 1.500592
4131.229, 1.164282
4133.157, 1.460620
4135.085, 0.5191059
4137.014, 1.316426
4138.942, 0.7760351
4140.871, 1.071793
4142.799, 0.3896323
4144.728, 0.5688368
4146.656, 0.6972238
4148.584, 1.019835
4150.513, 1.180700
4152.441, 0.8709432
4154.370, 0.9997007
4156.298, 1.499405
4158.227, 0.6926309
4160.155, 0.6295668
4162.084, -0.6135314
4164.012, 0.9350172
4165.941, 0.7050142
4167.869, 0.8257228
4169.798, 0.8259236
4171.726, 1.092005
4173.655, 0.8411219
4175.583, 1.032038
4177.512, 0.6436338
4179.440, 0.3595205
4181.369, 1.255296
4183.297, 0.8981619
4185.226, 0.7548006
4187.154, 0.4184380
4189.083, 1.623396
4191.011, 1.704009
4192.939, 0.9836077
4194.868, 0.3237117
4196.796, 0.4800400
4198.725, 0.4267116
4200.653, 1.016686
4202.582, 0.8112748
4204.510, 1.314565
4206.438, 2.078855
4208.367, 1.668644
4210.295, 1.152298
4212.224, 0.5162373
4214.152, 1.000999
4216.081, -2.6376279E-02
4218.009, 1.083305
4219.938, 1.471486
4221.866, 1.349602
4223.795, 0.8671401
4225.723, 0.8024637
4227.652, 1.231813
4229.580, 1.694689
4231.509, 1.400412
4233.437, 0.6542900
4235.366, 0.4502530
4237.294, 0.7263688
4239.223, 1.469341
4241.151, 1.865712
4243.080, 0.5243794
4245.008, 0.1306345
4246.937, 0.5764233
4248.865, 1.017008
4250.793, 1.227319
4252.722, -0.4637026
4254.650, 0.4544183
4256.579, 1.701657
4258.507, 0.4464386
4260.436, 0.8445734
4262.364, 0.5387911
4264.292, 0.6501243
4266.221, 1.294549
4268.149, 1.306528
4270.078, 1.351304
4272.006, 0.9117117
4273.935, 0.3906682
4275.863, 0.6580812
4277.792, 0.6670426
4279.720, 1.299361
4281.649, 1.927717
4283.577, 1.876214
4285.506, 1.055216
4287.434, 0.9980606
4289.363, 1.256027
4291.291, 1.350318
4293.220, 0.5356561
4295.148, 1.440590
4297.077, 1.431942
4299.005, 1.260107
4300.934, 0.8137015
4302.862, 0.6532536
4304.791, 0.3089700
4306.719, 0.8307441
4308.647, 0.6248782
4310.576, 1.094578
4312.504, 1.830040
4314.433, 0.9475159
4316.361, 0.3892208
4318.290, 0.8749424
4320.218, 1.037601
4322.146, 1.644878
4324.075, 1.277931
4326.003, 1.459641
4327.932, 0.8654706
4329.860, 1.013169
4331.789, 0.9889537
4333.717, 0.6632920
4335.646, 0.9175335
4337.574, -4.8807818E-02
4339.503, 0.9433936
4341.431, 0.3747471
4343.360, 1.489752
4345.288, 0.6904873
4347.217, 0.4557271
4349.145, 1.357247
4351.074, 0.5457470
4353.002, 1.066845
4354.931, 1.262977
4356.859, 0.8025827
4358.788, 0.9435784
4360.716, 1.282157
4362.645, 0.7248402
4364.573, 0.7444063
4366.501, 1.422358
4368.430, 0.9871042
4370.358, 0.4318483
4372.287, 1.055527
4374.215, 1.154941
4376.144, 0.4260967
4378.072, 1.150837
4380.000, 1.644663
4381.929, 1.139515
##END=



