##NAMES=Piemontite
##RRUFFID=R150096
##IDEAL CHEMISTRY=Ca_2_(Al_2_Mn^3+^)[Si_2_O_7_][SiO_4_]O(OH)
##LOCALITY=Ash Canyon, Huachuca Mountains, Cochise County, Arizona, USA
##OWNER=RRUFF
##SOURCE=Marcus Origlieri
##DESCRIPTION=Red prismatic crystals, associated with yellow tabular or massive axinite-(Mn), on white quartz matrix
##STATUS=The identification of this mineral has been confirmed only by single crystal X-ray diffraction
##URL=https://www.rruff.net/odr/rruff_sample/R150096
##DIFFRACTION SAMPLE DESCRIPTION=Single crystal, powder profile is calculated
##CELL PARAMETERS=a: 8.8907 b: 5.6311 c: 10.1602 alpha: 90 beta: 115.416 gamma: 90 volume: 459.43 crystal system: monoclinic
##FILETYPE=Raman Processed
##RAMAN WAVELENGTH=780

74.70068, 792.5032
76.62915, 825.3655
78.55762, 892.2401
80.48608, 981.5937
82.41455, 1095.715
84.34302, 1246.386
86.27148, 1460.289
88.19995, 1645.641
90.12842, 1798.375
92.05688, 1907.277
93.98535, 1888.122
95.91382, 1729.318
97.84229, 1582.141
99.77075, 1449.747
101.6992, 1331.163
103.6277, 1217.143
105.5562, 1114.984
107.4846, 1025.731
109.4131, 947.6057
111.3416, 886.3109
113.2700, 841.6203
115.1985, 809.6116
117.1270, 788.5474
119.0554, 778.0341
120.9839, 776.6105
122.9124, 784.5104
124.8408, 806.5461
126.7693, 850.3356
128.6978, 895.8597
130.6262, 958.7662
132.5547, 1006.225
134.4832, 1020.223
136.4116, 1005.322
138.3401, 967.3066
140.2686, 888.9091
142.1970, 818.4854
144.1255, 755.4223
146.0540, 700.8940
147.9824, 655.8625
149.9109, 619.3259
151.8394, 591.0058
153.7678, 572.5594
155.6963, 559.0365
157.6248, 551.7523
159.5532, 547.1422
161.4817, 544.3791
163.4102, 543.0070
165.3386, 542.9351
167.2671, 544.3867
169.1956, 545.1566
171.1240, 545.0516
173.0525, 544.6821
174.9810, 542.4747
176.9094, 541.6117
178.8379, 545.1626
180.7664, 552.8719
182.6948, 561.2972
184.6233, 571.5371
186.5518, 578.2545
188.4802, 577.8499
190.4087, 575.8188
192.3372, 573.8675
194.2656, 572.6962
196.1941, 574.4205
198.1226, 578.7522
200.0510, 586.1680
201.9795, 598.4866
203.9080, 611.0878
205.8364, 621.2233
207.7649, 631.1733
209.6934, 643.5941
211.6218, 658.5637
213.5503, 676.3143
215.4788, 696.4697
217.4072, 720.8808
219.3357, 752.3992
221.2642, 785.6776
223.1926, 819.8068
225.1211, 852.2242
227.0496, 877.8329
228.9780, 896.8770
230.9065, 906.2101
232.8350, 896.4352
234.7634, 887.0645
236.6919, 880.3015
238.6204, 879.6438
240.5488, 894.2770
242.4773, 920.4284
244.4058, 938.2305
246.3342, 947.9785
248.2627, 943.3265
250.1912, 918.0068
252.1196, 884.7416
254.0481, 847.1982
255.9766, 808.5964
257.9051, 773.6357
259.8335, 742.1758
261.7620, 716.4324
263.6905, 696.7092
265.6189, 682.2933
267.5474, 674.9703
269.4759, 671.5192
271.4043, 672.8306
273.3328, 675.8472
275.2613, 668.9323
277.1897, 647.8447
279.1182, 624.8210
281.0467, 595.3187
282.9751, 570.1773
284.9036, 554.2078
286.8321, 544.3217
288.7605, 538.6449
290.6890, 536.9914
292.6175, 533.6364
294.5459, 528.6289
296.4744, 521.7079
298.4029, 512.4683
300.3313, 501.7576
302.2598, 488.0468
304.1883, 474.3377
306.1167, 464.0018
308.0452, 457.0802
309.9737, 453.6000
311.9021, 454.1014
313.8306, 455.5506
315.7591, 456.9647
317.6875, 459.9367
319.6160, 466.9022
321.5445, 474.7938
323.4729, 479.7948
325.4014, 481.7580
327.3299, 479.6173
329.2583, 472.4374
331.1868, 465.4385
333.1153, 459.4515
335.0437, 454.6266
336.9722, 450.7867
338.9007, 448.2103
340.8291, 447.6071
342.7576, 448.9004
344.6861, 450.5927
346.6145, 453.1157
348.5430, 453.5597
350.4715, 450.4983
352.3999, 446.1253
354.3284, 440.6694
356.2569, 434.8732
358.1853, 429.4754
360.1138, 424.4883
362.0423, 419.7210
363.9707, 415.1187
365.8992, 411.3823
367.8277, 408.5214
369.7561, 406.8447
371.6846, 405.7694
373.6131, 406.4363
375.5415, 409.8580
377.4700, 415.8781
379.3985, 423.8953
381.3269, 433.9111
383.2554, 445.4301
385.1839, 459.9893
387.1123, 473.1236
389.0408, 486.4357
390.9693, 495.5556
392.8977, 497.3805
394.8262, 493.5417
396.7547, 485.1158
398.6831, 473.0316
400.6116, 463.5974
402.5401, 456.7123
404.4685, 454.0623
406.3970, 454.8029
408.3255, 460.5744
410.2539, 470.9048
412.1824, 487.5533
414.1109, 512.2173
416.0393, 543.9938
417.9678, 582.4518
419.8963, 629.5353
421.8247, 673.2964
423.7532, 721.5154
425.6817, 754.0845
427.6101, 764.0751
429.5386, 763.8353
431.4671, 754.5330
433.3955, 742.1180
435.3240, 730.7481
437.2525, 721.2347
439.1809, 718.7618
441.1094, 724.1883
443.0379, 735.9147
444.9664, 760.2274
446.8948, 776.8831
448.8233, 783.5693
450.7518, 775.9235
452.6802, 745.7305
454.6087, 705.1064
456.5372, 667.7964
458.4656, 633.8071
460.3941, 603.3817
462.3226, 576.1947
464.2510, 554.1699
466.1795, 538.6545
468.1080, 524.9896
470.0364, 511.3231
471.9649, 499.3792
473.8934, 489.7320
475.8218, 482.4723
477.7503, 477.7139
479.6788, 475.5158
481.6072, 476.3649
483.5357, 480.2490
485.4642, 484.8119
487.3926, 489.6339
489.3211, 495.7422
491.2496, 503.6071
493.1780, 512.7897
495.1065, 523.5658
497.0350, 535.2459
498.9634, 547.7623
500.8919, 560.4501
502.8204, 572.3529
504.7488, 583.1865
506.6773, 590.0967
508.6058, 593.5548
510.5342, 589.8928
512.4627, 574.2615
514.3912, 556.6708
516.3196, 536.9988
518.2481, 519.1199
520.1766, 507.2341
522.1050, 498.1735
524.0335, 487.8133
525.9620, 476.0351
527.8904, 461.1727
529.8189, 442.2393
531.7474, 428.0223
533.6758, 420.6230
535.6043, 416.4304
537.5328, 415.8100
539.4612, 417.2095
541.3897, 418.7107
543.3182, 423.1248
545.2466, 432.9310
547.1751, 447.4423
549.1036, 464.9272
551.0320, 485.8232
552.9605, 515.4521
554.8890, 553.8481
556.8174, 601.7349
558.7459, 659.7875
560.6744, 725.6820
562.6028, 821.6695
564.5313, 893.8662
566.4598, 921.0191
568.3882, 909.4150
570.3167, 850.3826
572.2452, 767.2482
574.1736, 696.5163
576.1021, 638.2775
578.0306, 594.2427
579.9590, 565.4965
581.8875, 549.1113
583.8160, 546.5137
585.7444, 551.8638
587.6729, 565.2917
589.6014, 584.1759
591.5298, 610.3545
593.4583, 638.0485
595.3868, 669.1999
597.3152, 695.4757
599.2437, 708.0883
601.1722, 706.9297
603.1006, 689.4398
605.0291, 655.1472
606.9576, 618.5793
608.8860, 579.1078
610.8145, 542.8589
612.7430, 510.1147
614.6714, 482.7316
616.5999, 462.3749
618.5284, 446.1437
620.4568, 433.3154
622.3853, 423.4716
624.3138, 417.2710
626.2422, 413.1805
628.1707, 409.5513
630.0992, 406.0999
632.0276, 401.6676
633.9561, 396.4672
635.8846, 392.2262
637.8130, 389.0920
639.7415, 386.5567
641.6700, 385.1719
643.5984, 382.7444
645.5269, 377.5575
647.4554, 373.0964
649.3839, 370.8392
651.3123, 369.1787
653.2408, 367.7964
655.1693, 365.8811
657.0977, 362.3666
659.0262, 357.7229
660.9547, 352.6522
662.8831, 347.2426
664.8116, 341.8055
666.7401, 336.3522
668.6685, 330.8313
670.5970, 324.8738
672.5255, 319.8559
674.4539, 315.9182
676.3824, 312.7863
678.3109, 310.2545
680.2393, 308.7636
682.1678, 309.8862
684.0963, 310.4955
686.0247, 308.5562
687.9532, 305.0199
689.8817, 300.5923
691.8101, 295.4273
693.7386, 289.4924
695.6671, 283.0028
697.5955, 277.3230
699.5240, 272.5428
701.4525, 267.4010
703.3809, 261.5178
705.3094, 256.4334
707.2379, 252.2409
709.1663, 248.6606
711.0948, 245.5746
713.0233, 243.3834
714.9517, 242.8955
716.8802, 242.1948
718.8087, 239.8070
720.7371, 237.3985
722.6656, 235.9224
724.5941, 235.1088
726.5225, 234.8155
728.4510, 234.8763
730.3795, 235.0450
732.3079, 235.2752
734.2364, 235.4477
736.1649, 235.5401
738.0933, 235.0621
740.0218, 233.9645
741.9503, 233.8943
743.8787, 235.2550
745.8072, 235.7433
747.7357, 234.5078
749.6641, 233.9465
751.5926, 235.2868
753.5211, 236.3608
755.4495, 236.0151
757.3780, 235.8416
759.3065, 236.6777
761.2349, 237.7858
763.1634, 238.8843
765.0919, 239.7103
767.0203, 239.4508
768.9488, 239.0479
770.8773, 240.7309
772.8057, 243.2950
774.7342, 243.3601
776.6627, 241.6821
778.5911, 241.5574
780.5196, 242.9502
782.4481, 243.4529
784.3765, 242.7222
786.3050, 243.1094
788.2335, 245.3527
790.1619, 247.1585
792.0904, 247.6686
794.0189, 248.8051
795.9473, 250.8197
797.8758, 253.3734
799.8043, 256.8790
801.7327, 260.1511
803.6612, 262.3160
805.5897, 264.5851
807.5181, 267.5229
809.4466, 270.9836
811.3751, 274.7566
813.3036, 279.1317
815.2321, 284.4642
817.1605, 290.5071
819.0890, 297.1933
821.0175, 304.2057
822.9459, 311.0553
824.8744, 317.5970
826.8029, 323.3456
828.7313, 328.2493
830.6598, 331.4735
832.5883, 332.9881
834.5167, 332.8955
836.4452, 330.8671
838.3737, 328.4308
840.3021, 325.1935
842.2306, 323.3782
844.1591, 323.2432
846.0875, 324.2728
848.0160, 326.5050
849.9445, 329.5225
851.8729, 333.2984
853.8014, 337.6668
855.7299, 342.7433
857.6583, 348.0517
859.5868, 353.3015
861.5153, 358.8959
863.4437, 365.8221
865.3722, 372.0395
867.3007, 376.0685
869.2291, 379.3876
871.1576, 383.3694
873.0861, 386.8643
875.0145, 389.2190
876.9430, 390.0965
878.8715, 388.4899
880.7999, 385.5986
882.7284, 383.1152
884.6569, 380.7990
886.5853, 377.7803
888.5138, 374.6832
890.4423, 373.0006
892.3707, 372.6088
894.2992, 372.7086
896.2277, 373.8237
898.1561, 378.0870
900.0846, 385.4874
902.0131, 395.4819
903.9415, 408.0579
905.8700, 424.3860
907.7985, 444.6284
909.7269, 464.0227
911.6554, 482.7646
913.5839, 497.4210
915.5123, 508.6646
917.4408, 512.4212
919.3693, 508.5380
921.2977, 496.8575
923.2262, 473.6689
925.1547, 449.4905
927.0831, 423.5991
929.0116, 398.6954
930.9401, 373.9762
932.8685, 352.0607
934.7970, 333.1508
936.7255, 317.5284
938.6539, 306.3201
940.5824, 296.5097
942.5109, 286.7469
944.4393, 279.4122
946.3678, 275.8687
948.2963, 273.8442
950.2247, 272.6451
952.1532, 272.3850
954.0817, 273.7906
956.0101, 274.9030
957.9386, 274.4991
959.8671, 273.8672
961.7955, 273.5557
963.7240, 273.4563
965.6525, 272.7091
967.5809, 273.2207
969.5094, 275.9713
971.4379, 280.5646
973.3663, 287.7603
975.2948, 295.4804
977.2233, 303.5897
979.1517, 309.9379
981.0802, 314.1955
983.0087, 314.2439
984.9371, 307.0059
986.8656, 295.9519
988.7941, 282.5486
990.7225, 269.0331
992.6510, 257.4103
994.5795, 247.2679
996.5079, 238.3625
998.4364, 230.5081
1000.365, 223.1527
1002.293, 217.0478
1004.222, 213.4082
1006.150, 211.2265
1008.079, 209.7039
1010.007, 208.4514
1011.936, 206.6107
1013.864, 205.0798
1015.793, 205.2012
1017.721, 206.2014
1019.650, 207.0927
1021.578, 208.2054
1023.506, 210.5897
1025.435, 212.9134
1027.363, 212.9226
1029.292, 212.2124
1031.220, 212.7826
1033.149, 214.0171
1035.077, 215.2173
1037.006, 216.5052
1038.934, 218.1487
1040.863, 219.8670
1042.791, 220.7123
1044.720, 221.9845
1046.648, 225.7410
1048.577, 230.3413
1050.505, 233.7480
1052.433, 237.0040
1054.362, 241.8053
1056.290, 246.6499
1058.219, 249.9817
1060.147, 252.2810
1062.076, 253.6455
1064.004, 254.6893
1065.933, 255.4591
1067.861, 256.8769
1069.790, 258.9100
1071.718, 263.1115
1073.647, 270.9240
1075.575, 281.6222
1077.504, 295.7991
1079.432, 311.1100
1081.360, 327.4623
1083.289, 341.8809
1085.217, 355.5851
1087.146, 361.9244
1089.074, 355.5435
1091.003, 340.8519
1092.931, 316.2763
1094.860, 290.4349
1096.788, 266.6405
1098.717, 245.6269
1100.645, 227.3799
1102.574, 212.5792
1104.502, 202.3548
1106.431, 194.4270
1108.359, 188.5742
1110.287, 183.6870
1112.216, 179.6584
1114.144, 176.0616
1116.073, 172.5168
1118.001, 169.8345
1119.930, 168.3227
1121.858, 167.5318
1123.787, 168.0418
1125.715, 167.8055
1127.644, 165.8450
1129.572, 164.5183
1131.501, 164.6671
1133.429, 164.1274
1135.358, 162.1460
1137.286, 160.9971
1139.214, 160.9999
1141.143, 161.6842
1143.071, 163.4618
1145.000, 163.5990
1146.928, 161.6153
1148.857, 160.1335
1150.785, 159.2632
1152.714, 159.0304
1154.642, 159.4597
1156.571, 159.2041
1158.499, 158.3009
1160.428, 158.4865
1162.356, 159.5315
1164.285, 159.1770
1166.213, 157.8872
1168.141, 158.0469
1170.070, 158.8463
1171.998, 157.6084
1173.927, 155.4046
1175.855, 154.3095
1177.784, 153.8926
1179.712, 153.5500
1181.641, 153.3868
1183.569, 153.6495
1185.498, 154.0114
1187.426, 154.4225
1189.355, 154.4695
1191.283, 153.4540
1193.212, 152.5543
1195.140, 152.4132
1197.068, 152.5905
1198.997, 153.1625
1200.925, 153.4411
1202.854, 153.1905
1204.782, 152.4591
1206.711, 150.7883
1208.639, 150.5972
1210.568, 153.0818
1212.496, 153.3227
1214.425, 150.0283
1216.353, 148.9770
1218.282, 151.0026
1220.210, 150.8928
1222.139, 148.3803
1224.067, 147.6218
1225.995, 148.5807
1227.924, 149.2547
1229.852, 149.6197
1231.781, 149.8894
1233.709, 150.0640
1235.638, 150.0428
1237.566, 149.9841
1239.495, 150.4957
1241.423, 150.8053
1243.352, 149.3333
1245.280, 147.8220
1247.209, 148.1731
1249.137, 148.9035
1251.066, 149.3758
1252.994, 149.2535
1254.922, 147.5081
1256.851, 146.6317
1258.779, 148.3544
1260.708, 149.4980
1262.636, 148.9809
1264.565, 148.6036
1266.493, 148.4479
1268.422, 148.6136
1270.350, 149.1815
1272.279, 149.7190
1274.207, 150.2357
1276.136, 150.6709
1278.064, 150.9807
1279.993, 150.3756
1281.921, 149.4514
1283.849, 150.6332
1285.778, 152.3623
1287.706, 151.2373
1289.635, 149.7190
1291.563, 150.8065
1293.492, 152.4445
1295.420, 153.4289
1297.349, 154.1197
1299.277, 154.8847
1301.206, 154.8091
1303.134, 153.0058
1305.063, 152.4583
1306.991, 154.2023
1308.920, 155.2077
1310.848, 154.9686
1312.776, 154.7313
1314.705, 154.6111
1316.633, 154.9753
1318.562, 155.6679
1320.490, 155.5947
1322.419, 155.0710
1324.347, 154.7175
1326.276, 154.6899
1328.204, 155.5432
1330.133, 156.4569
1332.061, 156.5242
1333.990, 156.4557
1335.918, 156.7626
1337.847, 156.9365
1339.775, 156.6404
1341.703, 156.4696
1343.632, 156.5824
1345.560, 156.5875
1347.489, 156.4489
1349.417, 156.2241
1351.346, 155.9225
1353.274, 155.3868
1355.203, 154.8021
1357.131, 154.9478
1359.060, 155.4774
1360.988, 155.9157
1362.917, 156.0905
1364.845, 155.6568
1366.774, 155.1014
1368.702, 154.4485
1370.630, 154.3339
1372.559, 155.6344
1374.487, 156.3637
1376.416, 155.7141
1378.344, 155.3776
1380.273, 155.6421
1382.201, 155.2921
1384.130, 154.3462
1386.058, 153.6148
1387.987, 153.1989
1389.915, 153.8181
1391.844, 154.6799
1393.772, 154.2829
1395.701, 153.7349
1397.629, 154.0696
1399.557, 154.3582
1401.486, 154.0767
1403.414, 153.9374
1405.343, 154.2212
1407.271, 154.2700
1409.200, 153.9014
1411.128, 154.5536
1413.057, 156.2033
1414.985, 156.3120
1416.914, 155.4271
1418.842, 155.3782
1420.771, 155.5702
1422.699, 154.8481
1424.628, 154.2398
1426.556, 155.0474
1428.484, 155.5080
1430.413, 154.6432
1432.341, 154.0807
1434.270, 154.1966
1436.198, 154.2448
1438.127, 154.1308
1440.055, 153.6691
1441.984, 152.9676
1443.912, 152.3605
1445.841, 152.0956
1447.769, 153.0329
1449.698, 154.0366
1451.626, 153.9693
1453.555, 153.5394
1455.483, 152.9388
1457.411, 152.4426
1459.340, 152.1077
1461.268, 151.9572
1463.197, 152.0299
1465.125, 151.8053
1467.054, 151.3269
1468.982, 150.7310
1470.911, 150.2821
1472.839, 150.8039
1474.768, 151.2488
1476.696, 150.4323
1478.625, 149.7000
1480.553, 149.8254
1482.482, 149.8484
1484.410, 149.4925
1486.339, 149.1264
1488.267, 148.7319
1490.195, 149.2273
1492.124, 150.1273
1494.052, 149.2517
1495.981, 147.8532
1497.909, 147.7345
1499.838, 147.8893
1501.766, 147.8197
1503.695, 147.6383
1505.623, 147.3533
1507.552, 147.1570
1509.480, 147.0893
1511.409, 146.9245
1513.337, 146.6679
1515.266, 146.2641
1517.194, 145.9722
1519.122, 146.4694
1521.051, 147.0237
1522.979, 146.9920
1524.908, 146.9236
1526.836, 147.0284
1528.765, 146.8708
1530.693, 146.3791
1532.622, 146.5804
1534.550, 147.2317
1536.479, 146.5704
1538.407, 145.5130
1540.336, 145.7281
1542.264, 146.1870
1544.193, 146.0180
1546.121, 145.9312
1548.049, 146.1450
1549.978, 146.6450
1551.906, 147.4622
1553.835, 147.2258
1555.763, 146.2378
1557.692, 145.6859
1559.620, 145.4872
1561.549, 145.9320
1563.477, 145.9756
1565.406, 144.0865
1567.334, 143.3035
1569.263, 145.5914
1571.191, 145.9797
1573.120, 144.3548
1575.048, 143.9094
1576.977, 144.2224
1578.905, 144.2742
1580.833, 144.2792
1582.762, 144.4354
1584.690, 144.5910
1586.619, 144.7459
1588.547, 144.6801
1590.476, 144.3062
1592.404, 144.1553
1594.333, 144.1471
1596.261, 143.9588
1598.190, 143.5390
1600.118, 142.5345
1602.047, 141.7151
1603.975, 141.3207
1605.904, 141.7658
1607.832, 143.3046
1609.760, 143.6237
1611.689, 142.7709
1613.617, 141.9152
1615.546, 141.2221
1617.474, 141.0191
1619.403, 141.0180
1621.331, 141.0746
1623.260, 141.2475
1625.188, 141.6183
1627.117, 140.9646
1629.045, 139.4739
1630.974, 138.9690
1632.902, 139.0392
1634.831, 139.1611
1636.759, 139.2146
1638.688, 139.0015
1640.616, 138.9722
1642.544, 139.2497
1644.473, 139.2951
1646.401, 139.0838
1648.330, 138.6332
1650.258, 138.1561
1652.187, 137.9346
1654.115, 137.8758
1656.044, 137.8061
1657.972, 138.3170
1659.901, 139.9468
1661.829, 138.9078
1663.758, 136.0165
1665.686, 135.8727
1667.615, 136.7071
1669.543, 136.6784
1671.471, 136.3191
1673.400, 135.6864
1675.328, 135.2997
1677.257, 135.2404
1679.185, 135.2905
1681.114, 135.3352
1683.042, 134.7752
1684.971, 134.4045
1686.899, 135.1153
1688.828, 135.4287
1690.756, 134.7896
1692.685, 134.0562
1694.613, 133.3687
1696.542, 133.7399
1698.470, 134.2273
1700.398, 132.7161
1702.327, 131.6267
1704.255, 132.3514
1706.184, 132.6512
1708.112, 132.1118
1710.041, 131.4718
1711.969, 130.7768
1713.898, 129.8085
1715.826, 129.1308
1717.755, 129.5654
1719.683, 129.8622
1721.612, 129.7395
1723.540, 129.4315
1725.469, 129.0651
1727.397, 129.3310
1729.325, 129.5850
1731.254, 128.8649
1733.182, 128.0228
1735.111, 127.3001
1737.039, 126.9815
1738.968, 127.0571
1740.896, 127.1908
1742.825, 127.3109
1744.753, 127.3335
1746.682, 127.2781
1748.610, 127.1849
1750.539, 126.9323
1752.467, 126.5098
1754.396, 126.0257
1756.324, 125.5585
1758.252, 125.2910
1760.181, 125.0891
1762.109, 124.7489
1764.038, 124.7392
1765.966, 125.3166
1767.895, 125.0797
1769.823, 124.3077
1771.752, 123.7545
1773.680, 123.3604
1775.609, 123.1719
1777.537, 122.8438
1779.466, 122.2451
1781.394, 121.7725
1783.323, 121.3924
1785.251, 121.0787
1787.179, 120.6192
1789.108, 119.7515
1791.036, 119.0935
1792.965, 118.7989
1794.893, 118.8029
1796.822, 119.0141
1798.750, 119.3372
1800.679, 119.5215
1802.607, 119.3820
1804.536, 119.0680
1806.464, 118.6063
1808.393, 117.6230
1810.321, 116.4778
1812.250, 115.8732
1814.178, 115.9002
1816.106, 117.0957
1818.035, 117.7191
1819.963, 117.5592
1821.892, 116.8189
1823.820, 115.8669
1825.749, 115.4415
1827.677, 114.9399
1829.606, 113.6167
1831.534, 113.2269
1833.463, 113.7604
1835.391, 113.5433
1837.320, 113.0862
1839.248, 113.3815
1841.177, 113.3859
1843.105, 112.3154
1845.033, 111.8341
1846.962, 111.8245
1848.890, 110.9176
1850.819, 110.2516
1852.747, 111.4745
1854.676, 112.0343
1856.604, 110.8879
1858.533, 110.1754
1860.461, 109.8406
1862.390, 109.9943
1864.318, 109.8981
1866.247, 108.9277
1868.175, 108.2492
1870.104, 108.0584
1872.032, 108.1528
1873.960, 108.3611
1875.889, 108.5144
1877.817, 108.4198
1879.746, 107.9792
1881.674, 107.3653
1883.603, 106.7511
1885.531, 106.9675
1887.460, 107.2995
1889.388, 107.1450
1891.317, 106.9879
1893.245, 106.9048
1895.174, 106.4902
1897.102, 105.7555
1899.031, 104.4694
1900.959, 103.3289
1902.887, 102.4637
1904.816, 102.9965
1906.744, 104.3818
1908.673, 103.8026
1910.601, 102.9110
1912.530, 103.3085
1914.458, 103.6328
1916.387, 103.6773
1918.315, 102.8819
1920.244, 101.9968
1922.172, 102.4182
1924.101, 102.6775
1926.029, 102.2359
1927.958, 101.2300
1929.886, 100.0281
1931.814, 99.76173
1933.743, 99.86482
1935.671, 100.2817
1937.600, 100.0482
1939.528, 99.17651
1941.457, 99.25856
1943.385, 99.56411
1945.314, 99.33227
1947.242, 99.16074
1949.171, 99.30006
1951.099, 98.16438
1953.028, 96.71276
1954.956, 96.76846
1956.885, 97.30581
1958.813, 98.12065
1960.741, 98.12080
1962.670, 97.54365
1964.598, 97.31998
1966.527, 96.79814
1968.455, 95.45268
1970.384, 95.07613
1972.312, 95.58513
1974.241, 94.94202
1976.169, 94.21784
1978.098, 94.42477
1980.026, 94.39551
1981.955, 94.00483
1983.883, 93.98287
1985.812, 94.12816
1987.740, 94.45943
1989.668, 94.00414
1991.597, 92.64098
1993.525, 92.65228
1995.454, 93.20486
1997.382, 93.07058
1999.311, 92.50429
2001.239, 91.54867
2003.168, 91.26469
2005.096, 91.30188
2007.025, 90.87730
2008.953, 90.44739
2010.882, 90.20409
2012.810, 90.05732
2014.739, 89.95425
2016.667, 89.83813
2018.595, 89.55558
2020.524, 88.80616
2022.452, 88.54667
2024.381, 88.62519
2026.309, 88.45395
2028.238, 88.37607
2030.166, 88.87672
2032.095, 88.11491
2034.023, 86.52328
2035.952, 86.06667
2037.880, 86.14251
2039.809, 86.66872
2041.737, 86.16806
2043.666, 84.97490
2045.594, 84.94918
2047.522, 85.05826
2049.451, 84.70650
2051.379, 84.73338
2053.308, 84.98514
2055.236, 84.26221
2057.165, 83.71635
2059.093, 84.05068
2061.022, 83.70898
2062.950, 82.91363
2064.879, 83.35385
2066.807, 83.52837
2068.736, 82.53710
2070.664, 82.22427
2072.593, 82.44865
2074.521, 82.15025
2076.449, 81.90003
2078.378, 82.06197
2080.306, 81.49673
2082.235, 80.62930
2084.163, 80.98718
2086.092, 81.05507
2088.020, 79.99583
2089.949, 80.10449
2091.877, 80.70499
2093.806, 80.26334
2095.734, 79.42628
2097.663, 78.30490
2099.591, 77.91372
2101.520, 77.98985
2103.448, 78.18579
2105.376, 78.23262
2107.305, 78.01016
2109.233, 78.19473
2111.162, 78.23200
2113.090, 77.28239
2115.019, 76.75222
2116.947, 76.90496
2118.876, 75.99522
2120.804, 75.19559
2122.733, 75.59666
2124.661, 75.89388
2126.590, 75.90958
2128.518, 75.78555
2130.447, 75.71105
2132.375, 75.84754
2134.303, 75.50021
2136.232, 74.97020
2138.160, 75.91245
2140.089, 75.99252
2142.017, 74.20859
2143.946, 73.85066
2145.874, 74.30376
2147.803, 74.23971
2149.731, 74.16385
2151.660, 74.14551
2153.588, 72.67091
2155.517, 71.53590
2157.445, 74.05247
2159.374, 73.99993
2161.302, 71.52360
2163.230, 71.73476
2165.159, 72.46452
2167.087, 72.09156
2169.016, 72.39278
2170.944, 72.79691
2172.873, 71.12743
2174.801, 70.22250
2176.730, 71.29383
2178.658, 71.41807
2180.587, 71.11563
2182.515, 71.28316
2184.444, 70.97640
2186.372, 70.13014
2188.301, 70.17265
2190.229, 69.96953
2192.157, 68.30593
2194.086, 67.97448
2196.014, 68.71087
2197.943, 69.62568
2199.871, 70.01319
2201.800, 69.50098
2203.728, 69.20016
2205.657, 68.82802
2207.585, 67.92841
2209.514, 67.47581
2211.442, 67.47901
2213.371, 66.68705
2215.299, 66.12472
2217.228, 66.32285
2219.156, 66.79820
2221.084, 67.07394
2223.013, 65.90211
2224.941, 65.34402
2226.870, 65.74332
2228.798, 65.88184
2230.727, 65.67661
2232.655, 64.84560
2234.584, 65.40145
2236.512, 66.51134
2238.441, 64.69078
2240.369, 64.86143
2242.298, 68.15575
2244.226, 67.54567
2246.155, 65.62375
2248.083, 65.07304
2250.011, 64.24146
2251.940, 63.38237
2253.868, 64.06935
2255.797, 64.31364
2257.725, 63.28558
2259.654, 62.32610
2261.582, 61.74987
2263.511, 62.06329
2265.439, 62.25988
2267.368, 62.27962
2269.296, 62.23449
2271.225, 62.29802
2273.153, 62.63687
2275.082, 61.92573
2277.010, 61.08507
2278.938, 60.97273
2280.867, 61.20242
2282.795, 61.58365
2284.724, 61.94410
2286.652, 61.68592
2288.581, 60.59451
2290.509, 60.30661
2292.438, 60.26406
2294.366, 59.95135
2296.295, 59.68273
2298.223, 59.58086
2300.152, 60.21841
2302.080, 60.08141
2304.009, 58.96109
2305.937, 58.72779
2307.865, 58.59570
2309.794, 57.90818
2311.722, 58.43139
2313.651, 59.29303
2315.579, 58.70525
2317.508, 57.62041
2319.436, 56.64741
2321.365, 57.80333
2323.293, 59.82597
2325.222, 62.31490
2327.150, 61.38679
2329.079, 59.28802
2331.007, 58.64581
2332.936, 57.64283
2334.864, 56.37755
2336.792, 55.28666
2338.721, 55.08724
2340.649, 55.89809
2342.578, 55.31411
2344.506, 54.91539
2346.435, 56.05642
2348.363, 56.03920
2350.292, 55.34647
2352.220, 54.54543
2354.149, 54.35555
2356.077, 54.58297
2358.006, 54.12545
2359.934, 53.85598
2361.863, 54.02323
2363.791, 53.47378
2365.719, 52.97544
2367.648, 53.02206
2369.576, 52.65083
2371.505, 52.25043
2373.433, 52.49464
2375.362, 52.66996
2377.290, 52.64487
2379.219, 52.29078
2381.147, 51.81910
2383.076, 51.39936
2385.004, 51.90367
2386.933, 52.54281
2388.861, 52.91262
2390.790, 52.65833
2392.718, 52.22347
2394.646, 52.23473
2396.575, 51.55540
2398.503, 50.61587
2400.432, 50.42829
2402.360, 50.50574
2404.289, 50.58346
2406.217, 49.64925
2408.146, 49.37997
2410.074, 50.35662
2412.003, 50.61527
2413.931, 50.23121
2415.860, 48.83143
2417.788, 48.44676
2419.717, 48.65205
2421.645, 49.07966
2423.573, 49.07581
2425.502, 48.80389
2427.430, 48.81524
2429.359, 48.19594
2431.287, 47.15004
2433.216, 47.57942
2435.144, 48.06960
2437.073, 48.18190
2439.001, 48.22858
2440.930, 47.95753
2442.858, 47.25719
2444.787, 47.47721
2446.715, 47.63795
2448.644, 46.81650
2450.572, 47.40046
2452.500, 48.09639
2454.429, 46.49905
2456.357, 46.17256
2458.286, 46.71816
2460.214, 46.41528
2462.143, 45.60790
2464.071, 44.72447
2466.000, 45.04821
2467.928, 45.57276
2469.857, 45.85059
2471.785, 44.63118
2473.714, 43.67553
2475.642, 43.70188
2477.571, 43.77847
2479.499, 43.90423
2481.427, 44.11674
2483.356, 44.43442
2485.284, 44.54054
2487.213, 44.03086
2489.141, 43.45995
2491.070, 42.99526
2492.998, 42.72344
2494.927, 43.13328
2496.855, 43.61695
2498.784, 42.89699
2500.712, 42.70448
2502.641, 43.05216
2504.569, 43.46379
2506.498, 43.41329
2508.426, 42.92128
2510.354, 42.37221
2512.283, 42.22609
2514.211, 42.46110
2516.140, 42.06661
2518.068, 41.39715
2519.997, 40.67214
2521.925, 40.75225
2523.854, 40.72261
2525.782, 40.26514
2527.711, 40.47570
2529.639, 40.59807
2531.568, 40.23918
2533.496, 39.69087
2535.425, 39.43219
2537.353, 39.80492
2539.281, 39.27546
2541.210, 38.79108
2543.138, 39.30298
2545.067, 39.22319
2546.995, 39.15419
2548.924, 40.01545
2550.852, 40.22675
2552.781, 40.31298
2554.709, 41.20331
2556.638, 40.89264
2558.566, 40.54660
2560.495, 42.36732
2562.423, 41.98750
2564.352, 40.56812
2566.280, 40.11792
2568.208, 40.24105
2570.137, 40.37243
2572.065, 39.80393
2573.994, 38.50821
2575.922, 37.33160
2577.851, 37.91168
2579.779, 37.17407
2581.708, 36.07472
2583.636, 37.56523
2585.565, 37.33889
2587.493, 35.90673
2589.422, 35.31288
2591.350, 35.58075
2593.279, 36.06831
2595.207, 35.03163
2597.135, 35.16933
2599.064, 35.87930
2600.992, 34.76598
2602.921, 34.84672
2604.849, 35.58723
2606.778, 34.89690
2608.706, 34.55174
2610.635, 34.80698
2612.563, 36.25899
2614.492, 35.61492
2616.420, 33.94706
2618.349, 34.02142
2620.277, 33.88058
2622.206, 33.41337
2624.134, 32.77059
2626.063, 32.15349
2627.991, 32.02393
2629.919, 33.37538
2631.848, 33.53521
2633.776, 32.90517
2635.705, 32.19382
2637.633, 32.67057
2639.562, 33.25784
2641.490, 32.58823
2643.419, 31.50965
2645.347, 31.16141
2647.276, 32.70310
2649.204, 32.22160
2651.133, 31.39811
2653.061, 31.92644
2654.990, 32.18195
2656.918, 32.04718
2658.846, 31.55488
2660.775, 31.14724
2662.703, 30.92599
2664.632, 30.91006
2666.560, 30.76224
2668.489, 30.71819
2670.417, 30.82471
2672.346, 29.98375
2674.274, 29.59929
2676.203, 30.09584
2678.131, 30.89398
2680.060, 30.79501
2681.988, 29.91413
2683.917, 30.51809
2685.845, 30.86144
2687.773, 30.54556
2689.702, 29.52558
2691.630, 28.96105
2693.559, 29.01546
2695.487, 29.89881
2697.416, 29.78705
2699.344, 29.04941
2701.273, 28.65839
2703.201, 28.32137
2705.130, 28.10845
2707.058, 28.13234
2708.987, 28.50318
2710.915, 28.30890
2712.844, 26.77747
2714.772, 27.06695
2716.700, 27.64506
2718.629, 27.51824
2720.557, 27.28443
2722.486, 27.35693
2724.414, 27.74576
2726.343, 27.07928
2728.271, 26.84825
2730.200, 27.13872
2732.128, 26.30961
2734.057, 25.85016
2735.985, 26.02916
2737.914, 27.10206
2739.842, 27.22366
2741.771, 26.70871
2743.699, 26.15487
2745.627, 26.22115
2747.556, 26.29222
2749.484, 25.75873
2751.413, 25.51012
2753.341, 25.21072
2755.270, 24.69708
2757.198, 24.85068
2759.127, 25.01096
2761.055, 24.88472
2762.984, 23.94125
2764.912, 23.36799
2766.841, 23.33307
2768.769, 23.78814
2770.698, 23.94327
2772.626, 24.02828
2774.554, 24.48125
2776.483, 24.44107
2778.411, 24.06081
2780.340, 23.51611
2782.268, 23.37757
2784.197, 23.21408
2786.125, 22.87964
2788.054, 22.79398
2789.982, 22.76545
2791.911, 22.63953
2793.839, 21.80920
2795.768, 22.39070
2797.696, 23.31109
2799.625, 22.83335
2801.553, 21.97253
2803.481, 21.55989
2805.410, 21.99171
2807.338, 21.57555
2809.267, 21.61774
2811.195, 22.31340
2813.124, 22.54677
2815.052, 22.32779
2816.981, 21.86543
2818.909, 21.42880
2820.838, 21.44821
2822.766, 21.52703
2824.695, 21.18216
2826.623, 20.82479
2828.552, 20.69185
2830.480, 20.84862
2832.408, 20.53213
2834.337, 20.41896
2836.265, 20.70967
2838.194, 21.77733
2840.122, 20.65632
2842.051, 19.32385
2843.979, 20.06542
2845.908, 20.76711
2847.836, 20.84598
2849.765, 20.15484
2851.693, 19.47366
2853.622, 18.94216
2855.550, 18.61886
2857.479, 18.57333
2859.407, 18.68612
2861.335, 18.84314
2863.264, 18.95471
2865.192, 19.26490
2867.121, 19.03332
2869.049, 18.27992
2870.978, 18.42050
2872.906, 18.76053
2874.835, 19.01229
2876.763, 18.92989
2878.692, 18.51563
2880.620, 19.24377
2882.549, 22.08671
2884.477, 19.74471
2886.406, 18.12557
2888.334, 18.28719
2890.262, 17.54994
2892.191, 17.56544
2894.119, 17.79898
2896.048, 17.42224
2897.976, 16.90712
2899.905, 16.74639
2901.833, 17.07475
2903.762, 17.49330
2905.690, 17.19404
2907.619, 16.71548
2909.547, 17.04241
2911.476, 16.40723
2913.404, 16.43162
2915.333, 17.73194
2917.261, 17.02168
2919.189, 16.65587
2921.118, 16.74030
2923.046, 16.27817
2924.975, 16.22749
2926.903, 16.34342
2928.832, 16.40436
2930.760, 16.20229
2932.689, 16.00506
2934.617, 16.64509
2936.546, 21.03601
2938.474, 19.32076
2940.403, 16.46833
2942.331, 16.49033
2944.260, 16.06622
2946.188, 15.78237
2948.116, 15.74786
2950.045, 15.93891
2951.973, 15.43680
2953.902, 14.97103
2955.830, 15.15649
2957.759, 20.28503
2959.687, 19.85688
2961.616, 15.52676
2963.544, 14.99716
2965.473, 15.00914
2967.401, 15.01772
2969.330, 14.88248
2971.258, 14.30997
2973.187, 14.35435
2975.115, 14.60285
2977.043, 14.11223
2978.972, 14.28506
2980.900, 14.12770
2982.829, 13.46655
2984.757, 14.38363
2986.686, 13.39257
2988.614, 12.48758
2990.543, 14.37615
2992.471, 14.39127
2994.400, 14.03866
2996.328, 13.98539
2998.257, 14.42792
3000.185, 13.70638
3002.114, 13.19598
3004.042, 13.91418
3005.970, 13.32560
3007.899, 12.67766
3009.827, 12.47202
3011.756, 13.09194
3013.684, 13.44329
3015.613, 13.43179
3017.541, 13.08136
3019.470, 12.46140
3021.398, 12.63854
3023.327, 13.01240
3025.255, 12.91219
3027.184, 12.23155
3029.112, 12.24341
3031.041, 12.64823
3032.969, 12.23580
3034.898, 12.22019
3036.826, 12.74348
3038.755, 13.42675
3040.683, 12.38627
3042.612, 11.81234
3044.540, 11.59638
3046.469, 11.43235
3048.397, 11.99709
3050.325, 12.51267
3052.254, 12.51943
3054.182, 11.52420
3056.111, 11.65364
3058.039, 11.90632
3059.968, 11.85137
3061.896, 11.54428
3063.825, 11.13467
3065.753, 11.21674
3067.682, 11.91314
3069.610, 10.60439
3071.539, 11.00526
3073.467, 12.09610
3075.396, 12.02801
3077.324, 11.99124
3079.252, 11.43445
3081.181, 10.95139
3083.109, 11.76332
3085.038, 11.93038
3086.966, 11.47073
3088.895, 10.66549
3090.823, 9.975133
3092.752, 10.48055
3094.680, 10.91056
3096.609, 10.66276
3098.537, 10.72757
3100.466, 10.59964
3102.394, 10.71358
3104.323, 11.26703
3106.251, 11.10738
3108.179, 10.32237
3110.108, 9.842081
3112.036, 10.49803
3113.965, 9.621309
3115.893, 13.31899
3117.822, 18.69313
3119.750, 19.55910
3121.679, 14.06102
3123.607, 10.62915
3125.536, 10.20643
3127.464, 9.598883
3129.393, 9.276828
3131.321, 9.384068
3133.250, 9.801810
3135.178, 10.14825
3137.106, 10.49865
3139.035, 10.51856
3140.963, 10.30296
3142.892, 10.72536
3144.820, 10.43234
3146.749, 10.16460
3148.677, 10.26437
3150.606, 10.07729
3152.534, 9.451259
3154.463, 9.206030
3156.391, 9.639215
3158.320, 9.759185
3160.248, 10.66230
3162.177, 10.65576
3164.105, 9.314814
3166.033, 9.812305
3167.962, 10.77303
3169.890, 10.95442
3171.819, 9.975118
3173.747, 9.029307
3175.676, 9.169703
3177.604, 9.501756
3179.533, 9.336699
3181.461, 8.890172
3183.390, 9.288447
3185.318, 9.748666
3187.247, 9.633814
3189.175, 9.157588
3191.104, 9.140310
3193.032, 9.294428
3194.960, 9.276378
3196.889, 8.759296
3198.817, 8.022681
3200.746, 7.802757
3202.674, 8.269114
3204.603, 8.226353
3206.531, 9.064996
3208.460, 9.069018
3210.388, 7.942281
3212.317, 8.367360
3214.245, 9.095679
3216.174, 9.137122
3218.102, 8.580415
3220.031, 8.748998
3221.959, 9.414679
3223.887, 9.687177
3225.816, 9.330052
3227.744, 8.422849
3229.673, 8.867221
3231.601, 9.221311
3233.530, 9.228552
3235.458, 9.409953
3237.387, 9.159103
3239.315, 8.591154
3241.244, 7.938451
3243.172, 7.369376
3245.101, 7.970146
3247.029, 8.142859
3248.958, 8.161201
3250.886, 8.536401
3252.814, 8.077443
3254.743, 8.179818
3256.671, 8.250516
3258.600, 7.936656
3260.528, 8.337674
3262.457, 8.661892
3264.385, 8.718542
3266.314, 8.436092
3268.242, 7.683030
3270.171, 8.507603
3272.099, 8.942967
3274.028, 8.500607
3275.956, 7.777338
3277.885, 8.309978
3279.813, 8.632156
3281.741, 8.517341
3283.670, 8.269789
3285.598, 8.661082
3287.527, 8.671045
3289.455, 8.655300
3291.384, 8.988953
3293.312, 9.859629
3295.241, 9.601254
3297.169, 8.987475
3299.098, 8.897914
3301.026, 10.32142
3302.955, 10.27915
3304.883, 9.625065
3306.812, 9.202958
3308.740, 9.502559
3310.668, 9.017879
3312.597, 9.408950
3314.525, 9.244404
3316.454, 8.157111
3318.382, 8.538242
3320.311, 8.929036
3322.239, 8.642645
3324.168, 8.250103
3326.096, 8.791735
3328.025, 8.391334
3329.953, 8.502540
3331.882, 8.659120
3333.810, 8.338140
3335.739, 8.086249
3337.667, 8.687306
3339.595, 9.316716
3341.524, 9.533204
3343.452, 9.256239
3345.381, 9.391232
3347.309, 9.088599
3349.238, 8.922786
3351.166, 9.413259
3353.095, 8.958635
3355.023, 9.709620
3356.952, 9.683821
3358.880, 9.049181
3360.809, 10.17908
3362.737, 10.69852
3364.666, 10.69931
3366.594, 10.40295
3368.522, 10.14088
3370.451, 10.97509
3372.379, 10.47248
3374.308, 10.41408
3376.236, 10.90666
3378.165, 10.77216
3380.093, 10.17021
3382.022, 8.929814
3383.950, 9.053091
3385.879, 10.62534
3387.807, 9.663713
3389.736, 9.877282
3391.664, 9.555524
3393.593, 9.420997
3395.521, 10.52017
3397.449, 9.524441
3399.378, 8.877557
3401.306, 8.847039
3403.235, 9.285228
3405.163, 10.19877
3407.092, 8.826349
3409.020, 8.581775
3410.949, 9.236883
3412.877, 10.05316
3414.806, 10.89043
3416.734, 8.936570
3418.663, 8.552149
3420.591, 9.120349
3422.520, 8.921679
3424.448, 9.455490
3426.376, 9.354932
3428.305, 8.832479
3430.233, 8.457088
3432.162, 8.694625
3434.090, 9.519141
3436.019, 8.257757
3437.947, 7.796891
3439.876, 8.351232
3441.804, 7.780084
3443.733, 8.200578
3445.661, 7.633712
3447.590, 7.292687
3449.518, 7.644784
3451.447, 7.614029
##END=



