##NAMES=Pinakiolite
##RRUFFID=R050636
##IDEAL CHEMISTRY=(Mg,Mn)_2_(Mn^3+^,Sb^5+^)O_2_(BO_3_)
##LOCALITY=Langban, Filipstad, Varmland, Sweden
##OWNER=RRUFF
##SOURCE=University of Arizona Mineral Museum
##DESCRIPTION=Dark-grey crystals embedded into matrix of calcite, dolomite and tephroite
##STATUS=The identification of this mineral has been confirmed by single-crystal X-ray diffraction
##URL=https://www.rruff.net/odr/rruff_sample/R050636
##DIFFRACTION SAMPLE DESCRIPTION=Single crystal, powder profile is calculated
##CELL PARAMETERS=a: 21.789 b: 6.02 c: 5.335 alpha: 90 beta: 95.45 gamma: 90 volume: 696.6 crystal system: monoclinic
##FILETYPE=Raman Processed
##RAMAN WAVELENGTH=780

148.9450, 224.4154
150.8735, 221.1761
152.8020, 219.0638
154.7304, 217.8167
156.6589, 218.2549
158.5874, 218.2699
160.5158, 217.1190
162.4443, 215.6183
164.3728, 214.5021
166.3012, 213.6909
168.2297, 212.9416
170.1582, 212.2807
172.0866, 211.5907
174.0151, 210.2660
175.9436, 209.4463
177.8720, 210.8237
179.8005, 213.2085
181.7290, 213.6288
183.6574, 210.6696
185.5859, 208.8878
187.5144, 209.4125
189.4428, 210.2192
191.3713, 210.1150
193.2998, 209.8039
195.2282, 210.4494
197.1567, 212.5191
199.0852, 213.6890
201.0136, 213.2947
202.9421, 212.8979
204.8706, 213.4640
206.7990, 213.8841
208.7275, 212.7659
210.6560, 209.9866
212.5844, 208.6686
214.5129, 209.6507
216.4414, 210.6035
218.3698, 211.0043
220.2983, 211.6557
222.2268, 213.2190
224.1552, 215.3409
226.0837, 216.9300
228.0122, 217.7182
229.9406, 218.6098
231.8691, 219.4435
233.7976, 220.5786
235.7260, 222.7539
237.6545, 224.9629
239.5830, 225.8070
241.5114, 225.1587
243.4399, 225.6411
245.3684, 227.5549
247.2968, 229.5667
249.2253, 231.1318
251.1538, 232.9373
253.0822, 236.0792
255.0107, 239.7504
256.9392, 241.1076
258.8676, 239.6453
260.7961, 238.7470
262.7246, 238.5714
264.6530, 239.3375
266.5815, 242.1201
268.5100, 244.9691
270.4384, 245.7579
272.3669, 244.6277
274.2954, 244.1105
276.2238, 244.3169
278.1523, 244.5835
280.0808, 244.6534
282.0092, 244.9243
283.9377, 245.6446
285.8662, 246.5056
287.7946, 247.3082
289.7231, 248.0707
291.6516, 248.3279
293.5800, 247.6796
295.5085, 247.7578
297.4370, 249.8740
299.3654, 251.9372
301.2939, 252.9242
303.2224, 253.0065
305.1508, 252.2550
307.0793, 250.8069
309.0078, 250.1377
310.9362, 251.0259
312.8647, 251.2791
314.7932, 250.2929
316.7216, 248.7663
318.6501, 247.1853
320.5786, 245.1796
322.5070, 241.7638
324.4355, 236.8829
326.3640, 233.5168
328.2924, 233.6573
330.2209, 232.8164
332.1494, 229.6577
334.0778, 225.3580
336.0063, 220.0753
337.9348, 214.7171
339.8632, 211.1082
341.7917, 209.3744
343.7202, 207.7820
345.6486, 206.2661
347.5771, 204.6151
349.5056, 203.1509
351.4340, 201.2071
353.3625, 197.9634
355.2910, 194.0566
357.2194, 190.4304
359.1479, 187.1105
361.0764, 184.5124
363.0048, 182.8835
364.9333, 181.6066
366.8618, 181.0227
368.7902, 180.3953
370.7187, 179.5698
372.6472, 178.3451
374.5756, 175.7828
376.5041, 171.7559
378.4326, 170.0135
380.3610, 173.3802
382.2895, 174.8372
384.2180, 172.3370
386.1464, 169.9489
388.0749, 169.9222
390.0034, 170.7026
391.9318, 170.5571
393.8603, 169.5728
395.7888, 169.1304
397.7172, 169.5931
399.6457, 170.0008
401.5742, 170.1564
403.5026, 170.4828
405.4311, 171.1784
407.3596, 172.1147
409.2880, 173.2012
411.2165, 174.3126
413.1450, 175.3985
415.0734, 176.6146
417.0019, 177.1672
418.9304, 176.6892
420.8588, 176.4901
422.7873, 177.2862
424.7158, 177.8698
426.6442, 177.5926
428.5727, 176.7473
430.5012, 175.6214
432.4296, 174.2850
434.3581, 172.6963
436.2866, 170.6689
438.2150, 170.0469
440.1435, 171.6747
442.0720, 172.7418
444.0004, 171.7090
445.9289, 170.4482
447.8574, 169.7441
449.7858, 169.6195
451.7143, 170.0119
453.6428, 170.7971
455.5712, 171.6330
457.4997, 172.6015
459.4282, 172.5168
461.3566, 170.6265
463.2851, 168.9428
465.2136, 167.9609
467.1420, 167.5589
469.0705, 168.2276
470.9990, 169.1031
472.9274, 168.6702
474.8559, 167.0462
476.7844, 164.8429
478.7128, 161.9254
480.6413, 159.9869
482.5698, 159.5789
484.4982, 159.7845
486.4267, 160.8680
488.3552, 161.8801
490.2836, 162.0283
492.2121, 161.8603
494.1406, 162.1457
496.0690, 162.8860
497.9975, 164.1497
499.9260, 165.0763
501.8544, 167.5430
503.7829, 167.9659
505.7114, 169.0883
507.6398, 171.1575
509.5683, 174.1613
511.4968, 179.2884
513.4252, 184.4279
515.3537, 185.8263
517.2822, 185.3677
519.2106, 188.4675
521.1391, 195.5153
523.0676, 199.7039
524.9960, 198.0786
526.9245, 198.3716
528.8530, 202.7631
530.7814, 207.0258
532.7099, 209.7637
534.6384, 211.7670
536.5668, 213.0076
538.4953, 214.2676
540.4238, 217.0663
542.3522, 221.0947
544.2807, 223.8235
546.2092, 224.7691
548.1376, 225.8745
550.0661, 227.2765
551.9946, 228.5287
553.9230, 228.8276
555.8515, 229.9531
557.7800, 233.8682
559.7084, 238.1288
561.6369, 240.2046
563.5654, 241.1736
565.4938, 243.1326
567.4223, 246.1436
569.3508, 250.2689
571.2792, 255.7595
573.2077, 261.2962
575.1362, 266.9458
577.0646, 272.8363
578.9931, 278.9811
580.9216, 285.0224
582.8500, 290.7613
584.7785, 296.6913
586.7070, 303.2237
588.6354, 309.9086
590.5639, 316.1993
592.4924, 321.9302
594.4208, 326.2264
596.3493, 328.8710
598.2778, 333.5516
600.2062, 340.9638
602.1347, 348.0780
604.0632, 354.5834
605.9916, 359.9438
607.9201, 362.9242
609.8486, 365.9009
611.7770, 370.1424
613.7055, 374.9000
615.6340, 379.8556
617.5624, 384.5855
619.4909, 387.5812
621.4194, 391.2320
623.3478, 394.3609
625.2763, 396.3164
627.2048, 399.4513
629.1332, 400.9287
631.0617, 402.2261
632.9902, 404.4553
634.9186, 405.3186
636.8471, 403.2631
638.7756, 400.4223
640.7040, 398.2956
642.6325, 396.2264
644.5610, 393.4818
646.4894, 390.2314
648.4179, 386.6476
650.3464, 382.7604
652.2748, 378.6832
654.2033, 374.3755
656.1318, 369.4735
658.0602, 363.8000
659.9887, 358.0406
661.9172, 351.5064
663.8456, 346.0730
665.7741, 343.2524
667.7026, 340.4965
669.6310, 336.0079
671.5595, 331.0877
673.4880, 327.6826
675.4164, 324.4609
677.3449, 318.9977
679.2734, 311.8774
681.2018, 305.0391
683.1303, 298.4427
685.0588, 290.3569
686.9872, 280.4222
688.9157, 270.3343
690.8442, 260.4614
692.7726, 249.9307
694.7011, 238.3783
696.6296, 226.5840
698.5580, 214.0365
700.4865, 202.2287
702.4149, 191.6604
704.3434, 182.4939
706.2719, 175.1719
708.2003, 169.0320
710.1288, 163.5523
712.0573, 158.5157
713.9857, 153.3216
715.9142, 148.2050
717.8427, 144.9436
719.7711, 143.9431
721.6996, 141.8993
723.6281, 138.1223
725.5565, 135.5768
727.4850, 135.0686
729.4135, 133.9374
731.3419, 130.9523
733.2704, 128.8603
735.1989, 129.2139
737.1273, 129.8388
739.0558, 130.0225
740.9843, 129.3991
742.9127, 126.6686
744.8412, 123.9511
746.7697, 124.3423
748.6981, 126.1739
750.6266, 126.1658
752.5551, 124.8583
754.4835, 123.6544
756.4120, 122.4237
758.3405, 122.2010
760.2689, 123.0706
762.1974, 123.2883
764.1259, 122.6661
766.0543, 122.2996
767.9828, 122.4697
769.9113, 122.2118
771.8397, 121.0440
773.7682, 120.0628
775.6967, 119.6382
777.6251, 119.4244
779.5536, 119.4049
781.4821, 119.2995
783.4105, 119.1426
785.3390, 118.8817
787.2675, 118.1509
789.1959, 117.1506
791.1244, 116.2463
793.0529, 115.6305
794.9813, 115.5089
796.9098, 115.7632
798.8383, 116.3744
800.7667, 117.3044
802.6952, 118.2924
804.6237, 119.3161
806.5521, 118.7250
808.4806, 115.9080
810.4091, 114.3779
812.3375, 115.1842
814.2660, 115.7009
816.1945, 115.4383
818.1229, 115.0026
820.0514, 114.1610
821.9799, 113.5907
823.9083, 114.0031
825.8368, 113.9391
827.7653, 112.2442
829.6937, 110.7857
831.6222, 110.3442
833.5507, 110.5531
835.4791, 112.1864
837.4076, 113.9248
839.3361, 114.0898
841.2645, 113.2415
843.1930, 111.7004
845.1215, 110.1667
847.0499, 110.3726
848.9784, 108.9619
850.9069, 108.0496
852.8353, 107.7960
854.7638, 106.3645
856.6923, 106.4343
858.6207, 106.6712
860.5492, 107.0958
862.4777, 106.7250
864.4061, 105.1265
866.3346, 104.2811
868.2631, 104.5503
870.1915, 104.2889
872.1200, 103.1925
874.0485, 102.1831
875.9769, 101.5821
877.9054, 100.6999
879.8339, 99.02103
881.7623, 97.84875
883.6908, 97.85010
885.6193, 97.89292
887.5477, 97.79798
889.4762, 97.19634
891.4047, 95.09937
893.3331, 93.53059
895.2616, 94.20095
897.1901, 94.93916
899.1185, 93.94949
901.0470, 92.79565
902.9755, 93.06114
904.9039, 93.72693
906.8324, 93.80983
908.7609, 93.45060
910.6893, 92.37398
912.6178, 91.18825
914.5463, 91.47997
916.4747, 92.50845
918.4032, 92.48778
920.3317, 91.59567
922.2601, 90.26335
924.1886, 88.74917
926.1171, 87.89145
928.0455, 87.53765
929.9740, 87.14719
931.9025, 86.79057
933.8309, 86.96898
935.7594, 86.28687
937.6879, 87.01809
939.6163, 85.51213
941.5448, 84.82160
943.4733, 84.96175
945.4017, 84.51917
947.3302, 83.47843
949.2587, 82.46717
951.1871, 81.32005
953.1156, 81.46021
955.0441, 83.57836
956.9725, 84.22298
958.9010, 82.61999
960.8295, 80.97762
962.7579, 79.16948
964.6864, 78.47703
966.6149, 79.70273
968.5433, 80.32651
970.4718, 80.22897
972.4003, 79.47030
974.3287, 77.29704
976.2572, 75.91414
978.1857, 75.77116
980.1141, 75.90016
982.0426, 76.33713
983.9711, 77.07281
985.8995, 77.96500
987.8280, 78.98010
989.7565, 80.95177
991.6849, 81.54429
993.6134, 79.30026
995.5419, 77.52275
997.4703, 77.34924
999.3988, 77.05022
1001.327, 75.85640
1003.256, 75.27792
1005.184, 76.24047
1007.113, 76.88301
1009.041, 76.28044
1010.970, 75.63650
1012.898, 75.58080
1014.827, 75.47192
1016.755, 74.73714
1018.683, 74.23803
1020.612, 74.55212
1022.540, 75.06939
1024.469, 75.91658
1026.397, 75.94550
1028.326, 73.87428
1030.254, 72.47826
1032.183, 73.47546
1034.111, 74.27174
1036.040, 73.37632
1037.968, 72.92545
1039.897, 73.96452
1041.825, 75.16930
1043.754, 76.77073
1045.682, 77.28654
1047.610, 74.94019
1049.539, 73.54377
1051.467, 75.55635
1053.396, 76.74464
1055.324, 74.87684
1057.253, 73.27685
1059.181, 73.44862
1061.110, 73.53331
1063.038, 72.51440
1064.967, 71.68053
1066.895, 71.69915
1068.824, 71.78325
1070.752, 71.94600
1072.681, 71.69289
1074.609, 70.08601
1076.537, 69.37603
1078.466, 70.94666
1080.394, 72.14903
1082.323, 72.26711
1084.251, 72.02312
1086.180, 71.05469
1088.108, 70.68755
1090.037, 71.85233
1091.965, 72.47766
1093.894, 71.62450
1095.822, 71.21946
1097.751, 71.87280
1099.679, 72.49113
1101.608, 73.10316
1103.536, 73.01497
1105.464, 71.78091
1107.393, 71.12788
1109.321, 71.05793
1111.250, 71.48686
1113.178, 72.73280
1115.107, 73.47331
1117.035, 73.95069
1118.964, 73.83594
1120.892, 72.64241
1122.821, 71.65538
1124.749, 70.85693
1126.678, 71.04691
1128.606, 72.42374
1130.535, 72.94760
1132.463, 72.55511
1134.391, 72.66738
1136.320, 73.24255
1138.248, 74.15034
1140.177, 75.34722
1142.105, 76.15014
1144.034, 76.41025
1145.962, 75.12016
1147.891, 73.08870
1149.819, 73.24537
1151.748, 74.81649
1153.676, 75.53329
1155.605, 75.50842
1157.533, 75.71134
1159.462, 75.83231
1161.390, 74.19323
1163.318, 75.03755
1165.247, 73.45358
1167.175, 75.44636
1169.104, 75.94948
1171.032, 75.94808
1172.961, 76.60742
1174.889, 77.37620
1176.818, 77.49166
1178.746, 77.47095
1180.675, 77.81590
1182.603, 78.33667
1184.532, 79.30692
1186.460, 79.69491
1188.389, 78.32127
1190.317, 77.43491
1192.245, 77.96740
1194.174, 78.76631
1196.102, 79.86235
1198.031, 80.50070
1199.959, 81.41634
1201.888, 82.08031
1203.816, 82.98020
1205.745, 83.26314
1207.673, 83.82587
1209.602, 84.30186
1211.530, 83.31693
1213.459, 83.92220
1215.387, 81.79001
1217.316, 80.87455
1219.244, 81.37355
1221.172, 82.07825
1223.101, 82.54900
1225.029, 82.07990
1226.958, 82.40519
1228.886, 81.43907
1230.815, 82.00385
1232.743, 81.88046
1234.672, 81.32910
1236.600, 80.34847
1238.529, 79.70442
1240.457, 80.57697
1242.386, 81.37475
1244.314, 80.41997
1246.243, 79.34743
1248.171, 79.75138
1250.099, 79.94739
1252.028, 78.66587
1253.956, 77.61341
1255.885, 77.40941
1257.813, 77.31066
1259.742, 77.27187
1261.670, 78.21829
1263.599, 77.46044
1265.527, 79.60017
1267.456, 76.96902
1269.384, 76.10854
1271.313, 76.76531
1273.241, 76.83363
1275.170, 76.34724
1277.098, 76.28374
1279.026, 76.53602
1280.955, 76.06860
1282.883, 76.29568
1284.812, 75.62965
1286.740, 76.28230
1288.669, 76.24201
1290.597, 75.92882
1292.526, 74.95314
1294.454, 74.34740
1296.383, 75.59569
1298.311, 76.21893
1300.240, 75.09111
1302.168, 74.80210
1304.097, 75.97167
1306.025, 75.92155
1307.953, 74.39700
1309.882, 73.77858
1311.810, 74.05748
1313.739, 74.16799
1315.667, 74.02156
1317.596, 73.67811
1319.524, 73.25449
1321.453, 72.85864
1323.381, 72.55112
1325.310, 71.96428
1327.238, 71.65914
1329.167, 72.75166
1331.095, 73.33881
1333.024, 71.72084
1334.952, 70.52916
1336.880, 71.04469
1338.809, 71.59632
1340.737, 71.92204
1342.666, 71.58678
1344.594, 70.59668
1346.523, 69.31602
1348.451, 67.69640
1350.380, 68.51760
1352.308, 71.14437
1354.237, 71.26659
1356.165, 69.78918
1358.094, 68.96294
1360.022, 68.45063
1361.951, 68.33794
1363.879, 68.07983
1365.807, 67.65221
1367.736, 67.59389
1369.664, 66.62585
1371.593, 66.86636
1373.521, 65.87033
1375.450, 64.49429
1377.378, 62.74713
1379.307, 62.52981
1381.235, 63.75179
1383.164, 64.27875
1385.092, 64.28969
1387.021, 64.02573
1388.949, 63.51696
1390.878, 62.31245
1392.806, 61.25277
1394.734, 61.90444
1396.663, 62.63868
1398.591, 62.25824
1400.520, 62.08654
1402.448, 62.50093
1404.377, 62.23965
1406.305, 61.11324
1408.234, 60.82247
1410.162, 61.20005
1412.091, 61.67726
1414.019, 62.46961
1415.948, 63.56670
1417.876, 64.14071
1419.805, 61.12372
1421.733, 62.15164
1423.661, 59.29779
1425.590, 61.18279
1427.518, 60.83018
1429.447, 60.06596
1431.375, 58.55282
1433.304, 58.53751
1435.232, 58.29060
1437.161, 60.24638
1439.089, 59.15208
1441.018, 59.75793
1442.946, 61.13231
1444.875, 60.36040
1446.803, 61.01740
1448.731, 59.89692
1450.660, 60.71478
1452.588, 60.12434
1454.517, 59.15220
1456.445, 59.29761
1458.374, 59.88770
1460.302, 59.51857
1462.231, 59.29337
1464.159, 59.87756
1466.088, 59.91578
1468.016, 59.51041
1469.945, 58.86802
1471.873, 58.18441
1473.802, 58.67912
1475.730, 59.26274
1477.658, 59.06670
1479.587, 58.38942
1481.515, 56.99826
1483.444, 57.18397
1485.372, 56.39473
1487.301, 56.27299
1489.229, 56.13334
1491.158, 56.06563
1493.086, 56.97425
1495.015, 56.48484
1496.943, 55.69668
1498.872, 54.18138
1500.800, 53.50429
1502.729, 55.88283
1504.657, 57.67862
1506.585, 57.54234
1508.514, 57.27354
1510.442, 57.25110
1512.371, 57.32518
1514.299, 57.00051
1516.228, 55.27777
1518.156, 54.04163
1520.085, 56.03390
1522.013, 58.36921
1523.942, 58.37522
1525.870, 57.09418
1527.799, 55.39027
1529.727, 55.15853
1531.656, 56.42126
1533.584, 57.00450
1535.512, 56.78833
1537.441, 56.23158
1539.369, 55.44225
1541.298, 54.60847
1543.226, 54.33715
1545.155, 55.46214
1547.083, 56.31179
1549.012, 55.62314
1550.940, 55.60379
1552.869, 56.30500
1554.797, 56.29021
1556.726, 56.21728
1558.654, 55.98019
1560.583, 55.88023
1562.511, 55.37730
1564.439, 55.48839
1566.368, 55.57280
1568.296, 55.34620
1570.225, 53.45940
1572.153, 52.26212
1574.082, 52.90486
1576.010, 54.12548
1577.939, 54.85736
1579.867, 55.11353
1581.796, 55.06067
1583.724, 54.12464
1585.653, 53.64618
1587.581, 53.62204
1589.510, 54.15527
1591.438, 53.90089
1593.366, 54.13800
1595.295, 54.15598
1597.223, 54.09288
1599.152, 54.43725
1601.080, 53.93672
1603.009, 53.27067
1604.937, 53.59753
1606.866, 54.55273
1608.794, 55.26299
1610.723, 54.27493
1612.651, 52.56713
1614.580, 52.99183
1616.508, 53.92568
1618.437, 54.31825
1620.365, 54.43098
1622.293, 54.77671
1624.222, 53.49149
1626.150, 54.38561
1628.079, 53.84900
1630.007, 52.52687
1631.936, 52.98314
1633.864, 51.89528
1635.793, 52.82937
1637.721, 50.91127
1639.650, 50.95700
1641.578, 51.25239
1643.507, 50.54070
1645.435, 50.46315
1647.364, 50.40897
1649.292, 50.71296
1651.220, 51.93602
1653.149, 52.80864
1655.077, 52.75982
1657.006, 51.97524
1658.934, 51.25954
1660.863, 51.44218
1662.791, 51.22000
1664.720, 50.23853
1666.648, 51.45775
1668.577, 50.91846
1670.505, 52.42356
1672.434, 51.16568
1674.362, 51.52090
1676.291, 51.86336
1678.219, 52.22506
1680.147, 51.61036
1682.076, 50.08626
1684.004, 48.80398
1685.933, 48.12054
1687.861, 48.28627
1689.790, 49.29308
1691.718, 48.99157
1693.647, 50.99242
1695.575, 49.64178
1697.504, 50.21743
1699.432, 50.96291
1701.361, 50.02957
1703.289, 49.31704
1705.218, 49.82617
1707.146, 50.02367
1709.074, 49.94874
1711.003, 49.31239
1712.931, 48.96546
1714.860, 49.40746
1716.788, 49.46119
1718.717, 49.07577
1720.645, 49.08541
1722.574, 50.33699
1724.502, 50.55741
1726.431, 49.89342
1728.359, 49.19651
1730.288, 48.64043
1732.216, 49.21887
1734.145, 49.53154
1736.073, 49.17438
1738.001, 49.39183
1739.930, 50.11107
1741.858, 50.48000
1743.787, 50.06765
1745.715, 48.93119
1747.644, 48.64501
1749.572, 49.40190
1751.501, 49.16381
1753.429, 48.98661
1755.358, 49.49321
1757.286, 49.33378
1759.215, 49.24934
1761.143, 48.88286
1763.072, 48.72942
1765.000, 49.24228
1766.928, 48.24018
1768.857, 48.44139
1770.785, 50.53416
1772.714, 50.36112
1774.642, 48.66153
1776.571, 47.10176
1778.499, 46.22747
1780.428, 45.65872
1782.356, 46.49373
1784.285, 47.69421
1786.213, 48.06219
1788.142, 48.25579
1790.070, 47.50715
1791.999, 46.99930
1793.927, 46.43337
1795.855, 45.99506
1797.784, 46.62309
1799.712, 47.18098
1801.641, 46.88826
1803.569, 45.75398
1805.498, 45.17523
1807.426, 45.84817
1809.355, 47.24932
1811.283, 47.84325
1813.212, 46.27422
1815.140, 44.91460
1817.069, 46.23867
1818.997, 47.01043
1820.926, 46.93250
1822.854, 47.18687
1824.782, 46.99122
1826.711, 45.37929
1828.639, 44.33744
1830.568, 45.07279
1832.496, 45.03228
1834.425, 44.98689
1836.353, 44.72438
1838.282, 44.21703
1840.210, 45.03893
1842.139, 45.74016
1844.067, 44.55504
1845.996, 43.52604
1847.924, 43.76434
1849.853, 44.81707
1851.781, 45.17889
1853.709, 44.37318
1855.638, 43.96424
1857.566, 43.91759
1859.495, 43.55018
1861.423, 42.82201
1863.352, 43.87531
1865.280, 44.83393
1867.209, 43.10657
1869.137, 41.97710
1871.066, 42.28237
1872.994, 42.65824
1874.923, 43.34539
1876.851, 43.06188
1878.780, 42.46378
1880.708, 42.50737
1882.636, 42.20393
1884.565, 42.00459
1886.493, 42.19261
1888.422, 41.52571
1890.350, 42.02260
1892.279, 41.43115
1894.207, 40.50343
1896.136, 41.69954
1898.064, 40.99177
1899.993, 42.40766
1901.921, 41.05431
1903.850, 40.68611
1905.778, 40.84677
1907.707, 40.92180
1909.635, 41.45089
1911.563, 42.02645
1913.492, 41.35187
1915.420, 41.28101
1917.349, 41.72136
1919.277, 40.80510
1921.206, 39.93316
1923.134, 41.36597
1925.063, 41.73746
1926.991, 39.91158
1928.920, 39.01545
1930.848, 39.03376
1932.777, 40.29429
1934.705, 40.74633
1936.634, 40.25402
1938.562, 41.40062
1940.490, 42.03827
1942.419, 40.38989
1944.347, 38.88445
1946.276, 38.78831
1948.204, 39.32849
1950.133, 39.59259
1952.061, 39.03165
1953.990, 38.16204
1955.918, 37.76220
1957.847, 37.82216
1959.775, 37.88844
1961.704, 37.91826
1963.632, 38.64173
1965.561, 39.32275
1967.489, 39.36768
1969.417, 39.32449
1971.346, 37.98920
1973.274, 36.69315
1975.203, 36.79530
1977.131, 36.49885
1979.060, 35.45121
1980.988, 35.18505
1982.917, 35.49940
1984.845, 36.02170
1986.774, 36.49095
1988.702, 37.41228
1990.631, 37.70569
1992.559, 36.76673
1994.488, 35.70908
1996.416, 35.03242
1998.344, 34.82876
2000.273, 34.10706
2002.201, 34.42135
2004.130, 35.54719
2006.058, 35.69744
2007.987, 35.01532
2009.915, 34.77569
2011.844, 35.13432
2013.772, 36.08609
2015.701, 35.88604
2017.629, 36.45877
2019.558, 36.42570
2021.486, 36.49308
2023.415, 35.89240
2025.343, 34.63857
2027.271, 33.60397
2029.200, 32.71554
2031.128, 31.95113
2033.057, 31.41909
2034.985, 32.49725
2036.914, 33.39113
2038.842, 32.95912
2040.771, 32.06691
2042.699, 32.16063
2044.628, 33.01747
2046.556, 33.53212
2048.485, 32.72396
2050.413, 33.42142
2052.342, 31.24546
2054.270, 33.31264
2056.198, 32.49731
2058.127, 31.62995
2060.055, 33.58028
2061.984, 34.22961
2063.912, 32.59637
2065.841, 30.53062
2067.769, 30.82947
2069.698, 33.29168
2071.626, 33.76809
2073.555, 32.96648
2075.483, 32.47348
2077.412, 31.98559
2079.340, 31.59366
2081.269, 31.28297
2083.197, 31.07356
2085.125, 30.28046
2087.054, 30.36362
2088.982, 29.55439
2090.911, 30.54809
2092.839, 31.10236
2094.768, 31.90723
2096.696, 31.91374
2098.625, 30.83139
2100.553, 29.90661
2102.482, 29.62601
2104.410, 29.00739
2106.339, 30.16801
2108.267, 28.95746
2110.196, 29.79613
2112.124, 30.99697
2114.052, 29.16885
2115.981, 28.41511
2117.909, 28.72594
2119.838, 28.71015
2121.766, 28.76024
2123.695, 29.08924
2125.623, 28.79203
2127.552, 28.58523
2129.480, 30.00159
2131.409, 30.72516
2133.337, 29.86859
2135.266, 28.71644
2137.194, 27.99224
2139.123, 28.19449
2141.051, 29.23055
2142.979, 30.19212
2144.908, 29.39637
2146.836, 28.59483
2148.765, 28.86500
2150.693, 28.08051
2152.622, 26.32977
2154.550, 27.79808
2156.479, 29.53608
2158.407, 29.18154
2160.336, 28.29445
2162.264, 27.06070
2164.193, 26.17266
2166.121, 25.87759
2168.050, 26.34616
2169.978, 27.08363
2171.906, 27.80350
2173.835, 27.21833
2175.763, 26.34961
2177.692, 26.90973
2179.620, 27.38995
2181.549, 27.01848
2183.477, 27.50064
2185.406, 27.44593
2187.334, 26.39832
2189.263, 25.54784
2191.191, 25.43513
2193.120, 26.45053
2195.048, 27.03891
2196.977, 26.89231
2198.905, 27.29978
2200.833, 26.69859
2202.762, 25.43710
2204.690, 25.40191
2206.619, 25.58337
2208.547, 25.99331
2210.476, 25.73223
2212.404, 25.30098
2214.333, 25.22047
2216.261, 25.08025
2218.190, 25.03893
2220.118, 24.71067
2222.047, 24.55228
2223.975, 24.56656
2225.904, 25.25878
2227.832, 24.82478
2229.760, 25.46989
2231.689, 24.54168
2233.617, 25.41245
2235.546, 25.53429
2237.474, 25.39540
2239.403, 23.33294
2241.331, 22.13601
2243.260, 23.91232
2245.188, 24.62958
2247.117, 24.54068
2249.045, 23.50618
2250.974, 23.34328
2252.902, 24.21415
2254.831, 24.90238
2256.759, 24.63635
2258.688, 23.33726
2260.616, 23.22339
2262.544, 23.81130
2264.473, 23.72710
2266.401, 23.39309
2268.330, 23.27397
2270.258, 22.85817
2272.187, 23.14551
2274.115, 24.25596
2276.044, 24.14880
2277.972, 23.48600
2279.901, 22.54515
2281.829, 22.98841
2283.758, 24.02133
2285.686, 22.68157
2287.615, 22.40038
2289.543, 23.77820
2291.471, 23.37055
2293.400, 22.07179
2295.328, 20.33817
2297.257, 20.31297
2299.185, 21.29122
2301.114, 21.97571
2303.042, 22.51420
2304.971, 22.80472
2306.899, 21.68754
2308.828, 20.92500
2310.756, 21.89094
2312.685, 22.62280
2314.613, 23.02491
2316.542, 22.45885
2318.470, 21.28862
2320.398, 20.11031
2322.327, 21.43417
2324.255, 22.63460
2326.184, 22.20672
2328.112, 23.50394
2330.041, 24.12537
2331.969, 23.29072
2333.898, 22.93034
2335.826, 21.52145
2337.755, 20.70005
2339.683, 19.36167
2341.612, 18.81108
2343.540, 19.69673
2345.469, 20.36780
2347.397, 19.83827
2349.325, 20.23257
2351.254, 20.98118
2353.182, 20.71228
2355.111, 21.02784
2357.039, 21.74531
2358.968, 20.10757
2360.896, 18.86896
2362.825, 19.17534
2364.753, 20.28098
2366.682, 20.69555
2368.610, 17.81332
2370.539, 17.56851
2372.467, 19.38873
2374.396, 20.59925
2376.324, 20.33816
2378.252, 18.87984
2380.181, 19.34781
2382.109, 19.37916
2384.038, 17.71661
2385.966, 19.40233
2387.895, 21.13879
2389.823, 19.14024
2391.752, 18.92936
2393.680, 19.54156
2395.609, 18.74731
2397.537, 17.67312
2399.466, 16.83078
2401.394, 18.78904
2403.323, 20.04599
2405.251, 19.26667
2407.179, 18.01807
2409.108, 17.27950
2411.036, 17.93893
2412.965, 17.79800
2414.893, 17.78339
2416.822, 19.41134
2418.750, 20.29845
2420.679, 20.05221
2422.607, 20.35156
2424.536, 20.08917
2426.464, 19.20860
2428.393, 18.93860
2430.321, 17.82439
2432.250, 16.61419
2434.178, 15.71083
2436.106, 15.94467
2438.035, 17.71090
2439.963, 17.73740
2441.892, 17.20810
2443.820, 17.42707
2445.749, 17.32506
2447.677, 16.98111
2449.606, 17.78251
2451.534, 17.73466
2453.463, 17.04733
2455.391, 17.98627
2457.320, 17.56700
2459.248, 15.84726
2461.177, 14.84366
2463.105, 15.14211
2465.033, 17.02319
2466.962, 17.92953
2468.890, 17.55260
2470.819, 18.03119
2472.747, 18.33812
2474.676, 17.13300
2476.604, 18.24292
2478.533, 17.60329
2480.461, 16.06494
2482.390, 15.24476
2484.318, 15.04930
2486.247, 15.50749
2488.175, 14.96709
2490.104, 16.78950
2492.032, 15.06985
2493.960, 14.21652
2495.889, 15.00087
2497.817, 17.54590
2499.746, 17.63797
2501.674, 16.91102
2503.603, 15.50264
2505.531, 16.78057
2507.460, 17.42200
2509.388, 15.81531
2511.317, 14.87693
2513.245, 14.41948
2515.174, 14.32437
2517.102, 13.87266
2519.031, 15.26855
2520.959, 13.95631
2522.887, 14.63950
2524.816, 15.60193
2526.744, 14.09917
2528.673, 14.07204
2530.601, 14.97705
2532.530, 15.29060
2534.458, 14.52054
2536.387, 13.36858
2538.315, 14.29356
2540.244, 15.03851
2542.172, 15.06485
2544.101, 15.52895
2546.029, 15.82088
2547.958, 15.25835
2549.886, 15.61839
2551.814, 14.48582
2553.743, 12.77237
2555.671, 11.49189
2557.600, 10.49012
2559.528, 10.71182
2561.457, 10.77425
2563.385, 11.43517
2565.314, 12.33662
2567.242, 12.54145
2569.171, 13.44175
2571.099, 11.78711
2573.028, 11.32622
2574.956, 11.96322
2576.885, 12.53537
2578.813, 13.02888
2580.741, 12.35496
2582.670, 10.88878
2584.598, 11.09385
2586.527, 11.76032
2588.455, 10.92841
2590.384, 12.28052
2592.312, 10.76116
2594.241, 11.78748
2596.169, 12.46000
2598.098, 12.65546
2600.026, 11.81270
2601.955, 12.44622
2603.883, 13.09474
2605.812, 11.62135
2607.740, 10.72726
2609.668, 10.59408
2611.597, 10.71039
2613.525, 9.835137
2615.454, 10.47113
2617.382, 12.32423
2619.311, 12.98387
2621.239, 12.39068
2623.168, 10.85235
2625.096, 9.731366
2627.025, 10.19022
2628.953, 12.46712
2630.882, 13.11348
2632.810, 12.36452
2634.739, 10.28104
2636.667, 8.824056
2638.595, 9.094528
2640.524, 11.00363
2642.452, 12.05919
2644.381, 11.63242
2646.309, 11.91284
2648.238, 10.22240
2650.166, 10.92233
2652.095, 9.340844
2654.023, 9.432888
2655.952, 10.43640
2657.880, 10.14187
2659.809, 9.625549
2661.737, 10.83853
2663.666, 11.87103
2665.594, 9.647365
2667.522, 9.112241
2669.451, 10.49542
2671.379, 11.26918
2673.308, 11.25147
2675.236, 11.51914
2677.165, 11.01499
2679.093, 10.23846
2681.022, 10.97668
2682.950, 9.086226
2684.879, 7.190691
2686.807, 6.838539
2688.736, 9.149997
2690.664, 9.588575
2692.593, 8.414043
2694.521, 8.443985
2696.449, 9.466741
2698.378, 10.77879
2700.306, 10.33763
2702.235, 10.01073
2704.163, 9.161212
2706.092, 7.662069
2708.020, 8.948594
2709.949, 7.947617
2711.877, 8.547078
2713.806, 8.049247
2715.734, 9.016912
2717.663, 9.906907
2719.591, 9.270609
2721.520, 8.221690
2723.448, 7.572620
2725.376, 9.383262
2727.305, 10.58947
2729.233, 9.030413
2731.162, 6.466044
2733.090, 5.545820
2735.019, 5.438454
2736.947, 8.122417
2738.876, 8.584481
2740.804, 7.722558
2742.733, 8.560484
2744.661, 9.055869
2746.590, 9.356269
2748.518, 9.504138
2750.447, 10.01451
2752.375, 7.935319
2754.303, 10.76815
2756.232, 9.176802
2758.160, 9.218583
2760.089, 11.84114
2762.017, 8.092017
2763.946, 6.304659
2765.874, 8.267851
2767.803, 10.56316
2769.731, 10.18391
2771.660, 8.161968
2773.588, 9.086848
2775.517, 8.664781
2777.445, 5.710526
2779.374, 5.781164
2781.302, 7.357621
2783.230, 7.729339
2785.159, 8.246784
2787.087, 8.323290
2789.016, 7.363556
2790.944, 6.387393
2792.873, 6.280828
2794.801, 6.615277
2796.730, 6.861475
2798.658, 6.141844
2800.587, 6.213483
2802.515, 6.248245
2804.444, 5.951633
2806.372, 5.840518
2808.301, 5.892238
2810.229, 5.553121
2812.157, 5.774234
2814.086, 6.188840
2816.014, 6.554561
2817.943, 6.416017
2819.871, 7.153298
2821.800, 6.184067
2823.728, 5.727817
2825.657, 5.784754
2827.585, 5.593639
2829.514, 5.674331
2831.442, 6.059843
2833.371, 6.289215
2835.299, 6.651965
2837.228, 6.825119
2839.156, 6.819256
2841.084, 6.839344
2843.013, 6.501848
2844.941, 5.797566
2846.870, 5.462514
2848.798, 5.037789
2850.727, 4.704235
2852.655, 4.680678
2854.584, 6.165982
2856.512, 6.277171
2858.441, 4.941379
2860.369, 3.898129
2862.298, 3.758757
2864.226, 3.465179
2866.155, 3.512608
2868.083, 3.870381
2870.011, 3.864108
2871.940, 4.963878
2873.868, 4.453384
2875.797, 5.584478
2877.725, 6.295557
2879.654, 4.742177
2881.582, 3.784493
2883.511, 5.589699
2885.439, 6.952897
2887.368, 6.334949
2889.296, 7.205955
2891.225, 5.315349
2893.153, 6.500695
2895.082, 4.833804
2897.010, 3.143610
2898.938, 3.268235
2900.867, 4.361747
2902.795, 3.723855
2904.724, 3.918108
2906.652, 5.009276
2908.581, 4.345491
2910.509, 3.374110
2912.438, 2.994324
2914.366, 3.267443
2916.295, 3.406306
2918.223, 4.088653
2920.151, 4.814111
2922.080, 4.655532
2924.008, 5.551239
2925.937, 5.840698
2927.865, 5.956382
2929.794, 5.042223
2931.722, 5.673891
2933.651, 5.824228
2935.579, 5.508489
2937.508, 6.420438
2939.436, 4.933968
2941.365, 4.139410
2943.293, 4.337771
2945.221, 5.664155
2947.150, 4.856808
2949.078, 4.915192
2951.007, 4.257868
2952.935, 4.410638
2954.864, 3.233278
2956.792, 4.917729
2958.721, 6.347138
2960.649, 6.984187
2962.578, 5.099802
2964.506, 2.873126
2966.435, 1.759483
2968.363, 1.050481
2970.292, 2.028649
2972.220, 3.175521
2974.148, 2.383939
2976.077, 3.090202
2978.005, 3.973876
2979.934, 3.726257
2981.862, 4.416595
2983.791, 3.901163
2985.719, 3.592053
2987.648, 3.570737
2989.576, 3.453688
2991.505, 3.561250
2993.433, 3.396088
2995.362, 3.459639
2997.290, 3.191068
2999.219, 3.355968
3001.147, 2.883010
3003.075, 2.429821
3005.004, 2.835308
3006.932, 2.844221
3008.861, 1.465122
3010.789, 2.520710
3012.718, 3.667846
3014.646, 2.451358
3016.575, 3.619933
3018.503, 5.434326
3020.432, 4.507759
3022.360, 1.536620
3024.289, 2.247977
3026.217, 3.733575
3028.146, 2.660413
3030.074, 3.945850
3032.002, -1.316986
3033.931, 2.842588
3035.859, 4.751021
3037.788, -0.4970295
3039.716, -0.6759041
3041.645, 2.286140
3043.573, 2.356163
3045.502, 2.722138
3047.430, 3.945019
3049.359, 4.354440
3051.287, 3.007923
3053.216, 2.521651
3055.144, 2.982715
3057.073, 3.050594
3059.001, 3.814760
3060.929, 3.371422
3062.858, 1.212900
3064.786, -0.6542118
3066.715, -0.3348826
3068.643, 1.082103
3070.572, 2.280109
3072.500, 2.410288
3074.429, 2.624100
3076.357, 2.179050
3078.286, 2.224107
3080.214, 1.385530
3082.143, 1.465358
3084.071, 1.765643
3086.000, 2.608374
3087.928, 2.935742
3089.856, 2.509855
3091.785, 2.183366
3093.713, 1.468294
3095.642, 0.8879380
3097.570, 0.6921440
3099.499, 1.008658
3101.427, 2.486079
3103.356, 1.901306
3105.284, 2.260191
3107.213, 3.050370
3109.141, 1.982790
3111.070, 0.6329470
3112.998, 1.304547
3114.927, 0.9686627
3116.855, 3.934058
3118.783, 2.297954
3120.712, 1.201523
3122.640, 2.670662
3124.569, 0.4048902
3126.497, 1.162502
3128.426, 2.693919
3130.354, 1.277060
3132.283, -0.8794131
3134.211, 0.7399454
3136.140, 2.818691
3138.068, 0.3538721
3139.997, 2.224229
3141.925, 4.343038
3143.854, 4.754027
3145.782, 4.362145
3147.710, 0.1799551
3149.639, 1.105062
3151.567, 1.326566
3153.496, -1.760465
3155.424, -1.039109
3157.353, 0.7633410
3159.281, 2.159944
3161.210, 2.735194
3163.138, 2.037029
3165.067, 2.296908
3166.995, 3.288876
3168.924, 1.540788
3170.852, 0.9814855
3172.781, 1.714338
3174.709, 3.566363
3176.637, 1.371461
3178.566, 1.680075
3180.494, 2.973720
3182.423, 2.368084
3184.351, 1.155900
3186.280, -0.1803437
3188.208, 0.3801454
3190.137, 1.979446
3192.065, 2.357871
3193.994, -0.2747765
3195.922, -2.409060
3197.851, -1.917452
3199.779, -0.9712793
3201.708, -0.4027856
3203.636, 0.2009050
3205.564, 6.9350287E-02
3207.493, 1.062407
3209.421, 0.3320129
3211.350, 4.7476459E-02
3213.278, 2.171613
3215.207, 2.735797
3217.135, -1.723673
3219.064, -3.107617
3220.992, -1.077539
3222.921, -1.251234
3224.849, -1.648751
3226.778, -0.7974249
3228.706, 0.3317468
3230.635, 0.2902868
3232.563, 0.6269777
3234.491, 0.4726199
3236.420, 8.9448191E-02
3238.348, 0.1743981
3240.277, -0.7832335
3242.205, 0.1777234
3244.134, 0.3307513
3246.062, 1.612146
3247.991, -1.694444
3249.919, 2.919395
3251.848, 4.384673
3253.776, 0.7008972
3255.705, -2.545836
3257.633, -1.810328
3259.562, 0.3397976
3261.490, 2.342149
3263.418, 4.162171
3265.347, 1.717640
3267.275, 0.8525422
3269.204, 2.861158
3271.132, 0.3815966
3273.061, 0.6239331
3274.989, 1.793229
3276.918, 1.920197
3278.846, -0.8800852
3280.775, -2.319298
3282.703, -1.214350
3284.632, 0.3749347
3286.560, 0.3530985
3288.489, 1.299471
3290.417, 0.4616666
3292.345, 0.2547382
3294.274, 2.286967
3296.202, 0.8614525
3298.131, -2.989504
3300.059, -0.3291611
3301.988, -0.9207872
3303.916, 1.120503
3305.845, 0.8562503
3307.773, 0.6966568
3309.702, -0.8326960
3311.630, -1.697494
3313.559, 0.1839879
3315.487, 0.6504222
3317.416, 3.9689139E-02
3319.344, -6.0780410E-02
3321.272, -0.4957054
3323.201, 1.345018
3325.129, 0.7333419
3327.058, 1.203668
3328.986, 1.085443
3330.915, 1.380763
3332.843, 1.913988
3334.772, 1.780782
3336.700, 1.664907
3338.629, 0.8312986
3340.557, -0.4780057
3342.486, -0.8412209
3344.414, 0.2566726
3346.343, -1.032668
3348.271, -0.2829315
3350.199, -1.591350
3352.128, -0.6534012
3354.056, 0.3542303
3355.985, 0.5834440
3357.913, 1.179299
3359.842, 2.023365
3361.770, 2.867054
3363.699, 2.410184
3365.627, 2.254720
3367.556, 1.166893
3369.484, 1.512557
3371.413, 0.6113209
3373.341, 2.106935
3375.270, 2.106802
3377.198, 1.105040
3379.126, 0.3886076
3381.055, 1.193897
3382.983, 2.726031
3384.912, 0.9690537
3386.840, -0.7987789
3388.769, 2.267125
3390.697, -4.004956
3392.626, -0.2182510
3394.554, 3.223484
3396.483, 1.556040
3398.411, 1.931119
3400.340, 1.560310
3402.268, -8.0047529E-03
3404.197, -0.9449205
3406.125, -7.4591503E-02
3408.053, 0.2579426
3409.982, 1.134618
3411.910, -0.8739417
3413.839, 0.5547913
3415.767, -1.663112
3417.696, 1.200711
3419.624, 1.277191
3421.553, 0.3157280
3423.481, -4.3176420E-02
3425.410, 0.5562679
3427.338, -0.3096466
3429.267, -0.7293665
3431.195, -0.9630833
3433.124, -1.891813
3435.052, -2.060236
3436.980, -1.775581
3438.909, -1.608126
3440.837, 2.075753
3442.766, 2.971460
3444.694, 1.074558
3446.623, -3.534812
3448.551, -3.089709
3450.480, -0.1194543
3452.408, -2.017593
3454.337, 1.730489
3456.265, 0.7976843
3458.194, 0.4670108
3460.122, 1.332167
3462.051, -0.9794111
3463.979, 0.2049223
3465.907, 1.620439
3467.836, 1.665274
3469.764, 1.159340
3471.693, 2.437067
3473.621, 0.4555822
3475.550, -0.3982419
3477.478, 0.2616104
3479.407, 0.4993346
3481.335, -3.365656
3483.264, -0.7885319
3485.192, -1.266924
3487.121, -1.730901
3489.049, 0.4422557
3490.978, 3.152031
3492.906, -1.094623
3494.834, -3.152762
3496.763, -1.369364
3498.691, 1.472156
3500.620, -0.5328019
3502.548, -3.149756
3504.477, -3.318719
3506.405, -2.598888
3508.334, -1.674276
3510.262, 1.056254
3512.191, 3.517551
3514.119, 4.477261
3516.048, 2.463960
3517.976, -0.6196668
3519.905, -0.1906901
3521.833, -1.721771
3523.761, -0.9225853
3525.690, -0.5760197
3527.618, -0.7035681
3529.547, 1.135109
3531.475, 0.2163742
3533.404, 0.5076818
3535.332, -3.071090
3537.261, -5.483922
3539.189, 0.1954036
3541.118, -1.767659
3543.046, -0.2340763
3544.975, -1.537966
3546.903, -3.774933
3548.832, -2.881621
3550.760, -0.8114356
3552.688, 0.2573438
3554.617, 6.7614932E-03
3556.545, -0.5067974
3558.474, -0.5414964
3560.402, -0.2846885
3562.331, 2.8522799E-03
3564.259, -1.440169
3566.188, -0.2812512
3568.116, 1.947634
3570.045, -0.7644788
3571.973, -3.289302
3573.902, -1.668694
3575.830, -3.132011
3577.759, -4.483582
3579.687, -1.115631
3581.615, -0.2798656
3583.544, -2.820839
3585.472, -2.845831
3587.401, -2.752392
3589.329, -3.257578
3591.258, -0.9539672
3593.186, -0.5070523
3595.115, -3.614352
3597.043, -0.6277000
3598.972, 2.881245
3600.900, -0.3599643
3602.829, 4.677536
3604.757, 0.4729751
3606.686, -3.668783
3608.614, -3.064597
3610.542, -0.3512555
3612.471, -3.012349
3614.399, -1.791964
3616.328, -0.5094042
3618.256, 1.407193
3620.185, 0.8815416
3622.113, -3.035010
3624.042, -3.315138
3625.970, -1.938639
3627.899, -2.862751
3629.827, -2.094980
3631.756, -1.188679
3633.684, -1.575229
3635.613, -0.7650917
3637.541, -1.034016
3639.469, -0.1518223
3641.398, -2.085925
3643.326, -0.8530257
3645.255, -7.268866
3647.183, -0.5657721
3649.112, 2.380819
3651.040, 0.6857337
3652.969, -2.958978
3654.897, -4.560065
3656.826, 3.3775572E-02
3658.754, 1.854509
3660.683, -1.232592
3662.611, -1.768074
3664.540, -0.5278024
3666.468, -0.7853249
3668.396, -2.409746
3670.325, -2.501724
3672.253, -1.799520
3674.182, -3.401077
3676.110, 0.3098357
3678.039, 2.158495
3679.967, 3.046745
3681.896, -2.911777
3683.824, -5.408915
3685.753, -3.019002
3687.681, 0.6503624
3689.610, 2.824502
3691.538, 4.615428
3693.467, 3.297174
3695.395, 4.0289570E-02
3697.323, -0.1808910
3699.252, 0.6432678
3701.180, -0.3715763
3703.109, -1.841020
3705.037, -1.946588
3706.966, -1.227735
3708.894, 0.5658733
3710.823, 0.4325249
3712.751, -1.214756
3714.680, 0.5543377
3716.608, -1.779645
3718.537, -3.564081
3720.465, -4.730306
3722.394, -4.059396
3724.322, -4.541378
3726.250, -3.016684
3728.179, -2.641622
3730.107, -2.553897
3732.036, -0.9778319
3733.964, -0.7612179
3735.893, -1.250893
3737.821, -0.9765667
3739.750, -1.807929
3741.678, 1.823194
3743.607, -3.005688
3745.535, 0.2128316
3747.464, 4.015787
3749.392, 1.221988
3751.321, -2.127448
3753.249, 1.420768
3755.177, -1.137006
3757.106, 1.420212
3759.034, 1.359449
3760.963, -0.6642086
3762.891, -0.2829374
3764.820, -1.397374
3766.748, -2.0539830E-02
3768.677, -0.8521954
3770.605, -1.630086
3772.534, -1.397838
3774.462, -3.217260
3776.391, -3.185099
3778.319, -2.844080
3780.248, -3.519100
3782.176, -2.175310
3784.104, -3.316559
3786.033, -1.180816
3787.961, -0.3213071
3789.890, -3.515885
3791.818, -1.044672
3793.747, -1.619343
3795.675, -3.653825
3797.604, -7.6111838E-02
3799.532, 2.686706
3801.461, -0.3192262
3803.389, -3.337222
3805.318, 0.5025414
3807.246, -1.966638
3809.175, -0.7911144
3811.103, -2.099280
3813.031, -0.6798937
3814.960, 2.678249
3816.888, -2.611749
3818.817, -0.4544201
3820.745, 1.671910
3822.674, 4.011443
3824.602, 4.166613
3826.531, 2.764236
3828.459, 0.5552662
3830.388, -2.110461
3832.316, -0.4744598
3834.245, -0.9573472
3836.173, -1.160132
3838.102, -1.463238
3840.030, -1.866769
3841.958, -1.724447
3843.887, -1.796357
3845.815, -1.405659
3847.744, -0.4410875
3849.672, -0.4144030
3851.601, 0.6810225
3853.529, 1.099830
3855.458, -1.380030
3857.386, -3.031476
3859.315, 0.8233970
3861.243, -5.141623
3863.172, -3.638775
3865.100, 2.090705
3867.029, -1.754652
3868.957, -2.740133
3870.885, -0.3251162
3872.814, -3.936264
3874.742, -4.571433
3876.671, -1.019137
3878.599, -2.290954
3880.528, -0.2311035
3882.456, 2.039137
3884.385, 0.5921973
3886.313, -2.473436
3888.242, -3.239761
3890.170, -4.297559
3892.099, -2.494009
3894.027, -2.873149
3895.956, -1.918151
3897.884, -0.8543975
3899.813, -1.160593
3901.741, 1.226681
3903.669, -0.9103677
3905.598, -1.995876
3907.526, 0.9103227
3909.455, -0.3068339
3911.383, -1.557214
3913.312, -0.9068915
3915.240, -2.534716
3917.169, -1.557054
3919.097, -2.204520
3921.026, -0.6302106
3922.954, -1.828792
3924.883, 0.6185563
3926.811, 3.208900
3928.740, 1.327212
3930.668, -0.5086318
3932.596, 0.7099844
3934.525, 1.489939
3936.453, -2.852375
3938.382, -2.346301
3940.310, 0.4804826
3942.239, -2.998405
3944.167, -2.167658
3946.096, -2.141677
3948.024, -3.642674
3949.953, -3.044895
3951.881, -3.395703
3953.810, -4.032627
3955.738, -2.719909
3957.667, -4.474717
3959.595, -3.110412
3961.523, -2.221248
3963.452, -3.407517
3965.380, -4.172244
3967.309, -2.754395
3969.237, 0.1978607
3971.166, -4.3928109E-02
3973.094, -1.166764
3975.023, -2.795096
3976.951, -1.633581
3978.880, -1.324441
3980.808, -1.012207
3982.737, -3.2726351E-02
3984.665, -1.134248
3986.594, -2.702347
3988.522, -2.922054
3990.450, -1.226123
3992.379, -0.5698168
3994.307, -3.705439
3996.236, -1.224563
3998.164, -1.412385
4000.093, -1.837447
4002.021, -1.101826
4003.950, 1.054985
4005.878, -1.995349
4007.807, -1.739213
4009.735, -3.532443
4011.664, -5.926618
4013.592, -2.871662
4015.521, -2.223731
4017.449, -3.558189
4019.377, -0.7729502
4021.306, -0.6720467
4023.234, -1.447194
4025.163, -0.9356094
4027.091, -5.2052841E-02
4029.020, 2.158851
4030.948, -1.481127
4032.877, -1.908183
4034.805, 0.5230122
4036.734, 0.3281175
4038.662, 9.3851909E-02
4040.591, -2.097629
4042.519, -1.218902
4044.448, -4.416069
4046.376, -1.180764
4048.304, -0.3153837
4050.233, -1.374061
4052.161, -2.739800
4054.090, 3.578191
4056.018, 1.976828
4057.947, 0.9690651
4059.875, -1.011265
4061.804, -2.951118
4063.732, -3.000526
4065.661, -0.9380600
4067.589, 1.868463
4069.518, -2.816924
4071.446, 0.3784227
4073.375, -4.030243
4075.303, -4.107091
4077.231, 5.148564
4079.160, 2.951868
4081.088, 0.5389821
4083.017, 2.558919
4084.945, 2.893827
4086.874, 0.9315293
4088.802, -1.417997
4090.731, -1.995273
4092.659, -2.103338
4094.588, -3.266371
4096.516, -2.556079
4098.444, -3.010805
4100.373, -1.036572
4102.301, 1.869787
4104.230, 3.413363
4106.158, 1.209647
4108.087, -3.646458
4110.015, -8.251779
4111.944, -8.344385
4113.872, -6.309665
4115.801, -0.8622171
4117.729, -1.740748
4119.658, -0.6289638
4121.586, 0.5590332
4123.515, -0.6039850
4125.443, -2.934692
4127.372, -2.581027
4129.300, -3.333971
4131.229, 3.037110
4133.157, -2.442273
4135.085, 1.136839
4137.014, 3.571993
4138.942, 1.193637
4140.871, -0.4034279
4142.799, -3.431294
4144.728, -2.938723
4146.656, 0.8726465
4148.584, -1.603762
4150.513, -0.5604034
4152.441, 0.9225052
4154.370, 4.1086089E-02
4156.298, -0.9935127
4158.227, -1.668764
4160.155, -2.311089
4162.084, -2.285960
4164.012, -1.827398
4165.941, -2.462190
4167.869, -0.7644839
4169.798, -2.159877
4171.726, -4.111079
4173.655, -3.372891
4175.583, -4.009125
4177.512, -4.876172
4179.440, -2.611170
4181.369, -4.557346
4183.297, -2.514494
4185.226, 1.479958
4187.154, 0.3777784
4189.083, 1.025007
4191.011, 2.919618
4192.939, -0.7396495
4194.868, -0.7832241
4196.796, -1.028932
4198.725, -1.290423
4200.653, -1.150983
4202.582, -1.129220
4204.510, -1.413701
4206.438, -1.159248
4208.367, -1.937323
4210.295, -1.249636
4212.224, -1.491462
4214.152, -2.324244
4216.081, -2.694011
4218.009, -2.667543
4219.938, -3.905606
4221.866, -2.676693
4223.795, -5.713274
4225.723, -5.154458
4227.652, -5.309645
4229.580, -2.649671
4231.509, -3.073748
4233.437, -0.7130913
4235.366, 1.428648
4237.294, 1.656466
4239.223, 3.110664
4241.151, -0.7671586
4243.080, 3.101738
4245.008, 0.7016208
4246.937, -2.083435
4248.865, 1.115184
4250.793, -3.206715
4252.722, -5.281083
4254.650, 0.5469325
4256.579, -3.850824
4258.507, 0.5627743
4260.436, -2.948839
4262.364, -4.706253
4264.292, -1.033572
4266.221, -1.795635
4268.149, -1.602358
4270.078, 0.7144270
4272.006, 0.9208124
4273.935, -1.848861
4275.863, -2.701745
4277.792, -0.3862810
4279.720, -2.917536
4281.649, 0.3474239
4283.577, -1.183688
4285.506, -3.831684
4287.434, 0.2989077
4289.363, -2.475693
4291.291, -3.163913
4293.220, -0.2262321
4295.148, -3.510906
4297.077, -1.994453
4299.005, 1.831740
4300.934, -3.136870
4302.862, -2.358769
4304.791, -2.224040
4306.719, -3.150628
4308.647, -1.920958
4310.576, -0.5039759
4312.504, -1.800087
4314.433, 2.010937
4316.361, -2.938161
4318.290, -1.182059
4320.218, -0.4251347
4322.146, -0.8255030
4324.075, -1.458595
4326.003, -3.516020
4327.932, -2.617237
4329.860, 0.6501221
4331.789, -1.805549
4333.717, -1.416442
4335.646, -1.370903
4337.574, -7.228878
4339.503, 0.8643732
4341.431, 3.801054
4343.360, 0.7162278
4345.288, -1.516019
4347.217, -2.987142
4349.145, -2.716176
4351.074, 2.390818
4353.002, -1.383549
4354.931, 1.790213
4356.859, 0.5399058
4358.788, 1.560734
4360.716, -0.4093555
4362.645, -0.3999533
4364.573, 3.657429
4366.501, -0.2257017
4368.430, -2.276614
4370.358, -9.8047391E-02
4372.287, -2.777400
4374.215, -3.415364
4376.144, -2.329825
4378.072, 1.195129
##END=



