##NAMES=Plattnerite
##RRUFFID=R070605
##IDEAL CHEMISTRY=PbO_2_
##LOCALITY=Ojuela mine, Mapimi, Durango, Mexico
##OWNER=RRUFF
##SOURCE=James Shigley
##DESCRIPTION=Black tarnished metallic prismatic crystals.
##STATUS=The identification of this mineral is confirmed by single-crystal X-ray diffraction and chemical analysis
##URL=https://www.rruff.net/odr/rruff_sample/R070605
##MEASURED CHEMISTRY=Pb_1.00_O_2_
##DIFFRACTION SAMPLE DESCRIPTION=Single crystal, powder profile is calculated
##CELL PARAMETERS=a: 4.945 b: 4.945 c: 3.378 alpha: 90 beta: 90 gamma: 90 volume: 82.59 crystal system: tetragonal
##FILETYPE=Raman RAW
##RAMAN WAVELENGTH=532

86.21282, 1000.630
88.14129, 1020.021
90.06976, 1022.211
91.99822, 1015.278
93.92669, 1013.364
95.85516, 984.9597
97.78362, 987.4948
99.71209, 975.9984
101.6406, 852.7518
103.5690, 1105.634
105.4975, 1553.057
107.4260, 2354.835
109.3544, 4030.355
111.2829, 5750.955
113.2114, 9111.265
115.1398, 14640.73
117.0683, 22232.32
118.9968, 32716.56
120.9252, 48085.43
122.8537, 67333.72
124.7822, 85203.98
126.7106, 103164.0
128.6391, 118338.7
130.5676, 127311.6
132.4960, 128134.7
134.4245, 125496.6
136.3530, 112099.9
138.2814, 97989.55
140.2099, 86339.41
142.1384, 76484.48
144.0668, 68324.01
145.9953, 61562.56
147.9238, 55957.35
149.8522, 51291.17
151.7807, 47258.38
153.7092, 43848.07
155.6376, 40936.00
157.5661, 38508.40
159.4946, 36469.15
161.4230, 34665.78
163.3515, 33091.41
165.2800, 31706.78
167.2084, 30515.04
169.1369, 29501.58
171.0654, 28593.11
172.9938, 27800.04
174.9223, 27084.71
176.8508, 26425.83
178.7792, 25808.91
180.7077, 25240.14
182.6362, 24728.17
184.5646, 24259.12
186.4931, 23833.34
188.4216, 23430.19
190.3500, 23067.66
192.2785, 22790.53
194.2070, 22595.45
196.1354, 22481.93
198.0639, 22441.52
199.9924, 22470.87
201.9208, 22579.22
203.8493, 22752.74
205.7778, 23004.62
207.7062, 23338.96
209.6347, 23780.20
211.5632, 24269.13
213.4916, 24768.77
215.4201, 25262.16
217.3486, 25828.70
219.2770, 26483.17
221.2055, 27206.35
223.1340, 27969.76
225.0624, 28760.67
226.9909, 29613.19
228.9194, 30538.15
230.8478, 31540.75
232.7763, 32612.75
234.7048, 33760.85
236.6332, 34982.43
238.5617, 36277.14
240.4902, 37691.64
242.4186, 39129.26
244.3471, 40596.53
246.2756, 42084.96
248.2040, 43510.99
250.1325, 44886.48
252.0610, 46191.51
253.9894, 47399.73
255.9179, 48592.17
257.8463, 49565.79
259.7748, 50247.07
261.7033, 50657.21
263.6317, 50830.88
265.5602, 50781.26
267.4887, 50512.47
269.4171, 49995.14
271.3456, 49219.79
273.2741, 48272.55
275.2025, 47167.90
277.1310, 45920.29
279.0595, 44594.16
280.9879, 43152.05
282.9164, 41680.41
284.8449, 40223.02
286.7733, 38775.05
288.7018, 37381.20
290.6303, 36037.66
292.5587, 34756.63
294.4872, 33545.24
296.4157, 32385.38
298.3441, 31312.23
300.2726, 30324.27
302.2011, 29432.95
304.1295, 28611.72
306.0580, 27861.02
307.9865, 27174.56
309.9149, 26531.29
311.8434, 25939.43
313.7719, 25383.05
315.7003, 24842.47
317.6288, 24302.88
319.5573, 23859.13
321.4857, 23547.54
323.4142, 23316.95
325.3427, 23115.02
327.2711, 22960.09
329.1996, 22805.79
331.1281, 22621.70
333.0565, 22414.04
334.9850, 22266.24
336.9135, 22212.26
338.8419, 22188.65
340.7704, 22154.63
342.6989, 22094.28
344.6273, 22055.28
346.5558, 22068.52
348.4843, 22103.95
350.4128, 22100.17
352.3412, 22058.84
354.2697, 21973.33
356.1982, 21842.38
358.1266, 21654.89
360.0551, 21458.05
361.9836, 21274.78
363.9120, 21067.01
365.8405, 20800.81
367.7690, 20442.90
369.6974, 20074.93
371.6259, 19720.34
373.5544, 19372.97
375.4828, 19002.21
377.4113, 18588.76
379.3398, 18171.33
381.2682, 17768.59
383.1967, 17382.86
385.1252, 17008.23
387.0536, 16645.02
388.9821, 16292.75
390.9106, 15952.82
392.8390, 15621.56
394.7675, 15314.92
396.6960, 15037.80
398.6244, 14794.42
400.5529, 14554.89
402.4814, 14313.59
404.4098, 14081.85
406.3383, 13867.65
408.2668, 13673.19
410.1952, 13491.44
412.1237, 13319.02
414.0522, 13154.38
415.9806, 13001.53
417.9091, 12865.75
419.8376, 12734.81
421.7660, 12589.26
423.6945, 12422.81
425.6230, 12276.07
427.5514, 12168.29
429.4799, 12074.97
431.4084, 11974.78
433.3368, 11866.32
435.2653, 11759.17
437.1938, 11649.61
439.1222, 11552.73
441.0507, 11479.83
442.9792, 11453.73
444.9076, 11416.34
446.8361, 11352.56
448.7646, 11268.53
450.6930, 11201.49
452.6215, 11173.30
454.5500, 11152.26
456.4784, 11119.20
458.4069, 11070.25
460.3354, 11020.97
462.2638, 10970.03
464.1923, 10914.63
466.1208, 10854.95
468.0492, 10789.80
469.9777, 10721.79
471.9062, 10655.68
473.8346, 10596.09
475.7631, 10541.48
477.6916, 10487.27
479.6200, 10430.81
481.5485, 10380.25
483.4770, 10338.36
485.4054, 10299.41
487.3339, 10251.83
489.2624, 10197.52
491.1908, 10158.20
493.1193, 10142.29
495.0478, 10140.96
496.9762, 10135.12
498.9047, 10121.99
500.8332, 10117.43
502.7616, 10126.77
504.6901, 10154.45
506.6186, 10197.31
508.5470, 10249.89
510.4755, 10301.07
512.4039, 10352.41
514.3324, 10413.09
516.2609, 10476.54
518.1893, 10540.48
520.1178, 10600.92
522.0463, 10672.36
523.9747, 10733.06
525.9032, 10752.99
527.8317, 10709.99
529.7601, 10640.92
531.6886, 10567.60
533.6171, 10495.90
535.5455, 10409.61
537.4740, 10289.02
539.4025, 10127.02
541.3309, 9960.434
543.2594, 9800.873
545.1879, 9649.897
547.1163, 9480.800
549.0448, 9309.820
550.9733, 9160.366
552.9017, 9036.321
554.8302, 8915.336
556.7587, 8793.173
558.6871, 8680.335
560.6156, 8581.611
562.5441, 8482.910
564.4725, 8389.814
566.4010, 8328.436
568.3295, 8292.558
570.2579, 8254.899
572.1864, 8198.630
574.1149, 8147.455
576.0433, 8102.857
577.9718, 8060.789
579.9003, 8014.093
581.8287, 7976.053
583.7572, 7945.175
585.6857, 7910.183
587.6141, 7864.319
589.5426, 7819.882
591.4711, 7789.123
593.3995, 7761.906
595.3280, 7730.317
597.2565, 7693.286
599.1849, 7653.290
601.1134, 7617.896
603.0419, 7588.939
604.9703, 7564.833
606.8988, 7539.471
608.8273, 7519.219
610.7557, 7495.004
612.6842, 7463.751
614.6127, 7430.022
616.5411, 7416.464
618.4696, 7412.229
620.3981, 7405.861
622.3265, 7392.722
624.2550, 7382.351
626.1835, 7365.832
628.1119, 7342.923
630.0404, 7319.139
631.9689, 7300.773
633.8973, 7276.640
635.8258, 7235.166
637.7543, 7196.831
639.6827, 7173.355
641.6112, 7174.972
643.5397, 7188.445
645.4681, 7206.455
647.3966, 7206.162
649.3251, 7167.246
651.2535, 7107.916
653.1820, 7070.989
655.1105, 7072.958
657.0389, 7088.031
658.9674, 7097.158
660.8959, 7086.752
662.8243, 7071.917
664.7528, 7057.149
666.6813, 7050.862
668.6097, 7055.365
670.5382, 7066.551
672.4667, 7072.333
674.3951, 7060.616
676.3236, 7032.881
678.2521, 7007.259
680.1805, 7005.418
682.1090, 6999.205
684.0375, 6976.417
685.9659, 6956.235
687.8944, 6963.967
689.8229, 6987.984
691.7513, 7002.630
693.6798, 7003.082
695.6083, 7000.110
697.5367, 6993.826
699.4652, 6989.964
701.3937, 6992.568
703.3221, 7007.277
705.2506, 7008.395
707.1791, 6996.377
709.1075, 6989.126
711.0360, 6996.783
712.9645, 7029.475
714.8929, 7064.604
716.8214, 7068.639
718.7499, 7025.499
720.6783, 6987.199
722.6068, 6978.394
724.5353, 6998.439
726.4637, 7013.282
728.3922, 7005.248
730.3207, 6990.441
732.2491, 6974.349
734.1776, 6983.467
736.1061, 7007.622
738.0345, 7051.313
739.9630, 7072.010
741.8915, 7054.836
743.8199, 7014.947
745.7484, 6993.938
747.6769, 7006.592
749.6053, 7022.167
751.5338, 7019.872
753.4623, 6991.452
755.3907, 6968.613
757.3192, 6964.273
759.2477, 6970.463
761.1761, 6973.394
763.1046, 6952.927
765.0331, 6936.018
766.9615, 6930.205
768.8900, 6934.695
770.8185, 6943.629
772.7469, 6948.927
774.6754, 6949.628
776.6039, 6947.721
778.5323, 6941.145
780.4608, 6925.311
782.3893, 6899.878
784.3177, 6878.377
786.2462, 6860.017
788.1747, 6850.271
790.1031, 6856.995
792.0316, 6873.499
793.9601, 6882.109
795.8885, 6876.161
797.8170, 6868.550
799.7455, 6861.188
801.6740, 6850.593
803.6024, 6841.503
805.5309, 6833.969
807.4594, 6830.053
809.3878, 6831.613
811.3163, 6833.195
813.2448, 6831.862
815.1732, 6824.949
817.1017, 6822.354
819.0302, 6827.152
820.9586, 6839.240
822.8871, 6842.091
824.8156, 6831.769
826.7440, 6816.750
828.6725, 6795.838
830.6010, 6770.487
832.5294, 6754.004
834.4579, 6753.124
836.3864, 6754.183
838.3148, 6753.336
840.2433, 6753.621
842.1718, 6751.542
844.1002, 6747.310
846.0287, 6741.268
847.9572, 6729.526
849.8856, 6713.809
851.8141, 6708.983
853.7426, 6721.673
855.6710, 6735.629
857.5995, 6745.466
859.5280, 6750.617
861.4564, 6746.265
863.3849, 6716.163
865.3134, 6692.709
867.2418, 6695.555
869.1703, 6719.874
871.0988, 6722.517
873.0272, 6690.380
874.9557, 6657.643
876.8842, 6642.251
878.8126, 6639.624
880.7411, 6628.834
882.6696, 6597.512
884.5980, 6569.283
886.5265, 6555.089
888.4550, 6554.097
890.3834, 6547.986
892.3119, 6531.849
894.2404, 6519.896
896.1688, 6523.710
898.0973, 6533.321
900.0258, 6526.252
901.9542, 6486.962
903.8827, 6458.291
905.8112, 6463.153
907.7396, 6481.050
909.6681, 6476.707
911.5966, 6448.724
913.5250, 6418.941
915.4535, 6385.895
917.3820, 6347.371
919.3104, 6317.608
921.2389, 6300.873
923.1674, 6286.599
925.0958, 6274.115
927.0243, 6261.405
928.9528, 6240.541
930.8812, 6205.214
932.8097, 6170.174
934.7382, 6137.171
936.6666, 6106.353
938.5951, 6079.776
940.5236, 6060.722
942.4520, 6043.408
944.3805, 6032.027
946.3090, 6017.411
948.2374, 5988.929
950.1659, 5943.980
952.0944, 5907.146
954.0228, 5889.103
955.9513, 5873.781
957.8798, 5848.277
959.8082, 5815.648
961.7367, 5791.789
963.6652, 5780.323
965.5936, 5762.998
967.5221, 5723.612
969.4506, 5682.424
971.3790, 5655.239
973.3075, 5645.066
975.2360, 5630.536
977.1644, 5608.594
979.0929, 5583.237
981.0214, 5559.067
982.9498, 5539.607
984.8783, 5521.653
986.8068, 5503.132
988.7352, 5482.611
990.6637, 5462.105
992.5922, 5437.385
994.5206, 5415.185
996.4491, 5402.426
998.3776, 5395.046
1000.306, 5375.876
1002.234, 5340.661
1004.163, 5317.300
1006.091, 5319.546
1008.020, 5328.743
1009.948, 5317.355
1011.877, 5279.812
1013.805, 5256.246
1015.734, 5249.415
1017.662, 5241.534
1019.591, 5225.573
1021.519, 5209.256
1023.448, 5188.737
1025.376, 5175.644
1027.305, 5170.681
1029.233, 5166.606
1031.161, 5142.081
1033.090, 5115.248
1035.018, 5093.137
1036.947, 5074.392
1038.875, 5060.322
1040.804, 5062.032
1042.732, 5061.402
1044.661, 5042.072
1046.589, 5028.977
1048.518, 5034.125
1050.446, 5043.229
1052.375, 5036.015
1054.303, 5018.611
1056.232, 5000.704
1058.160, 4984.447
1060.089, 4964.382
1062.017, 4933.478
1063.945, 4884.296
1065.874, 4854.254
1067.802, 4863.669
1069.731, 4880.475
1071.659, 4872.315
1073.588, 4827.282
1075.516, 4788.989
1077.445, 4762.010
1079.373, 4742.473
1081.302, 4733.316
1083.230, 4732.884
1085.159, 4724.125
1087.087, 4700.306
1089.016, 4683.287
1090.944, 4674.661
1092.872, 4663.736
1094.801, 4638.646
1096.729, 4617.167
1098.658, 4606.068
1100.586, 4587.226
1102.515, 4560.957
1104.443, 4542.517
1106.372, 4552.229
1108.300, 4572.204
1110.229, 4572.428
1112.157, 4554.325
1114.086, 4540.477
1116.014, 4545.156
1117.943, 4554.759
1119.871, 4540.444
1121.799, 4513.087
1123.728, 4496.277
1125.656, 4496.324
1127.585, 4503.108
1129.513, 4509.552
1131.442, 4496.770
1133.370, 4470.682
1135.299, 4448.318
1137.227, 4435.891
1139.156, 4422.777
1141.084, 4406.004
1143.013, 4397.871
1144.941, 4401.360
1146.870, 4410.904
1148.798, 4420.410
1150.726, 4419.833
1152.655, 4409.856
1154.583, 4393.218
1156.512, 4364.514
1158.440, 4330.766
1160.369, 4314.169
1162.297, 4335.360
1164.226, 4351.707
1166.154, 4340.812
1168.083, 4319.456
1170.011, 4310.641
1171.940, 4320.769
1173.868, 4328.998
1175.797, 4325.118
1177.725, 4312.797
1179.653, 4308.664
1181.582, 4318.192
1183.510, 4330.826
1185.439, 4338.518
1187.367, 4336.301
1189.296, 4328.967
1191.224, 4325.566
1193.153, 4327.666
1195.081, 4333.793
1197.010, 4334.778
1198.938, 4338.827
1200.867, 4345.492
1202.795, 4343.199
1204.724, 4328.828
1206.652, 4316.013
1208.580, 4309.722
1210.509, 4308.250
1212.437, 4302.796
1214.366, 4296.438
1216.294, 4310.943
1218.223, 4354.073
1220.151, 4378.537
1222.080, 4346.132
1224.008, 4304.570
1225.937, 4296.022
1227.865, 4313.383
1229.794, 4326.149
1231.722, 4334.805
1233.651, 4338.750
1235.579, 4330.578
1237.507, 4322.295
1239.436, 4325.245
1241.364, 4345.832
1243.293, 4356.817
1245.221, 4348.708
1247.150, 4341.707
1249.078, 4351.551
1251.007, 4371.520
1252.935, 4374.563
1254.864, 4351.149
1256.792, 4333.556
1258.721, 4336.115
1260.649, 4343.062
1262.578, 4346.174
1264.506, 4349.200
1266.434, 4350.355
1268.363, 4343.581
1270.291, 4338.248
1272.220, 4348.851
1274.148, 4367.567
1276.077, 4366.995
1278.005, 4328.457
1279.934, 4307.520
1281.862, 4325.920
1283.791, 4349.382
1285.719, 4356.582
1287.648, 4350.219
1289.576, 4344.582
1291.505, 4338.150
1293.433, 4331.062
1295.361, 4318.306
1297.290, 4309.584
1299.218, 4323.319
1301.147, 4362.244
1303.075, 4383.835
1305.004, 4369.736
1306.932, 4353.517
1308.861, 4355.050
1310.789, 4367.414
1312.718, 4378.822
1314.646, 4392.825
1316.575, 4395.728
1318.503, 4364.221
1320.432, 4336.235
1322.360, 4342.161
1324.288, 4381.742
1326.217, 4408.401
1328.145, 4413.772
1330.074, 4415.244
1332.002, 4411.663
1333.931, 4407.340
1335.859, 4406.654
1337.788, 4410.187
1339.716, 4416.249
1341.645, 4427.843
1343.573, 4439.220
1345.502, 4450.465
1347.430, 4459.720
1349.359, 4463.413
1351.287, 4460.869
1353.215, 4455.665
1355.144, 4444.869
1357.072, 4434.959
1359.001, 4427.335
1360.929, 4423.630
1362.858, 4430.911
1364.786, 4455.159
1366.715, 4473.550
1368.643, 4479.410
1370.572, 4477.787
1372.500, 4469.851
1374.429, 4458.161
1376.357, 4452.488
1378.286, 4455.813
1380.214, 4458.557
1382.142, 4454.560
1384.071, 4452.694
1385.999, 4466.102
1387.928, 4498.355
1389.856, 4506.785
1391.785, 4466.833
1393.713, 4437.426
1395.642, 4436.903
1397.570, 4451.521
1399.499, 4468.242
1401.427, 4490.057
1403.356, 4504.542
1405.284, 4504.255
1407.213, 4504.043
1409.141, 4506.738
1411.069, 4515.406
1412.998, 4532.398
1414.926, 4554.868
1416.855, 4567.999
1418.783, 4564.376
1420.712, 4561.756
1422.640, 4570.452
1424.569, 4582.006
1426.497, 4588.444
1428.426, 4592.505
1430.354, 4596.800
1432.283, 4604.724
1434.211, 4605.472
1436.140, 4592.120
1438.068, 4573.137
1439.996, 4557.066
1441.925, 4537.642
1443.853, 4541.474
1445.782, 4603.989
1447.710, 4652.492
1449.639, 4648.670
1451.567, 4612.831
1453.496, 4588.638
1455.424, 4581.239
1457.353, 4582.063
1459.281, 4597.525
1461.210, 4608.328
1463.138, 4595.430
1465.067, 4576.739
1466.995, 4592.238
1468.923, 4661.985
1470.852, 4703.838
1472.780, 4698.085
1474.709, 4680.586
1476.637, 4656.774
1478.566, 4635.520
1480.494, 4638.524
1482.423, 4672.152
1484.351, 4698.011
1486.280, 4708.069
1488.208, 4710.034
1490.137, 4698.160
1492.065, 4689.192
1493.994, 4710.080
1495.922, 4759.745
1497.850, 4779.161
1499.779, 4739.773
1501.707, 4704.732
1503.636, 4706.780
1505.564, 4727.165
1507.493, 4744.332
1509.421, 4756.996
1511.350, 4761.929
1513.278, 4746.938
1515.207, 4741.646
1517.135, 4778.150
1519.064, 4823.775
1520.992, 4836.473
1522.921, 4811.933
1524.849, 4796.354
1526.777, 4800.273
1528.706, 4802.846
1530.634, 4796.808
1532.563, 4791.477
1534.491, 4795.526
1536.420, 4807.461
1538.348, 4809.642
1540.277, 4791.928
1542.205, 4779.826
1544.134, 4782.042
1546.062, 4786.719
1547.991, 4785.569
1549.919, 4783.172
1551.848, 4791.083
1553.776, 4813.226
1555.704, 4824.886
1557.633, 4818.419
1559.561, 4815.592
1561.490, 4830.284
1563.418, 4852.809
1565.347, 4863.128
1567.275, 4855.749
1569.204, 4858.415
1571.132, 4875.144
1573.061, 4889.568
1574.989, 4898.726
1576.918, 4903.432
1578.846, 4903.655
1580.775, 4899.293
1582.703, 4893.526
1584.631, 4881.531
1586.560, 4873.861
1588.488, 4878.873
1590.417, 4883.968
1592.345, 4878.445
1594.274, 4864.791
1596.202, 4852.913
1598.131, 4836.619
1600.059, 4836.002
1601.988, 4861.158
1603.916, 4891.724
1605.845, 4926.286
1607.773, 4955.393
1609.702, 4959.497
1611.630, 4934.793
1613.558, 4914.795
1615.487, 4903.291
1617.415, 4894.123
1619.344, 4886.747
1621.272, 4881.122
1623.201, 4880.930
1625.129, 4885.123
1627.058, 4878.257
1628.986, 4850.184
1630.915, 4837.417
1632.843, 4861.317
1634.772, 4885.016
1636.700, 4885.381
1638.629, 4872.333
1640.557, 4865.292
1642.485, 4864.012
1644.414, 4860.773
1646.342, 4853.714
1648.271, 4848.526
1650.199, 4852.489
1652.128, 4855.358
1654.056, 4844.491
1655.985, 4824.436
1657.913, 4814.921
1659.842, 4817.212
1661.770, 4826.764
1663.699, 4851.528
1665.627, 4873.322
1667.556, 4883.661
1669.484, 4885.715
1671.412, 4880.166
1673.341, 4867.146
1675.269, 4865.420
1677.198, 4884.074
1679.126, 4895.222
1681.055, 4886.663
1682.983, 4873.704
1684.912, 4859.876
1686.840, 4851.269
1688.769, 4868.640
1690.697, 4917.939
1692.626, 4942.708
1694.554, 4922.096
1696.483, 4900.476
1698.411, 4889.928
1700.339, 4885.736
1702.268, 4880.701
1704.196, 4877.744
1706.125, 4895.490
1708.053, 4946.678
1709.982, 4969.634
1711.910, 4928.417
1713.839, 4893.204
1715.767, 4898.080
1717.696, 4918.427
1719.624, 4924.735
1721.553, 4918.258
1723.481, 4917.904
1725.410, 4925.060
1727.338, 4933.278
1729.266, 4941.649
1731.195, 4949.783
1733.123, 4957.116
1735.052, 4964.063
1736.980, 4973.904
1738.909, 4987.042
1740.837, 4987.868
1742.766, 4965.702
1744.694, 4951.923
1746.623, 4954.599
1748.551, 4961.346
1750.480, 4964.245
1752.408, 4967.986
1754.337, 4982.355
1756.265, 5008.667
1758.193, 5026.941
1760.122, 5023.560
1762.050, 5034.037
1763.979, 5082.038
1765.907, 5120.892
1767.836, 5119.805
1769.764, 5097.004
1771.693, 5079.808
1773.621, 5068.024
1775.550, 5061.225
1777.478, 5070.102
1779.407, 5065.769
1781.335, 5020.346
1783.264, 4992.070
1785.192, 5027.940
1787.120, 5086.295
1789.049, 5103.450
1790.977, 5078.334
1792.906, 5069.362
1794.834, 5088.460
1796.763, 5095.091
1798.691, 5062.660
1800.620, 5041.796
1802.548, 5065.192
1804.477, 5100.209
1806.405, 5107.258
1808.334, 5089.530
1810.262, 5075.154
1812.191, 5063.257
1814.119, 5060.737
1816.047, 5073.092
1817.976, 5088.095
1819.904, 5103.752
1821.833, 5117.993
1823.761, 5128.948
1825.690, 5137.374
1827.618, 5143.941
1829.547, 5148.391
1831.475, 5157.462
1833.404, 5176.687
1835.332, 5189.424
1837.261, 5182.306
1839.189, 5173.994
1841.118, 5184.833
1843.046, 5199.878
1844.974, 5185.330
1846.903, 5142.499
1848.831, 5122.606
1850.760, 5135.454
1852.688, 5153.073
1854.617, 5179.849
1856.545, 5197.963
1858.474, 5198.446
1860.402, 5186.595
1862.331, 5159.571
1864.259, 5122.638
1866.188, 5114.813
1868.116, 5147.996
1870.045, 5178.779
1871.973, 5217.035
1873.901, 5238.202
1875.830, 5220.875
1877.758, 5200.726
1879.687, 5208.672
1881.615, 5231.586
1883.544, 5238.135
1885.472, 5224.748
1887.401, 5224.528
1889.329, 5250.352
1891.258, 5258.128
1893.186, 5215.234
1895.115, 5185.583
1897.043, 5202.563
1898.972, 5236.731
1900.900, 5266.777
1902.828, 5289.820
1904.757, 5289.391
1906.685, 5263.448
1908.614, 5252.953
1910.542, 5267.386
1912.471, 5282.083
1914.399, 5290.266
1916.328, 5295.349
1918.256, 5294.690
1920.185, 5295.781
1922.113, 5313.362
1924.042, 5341.984
1925.970, 5355.135
1927.899, 5350.033
1929.827, 5343.499
1931.755, 5331.754
1933.684, 5326.572
1935.612, 5332.364
1937.541, 5342.782
1939.469, 5364.898
1941.398, 5382.858
1943.326, 5363.275
1945.255, 5311.866
1947.183, 5295.100
1949.112, 5331.942
1951.040, 5354.749
1952.969, 5350.468
1954.897, 5350.293
1956.825, 5367.279
1958.754, 5382.148
1960.682, 5373.572
1962.611, 5362.996
1964.539, 5391.787
1966.468, 5447.496
1968.396, 5461.435
1970.325, 5426.992
1972.253, 5401.147
1974.182, 5389.670
1976.110, 5392.285
1978.039, 5420.633
1979.967, 5447.898
1981.896, 5456.212
1983.824, 5456.910
1985.752, 5461.191
1987.681, 5469.267
1989.609, 5485.338
1991.538, 5515.066
1993.466, 5524.742
1995.395, 5496.706
1997.323, 5478.112
1999.252, 5482.605
2001.180, 5486.648
2003.109, 5469.917
2005.037, 5458.467
2006.966, 5483.036
2008.894, 5528.260
2010.823, 5561.280
2012.751, 5581.745
2014.679, 5571.204
2016.608, 5519.876
2018.536, 5483.310
2020.465, 5472.183
2022.393, 5474.891
2024.322, 5494.274
2026.250, 5517.700
2028.179, 5541.618
2030.107, 5560.651
2032.036, 5564.283
2033.964, 5556.285
2035.893, 5553.062
2037.821, 5553.413
2039.750, 5565.940
2041.678, 5612.458
2043.606, 5637.465
2045.535, 5622.271
2047.463, 5605.534
2049.392, 5599.207
2051.320, 5598.145
2053.249, 5597.950
2055.177, 5599.876
2057.106, 5607.230
2059.034, 5618.945
2060.963, 5631.462
2062.891, 5645.505
2064.820, 5648.271
2066.748, 5634.724
2068.677, 5622.212
2070.605, 5609.895
2072.533, 5608.765
2074.462, 5631.140
2076.390, 5659.863
2078.319, 5690.149
2080.247, 5711.970
2082.176, 5697.028
2084.104, 5650.757
2086.033, 5634.219
2087.961, 5659.536
2089.890, 5676.177
2091.818, 5677.917
2093.747, 5681.924
2095.675, 5690.791
2097.604, 5701.766
2099.532, 5723.759
2101.460, 5737.519
2103.389, 5719.602
2105.317, 5692.989
2107.246, 5696.311
2109.174, 5718.319
2111.103, 5710.035
2113.031, 5667.367
2114.960, 5662.636
2116.888, 5730.233
2118.817, 5759.605
2120.745, 5696.599
2122.674, 5654.382
2124.602, 5677.659
2126.531, 5712.919
2128.459, 5730.976
2130.387, 5745.373
2132.316, 5769.902
2134.244, 5802.138
2136.173, 5840.941
2138.101, 5883.246
2140.030, 5908.653
2141.958, 5916.811
2143.887, 5896.764
2145.815, 5833.335
2147.744, 5783.269
2149.672, 5762.034
2151.601, 5755.140
2153.529, 5762.192
2155.458, 5775.993
2157.386, 5796.599
2159.314, 5816.353
2161.243, 5822.993
2163.171, 5821.322
2165.100, 5828.677
2167.028, 5844.986
2168.957, 5853.306
2170.885, 5852.353
2172.814, 5859.255
2174.742, 5880.713
2176.671, 5895.659
2178.599, 5892.868
2180.528, 5890.112
2182.456, 5895.833
2184.385, 5899.928
2186.313, 5895.121
2188.241, 5884.693
2190.170, 5863.302
2192.098, 5843.350
2194.027, 5865.508
2195.955, 5927.252
2197.884, 5952.435
2199.812, 5939.968
2201.741, 5908.377
2203.669, 5847.091
2205.598, 5823.160
2207.526, 5868.838
2209.455, 5909.887
2211.383, 5917.297
2213.312, 5916.206
2215.240, 5910.348
2217.168, 5909.909
2219.097, 5934.334
2221.025, 5962.716
2222.954, 5956.197
2224.882, 5927.518
2226.811, 5927.737
2228.739, 5955.010
2230.668, 5961.279
2232.596, 5942.292
2234.525, 5937.216
2236.453, 5954.356
2238.382, 5970.605
2240.310, 5985.232
2242.239, 5990.157
2244.167, 5972.074
2246.095, 5957.740
2248.024, 5956.947
2249.952, 5969.079
2251.881, 6005.819
2253.809, 6045.702
2255.738, 6059.142
2257.666, 6051.396
2259.595, 6028.748
2261.523, 5997.579
2263.452, 6000.246
2265.380, 6040.238
2267.309, 6071.137
2269.237, 6091.324
2271.166, 6096.064
2273.094, 6074.826
2275.022, 6053.230
2276.951, 6024.250
2278.879, 6010.100
2280.808, 6027.310
2282.736, 6049.848
2284.665, 6062.674
2286.593, 6074.829
2288.522, 6104.523
2290.450, 6131.750
2292.379, 6117.381
2294.307, 6079.397
2296.236, 6073.421
2298.164, 6097.234
2300.093, 6108.265
2302.021, 6104.051
2303.949, 6099.989
2305.878, 6092.264
2307.806, 6101.678
2309.735, 6138.899
2311.663, 6166.961
2313.592, 6169.555
2315.520, 6175.930
2317.449, 6189.721
2319.377, 6218.313
2321.306, 6285.104
2323.234, 6345.160
2325.163, 6364.409
2327.091, 6357.005
2329.020, 6330.941
2330.948, 6296.684
2332.876, 6270.774
2334.805, 6254.908
2336.733, 6256.325
2338.662, 6273.006
2340.590, 6292.298
2342.519, 6314.435
2344.447, 6317.132
2346.376, 6286.214
2348.304, 6269.037
2350.233, 6268.519
2352.161, 6283.379
2354.090, 6336.542
2356.018, 6364.504
2357.947, 6329.444
2359.875, 6301.102
2361.803, 6314.024
2363.732, 6338.397
2365.660, 6369.039
2367.589, 6386.983
2369.517, 6357.002
2371.446, 6318.780
2373.374, 6341.071
2375.303, 6392.725
2377.231, 6394.944
2379.160, 6361.661
2381.088, 6358.479
2383.017, 6381.462
2384.945, 6401.872
2386.874, 6417.169
2388.802, 6426.612
2390.730, 6425.488
2392.659, 6430.320
2394.587, 6452.773
2396.516, 6462.099
2398.444, 6441.468
2400.373, 6444.595
2402.301, 6508.435
2404.230, 6546.010
2406.158, 6503.945
2408.087, 6464.980
2410.015, 6476.246
2411.944, 6497.323
2413.872, 6506.334
2415.801, 6506.261
2417.729, 6487.633
2419.657, 6471.396
2421.586, 6492.690
2423.514, 6530.824
2425.443, 6548.736
2427.371, 6552.877
2429.300, 6557.402
2431.228, 6563.028
2433.157, 6573.256
2435.085, 6588.563
2437.014, 6589.686
2438.942, 6572.915
2440.871, 6558.286
2442.799, 6542.887
2444.728, 6546.221
2446.656, 6574.174
2448.584, 6595.563
2450.513, 6605.592
2452.441, 6606.139
2454.370, 6581.328
2456.298, 6575.391
2458.227, 6612.896
2460.155, 6650.772
2462.084, 6671.435
2464.012, 6696.045
2465.941, 6748.551
2467.869, 6784.511
2469.798, 6764.538
2471.726, 6728.510
2473.655, 6700.040
2475.583, 6680.042
2477.511, 6668.449
2479.440, 6667.827
2481.368, 6698.373
2483.297, 6732.897
2485.225, 6702.457
2487.154, 6643.799
2489.082, 6650.264
2491.011, 6702.366
2492.939, 6724.351
2494.868, 6719.764
2496.796, 6729.838
2498.725, 6756.199
2500.653, 6759.792
2502.582, 6740.097
2504.510, 6710.106
2506.438, 6666.672
2508.367, 6681.641
2510.295, 6785.608
2512.224, 6849.937
2514.152, 6832.412
2516.081, 6827.631
2518.009, 6850.389
2519.938, 6855.806
2521.866, 6826.656
2523.795, 6812.611
2525.723, 6834.747
2527.652, 6857.499
2529.580, 6871.593
2531.509, 6880.079
2533.437, 6878.184
2535.365, 6878.686
2537.294, 6888.305
2539.222, 6899.612
2541.151, 6909.805
2543.079, 6919.187
2545.008, 6928.632
2546.936, 6936.479
2548.865, 6937.212
2550.793, 6940.168
2552.722, 6962.228
2554.650, 6983.412
2556.579, 6974.868
2558.507, 6957.986
2560.436, 6959.786
2562.364, 6971.455
2564.292, 6982.588
2566.221, 6993.134
2568.149, 7004.074
2570.078, 7013.797
2572.006, 7019.450
2573.935, 7019.604
2575.863, 6997.117
2577.792, 6966.365
2579.720, 6987.225
2581.649, 7049.433
2583.577, 7096.280
2585.506, 7126.918
2587.434, 7120.641
2589.363, 7078.381
2591.291, 7075.082
2593.219, 7108.791
2595.148, 7106.707
2597.076, 7064.175
2599.005, 7056.525
2600.933, 7095.974
2602.862, 7126.330
2604.790, 7146.551
2606.719, 7153.743
2608.647, 7143.692
2610.576, 7152.116
2612.504, 7188.407
2614.433, 7204.031
2616.361, 7182.233
2618.290, 7169.868
2620.218, 7176.425
2622.146, 7176.092
2624.075, 7157.165
2626.003, 7175.670
2627.932, 7261.638
2629.860, 7306.546
2631.789, 7254.186
2633.717, 7224.056
2635.646, 7254.132
2637.574, 7274.922
2639.503, 7273.236
2641.431, 7270.733
2643.360, 7274.830
2645.288, 7270.435
2647.217, 7238.417
2649.145, 7223.200
2651.073, 7249.007
2653.002, 7275.347
2654.930, 7297.011
2656.859, 7311.855
2658.787, 7316.167
2660.716, 7320.849
2662.644, 7327.410
2664.573, 7338.500
2666.501, 7361.421
2668.430, 7377.900
2670.358, 7381.473
2672.287, 7375.560
2674.215, 7348.939
2676.144, 7334.869
2678.072, 7360.635
2680.000, 7384.408
2681.929, 7381.000
2683.857, 7382.186
2685.786, 7410.422
2687.714, 7435.680
2689.643, 7447.330
2691.571, 7452.044
2693.500, 7450.520
2695.428, 7446.337
2697.357, 7429.349
2699.285, 7424.998
2701.214, 7459.911
2703.142, 7487.615
2705.071, 7481.169
2706.999, 7471.570
2708.927, 7478.495
2710.856, 7483.915
2712.784, 7467.278
2714.713, 7465.020
2716.641, 7516.460
2718.570, 7552.608
2720.498, 7522.537
2722.427, 7494.006
2724.355, 7508.370
2726.284, 7523.463
2728.212, 7512.874
2730.141, 7505.240
2732.069, 7514.774
2733.998, 7528.536
2735.926, 7534.233
2737.854, 7552.891
2739.783, 7621.414
2741.711, 7665.454
2743.640, 7622.670
2745.568, 7590.459
2747.497, 7612.392
2749.425, 7635.990
2751.354, 7633.917
2753.282, 7632.566
2755.211, 7647.136
2757.139, 7658.505
2759.068, 7656.158
2760.996, 7659.914
2762.925, 7681.961
2764.853, 7700.261
2766.781, 7700.318
2768.710, 7702.684
2770.638, 7711.902
2772.567, 7725.848
2774.495, 7752.556
2776.424, 7762.410
2778.352, 7738.666
2780.281, 7717.530
2782.209, 7702.832
2784.138, 7707.346
2786.066, 7744.402
2787.995, 7770.576
2789.923, 7773.418
2791.852, 7776.567
2793.780, 7780.745
2795.708, 7795.258
2797.637, 7830.119
2799.565, 7856.383
2801.494, 7875.082
2803.422, 7864.875
2805.351, 7808.239
2807.279, 7789.821
2809.208, 7862.204
2811.136, 7872.558
2813.065, 7800.235
2814.993, 7780.587
2816.922, 7827.949
2818.850, 7859.093
2820.779, 7861.443
2822.707, 7882.060
2824.635, 7932.211
2826.564, 7921.168
2828.492, 7851.177
2830.421, 7824.382
2832.349, 7843.109
2834.278, 7849.017
2836.206, 7842.961
2838.135, 7853.301
2840.063, 7878.349
2841.992, 7906.238
2843.920, 7933.767
2845.849, 7951.810
2847.777, 7958.882
2849.706, 7946.890
2851.634, 7922.497
2853.563, 7895.847
2855.491, 7878.581
2857.419, 7902.554
2859.348, 7944.658
2861.276, 7965.367
2863.205, 7978.045
2865.133, 8003.286
2867.062, 8031.591
2868.990, 8061.170
2870.919, 8077.910
2872.847, 8052.183
2874.776, 8027.544
2876.704, 8057.836
2878.633, 8084.764
2880.561, 8052.472
2882.490, 8029.842
2884.418, 8044.634
2886.346, 8100.458
2888.275, 8285.289
2890.203, 8366.247
2892.132, 8203.977
2894.060, 8072.939
2895.989, 8093.025
2897.917, 8114.147
2899.846, 8086.900
2901.774, 8072.654
2903.703, 8078.676
2905.631, 8097.687
2907.560, 8134.680
2909.488, 8156.966
2911.417, 8152.949
2913.345, 8154.740
2915.273, 8162.707
2917.202, 8186.254
2919.130, 8225.138
2921.059, 8205.772
2922.987, 8128.390
2924.916, 8136.005
2926.844, 8215.925
2928.773, 8257.688
2930.701, 8264.490
2932.630, 8235.332
2934.558, 8192.257
2936.487, 8196.492
2938.415, 8223.092
2940.344, 8224.993
2942.272, 8218.665
2944.200, 8222.128
2946.129, 8230.903
2948.057, 8224.688
2949.986, 8238.967
2951.914, 8344.823
2953.843, 8417.794
2955.771, 8349.124
2957.700, 8280.625
2959.628, 8286.375
2961.557, 8304.776
2963.485, 8331.862
2965.414, 8333.609
2967.342, 8271.477
2969.271, 8261.596
2971.199, 8366.216
2973.127, 8442.286
2975.056, 8484.006
2976.984, 8479.312
2978.913, 8421.367
2980.841, 8393.945
2982.770, 8402.315
2984.698, 8387.133
2986.627, 8358.425
2988.555, 8400.587
2990.484, 8480.777
2992.412, 8469.064
2994.341, 8414.041
2996.269, 8441.281
2998.198, 8490.315
3000.126, 8459.989
3002.054, 8414.100
3003.983, 8424.433
3005.911, 8443.075
3007.840, 8423.471
3009.768, 8410.263
3011.697, 8433.652
3013.625, 8454.612
3015.554, 8452.336
3017.482, 8450.186
3019.411, 8449.524
3021.339, 8463.816
3023.268, 8503.656
3025.196, 8524.697
3027.125, 8511.953
3029.053, 8510.602
3030.981, 8520.173
3032.910, 8522.162
3034.838, 8518.825
3036.767, 8552.055
3038.695, 8603.586
3040.624, 8584.284
3042.552, 8532.090
3044.481, 8533.797
3046.409, 8553.656
3048.338, 8543.489
3050.266, 8528.187
3052.195, 8517.751
3054.123, 8532.290
3056.052, 8617.185
3057.980, 8675.583
3059.908, 8647.510
3061.837, 8608.532
3063.765, 8565.715
3065.694, 8548.308
3067.622, 8571.273
3069.551, 8588.335
3071.479, 8594.407
3073.408, 8606.685
3075.336, 8625.927
3077.265, 8658.557
3079.193, 8694.946
3081.122, 8673.041
3083.050, 8619.220
3084.979, 8605.315
3086.907, 8613.414
3088.835, 8617.708
3090.764, 8632.030
3092.692, 8684.714
3094.621, 8733.329
3096.549, 8754.035
3098.478, 8764.380
3100.406, 8770.005
3102.335, 8768.494
3104.263, 8759.516
3106.192, 8738.631
3108.120, 8700.166
3110.049, 8702.671
3111.977, 8759.720
3113.906, 8773.292
3115.834, 8751.436
3117.762, 8753.809
3119.691, 8764.898
3121.619, 8724.894
3123.548, 8676.315
3125.476, 8692.183
3127.405, 8735.622
3129.333, 8798.560
3131.262, 8835.282
3133.190, 8789.608
3135.119, 8755.263
3137.047, 8757.709
3138.976, 8789.355
3140.904, 8874.527
3142.833, 8918.156
3144.761, 8912.288
3146.689, 8883.899
3148.618, 8837.809
3150.546, 8815.856
3152.475, 8813.820
3154.403, 8815.560
3156.332, 8821.500
3158.260, 8836.707
3160.189, 8852.334
3162.117, 8853.229
3164.046, 8860.656
3165.974, 8900.467
3167.903, 8925.695
3169.831, 8903.785
3171.760, 8891.193
3173.688, 8901.687
3175.616, 8905.729
3177.545, 8900.485
3179.473, 8903.231
3181.402, 8914.657
3183.330, 8924.133
3185.259, 8931.899
3187.187, 8938.374
3189.116, 8939.082
3191.044, 8915.832
3192.973, 8895.837
3194.901, 8903.848
3196.830, 8919.089
3198.758, 8934.022
3200.687, 8944.476
3202.615, 8948.215
3204.543, 8945.934
3206.472, 8937.487
3208.400, 8942.609
3210.329, 8963.316
3212.257, 8945.057
3214.186, 8908.839
3216.114, 8943.499
3218.043, 9005.298
3219.971, 9047.112
3221.900, 9058.253
3223.828, 9000.539
3225.757, 8957.750
3227.685, 8982.729
3229.614, 9009.706
3231.542, 9027.135
3233.470, 9029.155
3235.399, 9012.783
3237.327, 9021.457
3239.256, 9053.430
3241.184, 9069.285
3243.113, 9063.564
3245.041, 8989.211
3246.970, 8922.219
3248.898, 8976.452
3250.827, 9056.738
3252.755, 9114.178
3254.684, 9145.575
3256.612, 9134.537
3258.541, 9120.887
3260.469, 9104.659
3262.397, 9130.416
3264.326, 9199.360
3266.254, 9178.830
3268.183, 9098.063
3270.111, 9079.210
3272.040, 9088.499
3273.968, 9070.156
3275.897, 9059.279
3277.825, 9090.637
3279.754, 9130.451
3281.682, 9179.110
3283.611, 9196.437
3285.539, 9156.140
3287.468, 9141.845
3289.396, 9155.635
3291.324, 9174.617
3293.253, 9195.163
3295.181, 9193.186
3297.110, 9198.257
3299.038, 9294.376
3300.967, 9362.055
3302.895, 9257.694
3304.824, 9188.649
3306.752, 9241.118
3308.681, 9271.410
3310.609, 9232.750
3312.538, 9232.282
3314.466, 9267.633
3316.395, 9269.362
3318.323, 9248.521
3320.251, 9226.872
3322.180, 9220.915
3324.108, 9274.700
3326.037, 9319.627
3327.965, 9311.435
3329.894, 9293.331
3331.822, 9273.422
3333.751, 9255.992
3335.679, 9240.373
3337.608, 9257.674
3339.536, 9297.056
3341.465, 9273.993
3343.393, 9236.534
3345.322, 9269.608
3347.250, 9316.333
3349.178, 9336.919
3351.107, 9338.533
3353.035, 9311.339
3354.964, 9295.894
3356.892, 9298.795
3358.821, 9305.215
3360.749, 9313.995
3362.678, 9319.271
3364.606, 9324.518
3366.535, 9344.977
3368.463, 9359.862
3370.392, 9339.455
3372.320, 9327.648
3374.249, 9344.243
3376.177, 9374.832
3378.105, 9421.162
3380.034, 9444.821
3381.962, 9444.996
3383.891, 9442.824
3385.819, 9441.464
3387.748, 9450.938
3389.676, 9460.669
3391.605, 9460.299
3393.533, 9457.288
3395.462, 9450.296
3397.390, 9453.621
3399.319, 9471.289
3401.247, 9475.043
3403.176, 9468.862
3405.104, 9494.950
3407.032, 9531.873
3408.961, 9539.387
3410.889, 9530.314
3412.818, 9499.231
3414.746, 9484.516
3416.675, 9506.518
3418.603, 9509.826
3420.532, 9483.327
3422.460, 9488.281
3424.389, 9517.268
3426.317, 9521.072
3428.246, 9520.552
3430.174, 9550.253
3432.103, 9576.422
3434.031, 9577.614
3435.959, 9573.366
3437.888, 9562.862
3439.816, 9567.597
3441.745, 9585.427
3443.673, 9568.563
3445.602, 9541.454
3447.530, 9572.172
3449.459, 9612.997
3451.387, 9612.419
3453.316, 9622.847
3455.244, 9690.768
3457.173, 9711.246
3459.101, 9674.049
3461.030, 9703.787
3462.958, 9774.226
3464.886, 9730.014
3466.815, 9659.906
3468.743, 9685.982
3470.672, 9708.726
3472.600, 9649.983
3474.529, 9629.491
3476.457, 9674.184
3478.386, 9734.516
3480.314, 9800.179
3482.243, 9784.828
3484.171, 9724.210
3486.100, 9644.087
3488.028, 9596.712
3489.957, 9618.938
3491.885, 9668.581
3493.813, 9756.163
3495.742, 9803.069
3497.670, 9809.538
3499.599, 9776.428
3501.527, 9731.289
3503.456, 9724.057
3505.384, 9732.850
3507.313, 9751.759
3509.241, 9757.975
3511.170, 9731.552
3513.098, 9752.294
3515.027, 9816.107
3516.955, 9827.694
3518.884, 9806.176
3520.812, 9772.163
3522.740, 9765.050
3524.669, 9852.574
3526.597, 9897.501
3528.526, 9862.835
3530.454, 9840.947
3532.383, 9840.680
3534.311, 9831.042
3536.240, 9824.550
3538.168, 9850.926
3540.097, 9879.085
3542.025, 9870.251
3543.954, 9893.097
3545.882, 9975.478
3547.811, 9985.981
3549.739, 9929.384
3551.667, 9939.049
3553.596, 9970.312
3555.524, 9944.364
3557.453, 9929.406
3559.381, 9974.646
3561.310, 9992.317
3563.238, 9940.741
3565.167, 9958.080
3567.095, 10015.97
3569.024, 9983.451
3570.952, 9936.520
3572.881, 9991.056
3574.809, 10035.13
3576.738, 10012.88
3578.666, 9989.821
3580.594, 9971.335
3582.523, 9985.043
3584.451, 10014.44
3586.380, 10024.68
3588.308, 10017.60
3590.237, 9984.512
3592.165, 9964.259
3594.094, 9966.568
3596.022, 9999.819
3597.951, 10057.41
3599.879, 10103.23
3601.808, 10121.05
3603.736, 10074.17
3605.665, 10011.04
3607.593, 9927.948
3609.521, 9916.310
3611.450, 9986.674
3613.378, 10031.60
3615.307, 10055.25
3617.235, 10091.54
3619.164, 10106.95
3621.092, 10044.43
3623.021, 10009.78
3624.949, 10029.54
3626.878, 10064.14
3628.806, 10108.12
3630.735, 10161.13
3632.663, 10195.05
3634.592, 10148.49
3636.520, 10124.66
3638.448, 10195.46
3640.377, 10195.39
3642.305, 10099.15
3644.234, 10118.55
3646.162, 10197.09
3648.091, 10215.99
3650.019, 10213.02
3651.948, 10212.55
3653.876, 10196.54
3655.805, 10159.32
3657.733, 10172.32
3659.662, 10213.75
3661.590, 10161.29
3663.519, 10119.72
3665.447, 10234.72
3667.375, 10276.61
3669.304, 10172.45
3671.232, 10120.15
3673.161, 10127.88
3675.089, 10191.69
3677.018, 10252.61
3678.946, 10227.04
3680.875, 10205.69
3682.803, 10222.86
3684.732, 10204.36
3686.660, 10150.21
3688.589, 10177.36
3690.517, 10232.05
3692.446, 10236.54
3694.374, 10250.96
3696.302, 10309.72
3698.231, 10327.19
3700.159, 10295.25
3702.088, 10261.07
3704.016, 10234.96
3705.945, 10234.55
3707.873, 10241.98
3709.802, 10249.56
3711.730, 10249.27
3713.659, 10239.17
3715.587, 10310.41
3717.516, 10392.20
3719.444, 10358.56
3721.373, 10302.97
3723.301, 10258.93
3725.229, 10264.04
3727.158, 10324.54
3729.086, 10367.17
3731.015, 10392.40
3732.943, 10388.26
3734.872, 10398.98
3736.800, 10457.32
3738.729, 10472.58
3740.657, 10432.65
3742.586, 10401.09
3744.514, 10384.76
3746.443, 10410.57
3748.371, 10417.29
3750.300, 10369.16
3752.228, 10352.80
3754.156, 10376.62
3756.085, 10396.79
3758.013, 10423.79
3759.942, 10505.12
3761.870, 10527.09
3763.799, 10440.45
3765.727, 10376.44
3767.656, 10351.24
3769.584, 10398.94
3771.513, 10462.46
3773.441, 10481.19
3775.370, 10475.34
3777.298, 10444.24
3779.227, 10462.45
3781.155, 10515.57
3783.083, 10513.79
3785.012, 10497.15
3786.940, 10497.47
3788.869, 10505.24
3790.797, 10519.19
3792.726, 10511.44
3794.654, 10488.68
3796.583, 10454.56
3798.511, 10447.30
3800.440, 10526.39
3802.368, 10562.16
3804.297, 10541.40
3806.225, 10541.74
3808.154, 10550.99
3810.082, 10545.55
3812.010, 10531.80
3813.939, 10494.14
3815.867, 10523.31
3817.796, 10610.49
3819.724, 10642.19
3821.653, 10628.45
3823.581, 10557.58
3825.510, 10508.40
3827.438, 10503.73
3829.367, 10517.77
3831.295, 10540.59
3833.224, 10547.51
3835.152, 10545.52
3837.081, 10529.36
3839.009, 10535.07
3840.938, 10563.82
3842.866, 10555.89
3844.794, 10547.61
3846.723, 10627.04
3848.651, 10682.58
3850.580, 10665.71
3852.508, 10661.95
3854.437, 10679.71
3856.365, 10763.69
3858.294, 10816.16
3860.222, 10721.14
3862.151, 10686.00
3864.079, 10768.65
3866.008, 10823.92
3867.936, 10852.86
3869.865, 10864.82
3871.793, 10861.09
3873.721, 10844.63
3875.650, 10845.08
3877.578, 10854.78
3879.507, 10880.06
3881.435, 10906.25
3883.364, 10922.85
3885.292, 10946.23
3887.221, 10973.77
3889.149, 10977.88
3891.078, 10966.52
3893.006, 10962.10
3894.935, 10971.70
3896.863, 10987.15
3898.792, 11030.59
3900.720, 11078.75
3902.648, 11073.49
3904.577, 11070.18
3906.505, 11104.24
3908.434, 11128.06
3910.362, 11140.82
3912.291, 11182.19
3914.219, 11213.88
3916.148, 11177.50
3918.076, 11178.98
3920.005, 11269.94
3921.933, 11305.25
3923.862, 11298.82
3925.790, 11303.59
3927.719, 11303.85
3929.647, 11279.57
3931.575, 11275.29
3933.504, 11320.74
3935.432, 11342.60
3937.361, 11345.06
3939.289, 11394.65
3941.218, 11423.31
3943.146, 11417.12
3945.075, 11469.53
3947.003, 11521.23
3948.932, 11515.45
3950.860, 11495.77
3952.789, 11482.27
3954.717, 11547.77
3956.646, 11624.74
3958.574, 11622.51
3960.502, 11629.50
3962.431, 11640.59
3964.359, 11645.09
3966.288, 11668.04
3968.216, 11722.18
3970.145, 11744.94
3972.073, 11688.25
3974.002, 11667.58
3975.930, 11690.22
3977.859, 11740.02
3979.787, 11786.18
3981.716, 11804.22
3983.644, 11828.64
3985.573, 11865.53
3987.501, 11861.57
3989.429, 11846.33
3991.358, 11863.46
3993.286, 11892.50
3995.215, 11916.77
3997.143, 11905.65
3999.072, 11887.78
4001.000, 11902.38
4002.929, 11909.70
4004.857, 11897.89
4006.786, 11902.86
4008.714, 11923.43
4010.643, 11959.95
4012.571, 11993.48
4014.500, 12004.15
4016.428, 12049.19
4018.356, 12111.59
4020.285, 12111.07
4022.213, 12097.59
4024.142, 12104.22
4026.070, 12138.51
4027.999, 12192.82
4029.927, 12203.70
4031.856, 12191.45
4033.784, 12187.72
4035.713, 12214.71
4037.641, 12267.79
4039.570, 12281.42
4041.498, 12283.01
4043.427, 12309.07
4045.355, 12341.62
4047.283, 12306.96
4049.212, 12286.50
4051.140, 12301.15
4053.069, 12315.27
4054.997, 12344.14
4056.926, 12362.96
4058.854, 12383.30
4060.783, 12415.51
4062.711, 12425.00
4064.640, 12423.82
4066.568, 12408.23
4068.497, 12411.14
4070.425, 12452.06
4072.354, 12493.79
4074.282, 12515.72
4076.210, 12508.88
4078.139, 12521.30
4080.067, 12554.60
4081.996, 12565.81
4083.924, 12557.18
4085.853, 12593.40
4087.781, 12635.53
4089.710, 12642.65
4091.638, 12663.76
4093.567, 12685.01
4095.495, 12668.73
4097.423, 12649.60
4099.352, 12665.76
4101.280, 12712.15
4103.209, 12782.67
4105.137, 12759.46
4107.066, 12715.42
4108.994, 12784.58
4110.923, 12791.72
4112.851, 12715.40
4114.780, 12721.27
4116.708, 12790.57
4118.637, 12847.21
4120.565, 12846.46
4122.494, 12800.98
4124.422, 12831.27
4126.351, 12924.87
4128.279, 12976.42
4130.208, 12978.51
4132.136, 12951.76
4134.064, 12928.72
4135.993, 12922.46
4137.921, 12930.13
4139.850, 12950.00
4141.778, 12959.36
4143.707, 12954.43
4145.635, 12940.59
4147.563, 12984.01
4149.492, 13050.05
4151.420, 13067.51
4153.349, 13079.55
4155.277, 13093.64
4157.206, 13128.38
4159.134, 13165.56
4161.063, 13152.12
4162.991, 13152.73
4164.920, 13166.73
4166.848, 13188.13
4168.777, 13196.23
4170.705, 13174.01
4172.634, 13176.37
4174.562, 13198.04
4176.491, 13190.43
4178.419, 13202.67
4180.348, 13301.45
4182.276, 13328.99
4184.205, 13274.80
4186.133, 13255.39
4188.062, 13286.20
4189.990, 13374.32
4191.918, 13399.98
4193.847, 13377.53
4195.775, 13394.98
4197.704, 13399.18
4199.632, 13359.37
4201.561, 13376.42
4203.489, 13436.38
4205.417, 13419.84
4207.346, 13415.74
4209.274, 13494.78
4211.203, 13512.66
4213.131, 13476.11
4215.060, 13420.38
4216.988, 13402.52
4218.917, 13477.08
4220.845, 13480.47
4222.774, 13445.47
4224.702, 13540.91
4226.631, 13589.32
4228.559, 13473.07
4230.488, 13459.56
4232.416, 13509.17
4234.345, 13484.59
4236.273, 13497.21
4238.202, 13611.66
4240.130, 13696.17
4242.059, 13735.85
4243.987, 13686.38
4245.916, 13613.13
4247.844, 13520.03
4249.772, 13560.50
4251.701, 13643.37
4253.629, 13629.55
4255.558, 13629.34
4257.486, 13667.64
4259.415, 13678.46
4261.343, 13674.24
4263.271, 13656.87
4265.200, 13653.68
4267.128, 13669.10
4269.057, 13755.53
4270.985, 13789.67
4272.914, 13619.77
4274.842, 13539.44
4276.771, 13550.29
4278.699, 13529.16
4280.628, 13516.71
4282.556, 13539.37
4284.485, 13564.24
4286.413, 13583.96
4288.342, 13573.72
4290.270, 13578.16
4292.199, 13620.94
4294.127, 13622.36
4296.056, 13605.96
4297.984, 13610.72
4299.913, 13616.03
4301.841, 13616.89
4303.770, 13570.57
4305.698, 13535.98
4307.626, 13585.62
4309.555, 13606.45
4311.483, 13591.75
4313.412, 13626.04
4315.340, 13656.09
4317.269, 13649.24
4319.197, 13645.23
4321.125, 13640.61
4323.054, 13586.95
4324.982, 13594.07
4326.911, 13701.77
4328.839, 13684.96
4330.768, 13611.10
4332.696, 13569.78
4334.625, 13588.26
4336.553, 13656.09
4338.482, 13653.01
4340.410, 13626.32
4342.339, 13609.29
4344.267, 13632.68
4346.196, 13667.87
4348.124, 13572.19
4350.053, 13531.58
4351.981, 13651.66
4353.910, 13683.96
4355.838, 13665.15
4357.767, 13675.07
4359.695, 13668.37
4361.624, 13634.13
4363.552, 13605.61
4365.480, 13589.72
4367.409, 13599.27
4369.337, 13606.34
4371.266, 13613.92
4373.194, 13650.56
4375.123, 13675.75
4377.051, 13674.40
4378.979, 13614.97
4380.908, 13543.79
4382.836, 13537.16
4384.765, 13512.62
4386.693, 13462.38
4388.622, 13508.44
4390.550, 13560.95
4392.479, 13558.74
4394.407, 13557.26
4396.336, 13571.82
4398.264, 13656.70
4400.193, 13679.69
4402.121, 13606.27
4404.050, 13550.54
4405.978, 13528.33
4407.907, 13578.51
4409.835, 13574.36
4411.764, 13521.39
4413.692, 13474.73
4415.621, 13482.87
4417.549, 13607.21
4419.478, 13617.04
4421.406, 13562.21
4423.334, 13500.41
4425.263, 13440.38
4427.191, 13390.92
4429.120, 13423.43
4431.048, 13490.16
4432.977, 13576.18
4434.905, 13562.28
4436.833, 13493.57
4438.762, 13436.64
4440.690, 13429.60
4442.619, 13469.75
4444.547, 13483.88
4446.476, 13496.85
4448.404, 13542.45
4450.333, 13501.59
4452.261, 13435.66
4454.190, 13506.04
4456.118, 13536.46
4458.047, 13488.03
4459.975, 13448.35
4461.904, 13418.88
4463.832, 13404.09
4465.761, 13379.42
4467.689, 13355.00
4469.618, 13348.88
4471.546, 13374.95
4473.475, 13424.18
4475.403, 13398.26
4477.332, 13376.42
4479.260, 13418.94
4481.188, 13468.41
4483.117, 13491.55
4485.045, 13397.56
4486.974, 13374.67
4488.902, 13447.41
4490.831, 13365.30
4492.759, 13299.55
4494.688, 13354.84
4496.616, 13413.65
4498.544, 13432.84
4500.473, 13313.71
4502.401, 13295.44
4504.330, 13378.11
4506.258, 13367.71
4508.187, 13371.53
4510.115, 13459.07
4512.044, 13405.32
4513.972, 13314.99
4515.901, 13324.86
4517.829, 13370.62
4519.758, 13417.69
4521.686, 13355.25
4523.615, 13263.71
4525.543, 13175.64
4527.472, 13288.33
4529.400, 13397.26
4531.329, 13312.67
4533.257, 13307.07
4535.186, 13346.26
4537.114, 13312.05
4539.042, 13266.75
4540.971, 13226.76
4542.899, 13216.19
4544.828, 13227.75
4546.756, 13262.90
4548.685, 13267.64
4550.613, 13254.57
4552.542, 13231.18
4554.470, 13236.84
4556.398, 13268.08
4558.327, 13318.43
4560.255, 13319.08
4562.184, 13245.33
4564.112, 13241.87
4566.041, 13265.63
4567.969, 13305.77
4569.898, 13197.47
4571.826, 13065.72
4573.755, 13123.30
4575.683, 13166.31
4577.612, 13179.04
4579.540, 13259.01
4581.469, 13257.79
4583.397, 13108.76
4585.326, 13094.87
4587.254, 13136.23
4589.183, 13192.31
4591.111, 13130.00
4593.040, 13050.95
4594.968, 13155.33
4596.896, 13191.26
4598.825, 13144.02
4600.753, 13085.75
4602.682, 13067.85
4604.610, 13111.77
4606.539, 13057.77
4608.467, 13019.77
4610.396, 13082.98
4612.324, 13068.88
4614.252, 13018.19
4616.181, 12986.25
4618.109, 13001.80
4620.038, 13045.16
4621.966, 13044.51
4623.895, 13059.35
4625.823, 13101.16
4627.752, 13073.63
4629.680, 13051.97
4631.609, 13070.80
4633.537, 13071.45
4635.466, 13048.04
4637.394, 12994.61
4639.323, 12937.58
4641.251, 12896.91
4643.180, 12907.56
4645.108, 12961.80
4647.037, 13021.53
4648.965, 12859.86
4650.894, 12795.91
4652.822, 12905.91
4654.750, 12999.10
4656.679, 13029.47
4658.607, 12936.78
4660.536, 12960.34
4662.464, 12997.51
4664.393, 12932.55
4666.321, 12912.60
4668.250, 12934.53
4670.178, 12995.25
4672.106, 12968.63
4674.035, 12875.43
4675.963, 12879.90
4677.892, 12894.51
4679.820, 12894.10
4681.749, 12865.51
4683.677, 12869.25
4685.606, 12932.75
4687.534, 12912.12
4689.463, 12891.32
4691.391, 12970.48
4693.320, 12978.49
4695.248, 12931.53
4697.177, 12847.46
4699.105, 12789.34
4701.034, 12767.42
4702.962, 12814.52
4704.891, 12776.38
4706.819, 12675.60
4708.748, 12821.88
4710.676, 12896.09
4712.604, 12815.25
4714.533, 12667.39
4716.461, 12624.60
4718.390, 12791.15
4720.318, 12775.85
4722.247, 12722.52
4724.175, 12751.64
4726.104, 12702.94
4728.032, 12652.99
4729.960, 12715.94
4731.889, 12697.36
4733.817, 12640.46
4735.746, 12651.90
4737.674, 12702.91
4739.603, 12753.21
4741.531, 12672.77
4743.460, 12646.13
4745.388, 12686.58
4747.317, 12684.21
4749.245, 12629.58
4751.174, 12526.51
4753.102, 12520.43
4755.031, 12557.75
4756.959, 12611.84
4758.888, 12612.08
4760.816, 12597.37
4762.745, 12599.37
4764.673, 12536.97
4766.602, 12502.75
4768.530, 12582.84
4770.458, 12613.90
4772.387, 12600.88
4774.315, 12554.94
4776.244, 12520.65
4778.172, 12496.20
4780.101, 12462.06
4782.029, 12503.65
4783.958, 12568.19
4785.886, 12513.97
4787.814, 12479.39
4789.743, 12470.55
4791.671, 12394.88
4793.600, 12441.17
4795.528, 12577.84
4797.457, 12521.22
4799.385, 12472.70
4801.314, 12485.97
4803.242, 12486.97
4805.171, 12491.53
4807.099, 12500.48
4809.028, 12471.60
4810.956, 12421.17
4812.885, 12354.31
4814.813, 12355.83
4816.742, 12398.02
4818.670, 12465.07
4820.599, 12537.32
4822.527, 12558.50
4824.456, 12467.81
4826.384, 12450.49
4828.313, 12433.86
4830.241, 12360.77
4832.169, 12337.91
4834.098, 12339.25
4836.026, 12327.55
4837.955, 12371.13
4839.883, 12390.51
4841.812, 12281.98
4843.740, 12325.80
4845.668, 12400.93
4847.597, 12294.20
4849.525, 12276.08
4851.454, 12315.75
4853.382, 12370.48
4855.311, 12305.75
4857.239, 12212.34
4859.168, 12278.84
4861.096, 12258.17
4863.025, 12194.24
4864.953, 12208.22
4866.882, 12211.23
4868.810, 12199.37
4870.739, 12187.82
4872.667, 12163.73
4874.596, 12136.57
4876.524, 12121.15
4878.453, 12138.74
4880.381, 12162.02
4882.310, 12111.60
4884.238, 12130.27
4886.167, 12179.79
4888.095, 12118.11
4890.023, 12106.43
4891.952, 12133.43
4893.880, 12114.19
4895.809, 12108.35
4897.737, 12102.73
4899.666, 12032.23
4901.594, 12000.92
4903.522, 12013.67
4905.451, 12062.72
4907.379, 12064.77
4909.308, 12027.37
4911.236, 11973.69
4913.165, 12002.30
4915.093, 12052.68
4917.022, 11920.37
4918.950, 11935.13
4920.879, 12052.54
4922.807, 12111.81
4924.736, 12045.02
4926.664, 11940.37
4928.593, 11987.52
4930.521, 11989.75
4932.450, 11961.76
4934.378, 11978.21
4936.307, 11934.63
4938.235, 11869.56
4940.164, 11861.99
4942.092, 11875.58
4944.021, 11892.55
4945.949, 11893.60
4947.877, 11898.73
4949.806, 11886.86
4951.734, 11812.56
4953.663, 11833.70
4955.591, 11881.19
4957.520, 11857.38
4959.448, 11877.36
4961.376, 11907.99
4963.305, 11916.93
4965.233, 11863.32
4967.162, 11802.22
4969.090, 11787.34
4971.019, 11736.92
4972.947, 11676.73
4974.876, 11623.00
4976.804, 11790.30
4978.733, 11896.91
4980.661, 11785.76
4982.590, 11767.07
4984.518, 11765.00
4986.447, 11737.63
4988.375, 11709.12
4990.304, 11746.19
4992.232, 11839.04
4994.161, 11758.71
4996.089, 11674.15
4998.018, 11641.07
4999.946, 11653.24
5001.875, 11688.63
5003.803, 11714.46
5005.731, 11600.38
5007.660, 11592.18
5009.588, 11667.13
5011.517, 11676.37
5013.445, 11628.60
5015.374, 11588.90
5017.302, 11698.80
5019.230, 11656.50
5021.159, 11560.55
5023.087, 11585.18
5025.016, 11645.86
5026.944, 11676.54
5028.873, 11597.86
5030.801, 11611.03
5032.730, 11610.43
5034.658, 11525.12
5036.587, 11521.76
5038.515, 11539.03
5040.444, 11540.08
5042.372, 11538.64
5044.301, 11514.62
5046.229, 11472.55
5048.158, 11526.05
5050.086, 11557.84
5052.015, 11537.59
5053.943, 11435.66
5055.872, 11410.32
5057.800, 11446.03
5059.729, 11446.87
5061.657, 11438.19
5063.585, 11412.84
5065.514, 11349.65
5067.442, 11319.13
5069.371, 11336.92
5071.299, 11437.09
5073.228, 11412.44
5075.156, 11372.99
5077.084, 11385.05
5079.013, 11373.55
5080.941, 11367.10
5082.870, 11371.90
5084.798, 11336.92
5086.727, 11344.94
5088.655, 11383.60
5090.584, 11293.28
5092.512, 11299.61
5094.441, 11351.22
5096.369, 11256.96
5098.298, 11225.90
5100.226, 11246.64
5102.155, 11284.88
5104.083, 11334.22
5106.012, 11312.09
5107.940, 11163.49
5109.869, 11123.66
5111.797, 11118.10
5113.726, 11113.69
5115.654, 11147.12
5117.583, 11157.64
5119.511, 11142.71
5121.439, 11155.09
5123.368, 11168.73
5125.296, 11178.48
5127.225, 11179.04
5129.153, 11243.10
5131.082, 11260.20
5133.010, 11092.25
5134.938, 11090.25
5136.867, 11119.93
5138.795, 11102.85
5140.724, 11055.89
5142.652, 11054.24
5144.581, 11088.96
5146.509, 11013.46
5148.438, 11055.81
5150.366, 11150.19
5152.295, 11083.52
5154.223, 11016.57
5156.152, 10986.80
5158.080, 11016.49
5160.009, 10966.25
5161.937, 10928.38
5163.866, 10949.89
5165.794, 10941.18
5167.723, 10914.65
5169.651, 10890.71
5171.580, 10956.56
5173.508, 10898.17
5175.437, 10798.69
5177.365, 10838.33
5179.293, 10863.32
5181.222, 10869.29
5183.150, 10864.32
5185.079, 10853.31
5187.007, 10835.69
5188.936, 10818.35
5190.864, 10865.48
5192.792, 10827.65
5194.721, 10748.29
5196.649, 10785.17
5198.578, 10812.33
5200.506, 10811.36
5202.435, 10769.03
5204.363, 10745.08
5206.292, 10726.38
5208.220, 10712.00
5210.149, 10750.68
5212.077, 10800.58
5214.006, 10818.07
5215.934, 10701.64
5217.863, 10664.39
5219.791, 10666.40
5221.720, 10648.59
5223.648, 10583.91
5225.577, 10598.75
5227.505, 10708.53
5229.434, 10585.36
5231.362, 10497.60
5233.291, 10499.26
5235.219, 10593.98
5237.147, 10588.93
5239.076, 10539.78
5241.004, 10512.30
5242.933, 10543.35
5244.861, 10564.15
5246.790, 10552.30
5248.718, 10551.82
5250.646, 10529.95
5252.575, 10492.23
5254.503, 10445.63
5256.432, 10479.37
5258.360, 10501.58
5260.289, 10444.47
5262.217, 10473.17
5264.146, 10438.56
5266.074, 10349.44
5268.003, 10397.57
5269.931, 10481.03
5271.860, 10504.68
5273.788, 10310.83
5275.717, 10396.99
5277.645, 10453.95
5279.574, 10356.13
5281.502, 10361.12
5283.431, 10394.09
5285.359, 10391.77
5287.288, 10244.51
5289.216, 10235.79
5291.145, 10284.93
5293.073, 10320.55
5295.001, 10230.97
5296.930, 10257.74
5298.858, 10365.06
5300.787, 10236.71
5302.715, 10181.03
5304.644, 10206.19
5306.572, 10278.51
5308.500, 10195.40
5310.429, 10129.29
5312.357, 10136.72
5314.286, 10148.77
5316.214, 10167.11
5318.143, 10161.35
5320.071, 10095.14
5322.000, 10106.32
5323.928, 10110.88
5325.857, 10071.22
5327.785, 9998.168
5329.714, 10013.68
5331.642, 10045.81
5333.571, 9937.133
5335.499, 9945.883
5337.428, 9957.608
5339.356, 9933.126
5341.285, 10041.84
5343.213, 10061.00
5345.142, 10024.23
5347.070, 10041.36
5348.999, 10014.15
5350.927, 9948.860
5352.855, 9866.957
5354.784, 9892.523
5356.712, 9880.127
5358.641, 9860.868
5360.569, 9921.249
5362.498, 9892.575
5364.426, 9884.903
5366.354, 9928.218
5368.283, 9852.722
5370.211, 9819.901
5372.140, 9830.407
5374.068, 9859.150
5375.997, 9810.856
5377.925, 9792.442
5379.854, 9827.109
5381.782, 9815.103
5383.711, 9807.629
5385.639, 9798.396
5387.568, 9772.192
5389.496, 9765.497
5391.425, 9745.670
5393.353, 9711.872
5395.282, 9700.242
5397.210, 9726.667
5399.139, 9736.137
5401.067, 9687.376
5402.996, 9680.756
5404.924, 9671.785
5406.853, 9653.198
5408.781, 9638.235
5410.709, 9596.927
5412.638, 9580.052
5414.566, 9610.349
5416.495, 9559.143
5418.423, 9556.212
5420.352, 9568.904
5422.280, 9509.412
5424.208, 9571.052
5426.137, 9597.671
5428.065, 9545.754
5429.994, 9498.749
5431.922, 9483.443
5433.851, 9477.790
5435.779, 9460.633
5437.708, 9449.396
5439.636, 9447.859
5441.565, 9427.636
5443.493, 9308.102
5445.422, 9361.834
5447.350, 9400.680
5449.279, 9336.801
5451.207, 9261.072
5453.136, 9295.274
5455.064, 9365.677
5456.993, 9383.148
5458.921, 9386.045
5460.850, 9346.859
5462.778, 9284.728
5464.707, 9260.045
5466.635, 9245.333
5468.563, 9215.911
5470.492, 9173.698
5472.420, 9200.487
5474.349, 9202.254
5476.277, 9191.592
5478.206, 9196.377
5480.134, 9226.343
5482.063, 9192.232
5483.991, 9119.142
5485.919, 9103.088
5487.848, 9116.256
5489.776, 9132.760
5491.705, 9135.238
5493.633, 9096.699
5495.562, 9058.754
5497.490, 9031.223
5499.419, 9018.183
5501.347, 9043.455
5503.276, 9045.140
5505.204, 9012.155
5507.133, 8944.390
5509.061, 8921.729
5510.990, 8944.271
5512.918, 8983.918
5514.847, 8962.533
5516.775, 9021.671
5518.704, 9050.146
5520.632, 9004.798
5522.561, 9012.566
5524.489, 8964.245
5526.417, 8903.083
5528.346, 8873.479
5530.274, 8789.668
5532.203, 8787.833
5534.131, 8829.616
5536.060, 8827.526
5537.988, 8826.306
5539.917, 8762.503
5541.845, 8684.188
5543.773, 8747.803
5545.702, 8767.735
5547.630, 8763.532
5549.559, 8744.592
5551.487, 8682.281
5553.416, 8656.196
5555.344, 8649.390
5557.273, 8646.026
5559.201, 8660.284
5561.130, 8685.982
5563.058, 8699.867
5564.987, 8684.575
5566.915, 8633.732
5568.844, 8652.129
5570.772, 8680.947
5572.701, 8621.484
5574.629, 8686.778
5576.558, 8656.612
5578.486, 8563.481
5580.415, 8549.364
5582.343, 8558.763
5584.271, 8515.320
5586.200, 8450.531
5588.128, 8474.711
5590.057, 8535.666
5591.985, 8566.027
5593.914, 8537.031
5595.842, 8418.135
5597.771, 8442.614
5599.699, 8450.211
5601.627, 8392.904
5603.556, 8452.043
5605.484, 8410.305
5607.413, 8391.665
5609.341, 8448.484
5611.270, 8389.390
5613.198, 8321.285
5615.127, 8291.216
5617.055, 8309.744
5618.984, 8332.771
5620.912, 8290.173
5622.841, 8247.562
5624.769, 8259.743
5626.698, 8304.313
5628.626, 8229.807
5630.555, 8168.903
5632.483, 8251.727
5634.412, 8315.683
5636.340, 8320.822
5638.269, 8269.140
5640.197, 8181.759
5642.125, 8167.502
5644.054, 8211.686
5645.982, 8238.247
5647.911, 8188.442
5649.839, 8151.721
5651.768, 8134.962
5653.696, 8113.004
5655.625, 8064.743
5657.553, 8088.328
5659.481, 8084.099
5661.410, 8091.150
5663.338, 8170.467
5665.267, 8141.476
5667.195, 8114.439
5669.124, 8064.842
5671.052, 7958.948
5672.981, 8010.874
5674.909, 8024.851
5676.838, 7992.208
5678.766, 7945.787
5680.695, 7872.042
5682.623, 7904.350
5684.552, 7972.505
5686.480, 7992.632
5688.409, 7920.886
5690.337, 7821.276
5692.266, 7846.077
5694.194, 8049.081
5696.123, 7892.746
5698.051, 7894.638
5699.979, 7904.479
5701.908, 7805.282
5703.836, 7873.698
5705.765, 7899.149
5707.693, 7878.041
5709.622, 7830.900
5711.550, 7755.841
5713.479, 7818.905
5715.407, 7798.705
5717.335, 7673.476
5719.264, 7740.735
5721.192, 7804.860
5723.121, 7796.237
5725.049, 7737.012
5726.978, 7726.886
5728.906, 7667.073
5730.835, 7648.619
5732.763, 7677.523
5734.692, 7709.054
5736.620, 7703.381
5738.549, 7652.054
5740.477, 7606.897
5742.406, 7636.602
5744.334, 7588.778
5746.263, 7586.912
5748.191, 7594.974
5750.120, 7555.827
5752.048, 7506.638
5753.977, 7529.559
5755.905, 7547.942
5757.833, 7526.513
5759.762, 7608.394
5761.690, 7609.768
5763.619, 7538.274
5765.547, 7452.574
5767.476, 7461.529
5769.404, 7476.976
5771.333, 7457.130
5773.261, 7419.939
5775.189, 7424.931
5777.118, 7404.311
5779.046, 7447.693
5780.975, 7482.870
5782.903, 7397.276
5784.832, 7415.512
5786.760, 7343.162
5788.689, 7307.296
5790.617, 7387.124
5792.546, 7295.705
5794.474, 7348.838
5796.403, 7417.576
5798.331, 7424.957
5800.260, 7410.874
5802.188, 7289.411
5804.117, 7251.936
5806.045, 7280.135
5807.974, 7258.760
5809.902, 7269.506
5811.831, 7239.910
5813.759, 7208.616
5815.688, 7224.158
5817.616, 7319.727
5819.544, 7313.219
5821.473, 7231.509
5823.401, 7143.073
5825.330, 7169.514
5827.258, 7189.777
5829.187, 7191.428
5831.115, 7174.564
5833.043, 7140.552
5834.972, 7101.994
5836.900, 7088.245
5838.829, 7105.812
5840.757, 7129.925
5842.686, 7007.603
5844.614, 7028.499
5846.543, 7086.374
5848.471, 7102.927
5850.400, 7057.029
5852.328, 7021.069
5854.257, 6999.533
5856.185, 7005.215
5858.114, 7037.338
5860.042, 7004.498
5861.971, 6977.078
5863.899, 6992.413
5865.828, 7013.863
5867.756, 6926.380
5869.685, 6950.704
5871.613, 6907.968
5873.542, 6839.033
5875.470, 6852.454
5877.398, 6932.395
5879.327, 6986.104
5881.255, 6951.350
5883.184, 6844.649
5885.112, 6781.812
5887.041, 6801.792
5888.969, 6857.529
5890.897, 6881.736
5892.826, 6827.006
5894.754, 6866.374
5896.683, 6817.490
5898.611, 6836.161
5900.540, 6918.267
5902.468, 6751.487
5904.397, 6778.946
5906.325, 6789.364
5908.254, 6768.563
5910.182, 6767.839
5912.111, 6734.854
5914.039, 6735.788
5915.968, 6754.098
5917.896, 6759.436
5919.825, 6722.197
5921.753, 6668.318
5923.682, 6672.641
5925.610, 6696.861
5927.539, 6693.348
5929.467, 6655.681
5931.396, 6678.272
5933.324, 6690.209
5935.252, 6663.498
5937.181, 6606.977
5939.109, 6545.571
5941.038, 6615.066
5942.966, 6684.315
5944.895, 6679.526
5946.823, 6643.134
5948.751, 6527.203
5950.680, 6513.720
5952.608, 6544.593
5954.537, 6542.585
5956.465, 6552.611
5958.394, 6520.068
5960.322, 6501.029
5962.251, 6501.589
5964.179, 6499.612
5966.108, 6486.452
5968.036, 6532.988
5969.965, 6528.856
5971.893, 6502.995
5973.822, 6624.517
5975.750, 6471.549
5977.679, 6470.096
5979.607, 6495.931
5981.536, 6436.673
5983.464, 6404.426
5985.393, 6367.144
5987.321, 6379.072
5989.250, 6388.345
5991.178, 6352.789
5993.106, 6363.678
5995.035, 6295.475
5996.963, 6281.701
5998.892, 6291.307
6000.820, 6242.771
6002.749, 6263.902
6004.677, 6241.434
6006.605, 6274.654
6008.534, 6315.942
6010.462, 6233.666
6012.391, 6237.727
6014.319, 6234.973
6016.248, 6230.376
6018.176, 6209.918
6020.105, 6127.177
6022.033, 6213.355
6023.962, 6241.132
6025.890, 6189.405
6027.819, 6138.543
6029.747, 6218.604
6031.676, 6276.468
6033.604, 6221.823
6035.533, 6187.787
6037.461, 6209.220
6039.390, 6167.933
6041.318, 6147.457
6043.247, 6109.337
6045.175, 6113.557
6047.104, 6157.333
6049.032, 6139.042
6050.960, 6094.131
6052.889, 6042.353
6054.817, 5997.862
6056.746, 5978.695
6058.674, 6011.119
6060.603, 6079.579
6062.531, 6098.192
6064.459, 6081.957
6066.388, 6056.695
6068.316, 6028.606
6070.245, 5966.730
6072.173, 5911.510
6074.102, 5927.224
6076.030, 5976.261
6077.959, 5927.525
6079.887, 5999.166
6081.816, 5975.154
6083.744, 5915.501
6085.673, 5905.969
6087.601, 5980.375
6089.530, 5873.858
6091.458, 5859.936
6093.387, 5880.183
6095.315, 5918.417
6097.244, 6012.443
6099.172, 5889.188
6101.101, 5806.621
6103.029, 5818.298
6104.958, 5874.918
6106.886, 5902.928
6108.814, 5836.370
6110.743, 5883.443
6112.671, 5879.163
6114.600, 5844.729
6116.528, 5852.010
6118.457, 5815.391
6120.385, 5893.016
6122.313, 5851.448
6124.242, 5779.601
6126.170, 5787.174
6128.099, 5834.537
6130.027, 5783.994
6131.956, 5728.172
6133.884, 5747.775
6135.813, 5801.947
6137.741, 5760.934
6139.670, 5679.012
6141.598, 5698.610
6143.527, 5675.494
6145.455, 5651.019
6147.384, 5742.850
6149.312, 5716.091
6151.241, 5698.557
6153.169, 5712.661
6155.098, 5710.035
6157.026, 5666.267
6158.955, 5635.514
6160.883, 5646.469
6162.812, 5623.493
6164.740, 5643.855
6166.668, 5677.351
6168.597, 5572.903
6170.525, 5521.748
6172.454, 5523.781
6174.382, 5482.225
6176.311, 5500.329
6178.239, 5647.680
6180.167, 5550.442
6182.096, 5542.648
6184.024, 5494.237
6185.953, 5489.653
6187.881, 5535.490
6189.810, 5487.341
6191.738, 5474.282
6193.667, 5510.612
6195.595, 5510.589
6197.524, 5487.818
6199.452, 5500.506
6201.381, 5573.923
6203.309, 5770.793
6205.238, 5611.084
6207.166, 5402.604
6209.095, 5374.254
6211.023, 5431.015
6212.952, 5418.467
6214.880, 5386.477
6216.809, 5395.978
6218.737, 5417.426
6220.666, 5408.467
6222.594, 5377.962
6224.522, 5326.140
6226.451, 5359.380
6228.379, 5326.989
6230.308, 5293.860
6232.236, 5390.370
6234.165, 5316.137
6236.093, 5322.770
6238.021, 5289.844
6239.950, 5280.911
6241.878, 5322.160
6243.807, 5336.830
6245.735, 5365.142
6247.664, 5329.326
6249.592, 5289.896
6251.521, 5247.342
6253.449, 5220.207
6255.378, 5304.131
6257.306, 5223.347
6259.235, 5222.107
6261.163, 5246.556
6263.092, 5240.423
6265.020, 5204.926
6266.949, 5191.687
6268.877, 5177.405
6270.806, 5147.951
6272.734, 5147.806
6274.663, 5165.884
6276.591, 5172.530
6278.520, 5237.241
6280.448, 5186.677
6282.376, 5161.236
6284.305, 5137.516
6286.233, 5096.540
6288.162, 5067.513
6290.090, 5139.280
6292.019, 5028.067
6293.947, 5018.488
6295.875, 5088.091
6297.804, 5119.688
6299.732, 5068.000
6301.661, 5074.443
6303.589, 5103.697
6305.518, 5034.336
6307.446, 5035.248
6309.375, 5081.917
6311.303, 5035.405
6313.232, 5025.766
6315.160, 5124.856
6317.089, 5046.548
6319.017, 4951.604
6320.946, 4951.969
6322.874, 5011.965
6324.803, 5007.781
6326.731, 4940.792
6328.660, 4988.420
6330.588, 5018.810
6332.517, 4996.391
6334.445, 4990.704
6336.374, 5111.916
6338.302, 4963.216
6340.230, 4940.155
6342.159, 4936.866
6344.087, 4918.841
6346.016, 4923.686
6347.944, 4958.894
6349.873, 4933.590
6351.801, 4908.648
6353.729, 4942.863
6355.658, 4941.248
6357.586, 4890.638
6359.515, 4898.616
6361.443, 4977.935
6363.372, 4889.506
6365.300, 4879.920
6367.229, 4885.845
6369.157, 4863.289
6371.086, 4834.189
6373.014, 4750.634
6374.943, 4805.472
6376.871, 4800.896
6378.800, 4798.961
6380.728, 4805.979
6382.657, 4797.575
6384.585, 4786.953
6386.514, 4694.825
6388.442, 4789.395
6390.371, 4750.264
6392.299, 4703.790
6394.228, 4694.673
6396.156, 4637.624
6398.084, 4655.270
6400.013, 4655.639
6401.941, 4659.539
6403.870, 4692.595
6405.798, 4721.410
6407.727, 4712.434
6409.655, 4672.476
6411.583, 4615.305
6413.512, 4622.144
6415.440, 4620.693
6417.369, 4707.065
6419.297, 4761.653
6421.226, 4665.512
6423.154, 4644.950
6425.083, 4687.889
6427.011, 4602.017
6428.940, 4556.541
6430.868, 4590.588
6432.797, 4617.733
6434.725, 4576.896
6436.654, 4593.157
6438.582, 4633.677
6440.511, 4589.358
6442.439, 4615.910
6444.368, 4608.678
6446.296, 4551.150
##END=



