##NAMES=Plombierite
##RRUFFID=R070162
##IDEAL CHEMISTRY=Ca_4_Si_6_O_16_(OH)_2_(H_2_O)_2_·(Ca·5H_2_O)
##LOCALITY=Crestmore, Riverside County, California, USA
##OWNER=RRUFF
##SOURCE=James Shigley
##DESCRIPTION=Matted white fibrous aggregate with calcite
##STATUS=The identification of this mineral is not yet confirmed
##URL=https://www.rruff.net/odr/rruff_sample/R070162
##DIFFRACTION SAMPLE DESCRIPTION=Powder
##FILETYPE=Raman RAW
##RAMAN WAVELENGTH=785

208.2432, 14022.18
210.1716, 14091.14
212.1001, 14135.42
214.0286, 14141.50
215.9570, 14156.12
217.8855, 14183.33
219.8140, 14214.29
221.7424, 14244.11
223.6709, 14278.30
225.5994, 14328.07
227.5278, 14390.30
229.4563, 14428.31
231.3848, 14419.90
233.3132, 14425.07
235.2417, 14451.78
237.1702, 14482.52
239.0986, 14512.82
241.0271, 14540.38
242.9556, 14559.51
244.8840, 14570.03
246.8125, 14593.28
248.7410, 14640.21
250.6694, 14674.86
252.5979, 14690.15
254.5264, 14696.83
256.4548, 14691.06
258.3833, 14686.01
260.3118, 14698.85
262.2402, 14729.95
264.1687, 14769.51
266.0972, 14822.45
268.0256, 14869.22
269.9541, 14910.30
271.8826, 14938.49
273.8110, 14940.83
275.7395, 14934.69
277.6680, 14942.86
279.5964, 14965.30
281.5249, 14985.46
283.4534, 15004.79
285.3818, 15017.42
287.3103, 15022.32
289.2388, 15020.05
291.1672, 15009.12
293.0957, 14993.06
295.0242, 14973.48
296.9526, 14951.19
298.8811, 14935.42
300.8096, 14927.54
302.7380, 14917.72
304.6665, 14910.36
306.5950, 14888.99
308.5234, 14823.77
310.4519, 14762.51
312.3804, 14753.91
314.3088, 14784.47
316.2373, 14803.42
318.1658, 14811.69
320.0942, 14800.35
322.0227, 14754.89
323.9512, 14725.33
325.8796, 14745.66
327.8081, 14771.07
329.7366, 14781.89
331.6650, 14777.65
333.5935, 14747.50
335.5220, 14694.93
337.4504, 14674.89
339.3789, 14700.61
341.3074, 14707.38
343.2358, 14660.37
345.1643, 14615.61
347.0928, 14598.05
349.0212, 14591.04
350.9497, 14577.23
352.8782, 14558.82
354.8066, 14545.16
356.7351, 14536.37
358.6636, 14524.04
360.5920, 14502.04
362.5205, 14488.04
364.4490, 14503.26
366.3774, 14508.62
368.3059, 14466.85
370.2344, 14409.47
372.1628, 14388.48
374.0913, 14396.38
376.0198, 14408.93
377.9482, 14429.66
379.8767, 14420.84
381.8052, 14344.37
383.7336, 14284.71
385.6621, 14282.29
387.5906, 14284.07
389.5190, 14239.79
391.4475, 14179.56
393.3760, 14159.63
395.3044, 14172.85
397.2329, 14182.58
399.1614, 14188.45
401.0898, 14180.74
403.0183, 14153.89
404.9468, 14118.71
406.8752, 14061.59
408.8037, 14013.57
410.7322, 14010.94
412.6606, 14026.18
414.5891, 14011.27
416.5176, 13972.17
418.4460, 13949.85
420.3745, 13954.98
422.3030, 13947.88
424.2314, 13912.17
426.1599, 13881.81
428.0884, 13866.34
430.0168, 13856.49
431.9453, 13854.80
433.8738, 13849.04
435.8022, 13817.23
437.7307, 13767.54
439.6592, 13741.31
441.5876, 13750.64
443.5161, 13737.09
445.4446, 13659.82
447.3730, 13619.03
449.3015, 13656.02
451.2300, 13697.49
453.1584, 13721.47
455.0869, 13720.57
457.0154, 13673.77
458.9438, 13602.89
460.8723, 13563.55
462.8008, 13559.99
464.7292, 13547.61
466.6577, 13514.34
468.5862, 13492.47
470.5146, 13499.95
472.4431, 13491.32
474.3716, 13438.59
476.3000, 13383.12
478.2285, 13350.13
480.1570, 13331.19
482.0854, 13323.95
484.0139, 13323.56
485.9424, 13306.07
487.8708, 13267.64
489.7993, 13230.08
491.7278, 13182.20
493.6563, 13164.60
495.5847, 13206.94
497.5132, 13233.50
499.4417, 13213.83
501.3701, 13169.99
503.2986, 13097.79
505.2271, 13025.29
507.1555, 12992.67
509.0840, 12991.17
511.0125, 12981.24
512.9409, 12960.17
514.8694, 12958.22
516.7979, 12989.59
518.7263, 12980.96
520.6548, 12899.39
522.5833, 12830.92
524.5117, 12813.42
526.4402, 12809.30
528.3687, 12800.34
530.2971, 12791.21
532.2256, 12790.07
534.1541, 12791.42
536.0825, 12780.11
538.0110, 12756.58
539.9395, 12736.02
541.8679, 12718.96
543.7964, 12699.46
545.7249, 12676.73
547.6533, 12652.24
549.5818, 12624.70
551.5103, 12598.56
553.4387, 12580.81
555.3672, 12559.28
557.2957, 12524.09
559.2241, 12482.36
561.1526, 12431.91
563.0811, 12384.17
565.0095, 12389.47
566.9380, 12439.71
568.8665, 12435.46
570.7949, 12369.73
572.7234, 12323.17
574.6519, 12313.96
576.5803, 12298.71
578.5088, 12257.36
580.4373, 12222.42
582.3657, 12213.62
584.2942, 12203.71
586.2227, 12170.27
588.1511, 12132.28
590.0796, 12112.25
592.0081, 12103.30
593.9365, 12090.56
595.8650, 12075.26
597.7935, 12060.35
599.7219, 12046.24
601.6504, 12051.03
603.5789, 12088.21
605.5073, 12081.33
607.4358, 11980.17
609.3643, 11905.93
611.2927, 11897.07
613.2212, 11902.29
615.1497, 11909.34
617.0781, 11914.67
619.0066, 11919.21
620.9351, 11917.79
622.8635, 11897.97
624.7920, 11870.31
626.7205, 11858.71
628.6489, 11857.83
630.5774, 11841.47
632.5059, 11809.05
634.4343, 11804.35
636.3628, 11839.59
638.2913, 11867.19
640.2197, 11877.60
642.1482, 11886.72
644.0767, 11895.27
646.0051, 11904.68
647.9336, 11905.42
649.8621, 11919.97
651.7905, 11981.61
653.7190, 12041.47
655.6475, 12050.50
657.5759, 12036.03
659.5044, 12017.29
661.4329, 12008.94
663.3613, 12060.31
665.2898, 12157.41
667.2183, 12200.99
669.1467, 12184.02
671.0752, 12160.36
673.0037, 12140.17
674.9321, 12089.99
676.8606, 11994.09
678.7891, 11895.76
680.7175, 11788.56
682.6460, 11695.27
684.5745, 11630.05
686.5029, 11567.42
688.4314, 11487.78
690.3599, 11417.62
692.2883, 11384.86
694.2168, 11359.82
696.1453, 11317.03
698.0737, 11264.52
700.0022, 11206.36
701.9307, 11150.15
703.8591, 11121.90
705.7876, 11117.21
707.7161, 11098.15
709.6445, 11063.06
711.5730, 11033.49
713.5015, 11007.90
715.4299, 10996.30
717.3584, 11005.94
719.2869, 11005.50
721.2153, 10991.95
723.1438, 10966.85
725.0723, 10925.92
727.0007, 10884.11
728.9292, 10843.44
730.8577, 10809.05
732.7861, 10787.44
734.7146, 10767.42
736.6431, 10739.38
738.5715, 10713.47
740.5000, 10698.78
742.4285, 10690.07
744.3569, 10687.28
746.2854, 10682.24
748.2139, 10653.99
750.1423, 10612.53
752.0708, 10591.94
753.9993, 10587.38
755.9277, 10562.27
757.8562, 10517.49
759.7847, 10503.01
761.7131, 10520.10
763.6416, 10511.04
765.5701, 10469.58
767.4985, 10435.94
769.4270, 10415.98
771.3555, 10398.42
773.2839, 10383.20
775.2124, 10362.40
777.1409, 10330.44
779.0693, 10301.50
780.9978, 10281.72
782.9263, 10262.79
784.8547, 10236.27
786.7832, 10217.78
788.7117, 10228.94
790.6401, 10231.22
792.5686, 10188.90
794.4971, 10141.84
796.4255, 10123.97
798.3540, 10116.76
800.2825, 10104.88
802.2109, 10087.87
804.1394, 10062.75
806.0679, 10033.49
807.9963, 9995.087
809.9248, 9963.297
811.8533, 10000.84
813.7817, 10070.13
815.7102, 10045.92
817.6387, 9953.252
819.5671, 9903.018
821.4956, 9893.546
823.4241, 9891.367
825.3525, 9893.537
827.2810, 9872.638
829.2095, 9825.143
831.1379, 9794.781
833.0664, 9788.275
834.9949, 9777.742
836.9233, 9758.815
838.8518, 9742.050
840.7803, 9726.428
842.7087, 9718.287
844.6372, 9732.035
846.5657, 9728.215
848.4941, 9682.681
850.4226, 9654.303
852.3511, 9682.813
854.2795, 9679.229
856.2080, 9585.594
858.1365, 9515.781
860.0649, 9521.820
861.9934, 9533.093
863.9219, 9527.749
865.8503, 9512.922
867.7788, 9485.168
869.7073, 9458.221
871.6357, 9431.980
873.5642, 9419.189
875.4927, 9441.923
877.4211, 9463.743
879.3496, 9462.608
881.2781, 9445.104
883.2065, 9396.945
885.1350, 9356.683
887.0635, 9382.914
888.9919, 9408.084
890.9204, 9349.222
892.8489, 9273.144
894.7773, 9261.571
896.7058, 9268.600
898.6343, 9231.556
900.5627, 9179.535
902.4912, 9150.458
904.4197, 9139.034
906.3481, 9147.162
908.2766, 9159.596
910.2051, 9142.754
912.1335, 9110.582
914.0620, 9093.893
915.9905, 9085.701
917.9189, 9065.660
919.8474, 9041.097
921.7759, 9038.426
923.7043, 9047.031
925.6328, 9030.520
927.5613, 8996.268
929.4897, 8968.904
931.4182, 8947.865
933.3467, 8930.868
935.2751, 8918.150
937.2036, 8911.203
939.1321, 8909.533
941.0605, 8917.005
942.9890, 8927.887
944.9175, 8902.072
946.8459, 8849.097
948.7744, 8832.082
950.7029, 8842.640
952.6313, 8822.995
954.5598, 8780.152
956.4883, 8761.030
958.4167, 8762.796
960.3452, 8769.504
962.2737, 8779.468
964.2021, 8776.993
966.1306, 8766.048
968.0591, 8779.874
969.9875, 8810.557
971.9160, 8805.134
973.8445, 8770.980
975.7729, 8751.648
977.7014, 8744.262
979.6299, 8726.413
981.5583, 8703.869
983.4868, 8710.715
985.4153, 8739.928
987.3438, 8764.887
989.2722, 8780.098
991.2007, 8745.851
993.1292, 8685.867
995.0576, 8712.931
996.9861, 8796.055
998.9146, 8810.637
1000.843, 8776.071
1002.771, 8766.306
1004.700, 8770.723
1006.628, 8749.756
1008.557, 8711.997
1010.485, 8677.034
1012.414, 8650.203
1014.342, 8656.509
1016.271, 8675.512
1018.199, 8651.800
1020.128, 8605.310
1022.056, 8579.725
1023.985, 8565.928
1025.913, 8550.820
1027.842, 8529.738
1029.770, 8482.794
1031.698, 8433.274
1033.627, 8421.857
1035.555, 8430.378
1037.484, 8439.828
1039.412, 8445.678
1041.341, 8442.568
1043.269, 8431.941
1045.198, 8406.917
1047.126, 8384.418
1049.055, 8390.663
1050.983, 8399.064
1052.912, 8380.841
1054.840, 8357.335
1056.769, 8344.999
1058.697, 8337.312
1060.625, 8340.122
1062.554, 8330.030
1064.482, 8274.738
1066.411, 8227.139
1068.339, 8226.871
1070.268, 8229.395
1072.196, 8204.493
1074.125, 8189.788
1076.053, 8206.364
1077.982, 8228.905
1079.910, 8251.016
1081.839, 8269.045
1083.767, 8282.119
1085.696, 8291.376
1087.624, 8304.799
1089.552, 8288.526
1091.481, 8225.484
1093.409, 8167.839
1095.338, 8130.947
1097.266, 8070.283
1099.195, 7971.594
1101.123, 7893.164
1103.052, 7839.266
1104.980, 7825.644
1106.909, 7857.812
1108.837, 7872.193
1110.766, 7865.951
1112.694, 7855.968
1114.623, 7842.285
1116.551, 7817.314
1118.479, 7784.267
1120.408, 7763.946
1122.336, 7755.182
1124.265, 7761.225
1126.193, 7770.957
1128.122, 7751.492
1130.050, 7717.083
1131.979, 7692.613
1133.907, 7673.346
1135.836, 7645.118
1137.764, 7626.495
1139.693, 7656.613
1141.621, 7682.683
1143.550, 7641.476
1145.478, 7603.553
1147.406, 7635.493
1149.335, 7654.131
1151.263, 7596.341
1153.192, 7553.058
1155.120, 7573.976
1157.049, 7578.643
1158.977, 7541.895
1160.906, 7506.804
1162.834, 7478.651
1164.763, 7461.096
1166.691, 7456.279
1168.620, 7450.979
1170.548, 7443.944
1172.477, 7436.440
1174.405, 7428.532
1176.333, 7421.045
1178.262, 7412.715
1180.190, 7392.481
1182.119, 7366.641
1184.047, 7356.581
1185.976, 7356.831
1187.904, 7357.210
1189.833, 7357.947
1191.761, 7365.005
1193.690, 7366.099
1195.618, 7340.631
1197.547, 7313.987
1199.475, 7301.842
1201.404, 7301.345
1203.332, 7330.472
1205.260, 7337.644
1207.189, 7284.296
1209.117, 7240.613
1211.046, 7228.050
1212.974, 7216.570
1214.903, 7200.326
1216.831, 7191.548
1218.760, 7192.716
1220.688, 7192.979
1222.617, 7192.952
1224.545, 7167.680
1226.474, 7125.583
1228.402, 7139.935
1230.331, 7182.336
1232.259, 7167.056
1234.188, 7125.957
1236.116, 7107.935
1238.044, 7095.877
1239.973, 7067.820
1241.901, 7046.393
1243.830, 7051.421
1245.758, 7057.385
1247.687, 7055.437
1249.615, 7043.614
1251.544, 7016.901
1253.472, 6996.107
1255.401, 6986.150
1257.329, 6978.202
1259.258, 6971.505
1261.186, 6965.661
1263.115, 6960.598
1265.043, 6953.794
1266.971, 6947.125
1268.900, 6955.277
1270.828, 6964.246
1272.757, 6937.325
1274.685, 6902.470
1276.614, 6896.631
1278.542, 6894.426
1280.471, 6881.543
1282.399, 6857.420
1284.328, 6806.187
1286.256, 6787.324
1288.185, 6829.997
1290.113, 6839.480
1292.042, 6795.579
1293.970, 6776.482
1295.898, 6788.418
1297.827, 6801.350
1299.755, 6810.197
1301.684, 6795.119
1303.612, 6765.520
1305.541, 6738.259
1307.469, 6715.308
1309.398, 6699.462
1311.326, 6688.927
1313.255, 6687.492
1315.183, 6682.410
1317.112, 6662.447
1319.040, 6647.841
1320.969, 6641.925
1322.897, 6644.446
1324.825, 6656.153
1326.754, 6665.500
1328.682, 6671.370
1330.611, 6673.394
1332.539, 6669.222
1334.468, 6647.803
1336.396, 6619.397
1338.325, 6591.830
1340.253, 6574.855
1342.182, 6589.291
1344.110, 6598.110
1346.039, 6571.210
1347.967, 6553.555
1349.896, 6564.063
1351.824, 6569.639
1353.752, 6565.362
1355.681, 6578.940
1357.609, 6607.760
1359.538, 6594.700
1361.466, 6555.091
1363.395, 6534.289
1365.323, 6521.360
1367.252, 6508.045
1369.180, 6486.764
1371.109, 6443.735
1373.037, 6406.383
1374.966, 6388.458
1376.894, 6372.085
1378.823, 6348.813
1380.751, 6342.682
1382.679, 6354.583
1384.608, 6385.991
1386.536, 6426.322
1388.465, 6425.546
1390.393, 6397.574
1392.322, 6350.053
1394.250, 6309.985
1396.179, 6304.303
1398.107, 6297.211
1400.036, 6268.920
1401.964, 6253.700
1403.893, 6265.348
1405.821, 6252.800
1407.750, 6210.633
1409.678, 6185.681
1411.606, 6177.492
1413.535, 6199.749
1415.463, 6221.348
1417.392, 6177.996
1419.320, 6136.169
1421.249, 6147.956
1423.177, 6163.727
1425.106, 6175.706
1427.034, 6144.949
1428.963, 6060.259
1430.891, 6043.263
1432.820, 6090.706
1434.748, 6088.920
1436.677, 6057.925
1438.605, 6031.945
1440.533, 6016.214
1442.462, 6029.333
1444.390, 6031.821
1446.319, 5994.950
1448.247, 5978.230
1450.176, 5997.522
1452.104, 5978.009
1454.033, 5921.154
1455.961, 5917.334
1457.890, 5943.027
1459.818, 5931.163
1461.747, 5906.615
1463.675, 5892.046
1465.604, 5886.007
1467.532, 5896.126
1469.460, 5897.217
1471.389, 5884.039
1473.317, 5866.671
1475.246, 5846.600
1477.174, 5833.781
1479.103, 5822.646
1481.031, 5792.180
1482.960, 5764.959
1484.888, 5768.487
1486.817, 5777.532
1488.745, 5783.567
1490.674, 5783.949
1492.602, 5779.383
1494.531, 5760.138
1496.459, 5730.143
1498.387, 5735.553
1500.316, 5752.868
1502.244, 5732.992
1504.173, 5707.424
1506.101, 5707.105
1508.030, 5697.689
1509.958, 5656.587
1511.887, 5627.666
1513.815, 5614.017
1515.744, 5614.935
1517.672, 5624.880
1519.601, 5625.994
1521.529, 5614.541
1523.458, 5574.254
1525.386, 5544.761
1527.314, 5553.103
1529.243, 5556.859
1531.171, 5547.694
1533.100, 5520.137
1535.028, 5479.977
1536.957, 5480.298
1538.885, 5499.652
1540.814, 5509.355
1542.742, 5505.756
1544.671, 5482.055
1546.599, 5459.127
1548.528, 5442.287
1550.456, 5428.999
1552.385, 5419.174
1554.313, 5418.537
1556.241, 5418.772
1558.170, 5397.924
1560.098, 5376.605
1562.027, 5372.317
1563.955, 5364.882
1565.884, 5348.360
1567.812, 5336.367
1569.741, 5328.898
1571.669, 5304.113
1573.598, 5276.144
1575.526, 5279.137
1577.455, 5285.760
1579.383, 5277.728
1581.312, 5259.140
1583.240, 5228.682
1585.168, 5203.744
1587.097, 5188.055
1589.025, 5205.235
1590.954, 5226.883
1592.882, 5201.593
1594.811, 5163.271
1596.739, 5126.441
1598.668, 5100.402
1600.596, 5086.516
1602.525, 5088.045
1604.453, 5100.146
1606.382, 5103.199
1608.310, 5099.168
1610.239, 5086.543
1612.167, 5075.268
1614.095, 5073.472
1616.024, 5066.489
1617.952, 5052.714
1619.881, 5047.229
1621.809, 5044.644
1623.738, 5026.583
1625.666, 5006.383
1627.595, 5005.781
1629.523, 4987.213
1631.452, 4916.375
1633.380, 4886.783
1635.309, 4897.095
1637.237, 4918.240
1639.166, 4933.969
1641.094, 4911.721
1643.022, 4892.169
1644.951, 4906.926
1646.879, 4904.788
1648.808, 4876.422
1650.736, 4846.857
1652.665, 4817.091
1654.593, 4781.128
1656.522, 4761.428
1658.450, 4783.915
1660.379, 4802.483
1662.307, 4806.285
1664.236, 4781.125
1666.164, 4736.043
1668.093, 4733.322
1670.021, 4734.764
1671.949, 4680.479
1673.878, 4649.970
1675.806, 4681.082
1677.735, 4683.062
1679.663, 4648.721
1681.592, 4626.638
1683.520, 4616.818
1685.449, 4629.899
1687.377, 4636.179
1689.306, 4622.172
1691.234, 4604.161
1693.163, 4584.002
1695.091, 4542.206
1697.020, 4496.508
1698.948, 4486.144
1700.876, 4482.549
1702.805, 4466.957
1704.733, 4469.141
1706.662, 4491.870
1708.590, 4477.273
1710.519, 4443.050
1712.447, 4426.974
1714.376, 4417.984
1716.304, 4412.023
1718.233, 4401.608
1720.161, 4386.048
1722.090, 4377.735
1724.018, 4373.605
1725.947, 4363.401
1727.875, 4356.999
1729.803, 4371.970
1731.732, 4366.062
1733.660, 4334.869
1735.589, 4289.318
1737.517, 4249.351
1739.446, 4266.191
1741.374, 4278.248
1743.303, 4235.277
1745.231, 4200.999
1747.160, 4181.814
1749.088, 4193.787
1751.017, 4215.448
1752.945, 4208.430
1754.874, 4199.228
1756.802, 4213.375
1758.730, 4195.638
1760.659, 4144.987
1762.587, 4109.670
1764.516, 4089.774
1766.444, 4093.897
1768.373, 4090.001
1770.301, 4056.786
1772.230, 4038.490
1774.158, 4035.048
1776.087, 4035.572
1778.015, 4042.216
1779.944, 4065.922
1781.872, 4070.036
1783.801, 4039.687
1785.729, 4001.182
1787.657, 3963.447
1789.586, 3960.686
1791.514, 3958.907
1793.443, 3931.918
1795.371, 3925.263
1797.300, 3948.697
1799.228, 3911.887
1801.157, 3858.378
1803.085, 3874.483
1805.014, 3889.564
1806.942, 3877.863
1808.871, 3860.868
1810.799, 3841.850
1812.728, 3822.286
1814.656, 3805.517
1816.584, 3797.989
1818.513, 3782.591
1820.441, 3756.174
1822.370, 3739.075
1824.298, 3732.939
1826.227, 3757.262
1828.155, 3755.336
1830.084, 3688.134
1832.012, 3675.899
1833.941, 3713.208
1835.869, 3689.469
1837.798, 3651.187
1839.726, 3652.823
1841.655, 3643.934
1843.583, 3615.642
1845.511, 3604.712
1847.440, 3605.191
1849.368, 3610.236
1851.297, 3598.259
1853.225, 3547.827
1855.154, 3529.172
1857.082, 3538.779
1859.011, 3547.085
1860.939, 3541.770
1862.868, 3500.854
1864.796, 3473.963
1866.725, 3468.212
1868.653, 3446.990
1870.582, 3427.019
1872.510, 3438.309
1874.438, 3449.131
1876.367, 3452.158
1878.295, 3424.796
1880.224, 3382.224
1882.152, 3372.929
1884.081, 3372.093
1886.009, 3366.073
1887.938, 3351.798
1889.866, 3332.386
1891.795, 3300.112
1893.723, 3280.225
1895.652, 3296.259
1897.580, 3310.133
1899.509, 3314.078
1901.437, 3274.745
1903.365, 3238.684
1905.294, 3267.980
1907.222, 3270.916
1909.151, 3220.966
1911.079, 3208.413
1913.008, 3210.601
1914.936, 3189.368
1916.865, 3164.030
1918.793, 3137.276
1920.722, 3133.969
1922.650, 3142.257
1924.579, 3132.556
1926.507, 3114.343
1928.436, 3088.741
1930.364, 3067.670
1932.292, 3053.877
1934.221, 3042.448
1936.149, 3036.868
1938.078, 3045.086
1940.006, 3047.245
1941.935, 3037.004
1943.863, 3016.143
1945.792, 2997.632
1947.720, 2990.194
1949.649, 2983.909
1951.577, 2976.768
1953.506, 2961.206
1955.434, 2945.654
1957.363, 2941.689
1959.291, 2916.267
1961.219, 2871.942
1963.148, 2872.692
1965.076, 2883.870
1967.005, 2871.553
1968.933, 2849.624
1970.862, 2825.973
1972.790, 2839.326
1974.719, 2856.323
1976.647, 2846.714
1978.576, 2824.060
1980.504, 2794.749
1982.433, 2750.524
1984.361, 2713.842
1986.290, 2726.647
1988.218, 2741.718
1990.146, 2743.943
1992.075, 2735.218
1994.003, 2726.501
1995.932, 2728.434
1997.860, 2718.571
1999.789, 2692.869
2001.717, 2679.842
2003.646, 2669.407
2005.574, 2649.300
2007.503, 2648.477
2009.431, 2642.485
2011.360, 2631.587
2013.288, 2601.124
2015.217, 2595.926
2017.145, 2580.607
2019.073, 2564.874
2021.002, 2563.234
2022.930, 2535.617
2024.859, 2544.783
2026.787, 2540.216
2028.716, 2526.852
2030.644, 2518.301
2032.573, 2507.655
2034.501, 2487.932
2036.430, 2477.546
2038.358, 2472.726
2040.287, 2459.370
2042.215, 2446.851
2044.144, 2429.955
2046.072, 2409.367
2048.000, 2395.476
2049.929, 2392.272
2051.857, 2389.658
2053.786, 2389.340
2055.714, 2387.865
2057.643, 2378.473
2059.571, 2360.604
2061.500, 2342.738
2063.428, 2326.530
2065.357, 2314.778
2067.285, 2309.282
2069.214, 2326.609
2071.142, 2319.199
2073.071, 2288.963
2074.999, 2282.158
2076.927, 2280.251
2078.856, 2271.963
2080.784, 2259.909
2082.713, 2244.895
2084.641, 2232.459
2086.570, 2218.890
2088.498, 2193.326
2090.427, 2198.968
2092.355, 2212.993
2094.284, 2186.145
2096.212, 2167.243
2098.141, 2170.622
2100.069, 2155.933
2101.998, 2139.282
2103.926, 2140.154
2105.854, 2128.541
2107.783, 2104.831
2109.711, 2092.005
2111.640, 2087.816
2113.568, 2092.847
2115.497, 2089.227
2117.425, 2077.752
2119.354, 2053.143
2121.282, 2040.745
2123.211, 2049.375
2125.139, 2047.804
2127.068, 2038.100
2128.996, 2020.985
2130.925, 2005.659
2132.853, 1993.924
2134.781, 1990.736
2136.710, 1984.677
2138.638, 1969.881
2140.567, 1951.174
2142.495, 1938.231
2144.424, 1960.238
2146.352, 1962.221
2148.281, 1936.072
2150.209, 1922.717
2152.138, 1912.435
2154.066, 1897.276
2155.995, 1885.963
2157.923, 1878.736
2159.852, 1876.135
2161.780, 1864.137
2163.708, 1840.930
2165.637, 1837.561
2167.565, 1840.171
2169.494, 1830.066
2171.422, 1835.390
2173.351, 1850.896
2175.279, 1844.409
2177.208, 1824.206
2179.136, 1794.703
2181.065, 1786.575
2182.993, 1783.839
2184.922, 1768.644
2186.850, 1764.714
2188.779, 1771.724
2190.707, 1769.449
2192.635, 1761.848
2194.564, 1753.070
2196.492, 1745.611
2198.421, 1738.148
2200.349, 1726.702
2202.278, 1721.272
2204.206, 1718.945
2206.135, 1711.218
2208.063, 1700.483
2209.992, 1685.666
2211.920, 1673.845
2213.849, 1663.340
2215.777, 1653.044
2217.706, 1651.665
2219.634, 1655.343
2221.563, 1639.977
2223.491, 1624.958
2225.419, 1618.805
2227.348, 1621.009
2229.276, 1624.229
2231.205, 1613.128
2233.133, 1597.244
2235.062, 1586.595
2236.990, 1578.152
2238.919, 1576.129
2240.847, 1577.986
2242.776, 1563.071
2244.704, 1546.627
2246.633, 1538.779
2248.561, 1538.967
2250.490, 1535.012
2252.418, 1501.530
2254.346, 1490.705
2256.275, 1505.207
2258.203, 1510.213
2260.132, 1506.589
2262.060, 1498.162
2263.989, 1482.769
2265.917, 1467.352
2267.846, 1483.213
2269.774, 1487.733
2271.703, 1465.694
2273.631, 1435.624
2275.560, 1424.978
2277.488, 1437.036
2279.417, 1431.646
2281.345, 1422.747
2283.273, 1419.246
2285.202, 1404.760
2287.130, 1392.201
2289.059, 1391.636
2290.987, 1380.325
2292.916, 1363.891
2294.844, 1368.704
2296.773, 1366.225
2298.701, 1343.062
2300.630, 1334.886
2302.558, 1339.227
2304.487, 1334.995
2306.415, 1330.738
2308.344, 1322.975
2310.272, 1308.790
2312.200, 1302.553
2314.129, 1293.703
2316.057, 1283.727
2317.986, 1283.296
2319.914, 1283.210
2321.843, 1274.944
2323.771, 1262.190
2325.700, 1256.684
2327.628, 1249.297
2329.557, 1250.888
2331.485, 1265.640
2333.414, 1243.603
2335.342, 1213.812
2337.271, 1227.477
2339.199, 1230.608
2341.127, 1221.894
2343.056, 1205.704
2344.984, 1192.488
2346.913, 1203.066
2348.841, 1211.532
2350.770, 1199.650
2352.698, 1183.852
2354.627, 1176.129
2356.555, 1168.427
2358.484, 1159.616
2360.412, 1163.786
2362.341, 1165.411
2364.269, 1163.140
2366.198, 1152.928
2368.126, 1137.806
2370.054, 1117.753
2371.983, 1109.946
2373.911, 1118.553
2375.840, 1113.963
2377.768, 1110.901
2379.697, 1104.991
2381.625, 1109.322
2383.554, 1118.076
2385.482, 1095.476
2387.411, 1083.377
2389.339, 1079.644
2391.268, 1065.656
2393.196, 1064.484
2395.125, 1064.383
2397.053, 1067.310
2398.981, 1063.521
2400.910, 1043.991
2402.838, 1030.972
2404.767, 1022.445
2406.695, 1017.949
2408.624, 1019.977
2410.552, 1026.987
2412.481, 1033.119
2414.409, 1017.691
2416.338, 1005.110
2418.266, 1004.353
2420.195, 995.4072
2422.123, 992.6229
2424.052, 997.5470
2425.980, 974.7390
2427.908, 947.9636
2429.837, 939.6766
2431.765, 950.3860
2433.694, 949.1087
2435.622, 933.5856
2437.551, 942.3195
2439.479, 949.1106
2441.408, 935.3276
2443.336, 929.2364
2445.265, 925.9875
2447.193, 923.6479
2449.122, 921.3896
2451.050, 912.1412
2452.979, 906.8088
2454.907, 893.3142
2456.835, 875.2978
2458.764, 883.0914
2460.692, 881.5146
2462.621, 877.2319
2464.549, 878.4431
2466.478, 877.4911
2468.406, 879.4964
2470.335, 863.7027
2472.263, 857.1496
2474.192, 861.2838
2476.120, 845.8757
2478.049, 836.2972
2479.977, 832.4095
2481.906, 834.0038
2483.834, 835.7701
2485.762, 830.0115
2487.691, 820.5072
2489.619, 816.5641
2491.548, 802.8688
2493.476, 810.3298
2495.405, 814.9508
2497.333, 797.9048
2499.262, 799.7758
2501.190, 799.2888
2503.119, 785.2457
2505.047, 778.9833
2506.976, 778.9739
2508.904, 782.6037
2510.833, 775.9437
2512.761, 766.3833
2514.689, 762.5762
2516.618, 758.3671
2518.546, 754.8027
2520.475, 754.6008
2522.403, 758.0750
2524.332, 754.6628
2526.260, 740.8806
2528.189, 725.1356
2530.117, 716.5998
2532.046, 723.6758
2533.974, 721.4698
2535.903, 713.3896
2537.831, 703.1584
2539.760, 698.0249
2541.688, 696.5839
2543.616, 702.5146
2545.545, 700.9670
2547.473, 694.8527
2549.402, 687.0320
2551.330, 675.6545
2553.259, 669.4890
2555.187, 677.3093
2557.116, 667.5009
2559.044, 660.0899
2560.973, 669.0082
2562.901, 664.4438
2564.830, 656.2098
2566.758, 648.6479
2568.687, 650.8201
2570.615, 651.6587
2572.543, 643.7928
2574.472, 635.4711
2576.400, 631.8800
2578.329, 635.5751
2580.257, 625.2307
2582.186, 613.9132
2584.114, 608.3349
2586.043, 612.9550
2587.971, 613.4069
2589.900, 603.8856
2591.828, 604.5277
2593.757, 605.1417
2595.685, 604.7438
2597.614, 587.3286
2599.542, 573.3544
2601.470, 571.6898
2603.399, 574.4055
2605.327, 570.7057
2607.256, 563.2076
2609.184, 568.5618
2611.113, 569.4543
2613.041, 566.8578
2614.970, 566.0937
2616.898, 560.5200
2618.827, 553.9718
2620.755, 549.6570
2622.684, 545.5688
2624.612, 542.9109
2626.541, 539.6646
2628.469, 537.0959
2630.397, 535.8862
2632.326, 537.8475
2634.254, 538.5969
2636.183, 538.4408
2638.111, 535.1246
2640.040, 520.5950
2641.968, 515.5697
2643.897, 526.8065
2645.825, 519.2089
2647.754, 504.8287
2649.682, 490.4480
2651.611, 498.4285
2653.539, 498.0085
2655.468, 487.1397
2657.396, 489.2822
2659.324, 491.5680
2661.253, 493.3062
2663.181, 486.4327
2665.110, 480.9492
2667.038, 478.5129
2668.967, 479.2796
2670.895, 474.6319
2672.824, 470.9611
2674.752, 474.2759
2676.681, 463.9858
2678.609, 455.6741
2680.538, 461.7366
2682.466, 461.6753
2684.395, 454.5472
2686.323, 447.2917
2688.251, 450.1034
2690.180, 449.2473
2692.108, 436.0783
2694.037, 430.2535
2695.965, 430.2963
2697.894, 433.2830
2699.822, 429.0084
2701.751, 424.9366
2703.679, 422.1574
2705.608, 413.7686
2707.536, 418.5913
2709.465, 421.4388
2711.393, 416.0351
2713.322, 412.9887
2715.250, 406.2798
2717.178, 398.5221
2719.107, 400.1194
2721.035, 398.9828
2722.964, 406.6104
2724.892, 404.2855
2726.821, 397.3447
2728.749, 390.2000
2730.678, 386.5024
2732.606, 384.4592
2734.535, 381.6289
2736.463, 373.5922
2738.392, 374.9168
2740.320, 378.2427
2742.249, 367.8693
2744.177, 364.5067
2746.105, 371.8134
2748.034, 375.0679
2749.962, 365.9571
2751.891, 363.0829
2753.819, 362.5189
2755.748, 358.7434
2757.676, 349.6002
2759.605, 341.0390
2761.533, 339.1372
2763.462, 334.4581
2765.390, 342.3000
2767.319, 348.5812
2769.247, 342.8820
2771.176, 338.2714
2773.104, 338.7053
2775.032, 346.7777
2776.961, 348.0523
2778.889, 330.8017
2780.818, 316.3813
2782.746, 322.3766
2784.675, 321.5980
2786.603, 314.8004
2788.532, 314.5307
2790.460, 311.7521
2792.389, 313.1303
2794.317, 311.4333
2796.246, 309.3684
2798.174, 305.0644
2800.103, 296.1755
2802.031, 295.3201
2803.959, 301.8401
2805.888, 294.2232
2807.816, 291.7216
2809.745, 291.8440
2811.673, 293.9406
2813.602, 289.1646
2815.530, 281.4922
2817.459, 283.9816
2819.387, 283.4982
2821.316, 280.5068
2823.244, 277.4056
2825.173, 281.1434
2827.101, 281.7009
2829.030, 281.5024
2830.958, 280.9965
2832.886, 269.6227
2834.815, 263.6232
2836.743, 264.3267
2838.672, 267.0396
2840.600, 270.7532
2842.529, 270.8314
2844.457, 259.5433
2846.386, 254.1444
2848.314, 255.6077
2850.243, 264.9654
2852.171, 261.2742
2854.100, 251.8583
2856.028, 245.8338
2857.957, 246.5922
2859.885, 251.5148
2861.813, 250.1607
2863.742, 240.4724
2865.670, 233.6442
2867.599, 225.2370
2869.527, 226.9245
2871.456, 229.0323
2873.384, 229.1570
2875.313, 236.8546
2877.241, 229.5717
2879.170, 221.1894
2881.098, 222.8837
2883.027, 218.3524
2884.955, 219.0276
2886.884, 220.1110
2888.812, 216.8584
2890.740, 219.4442
2892.669, 218.2889
2894.597, 216.4744
2896.526, 210.1703
2898.454, 206.0282
2900.383, 200.1181
2902.311, 200.2249
2904.240, 200.4344
2906.168, 201.2135
2908.097, 198.6615
2910.025, 192.5700
2911.954, 196.8952
2913.882, 195.3241
2915.811, 190.3591
2917.739, 188.2869
2919.667, 190.5120
2921.596, 188.6190
2923.524, 186.1359
2925.453, 188.3513
2927.381, 187.2887
2929.310, 184.3201
2931.238, 181.8731
2933.167, 188.0202
2935.095, 186.9195
2937.024, 171.5112
2938.952, 171.9462
2940.881, 177.0597
2942.809, 178.2155
2944.738, 176.8123
2946.666, 173.0898
2948.594, 171.3860
2950.523, 170.4958
2952.451, 165.2604
2954.380, 158.7315
2956.308, 155.1565
2958.237, 160.2810
2960.165, 158.2409
2962.094, 155.6686
2964.022, 156.6414
2965.951, 155.2383
2967.879, 154.2970
2969.808, 156.0802
2971.736, 158.8908
2973.665, 150.0255
2975.593, 146.2195
2977.521, 148.6006
2979.450, 153.6060
2981.378, 149.9071
2983.307, 143.9055
2985.235, 141.6256
2987.164, 144.4109
2989.092, 142.4633
2991.021, 140.0847
2992.949, 139.3464
2994.878, 139.9530
2996.806, 141.3790
2998.735, 139.9117
3000.663, 135.8744
3002.592, 131.9700
3004.520, 129.9207
3006.448, 129.0605
3008.377, 124.4972
3010.305, 132.8070
3012.234, 136.1903
3014.162, 128.5349
3016.091, 121.1481
3018.019, 128.4559
3019.948, 131.1604
3021.876, 118.6999
3023.805, 122.1901
3025.733, 122.5490
3027.662, 119.9422
3029.590, 120.2104
3031.519, 115.9463
3033.447, 115.8952
3035.375, 118.4438
3037.304, 115.6754
3039.232, 110.6155
3041.161, 109.1348
3043.089, 111.0611
3045.018, 110.1855
3046.946, 106.0633
3048.875, 106.0135
3050.803, 110.8356
3052.732, 107.6767
3054.660, 105.5693
3056.589, 105.8504
3058.517, 107.3687
3060.446, 103.0223
3062.374, 102.6071
3064.302, 102.3314
3066.231, 97.49896
3068.159, 100.4806
3070.088, 101.3070
3072.016, 98.78777
3073.945, 94.91019
3075.873, 97.69623
3077.802, 95.35205
3079.730, 91.74307
3081.659, 97.58959
3083.587, 93.43736
3085.516, 88.27926
3087.444, 86.20062
3089.373, 92.39706
3091.301, 89.41060
3093.229, 91.37444
3095.158, 97.62738
3097.086, 92.08522
3099.015, 85.39777
3100.943, 83.41554
3102.872, 86.36433
3104.800, 79.79002
3106.729, 77.82360
3108.657, 81.16878
3110.586, 86.31927
3112.514, 86.10255
3114.443, 81.61136
3116.371, 78.04961
3118.300, 77.46724
3120.228, 76.72750
3122.156, 75.78555
3124.085, 74.13866
3126.013, 71.52264
3127.942, 77.10979
3129.870, 72.87008
3131.799, 68.87597
3133.727, 72.45489
3135.656, 74.87666
3137.584, 70.51106
3139.513, 67.69749
3141.441, 68.23603
3143.370, 66.52542
3145.298, 63.92467
3147.227, 64.70106
3149.155, 69.49510
3151.083, 61.37245
3153.012, 59.71632
3154.940, 62.60468
3156.869, 62.90998
3158.797, 61.38476
3160.726, 60.93735
3162.654, 60.25898
3164.583, 58.76723
3166.511, 61.22939
3168.440, 60.37831
3170.368, 57.64222
3172.297, 54.41552
3174.225, 55.07518
3176.154, 57.96267
3178.082, 56.20673
3180.010, 50.63824
3181.939, 58.09467
3183.867, 57.60110
3185.796, 57.45039
3187.724, 59.28603
3189.653, 60.38657
3191.581, 58.28092
3193.510, 60.57917
3195.438, 63.33719
3197.367, 60.09122
3199.295, 60.01614
3201.224, 57.01441
3203.152, 52.85064
3205.081, 53.02688
3207.009, 58.13642
3208.938, 50.77818
3210.866, 48.89920
3212.794, 56.59712
3214.723, 55.06033
3216.651, 56.34420
3218.580, 58.23642
3220.508, 56.21486
3222.437, 48.07158
3224.365, 47.62087
3226.294, 45.46826
3228.222, 43.48695
3230.151, 50.47401
3232.079, 46.92438
3234.008, 50.96425
3235.936, 56.30986
3237.865, 52.39043
3239.793, 44.15164
3241.721, 46.44534
3243.650, 44.91241
3245.578, 39.21693
3247.507, 49.79688
3249.435, 47.65841
3251.364, 43.87870
3253.292, 42.72507
3255.221, 45.26336
3257.149, 49.36918
3259.078, 49.49084
3261.006, 46.76695
3262.935, 43.97796
3264.863, 40.67827
3266.792, 43.59941
3268.720, 49.58951
3270.648, 53.10944
3272.577, 48.21862
3274.505, 45.81655
3276.434, 45.59940
3278.362, 45.32121
3280.291, 43.49408
3282.219, 40.07835
3284.148, 42.62849
3286.076, 46.76971
3288.005, 47.96484
3289.933, 44.99966
3291.862, 37.97372
3293.790, 41.73759
3295.719, 48.35700
3297.647, 38.28003
3299.575, 43.63463
3301.504, 43.15606
3303.432, 41.17347
3305.361, 40.21760
3307.289, 40.99711
3309.218, 42.51620
3311.146, 36.53411
3313.075, 32.41018
3315.003, 42.12106
3316.932, 32.98225
3318.860, 32.80854
3320.789, 34.73508
3322.717, 32.69367
3324.646, 36.78983
3326.574, 42.31521
3328.502, 37.46997
3330.431, 31.53797
3332.359, 35.86308
3334.288, 36.19791
3336.216, 39.66486
3338.145, 37.61326
3340.073, 31.92971
3342.002, 33.61833
3343.930, 39.44730
3345.859, 36.71061
3347.787, 34.16896
3349.716, 36.32513
3351.644, 32.36741
3353.573, 35.78183
3355.501, 32.88151
3357.429, 29.24141
3359.358, 34.24009
3361.286, 37.41074
3363.215, 37.45339
3365.143, 36.15195
3367.072, 35.07262
3369.000, 36.30754
3370.929, 30.94703
3372.857, 33.05988
3374.786, 30.99478
3376.714, 26.21247
3378.643, 39.67190
3380.571, 37.10656
3382.500, 33.77117
3384.428, 31.74714
3386.356, 30.18057
3388.285, 34.34084
3390.213, 30.14030
3392.142, 31.18343
3394.070, 35.42347
3395.999, 36.42070
3397.927, 27.51738
3399.856, 31.46157
3401.784, 32.03561
3403.713, 29.05529
3405.641, 28.86231
3407.570, 27.38094
3409.498, 22.79705
3411.427, 23.11738
3413.355, 29.18598
3415.283, 36.47248
3417.212, 24.34705
3419.140, 25.55919
3421.069, 26.15648
3422.997, 24.37751
3424.926, 26.64020
3426.854, 21.82488
3428.783, 19.27889
3430.711, 23.26859
3432.640, 29.29132
3434.568, 30.38708
3436.497, 28.12226
3438.425, 30.57957
3440.354, 30.83083
3442.282, 27.26001
3444.210, 23.12748
3446.139, 28.35852
3448.067, 25.19791
3449.996, 28.57814
3451.924, 31.66692
3453.853, 23.63869
3455.781, 27.50310
3457.710, 24.60761
3459.638, 24.27955
3461.567, 24.99873
3463.495, 23.13396
3465.424, 25.09179
3467.352, 26.01905
3469.281, 23.15743
3471.209, 23.63061
3473.137, 27.53190
3475.066, 19.84698
3476.994, 25.69419
3478.923, 27.51358
3480.851, 24.09454
3482.780, 20.73741
3484.708, 22.52603
3486.637, 26.37173
3488.565, 25.45985
3490.494, 20.76199
3492.422, 18.88845
3494.351, 25.02241
3496.279, 27.15194
3498.208, 24.81438
3500.136, 22.27516
3502.064, 22.25718
3503.993, 25.43771
3505.921, 31.18445
3507.850, 33.29157
3509.778, 27.31926
3511.707, 24.78676
3513.635, 28.35819
3515.564, 25.61784
3517.492, 32.03612
3519.421, 31.09562
3521.349, 30.82776
3523.278, 32.01963
3525.206, 31.10307
3527.135, 35.91931
3529.063, 32.29900
3530.991, 28.17379
3532.920, 28.17298
3534.848, 31.07612
3536.777, 31.34154
3538.705, 28.65364
3540.634, 32.14965
3542.562, 31.36223
3544.491, 29.32875
3546.419, 33.53426
3548.348, 34.17209
3550.276, 31.02884
3552.205, 31.05404
3554.133, 29.86613
3556.062, 27.87570
3557.990, 31.02875
3559.918, 29.87340
3561.847, 33.35280
3563.775, 30.98009
3565.704, 25.02584
3567.632, 22.45098
3569.561, 25.55229
3571.489, 27.12097
3573.418, 27.15525
3575.346, 28.70805
3577.275, 29.97891
3579.203, 27.79215
3581.132, 21.30082
3583.060, 26.80762
3584.989, 26.37061
3586.917, 30.64885
3588.845, 33.49286
3590.774, 21.70539
3592.702, 24.55704
3594.631, 23.17573
3596.559, 22.64645
3598.488, 21.42875
3600.416, 19.81716
3602.345, 20.92615
3604.273, 22.14948
3606.202, 22.87597
3608.130, 20.43563
3610.059, 18.88098
3611.987, 18.01866
3613.916, 13.47334
3615.844, 13.17529
3617.772, 22.60525
3619.701, 27.17539
3621.629, 24.51787
3623.558, 19.56807
3625.486, 18.53194
3627.415, 23.13319
3629.343, 22.63826
3631.272, 18.72572
3633.200, 14.91651
3635.129, 13.35650
3637.057, 14.52220
3638.986, 17.16829
3640.914, 14.41208
3642.843, 13.28238
3644.771, 13.16528
3646.699, 13.68624
3648.628, 14.54708
3650.556, 12.22079
3652.485, 12.24228
3654.413, 18.44485
3656.342, 16.02164
3658.270, 10.42143
3660.199, 10.97195
3662.127, 14.74331
3664.056, 8.155222
3665.984, 6.444660
3667.913, 12.46685
3669.841, 18.36159
3671.770, 18.00407
3673.698, 12.35857
3675.626, 13.18137
3677.555, 14.13308
3679.483, 8.151164
3681.412, 12.51833
3683.340, 17.01374
3685.269, 9.340937
3687.197, 6.406257
3689.126, 15.31446
3691.054, 15.91360
3692.983, 19.40215
3694.911, 19.33533
3696.840, 16.96003
3698.768, 21.19021
3700.697, 18.14087
3702.625, 15.58579
3704.553, 22.30427
3706.482, 19.56048
3708.410, 12.93071
3710.339, 12.29523
3712.267, 14.51343
3714.196, 18.45592
3716.124, 17.73893
3718.053, 12.32509
3719.981, 9.323528
3721.910, 9.777805
3723.838, 10.71159
3725.767, 10.68899
3727.695, 13.56938
3729.624, 8.987803
3731.552, 11.94244
3733.480, 14.90632
3735.409, 14.91271
3737.337, 15.00663
3739.266, 15.25554
3741.194, 8.796489
3743.123, 12.26621
3745.051, 12.05365
3746.980, 10.73569
3748.908, 11.35102
3750.837, 12.17503
3752.765, 9.793793
3754.694, 6.884970
3756.622, 9.293404
3758.551, 13.93874
3760.479, 11.57093
3762.407, 12.82085
3764.336, 17.76827
3766.264, 8.886582
3768.193, 14.18925
3770.121, 14.14535
3772.050, 11.84611
3773.978, 17.59490
3775.907, 16.30550
3777.835, 11.10281
3779.764, 17.26846
3781.692, 15.08252
3783.621, 19.31839
3785.549, 11.98015
3787.478, 12.98921
3789.406, 13.58143
3791.334, 13.66013
3793.263, 16.00311
3795.191, 12.57948
3797.120, 12.47880
3799.048, 11.18526
3800.977, 12.54047
3802.905, 9.778104
3804.834, 5.506998
3806.762, 7.549566
3808.691, 15.07110
3810.619, 11.35387
3812.548, 11.67709
3814.476, 5.090528
3816.405, 9.736888
3818.333, 10.45886
3820.261, 7.572946
3822.190, 9.604462
3824.118, 16.54756
3826.047, 17.06789
3827.975, 7.679264
3829.904, 2.730516
3831.832, 6.657813
3833.761, 11.34588
3835.689, 11.80048
3837.618, 9.158177
3839.546, 7.047685
3841.475, 8.093909
3843.403, 10.66758
3845.332, 11.11546
3847.260, 10.46961
3849.188, 14.96660
3851.117, 12.48852
3853.045, 11.16150
3854.974, 20.77617
3856.902, 21.09901
3858.831, 15.84591
3860.759, 17.97877
3862.688, 15.77798
3864.616, 11.23976
3866.545, 11.26288
3868.473, 11.62697
3870.402, 10.10282
3872.330, 11.18957
3874.259, 8.694269
3876.187, 6.697020
3878.115, 11.91947
3880.044, 8.424784
3881.972, 3.352155
3883.901, 4.872633
3885.829, 11.93838
3887.758, 16.22540
3889.686, 11.67149
3891.615, 12.95627
3893.543, 5.311661
3895.472, 7.484258
3897.400, 7.215747
3899.329, 8.006448
3901.257, 11.77529
3903.186, 13.26568
3905.114, 11.74664
3907.042, 12.39854
3908.971, 7.363132
3910.899, 9.292392
3912.828, 11.89650
3914.756, 5.261983
3916.685, 4.822042
3918.613, 8.268655
3920.542, 9.892702
3922.470, 9.971096
3924.399, 9.865073
3926.327, 8.625718
3928.256, 6.738889
3930.184, 13.45291
3932.113, 8.684401
3934.041, 9.700614
3935.969, 10.55949
3937.898, 14.37177
3939.826, 17.92889
3941.755, 15.14892
3943.683, 13.06021
3945.612, 16.83413
3947.540, 13.37627
3949.469, 12.80308
3951.397, 13.32383
3953.326, 10.74415
3955.254, 5.435147
3957.183, 8.243935
3959.111, 10.77423
3961.040, 6.314492
3962.968, 8.287630
3964.896, 5.867890
3966.825, 5.406430
3968.753, 10.28760
3970.682, 0.8806916
3972.610, 2.946670
3974.539, 6.155766
3976.467, 8.543571
3978.396, 9.439116
3980.324, 9.172380
3982.253, 9.439736
3984.181, 5.728834
3986.110, 11.28349
3988.038, 6.433254
3989.967, 6.725667
3991.895, 8.197704
3993.823, 7.911192
3995.752, 11.49534
3997.680, 15.90698
3999.609, 12.95077
4001.537, 7.409194
4003.466, 8.567434
4005.394, 10.47861
4007.323, 17.00386
4009.251, 6.670458
4011.180, 12.26470
4013.108, 6.668170
4015.037, 12.81789
4016.965, 6.848692
4018.894, 7.078284
4020.822, 11.70320
4022.750, 11.71547
4024.679, 8.843684
4026.607, 2.932920
4028.536, 2.829575
4030.464, 6.593877
4032.393, 12.58311
4034.321, 9.689460
4036.250, 7.642721
4038.178, 7.429088
4040.107, 6.768607
4042.035, 3.579288
4043.964, 6.705778
4045.892, 7.012616
4047.821, 2.851731
4049.749, 6.794362
4051.677, 3.027373
4053.606, 5.679909
4055.534, 10.29029
4057.463, 0.3223018
4059.391, 12.59207
4061.320, 5.310486
4063.248, 7.844157
4065.177, 9.049344
4067.105, 10.05416
4069.034, 12.59196
4070.962, 12.71734
4072.891, 8.351748
4074.819, 5.643586
4076.748, 13.40825
4078.676, 15.94142
4080.604, 7.555986
4082.533, 15.02241
4084.461, 16.55171
4086.390, 13.07548
4088.318, 9.347712
4090.247, 11.75402
4092.175, 6.328581
4094.104, 3.422865
4096.032, 10.18419
4097.961, 12.14628
4099.889, 11.30477
4101.817, 11.92486
4103.746, 0.7710133
4105.675, 9.992743
4107.603, 9.023534
4109.531, 7.733579
4111.460, 1.194059
4113.389, 12.33059
4115.317, 15.55871
4117.245, 9.303223
4119.174, 8.186427
4121.103, 9.924415
4123.031, 10.45098
4124.959, 4.845657
4126.888, 3.744200
4128.816, 7.171143
4130.745, 7.807606
4132.673, 11.42455
4134.602, 14.11792
4136.530, 9.106308
4138.458, 10.38408
4140.387, 8.749712
4142.315, 14.78261
4144.244, 6.120768
4146.172, 17.27048
4148.101, 16.00179
4150.029, 4.719283
4151.958, 11.53529
4153.886, 10.64566
4155.814, 13.00432
4157.743, 11.51799
4159.672, 6.675151
4161.600, 5.690037
4163.528, 10.44996
4165.457, 15.06795
4167.386, 10.70187
4169.314, 12.28713
4171.242, 11.15139
4173.171, 3.537601
4175.100, 11.48634
4177.028, 12.34281
4178.956, 6.656650
4180.885, 7.260271
4182.813, 7.506235
4184.742, 7.509621
4186.670, 7.848190
4188.599, 5.308831
4190.527, 4.193511
4192.456, 14.24916
4194.384, 6.968432
4196.313, 3.587070
4198.241, 1.975440
4200.169, 5.573301
4202.098, 12.57614
4204.026, 10.77872
4205.955, 9.742705
4207.883, 8.030135
4209.812, 10.40148
4211.740, 10.91182
4213.669, 15.13507
4215.597, 16.49032
4217.525, 12.41338
4219.454, 12.28310
4221.383, 8.821798
4223.311, 17.28351
4225.239, 14.39484
4227.168, 13.80271
4229.097, 12.47344
4231.025, 12.31353
4232.953, 10.21941
4234.882, 16.48426
4236.811, 15.05109
4238.739, 7.859904
4240.667, 8.888156
4242.596, 9.844020
4244.524, 8.466017
4246.453, 12.60048
4248.381, 12.82203
4250.310, 9.020954
4252.238, 5.791935
4254.167, 3.848542
4256.095, 6.398254
4258.023, 7.789371
4259.952, 9.644973
4261.880, 12.88815
4263.809, 12.18441
4265.737, 5.962944
4267.666, 12.94045
4269.594, 8.189524
4271.522, 12.05131
4273.451, 4.758769
4275.380, 8.741512
4277.308, 13.82410
4279.236, 6.620956
4281.165, 10.53758
4283.094, 6.277214
4285.022, 11.81475
4286.950, 8.576775
4288.879, 5.997566
4290.808, 9.843249
4292.736, 10.31466
4294.664, 14.46418
4296.593, 14.61472
4298.521, 12.17882
4300.450, 7.143472
4302.378, 7.564661
4304.307, 15.21045
4306.235, 4.378426
4308.164, 5.633615
4310.092, 10.22315
4312.021, 10.46768
4313.949, 12.80406
4315.877, 13.64103
4317.806, 9.330889
4319.734, 11.06701
4321.663, 8.186158
4323.591, 6.660345
4325.520, 4.270417
4327.448, 9.169642
4329.377, 14.00791
4331.305, 8.290990
4333.233, 9.221334
4335.162, 10.14169
##END=



