##NAMES=Plumbogummite
##RRUFFID=R050458
##IDEAL CHEMISTRY=PbAl_3_(PO_4_)(PO_3_OH)(OH)_6_
##LOCALITY=Cornwall, England
##OWNER=RRUFF
##SOURCE=University of Arizona Mineral Museum
##DESCRIPTION=Grayish blue botryoidal crust associated with yellow-green pyromorphite
##STATUS=The identification of this mineral has been confirmed by X-ray diffraction and chemical analysis
##URL=https://www.rruff.net/odr/rruff_sample/R050458
##MEASURED CHEMISTRY=Pb_1.00_Al_3.00_((P_0.81_As_0.19_)O_4_)(P_1.00_O_3_OH)(OH)_6_
##DIFFRACTION SAMPLE DESCRIPTION=Powder
##CELL PARAMETERS=a: 7.0131 b: 7.0131 c: 16.7241 alpha: 90 beta: 90 gamma: 120 volume: 712.35 crystal system: hexagonal
##FILETYPE=Raman Processed
##RAMAN WAVELENGTH=532

162.1277, 5207.289
164.0562, 5219.773
165.9846, 5213.874
167.9131, 5179.629
169.8416, 5159.985
171.7700, 5170.075
173.6985, 5211.955
175.6270, 5245.884
177.5554, 5262.663
179.4839, 5278.382
181.4124, 5304.308
183.3408, 5347.924
185.2693, 5388.513
187.1978, 5423.923
189.1262, 5451.863
191.0547, 5467.819
192.9832, 5452.474
194.9116, 5435.449
196.8401, 5439.374
198.7686, 5484.870
200.6970, 5529.479
202.6255, 5571.765
204.5540, 5610.232
206.4824, 5640.967
208.4109, 5650.502
210.3394, 5661.269
212.2678, 5693.269
214.1963, 5758.311
216.1248, 5815.548
218.0532, 5845.937
219.9817, 5851.513
221.9102, 5875.792
223.8386, 5928.545
225.7671, 5990.637
227.6956, 6048.720
229.6240, 6102.419
231.5525, 6151.469
233.4810, 6196.404
235.4094, 6238.032
237.3379, 6278.417
239.2664, 6315.998
241.1948, 6353.868
243.1233, 6394.249
245.0518, 6439.654
246.9802, 6481.717
248.9087, 6518.095
250.8372, 6549.761
252.7656, 6581.049
254.6941, 6616.366
256.6226, 6644.851
258.5510, 6663.058
260.4795, 6663.500
262.4080, 6667.314
264.3364, 6678.673
266.2649, 6691.389
268.1934, 6697.960
270.1218, 6688.778
272.0503, 6682.559
273.9788, 6682.538
275.9072, 6688.102
277.8357, 6697.899
279.7642, 6720.587
281.6926, 6743.485
283.6211, 6756.479
285.5496, 6751.610
287.4780, 6748.737
289.4065, 6750.206
291.3350, 6755.814
293.2634, 6760.672
295.1919, 6759.399
297.1204, 6759.228
299.0488, 6769.429
300.9773, 6795.426
302.9058, 6823.961
304.8342, 6850.840
306.7627, 6874.654
308.6912, 6892.757
310.6196, 6899.127
312.5481, 6902.354
314.4766, 6908.023
316.4050, 6917.166
318.3335, 6932.483
320.2620, 6951.501
322.1904, 6968.946
324.1189, 6987.369
326.0474, 7017.131
327.9758, 7048.844
329.9043, 7067.824
331.8328, 7074.388
333.7612, 7087.309
335.6897, 7119.697
337.6182, 7158.737
339.5467, 7192.613
341.4751, 7218.620
343.4036, 7245.487
345.3321, 7278.105
347.2605, 7315.648
349.1890, 7347.700
351.1175, 7370.336
353.0459, 7383.259
354.9744, 7389.098
356.9029, 7389.618
358.8313, 7401.108
360.7598, 7430.010
362.6883, 7470.055
364.6167, 7506.087
366.5452, 7529.880
368.4737, 7549.762
370.4021, 7576.408
372.3306, 7606.766
374.2591, 7623.979
376.1875, 7622.458
378.1160, 7627.232
380.0445, 7645.095
381.9729, 7672.986
383.9014, 7694.647
385.8299, 7707.913
387.7583, 7716.395
389.6868, 7725.826
391.6153, 7740.010
393.5437, 7752.547
395.4722, 7762.603
397.4007, 7773.728
399.3291, 7795.059
401.2576, 7823.455
403.1861, 7843.437
405.1145, 7851.460
407.0430, 7847.431
408.9715, 7854.577
410.8999, 7875.579
412.8284, 7904.566
414.7569, 7933.440
416.6853, 7963.233
418.6138, 7985.980
420.5423, 7995.680
422.4707, 7992.734
424.3992, 7999.886
426.3277, 8034.900
428.2561, 8082.024
430.1846, 8124.964
432.1131, 8146.643
434.0415, 8166.334
435.9700, 8197.932
437.8985, 8234.195
439.8269, 8258.466
441.7554, 8259.781
443.6839, 8270.859
445.6123, 8296.690
447.5408, 8333.807
449.4693, 8368.975
451.3977, 8420.679
453.3262, 8468.742
455.2547, 8499.792
457.1831, 8507.629
459.1116, 8517.143
461.0401, 8531.550
462.9685, 8551.254
464.8970, 8577.366
466.8255, 8612.908
468.7539, 8650.130
470.6824, 8681.585
472.6109, 8703.553
474.5393, 8713.255
476.4678, 8720.038
478.3963, 8741.568
480.3247, 8787.234
482.2532, 8842.323
484.1817, 8878.425
486.1101, 8889.364
488.0386, 8895.032
489.9671, 8908.760
491.8955, 8922.761
493.8240, 8941.372
495.7525, 8974.960
497.6809, 9016.670
499.6094, 9051.804
501.5379, 9079.890
503.4663, 9103.181
505.3948, 9119.281
507.3233, 9120.718
509.2517, 9114.860
511.1802, 9105.549
513.1086, 9106.041
515.0371, 9121.006
516.9656, 9152.068
518.8940, 9175.368
520.8225, 9191.428
522.7510, 9209.899
524.6794, 9244.571
526.6079, 9274.349
528.5364, 9296.647
530.4648, 9320.858
532.3933, 9351.814
534.3218, 9379.060
536.2502, 9408.827
538.1787, 9430.818
540.1072, 9426.152
542.0356, 9399.089
543.9641, 9396.530
545.8926, 9459.931
547.8210, 9521.685
549.7495, 9549.765
551.6780, 9530.366
553.6064, 9519.609
555.5349, 9525.128
557.4634, 9541.231
559.3918, 9561.712
561.3203, 9593.749
563.2488, 9625.803
565.1772, 9648.057
567.1057, 9659.270
569.0342, 9666.722
570.9626, 9678.680
572.8911, 9701.044
574.8196, 9738.255
576.7480, 9781.376
578.6765, 9819.862
580.6050, 9860.276
582.5335, 9898.626
584.4620, 9931.392
586.3904, 9953.820
588.3189, 9975.776
590.2474, 10010.65
592.1758, 10048.68
594.1043, 10080.46
596.0328, 10099.37
597.9612, 10126.47
599.8897, 10164.53
601.8182, 10194.28
603.7466, 10200.96
605.6751, 10195.50
607.6036, 10208.04
609.5320, 10258.84
611.4605, 10318.95
613.3890, 10358.96
615.3174, 10358.41
617.2459, 10366.29
619.1744, 10403.52
621.1028, 10445.98
623.0313, 10460.83
624.9598, 10449.52
626.8882, 10443.68
628.8167, 10445.39
630.7452, 10449.22
632.6736, 10464.84
634.6021, 10494.91
636.5306, 10524.71
638.4590, 10545.92
640.3875, 10565.44
642.3160, 10590.53
644.2444, 10629.08
646.1729, 10665.11
648.1014, 10692.26
650.0298, 10711.25
651.9583, 10730.42
653.8868, 10751.37
655.8152, 10774.42
657.7437, 10797.37
659.6722, 10810.67
661.6006, 10841.40
663.5291, 10900.67
665.4576, 10961.81
667.3860, 11003.38
669.3145, 11028.48
671.2430, 11053.21
673.1714, 11087.01
675.0999, 11119.39
677.0284, 11142.25
678.9568, 11125.56
680.8853, 11118.72
682.8138, 11130.36
684.7422, 11160.36
686.6707, 11194.93
688.5992, 11230.04
690.5276, 11262.73
692.4561, 11289.60
694.3846, 11319.32
696.3130, 11351.70
698.2415, 11383.43
700.1700, 11414.40
702.0984, 11448.72
704.0269, 11474.98
705.9554, 11488.97
707.8839, 11488.29
709.8123, 11491.91
711.7408, 11499.85
713.6693, 11513.77
715.5977, 11538.10
717.5262, 11574.61
719.4547, 11614.60
721.3831, 11660.48
723.3116, 11706.41
725.2401, 11743.31
727.1685, 11756.58
729.0970, 11776.71
731.0255, 11813.25
732.9539, 11862.28
734.8824, 11900.71
736.8109, 11919.93
738.7393, 11937.87
740.6678, 11959.73
742.5963, 11992.39
744.5247, 12028.11
746.4532, 12078.74
748.3817, 12116.94
750.3101, 12140.06
752.2386, 12154.36
754.1671, 12163.38
756.0955, 12161.59
758.0240, 12168.24
759.9525, 12194.39
761.8809, 12234.62
763.8094, 12274.91
765.7379, 12313.72
767.6663, 12354.02
769.5948, 12394.43
771.5233, 12434.26
773.4517, 12474.73
775.3802, 12513.11
777.3087, 12551.69
779.2371, 12596.75
781.1656, 12647.05
783.0941, 12677.39
785.0225, 12663.41
786.9510, 12658.77
788.8795, 12691.89
790.8079, 12752.78
792.7364, 12796.53
794.6649, 12814.75
796.5933, 12828.69
798.5218, 12837.54
800.4503, 12846.56
802.3787, 12877.41
804.3072, 12956.86
806.2357, 13023.79
808.1641, 13057.74
810.0926, 13071.71
812.0211, 13096.36
813.9495, 13135.93
815.8780, 13178.70
817.8065, 13217.57
819.7349, 13254.67
821.6634, 13302.46
823.5919, 13374.24
825.5203, 13440.50
827.4488, 13495.21
829.3773, 13529.58
831.3057, 13549.02
833.2342, 13550.67
835.1627, 13557.00
837.0911, 13569.15
839.0196, 13585.63
840.9481, 13617.80
842.8765, 13688.59
844.8050, 13749.81
846.7335, 13785.85
848.6619, 13813.02
850.5904, 13854.65
852.5189, 13920.94
854.4473, 13981.95
856.3758, 14023.11
858.3043, 14043.76
860.2327, 14065.26
862.1612, 14086.15
864.0897, 14126.46
866.0181, 14195.45
867.9466, 14265.72
869.8751, 14316.53
871.8035, 14350.49
873.7320, 14381.46
875.6605, 14408.37
877.5889, 14429.08
879.5174, 14458.56
881.4459, 14504.81
883.3743, 14559.00
885.3028, 14622.14
887.2313, 14684.39
889.1597, 14724.66
891.0882, 14741.43
893.0167, 14762.53
894.9451, 14796.69
896.8736, 14823.13
898.8021, 14842.44
900.7305, 14866.53
902.6590, 14896.76
904.5875, 14936.60
906.5159, 14961.58
908.4444, 14974.67
910.3729, 15003.16
912.3013, 15030.75
914.2298, 15038.46
916.1583, 15042.55
918.0867, 15087.35
920.0152, 15163.02
921.9437, 15226.61
923.8721, 15264.34
925.8006, 15304.16
927.7291, 15348.36
929.6575, 15376.35
931.5860, 15393.96
933.5145, 15410.98
935.4429, 15448.30
937.3714, 15508.76
939.2999, 15561.55
941.2283, 15610.95
943.1568, 15662.73
945.0853, 15723.78
947.0137, 15790.94
948.9422, 15853.26
950.8707, 15912.25
952.7991, 15967.15
954.7276, 16023.11
956.6561, 16082.48
958.5845, 16150.82
960.5130, 16214.30
962.4415, 16265.44
964.3699, 16336.84
966.2984, 16456.19
968.2269, 16585.66
970.1553, 16703.20
972.0838, 16823.92
974.0123, 16935.37
975.9407, 17026.13
977.8692, 17088.88
979.7977, 17139.27
981.7261, 17199.70
983.6546, 17263.14
985.5831, 17324.62
987.5115, 17375.39
989.4400, 17424.83
991.3685, 17480.21
993.2969, 17513.49
995.2254, 17508.70
997.1539, 17506.24
999.0823, 17542.38
1001.011, 17594.15
1002.939, 17610.31
1004.868, 17603.65
1006.796, 17614.00
1008.725, 17655.32
1010.653, 17703.02
1012.582, 17754.41
1014.510, 17817.96
1016.439, 17865.39
1018.367, 17875.05
1020.295, 17862.76
1022.224, 17859.40
1024.152, 17877.71
1026.081, 17906.12
1028.009, 17944.38
1029.938, 17978.91
1031.866, 17985.73
1033.795, 17942.77
1035.723, 17923.53
1037.652, 17943.00
1039.580, 17982.57
1041.509, 18022.71
1043.437, 18069.76
1045.365, 18101.48
1047.294, 18085.22
1049.222, 18054.73
1051.151, 18045.88
1053.079, 18080.52
1055.008, 18133.67
1056.936, 18150.35
1058.865, 18147.25
1060.793, 18155.24
1062.722, 18197.30
1064.650, 18236.41
1066.579, 18241.79
1068.507, 18258.49
1070.436, 18312.20
1072.364, 18378.90
1074.292, 18419.40
1076.221, 18435.35
1078.150, 18480.06
1080.078, 18542.10
1082.006, 18593.53
1083.935, 18626.92
1085.863, 18660.95
1087.792, 18707.39
1089.720, 18762.77
1091.649, 18824.28
1093.577, 18884.13
1095.506, 18926.66
1097.434, 18938.76
1099.363, 18943.12
1101.291, 18973.26
1103.220, 19021.56
1105.148, 19067.42
1107.077, 19090.84
1109.005, 19081.06
1110.933, 19060.79
1112.862, 19068.05
1114.790, 19105.75
1116.719, 19155.68
1118.647, 19198.96
1120.576, 19243.64
1122.504, 19314.43
1124.433, 19365.38
1126.361, 19386.29
1128.290, 19394.05
1130.218, 19415.40
1132.147, 19444.47
1134.075, 19479.46
1136.004, 19511.76
1137.932, 19546.36
1139.860, 19589.53
1141.789, 19643.06
1143.717, 19670.81
1145.646, 19667.86
1147.574, 19673.04
1149.503, 19720.51
1151.431, 19819.91
1153.360, 19907.88
1155.288, 19934.68
1157.217, 19931.38
1159.145, 19950.34
1161.074, 19992.60
1163.002, 20031.69
1164.931, 20062.61
1166.859, 20121.17
1168.787, 20192.94
1170.716, 20227.67
1172.644, 20249.19
1174.573, 20278.64
1176.501, 20334.96
1178.430, 20395.39
1180.358, 20446.37
1182.287, 20497.05
1184.215, 20547.67
1186.144, 20585.67
1188.072, 20595.14
1190.001, 20610.15
1191.929, 20665.73
1193.858, 20744.93
1195.786, 20806.37
1197.714, 20848.12
1199.643, 20893.34
1201.571, 20947.96
1203.500, 21007.34
1205.428, 21072.58
1207.357, 21132.43
1209.285, 21179.10
1211.214, 21204.17
1213.142, 21244.21
1215.071, 21317.11
1216.999, 21410.02
1218.928, 21487.16
1220.856, 21533.56
1222.785, 21562.79
1224.713, 21582.44
1226.641, 21604.78
1228.570, 21621.20
1230.498, 21646.67
1232.427, 21687.55
1234.355, 21740.63
1236.284, 21785.29
1238.212, 21830.72
1240.141, 21886.70
1242.069, 21933.99
1243.998, 21977.14
1245.926, 22044.77
1247.855, 22158.17
1249.783, 22247.17
1251.712, 22298.81
1253.640, 22337.51
1255.568, 22372.59
1257.497, 22397.66
1259.425, 22425.31
1261.354, 22469.17
1263.282, 22503.65
1265.211, 22516.97
1267.139, 22534.81
1269.068, 22592.23
1270.996, 22705.63
1272.925, 22786.52
1274.853, 22779.19
1276.782, 22768.00
1278.710, 22818.07
1280.639, 22921.87
1282.567, 23010.26
1284.495, 23069.44
1286.424, 23122.80
1288.352, 23167.59
1290.281, 23197.77
1292.209, 23230.70
1294.138, 23276.84
1296.066, 23324.04
1297.995, 23354.85
1299.923, 23395.45
1301.852, 23477.43
1303.780, 23583.34
1305.709, 23656.27
1307.637, 23683.84
1309.566, 23718.43
1311.494, 23777.30
1313.422, 23836.60
1315.351, 23878.42
1317.279, 23901.18
1319.208, 23920.72
1321.136, 23941.68
1323.065, 23970.47
1324.993, 24020.07
1326.922, 24067.61
1328.850, 24086.13
1330.779, 24068.06
1332.707, 24106.71
1334.636, 24272.75
1336.564, 24412.75
1338.493, 24466.20
1340.421, 24469.99
1342.349, 24500.29
1344.278, 24571.64
1346.206, 24628.99
1348.135, 24652.17
1350.063, 24680.23
1351.992, 24742.99
1353.920, 24820.82
1355.849, 24866.55
1357.777, 24869.15
1359.706, 24889.99
1361.634, 24950.38
1363.563, 25024.56
1365.491, 25104.41
1367.420, 25179.91
1369.348, 25225.15
1371.276, 25227.99
1373.205, 25245.27
1375.133, 25297.50
1377.062, 25359.22
1378.990, 25419.78
1380.919, 25478.04
1382.847, 25531.85
1384.776, 25578.45
1386.704, 25626.36
1388.633, 25679.11
1390.561, 25730.42
1392.490, 25775.95
1394.418, 25815.25
1396.347, 25851.15
1398.275, 25870.08
1400.203, 25904.89
1402.132, 25994.52
1404.060, 26074.92
1405.989, 26071.86
1407.917, 26000.81
1409.846, 25981.59
1411.774, 26033.66
1413.703, 26103.93
1415.631, 26201.71
1417.560, 26291.82
1419.488, 26334.28
1421.417, 26339.08
1423.345, 26372.91
1425.274, 26455.61
1427.202, 26530.73
1429.130, 26568.05
1431.059, 26590.81
1432.987, 26620.99
1434.916, 26659.06
1436.844, 26693.80
1438.773, 26720.57
1440.701, 26755.33
1442.630, 26824.04
1444.558, 26882.30
1446.487, 26887.93
1448.415, 26846.29
1450.344, 26853.41
1452.272, 26963.81
1454.201, 27050.03
1456.129, 27062.47
1458.057, 27067.89
1459.986, 27132.10
1461.914, 27241.21
1463.843, 27300.03
1465.771, 27271.16
1467.700, 27269.45
1469.628, 27334.13
1471.557, 27417.22
1473.485, 27485.21
1475.414, 27541.79
1477.342, 27611.63
1479.271, 27709.57
1481.199, 27784.36
1483.128, 27806.61
1485.056, 27819.20
1486.984, 27841.87
1488.913, 27876.20
1490.841, 27934.43
1492.770, 28021.64
1494.698, 28102.58
1496.627, 28174.99
1498.555, 28231.10
1500.484, 28253.30
1502.412, 28248.18
1504.341, 28265.39
1506.269, 28321.79
1508.198, 28358.80
1510.126, 28330.57
1512.055, 28330.85
1513.983, 28423.79
1515.911, 28560.48
1517.840, 28658.50
1519.768, 28705.21
1521.697, 28730.11
1523.625, 28698.74
1525.554, 28699.19
1527.482, 28772.22
1529.411, 28867.37
1531.339, 28935.31
1533.268, 28977.36
1535.196, 29021.05
1537.125, 29081.76
1539.053, 29137.86
1540.982, 29158.21
1542.910, 29183.96
1544.839, 29257.88
1546.767, 29375.08
1548.695, 29488.04
1550.624, 29609.74
1552.552, 29675.44
1554.481, 29647.66
1556.409, 29611.92
1558.338, 29603.54
1560.266, 29617.61
1562.195, 29658.87
1564.123, 29738.84
1566.052, 29809.59
1567.980, 29838.44
1569.909, 29884.42
1571.837, 29985.09
1573.766, 30097.19
1575.694, 30192.69
1577.622, 30270.92
1579.551, 30256.23
1581.479, 30090.28
1583.408, 29982.79
1585.336, 30032.97
1587.265, 30138.67
1589.193, 30242.60
1591.122, 30342.32
1593.050, 30427.80
1594.979, 30488.04
1596.907, 30557.39
1598.836, 30650.11
1600.764, 30737.20
1602.693, 30798.25
1604.621, 30846.87
1606.549, 30906.76
1608.478, 30973.32
1610.406, 31001.40
1612.335, 30973.27
1614.263, 30957.28
1616.192, 30999.93
1618.120, 31045.87
1620.049, 31032.87
1621.977, 30995.79
1623.906, 31048.65
1625.834, 31203.83
1627.763, 31362.48
1629.691, 31515.78
1631.620, 31649.21
1633.548, 31760.06
1635.476, 31841.69
1637.405, 31883.02
1639.333, 31886.50
1641.262, 31883.81
1643.190, 31866.04
1645.119, 31875.51
1647.047, 31958.88
1648.976, 32037.25
1650.904, 32052.77
1652.833, 32034.82
1654.761, 32057.32
1656.690, 32128.23
1658.618, 32185.03
1660.547, 32204.59
1662.475, 32247.91
1664.403, 32375.29
1666.332, 32500.82
1668.260, 32537.17
1670.189, 32505.00
1672.117, 32515.88
1674.046, 32568.32
1675.974, 32654.74
1677.903, 32810.27
1679.831, 32939.83
1681.760, 32992.13
1683.688, 33009.05
1685.617, 33035.82
1687.545, 33073.97
1689.474, 33128.57
1691.402, 33223.48
1693.330, 33298.00
1695.259, 33345.19
1697.187, 33381.44
1699.116, 33397.28
1701.044, 33417.02
1702.973, 33480.20
1704.901, 33588.57
1706.830, 33684.15
1708.758, 33751.35
1710.687, 33820.12
1712.615, 33888.54
1714.544, 33960.19
1716.472, 34050.61
1718.401, 34141.55
1720.329, 34193.80
1722.257, 34203.45
1724.186, 34235.80
1726.114, 34304.93
1728.043, 34378.11
1729.971, 34455.08
1731.900, 34524.84
1733.828, 34575.20
1735.757, 34612.85
1737.685, 34649.21
1739.614, 34682.35
1741.542, 34746.73
1743.471, 34881.25
1745.399, 34985.77
1747.328, 34999.80
1749.256, 35028.23
1751.184, 35145.93
1753.113, 35308.27
1755.041, 35424.43
1756.970, 35486.30
1758.898, 35542.60
1760.827, 35585.25
1762.755, 35631.97
1764.684, 35711.67
1766.612, 35771.91
1768.541, 35760.38
1770.469, 35734.73
1772.398, 35797.18
1774.326, 35948.02
1776.255, 36091.29
1778.183, 36231.91
1780.111, 36326.89
1782.040, 36331.87
1783.968, 36325.34
1785.897, 36321.20
1787.825, 36338.57
1789.754, 36422.37
1791.682, 36557.40
1793.611, 36648.82
1795.539, 36691.84
1797.468, 36694.24
1799.396, 36633.78
1801.325, 36577.74
1803.253, 36542.84
1805.182, 36543.67
1807.110, 36616.51
1809.038, 36734.22
1810.967, 36808.31
1812.895, 36833.29
1814.824, 36839.30
1816.752, 36822.78
1818.681, 36802.51
1820.609, 36762.32
1822.538, 36743.05
1824.466, 36807.29
1826.395, 36903.55
1828.323, 36904.85
1830.252, 36813.07
1832.180, 36809.87
1834.109, 36948.87
1836.037, 37063.89
1837.965, 37116.82
1839.894, 37132.82
1841.822, 37093.99
1843.751, 37045.45
1845.679, 37065.14
1847.608, 37139.66
1849.536, 37134.09
1851.465, 36991.97
1853.393, 36954.08
1855.322, 37140.16
1857.250, 37280.61
1859.179, 37252.68
1861.107, 37196.64
1863.036, 37231.57
1864.964, 37309.04
1866.892, 37314.13
1868.821, 37233.63
1870.749, 37211.55
1872.678, 37309.72
1874.606, 37373.96
1876.535, 37387.12
1878.463, 37383.79
1880.392, 37356.41
1882.320, 37333.89
1884.249, 37340.99
1886.177, 37370.68
1888.106, 37411.44
1890.034, 37461.05
1891.963, 37501.53
1893.891, 37544.70
1895.819, 37548.47
1897.748, 37458.34
1899.676, 37396.73
1901.605, 37461.41
1903.533, 37569.57
1905.462, 37625.84
1907.390, 37640.26
1909.319, 37642.14
1911.247, 37626.54
1913.176, 37643.18
1915.104, 37713.29
1917.033, 37770.64
1918.961, 37786.90
1920.890, 37790.08
1922.818, 37783.18
1924.746, 37782.22
1926.675, 37814.43
1928.603, 37874.09
1930.532, 37923.20
1932.460, 37956.66
1934.389, 38003.77
1936.317, 38103.79
1938.246, 38164.37
1940.174, 38122.45
1942.103, 38093.02
1944.031, 38163.52
1945.960, 38270.07
1947.888, 38323.85
1949.817, 38332.12
1951.745, 38350.39
1953.673, 38382.24
1955.602, 38398.45
1957.530, 38374.08
1959.459, 38373.95
1961.387, 38430.85
1963.316, 38492.64
1965.244, 38550.44
1967.173, 38596.82
1969.101, 38607.30
1971.030, 38604.38
1972.958, 38664.31
1974.887, 38787.77
1976.815, 38884.43
1978.744, 38939.46
1980.672, 38977.69
1982.600, 38970.58
1984.529, 38994.35
1986.457, 39124.57
1988.386, 39255.36
1990.314, 39285.58
1992.243, 39262.14
1994.171, 39284.23
1996.100, 39351.25
1998.028, 39374.93
1999.957, 39333.59
2001.885, 39319.48
2003.814, 39370.21
2005.742, 39400.14
2007.671, 39372.45
2009.599, 39343.42
2011.527, 39323.91
2013.456, 39334.27
2015.384, 39414.95
2017.313, 39545.02
2019.241, 39644.91
2021.170, 39712.18
2023.098, 39772.29
2025.027, 39824.61
2026.955, 39872.08
2028.884, 39927.35
2030.812, 39957.13
2032.741, 39925.11
2034.669, 39894.51
2036.598, 39926.49
2038.526, 39978.08
2040.454, 39975.23
2042.383, 39936.44
2044.311, 39947.77
2046.240, 40011.61
2048.168, 40079.00
2050.097, 40146.17
2052.025, 40208.40
2053.954, 40282.08
2055.882, 40323.87
2057.811, 40301.70
2059.739, 40269.23
2061.667, 40262.36
2063.596, 40280.31
2065.525, 40327.07
2067.453, 40398.77
2069.382, 40452.76
2071.310, 40483.75
2073.239, 40551.05
2075.167, 40671.96
2077.095, 40737.32
2079.024, 40692.41
2080.952, 40639.89
2082.881, 40628.29
2084.809, 40623.68
2086.738, 40622.68
2088.666, 40617.43
2090.595, 40580.86
2092.523, 40535.27
2094.452, 40545.37
2096.380, 40611.69
2098.309, 40679.15
2100.237, 40730.39
2102.166, 40793.41
2104.094, 40879.48
2106.022, 40949.01
2107.951, 41023.09
2109.879, 41051.77
2111.808, 40989.93
2113.736, 40907.26
2115.665, 40836.79
2117.593, 40797.53
2119.522, 40848.32
2121.450, 40955.74
2123.379, 40963.06
2125.307, 40854.30
2127.236, 40836.18
2129.164, 40979.82
2131.093, 41075.57
2133.021, 41056.73
2134.949, 41049.39
2136.878, 41095.96
2138.806, 41153.54
2140.735, 41209.57
2142.663, 41246.53
2144.592, 41224.88
2146.520, 41177.23
2148.449, 41183.04
2150.377, 41236.15
2152.306, 41296.09
2154.234, 41366.95
2156.163, 41387.61
2158.091, 41334.64
2160.020, 41313.66
2161.948, 41347.01
2163.876, 41404.01
2165.805, 41498.73
2167.733, 41575.13
2169.662, 41585.07
2171.590, 41584.30
2173.519, 41634.92
2175.447, 41711.91
2177.376, 41771.23
2179.304, 41814.97
2181.233, 41847.90
2183.161, 41866.68
2185.090, 41860.13
2187.018, 41812.44
2188.947, 41802.75
2190.875, 41858.02
2192.803, 41907.85
2194.732, 41944.13
2196.660, 41964.49
2198.589, 41951.95
2200.517, 41950.58
2202.446, 41999.19
2204.374, 42067.40
2206.303, 42121.70
2208.231, 42164.02
2210.160, 42208.41
2212.088, 42250.40
2214.017, 42234.14
2215.945, 42155.13
2217.874, 42138.86
2219.802, 42202.62
2221.730, 42279.64
2223.659, 42364.20
2225.587, 42437.97
2227.516, 42491.23
2229.444, 42532.34
2231.373, 42572.22
2233.301, 42592.32
2235.230, 42564.65
2237.158, 42530.67
2239.087, 42537.86
2241.015, 42572.43
2242.944, 42604.99
2244.872, 42636.51
2246.801, 42676.88
2248.729, 42723.75
2250.657, 42764.25
2252.586, 42795.54
2254.514, 42828.57
2256.443, 42865.45
2258.371, 42902.59
2260.300, 42949.30
2262.228, 42982.43
2264.157, 42988.53
2266.085, 42990.47
2268.014, 43003.12
2269.942, 43013.15
2271.871, 43015.18
2273.799, 43008.77
2275.728, 42965.85
2277.656, 42927.80
2279.584, 42988.75
2281.513, 43124.12
2283.441, 43249.94
2285.370, 43361.66
2287.298, 43457.06
2289.227, 43544.90
2291.155, 43569.27
2293.084, 43448.18
2295.012, 43405.75
2296.941, 43506.31
2298.869, 43596.73
2300.798, 43656.94
2302.726, 43691.61
2304.655, 43702.77
2306.583, 43689.87
2308.511, 43614.13
2310.440, 43554.60
2312.368, 43612.81
2314.297, 43709.39
2316.225, 43731.36
2318.154, 43704.78
2320.082, 43679.83
2322.011, 43662.01
2323.939, 43694.45
2325.868, 43777.98
2327.796, 43861.86
2329.725, 43942.05
2331.653, 44040.04
2333.582, 44166.89
2335.510, 44245.97
2337.438, 44239.32
2339.367, 44230.53
2341.295, 44216.03
2343.224, 44240.24
2345.152, 44401.41
2347.081, 44498.77
2349.009, 44338.33
2350.938, 44196.44
2352.866, 44324.61
2354.795, 44513.84
2356.723, 44541.15
2358.652, 44505.51
2360.580, 44562.40
2362.509, 44662.57
2364.437, 44666.81
2366.365, 44598.11
2368.294, 44612.31
2370.222, 44714.14
2372.151, 44778.71
2374.079, 44799.71
2376.008, 44825.44
2377.936, 44865.45
2379.865, 44859.75
2381.793, 44772.04
2383.722, 44760.48
2385.650, 44908.96
2387.579, 45050.07
2389.507, 45126.02
2391.436, 45206.23
2393.364, 45357.32
2395.292, 45454.78
2397.221, 45372.55
2399.149, 45279.69
2401.078, 45279.57
2403.006, 45331.81
2404.935, 45451.39
2406.863, 45564.34
2408.792, 45542.58
2410.720, 45467.77
2412.649, 45508.37
2414.577, 45630.46
2416.506, 45719.54
2418.434, 45774.03
2420.363, 45779.45
2422.291, 45736.73
2424.219, 45699.47
2426.148, 45669.62
2428.076, 45696.20
2430.005, 45801.16
2431.933, 45886.02
2433.862, 45938.14
2435.790, 45987.66
2437.719, 46041.58
2439.647, 46080.83
2441.576, 46053.71
2443.504, 46105.95
2445.433, 46320.14
2447.361, 46520.13
2449.290, 46641.73
2451.218, 46714.42
2453.146, 46713.88
2455.075, 46720.83
2457.003, 46801.44
2458.932, 46896.92
2460.860, 46958.81
2462.789, 47011.14
2464.717, 47095.61
2466.646, 47173.56
2468.574, 47157.49
2470.503, 47122.53
2472.431, 47230.06
2474.360, 47409.17
2476.288, 47451.62
2478.217, 47399.17
2480.145, 47459.03
2482.073, 47617.84
2484.002, 47671.66
2485.930, 47631.60
2487.859, 47682.25
2489.787, 47828.87
2491.716, 47941.41
2493.644, 48019.96
2495.573, 48013.63
2497.501, 47852.73
2499.430, 47784.25
2501.358, 47829.48
2503.287, 47934.42
2505.215, 48136.75
2507.144, 48234.88
2509.072, 48132.65
2511.000, 48046.29
2512.929, 48003.49
2514.857, 48024.45
2516.786, 48196.15
2518.714, 48311.41
2520.643, 48268.06
2522.571, 48219.78
2524.500, 48222.48
2526.428, 48244.97
2528.357, 48262.02
2530.285, 48300.34
2532.214, 48419.05
2534.142, 48503.01
2536.071, 48408.24
2537.999, 48297.35
2539.927, 48342.31
2541.856, 48433.05
2543.784, 48468.32
2545.713, 48475.08
2547.641, 48464.43
2549.570, 48458.52
2551.498, 48486.84
2553.427, 48539.46
2555.355, 48627.54
2557.284, 48713.11
2559.212, 48678.33
2561.141, 48581.96
2563.069, 48593.54
2564.998, 48687.30
2566.926, 48789.82
2568.854, 48888.57
2570.783, 48906.13
2572.711, 48850.55
2574.640, 48842.52
2576.568, 48877.81
2578.497, 48882.81
2580.425, 48863.39
2582.354, 48910.89
2584.282, 49030.64
2586.211, 49132.32
2588.139, 49211.22
2590.068, 49276.40
2591.996, 49321.41
2593.925, 49395.69
2595.853, 49509.87
2597.781, 49545.43
2599.710, 49472.46
2601.638, 49492.69
2603.567, 49697.85
2605.495, 49741.62
2607.424, 49449.54
2609.352, 49322.14
2611.281, 49439.93
2613.209, 49501.54
2615.138, 49448.34
2617.066, 49465.86
2618.995, 49622.89
2620.923, 49774.39
2622.852, 49890.97
2624.780, 49992.36
2626.708, 50061.22
2628.637, 50139.35
2630.565, 50244.52
2632.494, 50312.63
2634.422, 50293.51
2636.351, 50320.44
2638.279, 50484.60
2640.208, 50619.90
2642.136, 50634.27
2644.065, 50703.48
2645.993, 50908.64
2647.922, 51066.84
2649.850, 51109.10
2651.779, 51116.16
2653.707, 51057.59
2655.635, 51071.47
2657.564, 51301.82
2659.492, 51464.41
2661.421, 51424.49
2663.349, 51394.27
2665.278, 51436.91
2667.206, 51526.39
2669.135, 51727.43
2671.063, 51854.82
2672.992, 51759.25
2674.920, 51681.67
2676.849, 51716.19
2678.777, 51786.85
2680.706, 51909.18
2682.634, 51983.75
2684.563, 51921.13
2686.491, 51869.23
2688.419, 51928.71
2690.348, 51971.44
2692.276, 51925.45
2694.205, 51868.70
2696.133, 51807.99
2698.062, 51771.00
2699.990, 51801.65
2701.919, 51806.77
2703.847, 51718.23
2705.776, 51635.55
2707.704, 51634.32
2709.633, 51612.11
2711.561, 51516.15
2713.490, 51422.28
2715.418, 51333.98
2717.346, 51300.91
2719.275, 51395.46
2721.203, 51458.23
2723.132, 51402.91
2725.060, 51331.78
2726.989, 51271.23
2728.917, 51228.59
2730.846, 51241.28
2732.774, 51233.70
2734.703, 51167.83
2736.631, 51103.26
2738.560, 51044.13
2740.488, 51017.13
2742.417, 51033.08
2744.345, 51068.36
2746.273, 51157.39
2748.202, 51183.54
2750.130, 51042.56
2752.059, 50950.42
2753.987, 50977.95
2755.916, 51007.45
2757.844, 51000.12
2759.773, 51002.94
2761.701, 51023.51
2763.630, 51067.02
2765.558, 51135.29
2767.487, 51232.19
2769.415, 51405.05
2771.344, 51439.93
2773.272, 51207.04
2775.200, 51036.71
2777.129, 51002.75
2779.057, 51036.07
2780.986, 51164.42
2782.914, 51262.12
2784.843, 51315.45
2786.771, 51336.87
2788.700, 51290.04
2790.628, 51336.41
2792.557, 51528.79
2794.485, 51630.74
2796.414, 51605.11
2798.342, 51682.62
2800.271, 51906.06
2802.199, 51942.36
2804.127, 51711.90
2806.056, 51571.63
2807.984, 51537.12
2809.913, 51491.64
2811.841, 51437.66
2813.770, 51389.35
2815.698, 51352.81
2817.627, 51401.61
2819.555, 51530.90
2821.484, 51581.46
2823.412, 51562.38
2825.341, 51511.72
2827.269, 51458.01
2829.198, 51545.92
2831.126, 51724.71
2833.054, 51813.00
2834.983, 51839.59
2836.911, 51905.83
2838.840, 51973.80
2840.768, 51935.75
2842.697, 51863.95
2844.625, 51910.33
2846.554, 51991.74
2848.482, 51966.53
2850.411, 51916.38
2852.339, 51967.79
2854.268, 52029.04
2856.196, 51975.29
2858.125, 51928.70
2860.053, 52011.32
2861.981, 52127.96
2863.910, 52212.68
2865.838, 52284.68
2867.767, 52326.98
2869.695, 52391.21
2871.624, 52556.43
2873.552, 52661.77
2875.481, 52596.15
2877.409, 52562.61
2879.338, 52675.73
2881.266, 52736.04
2883.195, 52642.75
2885.123, 52562.95
2887.052, 52514.22
2888.980, 52508.11
2890.908, 52541.41
2892.837, 52638.06
2894.765, 52843.55
2896.694, 52954.62
2898.622, 52939.61
2900.551, 52931.41
2902.479, 52934.25
2904.408, 52940.25
2906.336, 52950.37
2908.265, 53009.33
2910.193, 53110.63
2912.122, 53133.26
2914.050, 53101.30
2915.979, 53135.75
2917.907, 53216.43
2919.835, 53284.18
2921.764, 53342.51
2923.692, 53418.55
2925.621, 53470.09
2927.549, 53375.88
2929.478, 53266.41
2931.406, 53294.54
2933.335, 53370.02
2935.263, 53441.96
2937.192, 53482.18
2939.120, 53441.66
2941.049, 53423.66
2942.977, 53543.71
2944.906, 53614.63
2946.834, 53484.80
2948.762, 53412.80
2950.691, 53469.11
2952.619, 53550.43
2954.548, 53659.71
2956.476, 53695.83
2958.405, 53587.05
2960.333, 53549.23
2962.262, 53600.95
2964.190, 53670.87
2966.119, 53755.54
2968.047, 53824.19
2969.976, 53870.73
2971.904, 53863.61
2973.833, 53812.13
2975.761, 53801.37
2977.689, 53825.64
2979.618, 53886.21
2981.546, 53958.10
2983.475, 53989.14
2985.403, 53999.56
2987.332, 53985.55
2989.260, 54000.63
2991.189, 54124.96
2993.117, 54253.02
2995.046, 54284.90
2996.974, 54324.15
2998.903, 54429.13
3000.831, 54517.50
3002.760, 54565.71
3004.688, 54566.23
3006.616, 54485.95
3008.545, 54455.34
3010.473, 54503.96
3012.402, 54548.58
3014.330, 54579.24
3016.259, 54621.64
3018.187, 54674.50
3020.116, 54743.11
3022.044, 54815.43
3023.973, 54842.61
3025.901, 54831.66
3027.830, 54792.59
3029.758, 54754.45
3031.687, 54793.55
3033.615, 54857.48
3035.543, 54908.61
3037.472, 54925.94
3039.400, 54835.99
3041.329, 54799.28
3043.257, 54985.75
3045.186, 55099.45
3047.114, 54898.71
3049.043, 54811.72
3050.971, 55000.43
3052.900, 55169.68
3054.828, 55286.41
3056.757, 55324.36
3058.685, 55245.89
3060.614, 55337.87
3062.542, 55612.77
3064.470, 55613.77
3066.399, 55421.54
3068.327, 55328.73
3070.256, 55311.68
3072.184, 55315.88
3074.113, 55333.79
3076.041, 55329.89
3077.970, 55357.38
3079.898, 55504.05
3081.827, 55632.29
3083.755, 55636.91
3085.684, 55618.98
3087.612, 55593.93
3089.541, 55599.71
3091.469, 55673.62
3093.397, 55735.55
3095.326, 55795.45
3097.254, 55750.82
3099.183, 55603.08
3101.111, 55599.56
3103.040, 55720.23
3104.968, 55780.40
3106.897, 55794.60
3108.825, 55815.33
3110.754, 55819.54
3112.682, 55749.30
3114.611, 55683.52
3116.539, 55738.70
3118.468, 55780.84
3120.396, 55728.75
3122.324, 55669.25
3124.253, 55619.73
3126.181, 55608.71
3128.110, 55651.29
3130.038, 55654.26
3131.967, 55587.74
3133.895, 55654.14
3135.824, 55855.13
3137.752, 55888.84
3139.681, 55814.35
3141.609, 55851.10
3143.538, 55939.54
3145.466, 55998.42
3147.395, 56021.27
3149.323, 56006.04
3151.251, 55957.21
3153.180, 55849.95
3155.108, 55761.65
3157.037, 55687.94
3158.965, 55729.71
3160.894, 55948.52
3162.822, 56031.48
3164.751, 55882.31
3166.679, 55874.11
3168.608, 55992.25
3170.536, 56113.39
3172.465, 56209.10
3174.393, 56173.59
3176.322, 56095.66
3178.250, 56118.64
3180.178, 56173.10
3182.107, 56217.78
3184.035, 56252.66
3185.964, 56272.69
3187.892, 56305.52
3189.821, 56372.43
3191.749, 56391.99
3193.678, 56315.00
3195.606, 56334.53
3197.535, 56445.78
3199.463, 56438.79
3201.392, 56362.02
3203.320, 56407.77
3205.249, 56512.38
3207.177, 56588.72
3209.105, 56630.35
3211.034, 56601.43
3212.962, 56594.94
3214.891, 56732.45
3216.819, 56769.35
3218.748, 56605.86
3220.676, 56568.42
3222.605, 56751.92
3224.533, 56872.23
3226.462, 56920.90
3228.390, 56955.77
3230.319, 56957.36
3232.247, 56866.93
3234.176, 56749.34
3236.104, 56711.21
3238.032, 56694.01
3239.961, 56647.98
3241.889, 56634.79
3243.818, 56684.41
3245.746, 56759.57
3247.675, 56854.30
3249.603, 56901.69
3251.532, 56878.61
3253.460, 56969.83
3255.389, 57134.20
3257.317, 57169.45
3259.246, 57123.59
3261.174, 57024.45
3263.103, 56945.93
3265.031, 56980.93
3266.959, 57006.16
3268.888, 56916.07
3270.816, 56894.47
3272.745, 57007.16
3274.673, 57069.03
3276.602, 57069.06
3278.530, 57010.01
3280.459, 56911.89
3282.387, 56830.29
3284.316, 56801.66
3286.244, 56932.65
3288.173, 57069.94
3290.101, 57072.85
3292.030, 57034.18
3293.958, 56989.04
3295.886, 56931.26
3297.815, 56826.02
3299.743, 56832.57
3301.672, 56949.68
3303.600, 56967.47
3305.529, 56918.57
3307.457, 56937.77
3309.386, 56983.43
3311.314, 56988.36
3313.243, 56991.10
3315.171, 57054.83
3317.100, 57056.25
3319.028, 56926.48
3320.957, 56905.16
3322.885, 57061.07
3324.813, 57133.88
3326.742, 57121.67
3328.670, 57077.02
3330.599, 57046.59
3332.527, 57160.93
3334.456, 57285.27
3336.384, 57273.17
3338.313, 57228.80
3340.241, 57179.95
3342.170, 57166.45
3344.098, 57232.14
3346.027, 57196.21
3347.955, 57068.62
3349.884, 57032.17
3351.812, 57071.77
3353.740, 57172.33
3355.669, 57261.01
3357.597, 57254.36
3359.526, 57211.21
3361.454, 57100.43
3363.383, 57112.00
3365.311, 57325.68
3367.240, 57371.21
3369.168, 57201.30
3371.097, 57088.08
3373.025, 57046.15
3374.954, 57165.59
3376.882, 57322.33
3378.811, 57415.19
3380.739, 57404.56
3382.667, 57197.96
3384.596, 57103.55
3386.524, 57287.51
3388.453, 57366.81
3390.381, 57338.01
3392.310, 57295.10
3394.238, 57269.22
3396.167, 57407.54
3398.095, 57527.61
3400.024, 57378.40
3401.952, 57256.09
3403.881, 57341.58
3405.809, 57424.85
3407.738, 57477.69
3409.666, 57533.76
3411.594, 57589.86
3413.523, 57472.21
3415.451, 57306.46
3417.380, 57329.03
3419.308, 57428.82
3421.237, 57552.23
3423.165, 57626.23
3425.094, 57606.69
3427.022, 57576.23
3428.951, 57542.06
3430.879, 57487.83
3432.808, 57426.24
3434.736, 57407.52
3436.665, 57413.24
3438.593, 57404.12
3440.521, 57437.47
3442.450, 57594.86
3444.378, 57695.15
3446.307, 57697.00
3448.235, 57614.09
3450.164, 57471.77
3452.092, 57572.06
3454.021, 57763.59
3455.949, 57718.52
3457.878, 57603.39
3459.806, 57481.52
3461.735, 57477.02
3463.663, 57666.66
3465.592, 57763.36
3467.520, 57724.39
3469.448, 57682.79
3471.377, 57656.36
3473.305, 57743.88
3475.234, 57830.62
3477.162, 57815.63
3479.091, 57726.19
3481.019, 57544.77
3482.948, 57435.83
3484.876, 57445.92
3486.805, 57442.19
3488.733, 57444.21
3490.662, 57529.02
3492.590, 57622.91
3494.519, 57631.80
3496.447, 57613.84
3498.375, 57579.45
3500.304, 57546.35
3502.232, 57506.10
3504.161, 57492.91
3506.089, 57505.17
3508.018, 57541.53
3509.946, 57601.85
3511.875, 57758.47
3513.803, 57820.18
3515.732, 57632.22
3517.660, 57470.82
3519.589, 57363.33
3521.517, 57355.20
3523.446, 57428.32
3525.374, 57588.38
3527.302, 57698.72
3529.231, 57528.50
3531.159, 57410.38
3533.088, 57584.01
3535.016, 57616.58
3536.945, 57467.36
3538.873, 57530.53
3540.802, 57722.55
3542.730, 57725.68
3544.659, 57652.70
3546.587, 57581.19
3548.516, 57523.48
3550.444, 57479.18
3552.373, 57483.18
3554.301, 57545.71
3556.229, 57562.90
3558.158, 57562.50
3560.086, 57633.69
3562.015, 57673.48
3563.943, 57542.21
3565.872, 57442.94
3567.800, 57410.93
3569.729, 57486.93
3571.657, 57647.39
3573.586, 57563.66
3575.514, 57424.92
3577.443, 57559.32
3579.371, 57679.52
3581.300, 57616.13
3583.228, 57592.81
3585.156, 57666.07
3587.085, 57704.30
3589.013, 57718.70
3590.942, 57777.12
3592.870, 57809.52
3594.799, 57657.25
3596.727, 57626.29
3598.656, 57920.18
3600.584, 57963.16
3602.513, 57753.34
3604.441, 57695.23
3606.370, 57728.43
3608.298, 57774.13
3610.227, 57800.19
3612.155, 57777.29
3614.083, 57765.13
3616.012, 57782.26
3617.940, 57756.91
3619.869, 57703.13
3621.797, 57646.84
3623.726, 57614.77
3625.654, 57619.25
3627.583, 57670.68
3629.511, 57823.89
3631.440, 57855.01
3633.368, 57786.64
3635.297, 57828.90
3637.225, 57874.84
3639.154, 57675.81
3641.082, 57554.36
3643.010, 57729.93
3644.939, 57850.60
3646.867, 57888.46
3648.796, 57813.17
3650.724, 57699.09
3652.653, 57686.99
3654.581, 57719.19
3656.510, 57796.99
3658.438, 57803.81
3660.367, 57717.42
3662.295, 57672.63
3664.224, 57662.00
3666.152, 57633.51
3668.081, 57641.65
3670.009, 57787.27
3671.938, 57825.21
3673.866, 57660.11
3675.794, 57576.56
3677.723, 57573.37
3679.651, 57618.12
3681.580, 57663.84
3683.508, 57665.79
3685.437, 57661.06
3687.365, 57675.60
3689.294, 57616.46
3691.222, 57508.31
3693.151, 57532.13
3695.079, 57569.45
3697.008, 57450.78
3698.936, 57360.90
3700.865, 57401.71
3702.793, 57408.90
3704.721, 57391.71
3706.650, 57446.37
3708.578, 57525.78
3710.507, 57610.00
3712.435, 57610.60
3714.364, 57376.03
3716.292, 57374.34
3718.221, 57572.25
3720.149, 57683.82
3722.078, 57716.10
3724.006, 57675.84
3725.935, 57581.96
3727.863, 57388.86
3729.792, 57310.27
3731.720, 57348.22
3733.648, 57451.46
3735.577, 57571.74
3737.505, 57661.27
3739.434, 57697.74
3741.362, 57610.70
3743.291, 57624.46
3745.219, 57703.50
3747.148, 57638.18
3749.076, 57532.27
3751.005, 57523.66
3752.933, 57476.04
3754.862, 57256.03
3756.790, 57336.06
3758.719, 57616.83
3760.647, 57709.52
3762.575, 57695.64
3764.504, 57617.67
3766.432, 57553.75
3768.361, 57526.59
3770.289, 57544.48
3772.218, 57573.31
3774.146, 57506.20
3776.075, 57414.44
3778.003, 57313.34
3779.932, 57346.09
3781.860, 57575.82
3783.789, 57688.85
3785.717, 57703.28
3787.646, 57637.16
3789.574, 57547.96
3791.502, 57437.98
3793.431, 57428.21
3795.359, 57535.13
3797.288, 57711.17
3799.216, 57847.67
3801.145, 57735.33
3803.073, 57663.86
3805.002, 57748.13
3806.930, 57718.99
3808.859, 57583.65
3810.787, 57520.04
3812.716, 57505.36
3814.644, 57548.84
3816.573, 57579.23
3818.501, 57585.61
3820.429, 57649.03
3822.358, 57731.66
3824.286, 57688.84
3826.215, 57640.52
3828.143, 57667.84
3830.072, 57658.73
3832.000, 57605.92
3833.929, 57590.61
3835.857, 57596.34
3837.786, 57626.87
3839.714, 57615.89
3841.643, 57516.77
3843.571, 57493.83
3845.500, 57537.97
3847.428, 57580.36
3849.356, 57632.29
3851.285, 57722.02
3853.213, 57731.82
3855.142, 57637.89
3857.070, 57683.15
3858.999, 57795.65
3860.927, 57905.18
3862.856, 57900.36
3864.784, 57679.12
3866.713, 57624.83
3868.641, 57709.98
3870.570, 57674.39
3872.498, 57647.23
3874.427, 57810.71
3876.355, 57870.18
3878.283, 57745.17
3880.212, 57749.31
3882.140, 57815.37
3884.069, 57859.87
3885.997, 57857.03
3887.926, 57775.42
3889.854, 57844.38
3891.783, 58019.24
3893.711, 57944.99
3895.640, 57858.71
3897.568, 57977.42
3899.497, 58096.12
3901.425, 58144.96
3903.354, 58101.29
3905.282, 58100.24
3907.210, 58302.55
3909.139, 58374.36
3911.067, 58195.75
3912.996, 58155.67
3914.924, 58200.75
3916.853, 58150.90
3918.781, 58156.45
3920.710, 58396.74
3922.638, 58509.70
3924.567, 58451.33
3926.495, 58311.72
3928.424, 58219.75
3930.352, 58313.98
3932.281, 58379.16
3934.209, 58383.40
3936.137, 58494.60
3938.066, 58608.55
3939.994, 58581.05
3941.923, 58557.48
3943.851, 58626.38
3945.780, 58736.63
3947.708, 58774.01
3949.637, 58737.38
3951.565, 58731.20
3953.494, 58802.60
3955.422, 58831.49
3957.351, 58774.77
3959.279, 58721.18
3961.208, 58691.56
3963.136, 58752.27
3965.064, 58746.50
3966.993, 58661.63
3968.921, 58610.46
3970.850, 58616.24
3972.778, 58755.82
3974.707, 58834.77
3976.635, 58795.83
3978.564, 58879.91
3980.492, 58961.43
3982.421, 58798.38
3984.349, 58801.22
3986.278, 59039.16
3988.206, 59075.74
3990.135, 59057.48
3992.063, 59054.73
3993.991, 59064.57
3995.920, 59166.75
3997.848, 59102.97
3999.777, 58948.52
4001.705, 59077.55
4003.634, 59245.58
4005.562, 59256.05
4007.491, 59292.05
4009.419, 59312.02
4011.348, 59358.88
4013.276, 59383.54
4015.205, 59297.52
4017.133, 59220.39
4019.062, 59203.88
4020.990, 59320.86
4022.918, 59398.68
4024.847, 59345.14
4026.775, 59346.97
4028.704, 59435.14
4030.632, 59631.11
4032.561, 59781.82
4034.489, 59741.21
4036.418, 59731.81
4038.346, 59786.79
4040.275, 59769.02
4042.203, 59714.91
4044.132, 59683.42
4046.060, 59703.32
4047.989, 59772.24
4049.917, 59674.16
4051.845, 59568.02
4053.774, 59679.51
4055.702, 59753.00
4057.631, 59750.92
4059.559, 59777.29
4061.488, 59788.52
4063.416, 59752.69
4065.345, 59738.39
4067.273, 59735.20
4069.202, 59677.46
4071.130, 59655.09
4073.059, 59830.04
4074.987, 59967.09
4076.916, 60012.21
4078.844, 59874.35
4080.772, 59728.55
4082.701, 59920.25
4084.629, 60113.51
4086.558, 60219.92
4088.486, 60138.11
4090.415, 59991.30
4092.343, 60040.44
4094.272, 60093.44
4096.200, 60110.04
4098.129, 60119.66
4100.057, 60112.77
4101.986, 60163.52
4103.914, 60207.32
4105.843, 60181.22
4107.771, 60175.86
4109.700, 60228.65
4111.628, 60356.99
4113.557, 60399.97
4115.485, 60321.91
4117.414, 60309.79
4119.342, 60309.73
4121.271, 60305.37
4123.199, 60381.43
4125.127, 60464.55
4127.056, 60455.40
4128.984, 60450.47
4130.913, 60400.98
4132.841, 60361.70
4134.770, 60484.04
4136.698, 60528.93
4138.626, 60486.77
4140.555, 60591.03
4142.483, 60716.86
4144.412, 60716.33
4146.340, 60777.36
4148.269, 60881.50
4150.197, 60793.42
4152.126, 60677.91
4154.054, 60593.86
4155.983, 60611.23
4157.911, 60706.16
4159.840, 60662.18
4161.768, 60572.81
4163.697, 60552.73
4165.625, 60592.65
4167.554, 60633.10
4169.482, 60678.37
4171.411, 60733.00
4173.339, 60754.17
4175.268, 60706.57
4177.196, 60668.37
4179.125, 60654.31
4181.053, 60634.70
4182.981, 60659.33
4184.910, 60683.64
4186.838, 60784.19
4188.767, 60944.95
4190.695, 60965.10
4192.624, 60789.02
4194.552, 60820.41
4196.480, 60939.37
4198.409, 60838.43
4200.337, 60752.41
4202.266, 60771.38
4204.194, 60725.80
4206.123, 60683.87
4208.051, 60820.44
4209.980, 60879.51
4211.908, 60729.25
4213.837, 60772.89
4215.765, 60856.13
4217.694, 60761.25
4219.622, 60683.58
4221.551, 60677.20
4223.479, 60678.73
4225.408, 60701.91
4227.336, 60753.98
4229.265, 60779.88
4231.193, 60764.79
4233.122, 60697.78
4235.050, 60655.40
4236.979, 60749.06
4238.907, 60709.45
4240.835, 60555.31
4242.764, 60797.43
4244.692, 61025.68
4246.621, 60798.84
4248.549, 60739.89
4250.478, 60852.71
4252.406, 60882.55
4254.334, 60898.99
4256.263, 60929.46
4258.191, 61035.32
4260.120, 61184.63
4262.048, 61361.10
4263.977, 61362.28
4265.905, 61092.84
4267.834, 60985.43
4269.762, 61007.64
4271.691, 61166.09
4273.619, 61163.08
4275.548, 60962.28
4277.476, 60983.16
4279.405, 61080.73
4281.333, 61043.39
4283.262, 61183.92
4285.190, 61451.74
4287.119, 61457.36
4289.047, 61343.76
4290.976, 61177.58
4292.904, 61093.93
4294.833, 61097.32
4296.761, 61223.50
4298.689, 61241.23
4300.618, 61043.71
4302.546, 60979.04
4304.475, 61007.08
4306.403, 61090.27
4308.332, 61130.91
4310.260, 61099.97
4312.188, 60919.25
4314.117, 60745.57
4316.045, 60697.92
4317.974, 60813.94
4319.902, 61003.05
4321.831, 60903.50
4323.759, 60786.11
4325.688, 60787.75
4327.616, 60789.60
4329.545, 60764.41
4331.473, 60595.88
4333.402, 60606.74
4335.330, 60852.80
4337.259, 60672.48
4339.187, 60449.57
4341.116, 60557.13
4343.044, 60557.30
4344.973, 60472.22
4346.901, 60528.68
4348.830, 60545.69
4350.758, 60430.39
4352.687, 60426.53
4354.615, 60484.69
4356.543, 60568.70
4358.472, 60538.68
4360.400, 60386.79
4362.329, 60367.04
4364.257, 60306.34
4366.186, 60085.03
4368.114, 59971.38
4370.042, 59956.82
4371.971, 60004.89
4373.899, 60002.84
4375.828, 59925.96
4377.756, 59978.61
4379.685, 60024.79
4381.613, 59912.57
4383.542, 59861.18
4385.470, 59876.89
4387.399, 59919.34
4389.327, 59901.61
4391.256, 59778.90
4393.184, 59686.39
4395.113, 59629.55
4397.041, 59644.21
4398.970, 59587.06
4400.898, 59466.19
4402.827, 59454.74
4404.755, 59467.44
4406.684, 59459.56
4408.612, 59440.96
4410.541, 59405.70
4412.469, 59330.08
4414.397, 59285.45
4416.326, 59279.94
4418.254, 59219.59
4420.183, 59187.84
4422.111, 59241.46
4424.040, 59231.74
4425.968, 59177.50
4427.896, 59148.60
4429.825, 59009.71
4431.753, 58781.09
4433.682, 58784.17
4435.610, 58859.18
4437.539, 58919.52
4439.467, 58894.71
4441.396, 58825.27
4443.324, 58779.13
4445.253, 58762.61
4447.181, 58768.05
4449.110, 58658.73
4451.038, 58570.48
4452.967, 58595.55
4454.895, 58609.66
4456.824, 58648.11
4458.752, 58827.00
4460.681, 58913.53
4462.609, 58882.00
4464.538, 58818.36
4466.466, 58808.74
4468.395, 58903.70
4470.323, 58791.17
4472.251, 58664.68
4474.180, 58883.01
4476.108, 58926.17
4478.037, 58761.32
4479.965, 58571.13
4481.894, 58495.00
4483.822, 58667.19
4485.750, 58561.07
4487.679, 58398.21
4489.607, 58396.01
4491.536, 58520.87
4493.464, 58666.38
4495.393, 58469.27
4497.321, 58333.52
4499.250, 58350.58
4501.178, 58192.71
4503.107, 58066.85
4505.035, 58169.70
4506.964, 58098.70
4508.892, 57890.42
4510.821, 57570.59
4512.749, 57491.75
4514.678, 57662.94
4516.606, 57603.41
4518.535, 57513.84
4520.463, 57472.39
4522.392, 57674.45
4524.320, 57805.47
4526.249, 57470.60
4528.177, 57310.64
4530.105, 57307.64
4532.034, 57195.18
4533.962, 57099.93
4535.891, 57058.46
4537.819, 57100.31
4539.748, 57135.56
4541.676, 57096.14
4543.604, 57057.29
4545.533, 57012.89
4547.461, 56944.21
4549.390, 56900.43
4551.318, 56877.79
4553.247, 56839.94
4555.175, 56797.52
4557.104, 56757.22
4559.032, 56712.71
4560.961, 56700.77
4562.889, 56770.75
4564.818, 56790.19
4566.746, 56775.58
4568.675, 56739.20
4570.603, 56726.42
4572.532, 56722.13
4574.460, 56628.04
4576.389, 56636.84
4578.317, 56768.62
4580.246, 56645.16
4582.174, 56476.83
4584.103, 56404.05
4586.031, 56347.33
4587.959, 56330.17
4589.888, 56420.14
4591.816, 56409.91
4593.745, 56325.34
4595.673, 56315.18
4597.602, 56252.04
4599.530, 56135.89
4601.458, 56172.39
4603.387, 56123.87
4605.315, 55837.78
4607.244, 55987.82
4609.172, 56212.86
4611.101, 56143.87
4613.029, 56135.73
4614.958, 56136.66
4616.886, 56023.67
4618.815, 55839.48
4620.743, 55646.95
4622.672, 55637.86
4624.600, 55606.93
4626.529, 55492.94
4628.457, 55383.45
4630.386, 55342.02
4632.314, 55417.39
4634.243, 55382.82
4636.171, 55332.78
4638.100, 55376.32
4640.028, 55271.27
4641.957, 55145.40
4643.885, 55304.04
4645.813, 55310.46
4647.742, 55174.96
4649.670, 55236.48
4651.599, 55163.43
4653.527, 54911.52
4655.456, 54883.43
4657.384, 54904.69
4659.313, 54891.82
4661.241, 54867.71
4663.169, 54813.73
4665.098, 54707.42
4667.026, 54597.60
4668.955, 54512.01
4670.883, 54496.12
4672.812, 54400.11
4674.740, 54293.93
4676.669, 54404.18
4678.597, 54462.97
4680.526, 54429.21
4682.454, 54308.87
4684.383, 54259.88
4686.311, 54312.61
4688.240, 54252.56
4690.168, 54279.04
4692.097, 54473.69
4694.025, 54281.97
4695.954, 54046.95
4697.882, 54101.56
4699.811, 53982.82
4701.739, 53815.98
4703.667, 53733.60
4705.596, 53750.08
4707.524, 53862.32
4709.453, 54199.80
4711.381, 54094.28
4713.310, 53698.43
4715.238, 53720.45
4717.167, 53716.53
4719.095, 53631.74
4721.023, 53757.37
4722.952, 53736.70
4724.880, 53499.10
4726.809, 53396.74
4728.737, 53371.48
4730.666, 53404.79
4732.594, 53303.49
4734.523, 53236.18
4736.451, 53299.02
4738.380, 53317.85
4740.308, 53282.30
4742.237, 53172.50
4744.165, 53053.50
4746.094, 53005.31
4748.022, 53167.84
4749.951, 53112.68
4751.879, 52919.42
4753.808, 52699.38
4755.736, 52796.79
4757.665, 53027.50
4759.593, 52810.45
4761.521, 52718.96
4763.450, 52774.28
4765.378, 52728.89
4767.307, 52639.88
4769.235, 52526.88
4771.164, 52374.07
4773.092, 52318.18
4775.021, 52391.25
4776.949, 52589.41
4778.877, 52594.01
4780.806, 52313.20
4782.734, 52172.23
4784.663, 52123.89
4786.591, 52142.07
4788.520, 52314.18
4790.448, 52313.89
4792.377, 51965.01
4794.305, 51967.44
4796.234, 52048.57
4798.162, 51976.41
4800.091, 51947.62
4802.019, 51972.39
4803.948, 52068.33
4805.876, 51993.14
4807.805, 51873.46
4809.733, 51860.86
4811.662, 51863.15
4813.590, 51865.01
4815.519, 51876.98
4817.447, 51708.80
4819.375, 51500.30
4821.304, 51497.55
4823.232, 51411.56
4825.161, 51324.14
4827.089, 51421.00
4829.018, 51426.32
4830.946, 51381.30
4832.875, 51454.85
4834.803, 51395.84
4836.731, 51273.69
4838.660, 51312.32
4840.588, 51230.93
4842.517, 51066.79
4844.445, 50950.17
4846.374, 50990.90
4848.302, 51092.66
4850.231, 50976.32
4852.159, 50837.09
4854.088, 50754.75
4856.016, 50877.48
4857.945, 50890.99
4859.873, 50808.49
4861.802, 50843.50
4863.730, 50784.64
4865.659, 50637.31
4867.587, 50488.14
4869.516, 50521.57
4871.444, 50645.56
4873.373, 50407.71
4875.301, 50393.15
4877.229, 50552.11
4879.158, 50391.89
4881.086, 50211.07
4883.015, 50067.00
4884.943, 49951.46
4886.872, 49916.44
4888.800, 49950.72
4890.729, 50033.20
4892.657, 50036.11
4894.585, 49993.19
4896.514, 50075.13
4898.442, 50063.05
4900.371, 49944.57
4902.299, 49743.57
4904.228, 49705.46
4906.156, 49756.73
4908.085, 49636.90
4910.013, 49590.20
4911.942, 49578.91
4913.870, 49399.96
4915.799, 49432.55
4917.727, 49515.44
4919.656, 49143.82
4921.584, 49179.95
4923.513, 49413.98
4925.441, 49321.80
4927.370, 49354.83
4929.298, 49398.48
4931.227, 49139.89
4933.155, 48998.09
4935.083, 48932.24
4937.012, 48840.46
4938.940, 48908.39
4940.869, 48961.07
4942.797, 48746.43
4944.726, 48812.25
4946.654, 48931.39
4948.583, 48863.54
4950.511, 48751.16
4952.439, 48651.44
4954.368, 48607.51
4956.296, 48477.32
4958.225, 48368.33
4960.153, 48360.89
4962.082, 48380.94
4964.010, 48371.36
4965.939, 48314.70
4967.867, 48464.77
4969.796, 48485.07
4971.724, 48235.16
4973.653, 48094.22
4975.581, 48104.50
4977.510, 48224.86
4979.438, 48102.00
4981.367, 47891.93
4983.295, 47694.14
4985.224, 47770.52
4987.152, 47848.40
4989.081, 47850.74
4991.009, 47717.08
4992.938, 47563.50
4994.866, 47460.32
4996.794, 47529.66
4998.723, 47567.98
5000.651, 47532.05
5002.580, 47385.88
5004.508, 47248.50
5006.437, 47131.52
5008.365, 47025.84
5010.293, 47003.51
5012.222, 47004.38
5014.150, 46983.50
5016.079, 46950.15
5018.007, 46813.29
5019.936, 46553.23
5021.864, 46622.88
5023.793, 46812.50
5025.721, 46994.13
5027.650, 46770.09
5029.578, 46675.84
5031.507, 46784.45
5033.435, 46680.29
5035.364, 46578.80
5037.292, 46530.55
5039.221, 46602.15
5041.149, 46454.09
5043.078, 46252.57
5045.006, 46358.57
5046.935, 46304.31
5048.863, 46198.88
5050.792, 46230.84
5052.720, 46141.77
5054.648, 45986.35
5056.577, 45802.10
5058.505, 45831.64
5060.434, 45841.13
5062.362, 45736.69
5064.291, 45636.98
5066.219, 45551.94
5068.147, 45492.31
5070.076, 45521.03
5072.004, 45525.32
5073.933, 45468.57
5075.861, 45289.43
5077.790, 45263.64
5079.718, 45303.67
5081.647, 45241.68
5083.575, 45193.09
5085.504, 45171.75
5087.432, 45182.17
5089.361, 45217.87
5091.289, 45180.73
5093.218, 45044.33
5095.146, 45015.95
5097.075, 44964.92
5099.003, 44873.87
5100.932, 44878.70
5102.860, 44759.96
5104.789, 44634.44
5106.717, 44900.26
5108.646, 44746.80
5110.574, 44521.14
5112.502, 44757.02
5114.431, 44720.91
5116.359, 44596.78
5118.288, 44511.91
5120.216, 44464.15
5122.145, 44438.64
5124.073, 44422.89
5126.001, 44376.85
5127.930, 44236.97
5129.858, 44105.62
5131.787, 44293.08
5133.715, 44104.39
5135.644, 43905.43
5137.572, 44255.61
5139.501, 44351.27
5141.429, 44277.50
5143.358, 44107.36
5145.286, 44056.61
5147.215, 44002.15
5149.143, 43914.00
5151.072, 43853.07
5153.000, 43751.07
5154.929, 43643.24
5156.857, 43602.63
5158.786, 43641.18
5160.714, 43684.94
5162.643, 43664.68
5164.571, 43639.19
5166.500, 43562.72
5168.428, 43444.91
5170.356, 43615.43
5172.285, 43549.92
5174.213, 43306.04
5176.142, 43413.31
5178.070, 43376.30
5179.999, 43285.54
5181.927, 43319.45
5183.855, 43342.69
5185.784, 43272.31
5187.712, 43076.42
5189.641, 43180.29
5191.569, 43149.29
5193.498, 42955.94
5195.426, 42875.22
5197.355, 42905.66
5199.283, 42993.36
5201.212, 43110.08
5203.140, 42973.34
5205.069, 42787.77
5206.997, 42682.25
5208.926, 42731.47
5210.854, 42710.15
5212.783, 42590.57
5214.711, 42420.29
5216.640, 42374.40
5218.568, 42397.98
5220.497, 42398.25
5222.425, 42490.62
5224.354, 42489.25
5226.282, 42330.83
5228.210, 42259.11
5230.139, 42160.30
5232.067, 42058.88
5233.996, 42086.74
5235.924, 42087.34
5237.853, 42064.82
5239.781, 42039.38
5241.709, 41871.66
5243.638, 41880.90
5245.566, 42065.55
5247.495, 41846.69
5249.423, 41688.17
5251.352, 41621.71
5253.280, 41598.13
5255.209, 41372.13
5257.137, 41266.80
5259.066, 41446.27
5260.994, 41450.26
5262.923, 41336.10
5264.851, 41207.75
5266.780, 41278.14
5268.708, 41289.30
5270.637, 41266.33
5272.565, 41263.10
5274.494, 41145.32
5276.422, 41075.89
5278.351, 41080.55
5280.279, 41009.80
5282.208, 41016.70
5284.136, 41020.07
5286.064, 40869.58
5287.993, 40828.47
5289.921, 40801.77
5291.850, 40744.52
5293.778, 40700.75
5295.707, 40607.60
5297.635, 40521.43
5299.563, 40564.86
5301.492, 40460.26
5303.420, 40382.95
5305.349, 40431.65
5307.277, 40332.64
5309.206, 40275.51
5311.134, 40296.66
5313.063, 40394.86
5314.991, 40274.25
5316.920, 40117.03
5318.848, 40064.10
5320.777, 40190.68
5322.705, 40145.05
5324.634, 39939.09
5326.562, 39767.64
5328.491, 39702.92
5330.419, 39677.57
5332.348, 39642.85
5334.276, 39651.60
5336.205, 39630.04
5338.133, 39586.69
5340.062, 39603.79
5341.990, 39490.00
5343.918, 39404.98
5345.847, 39439.86
5347.775, 39278.10
5349.704, 39106.09
5351.632, 39023.44
5353.561, 39157.72
5355.489, 39062.00
5357.417, 38956.85
5359.346, 38976.03
5361.274, 38797.47
5363.203, 38697.48
5365.131, 38699.81
5367.060, 38749.71
5368.988, 38768.63
5370.917, 38720.08
5372.845, 38615.46
5374.774, 38582.47
5376.702, 38469.53
5378.631, 38414.75
5380.559, 38693.27
5382.488, 38548.57
5384.416, 38422.43
5386.345, 38403.74
5388.273, 38140.94
5390.202, 38269.77
5392.130, 38396.91
5394.059, 38133.22
5395.987, 38175.38
5397.916, 38126.27
5399.844, 37944.23
5401.772, 37796.95
5403.701, 37786.91
5405.629, 37844.42
5407.558, 37892.47
5409.486, 37735.84
5411.415, 37627.52
5413.343, 37565.62
5415.271, 37486.63
5417.200, 37462.90
5419.128, 37444.11
5421.057, 37412.66
5422.985, 37404.85
5424.914, 37198.77
5426.842, 37036.47
5428.771, 37107.59
5430.699, 37266.96
5432.628, 37186.41
5434.556, 36999.81
5436.485, 37093.09
5438.413, 36924.15
5440.342, 36761.05
5442.270, 36718.91
5444.199, 36700.31
5446.127, 36679.11
5448.056, 36694.98
5449.984, 36760.60
5451.913, 36566.41
5453.841, 36538.70
5455.770, 36592.07
5457.698, 36346.18
5459.626, 36459.90
5461.555, 36415.07
5463.483, 36111.59
5465.412, 36146.30
5467.340, 36192.30
5469.269, 36173.85
5471.197, 36080.89
5473.125, 36007.80
5475.054, 35873.31
5476.982, 35768.50
5478.911, 35853.34
5480.839, 35737.06
5482.768, 35603.66
5484.696, 35545.79
5486.625, 35619.94
5488.553, 35693.19
5490.482, 35625.06
5492.410, 35416.28
5494.339, 35494.98
5496.267, 35382.59
5498.196, 35227.36
5500.124, 35229.06
5502.053, 35245.53
5503.981, 35247.16
5505.910, 35242.53
5507.838, 35294.38
5509.767, 35038.53
5511.695, 34852.96
5513.624, 34846.35
5515.552, 34920.07
5517.480, 34927.00
5519.409, 34898.45
5521.337, 34857.19
5523.266, 34781.74
5525.194, 34634.43
5527.123, 34513.98
5529.051, 34494.73
5530.979, 34368.31
5532.908, 34214.66
5534.836, 34133.34
5536.765, 34209.69
5538.693, 34208.18
5540.622, 34205.17
5542.550, 34207.17
5544.479, 34187.82
5546.407, 34082.36
5548.336, 33985.39
5550.264, 33938.78
5552.193, 33940.87
5554.121, 33982.96
5556.050, 33977.45
5557.978, 33891.88
5559.907, 33757.89
5561.835, 33717.91
5563.764, 33728.80
5565.692, 33736.60
5567.621, 33662.34
5569.549, 33644.76
5571.478, 33617.79
5573.406, 33519.49
5575.334, 33482.25
5577.263, 33434.55
5579.191, 33385.09
5581.120, 33361.03
5583.048, 33283.66
5584.977, 33235.28
5586.905, 33177.04
5588.833, 33045.26
5590.762, 33164.82
5592.690, 33171.88
5594.619, 33051.76
5596.547, 32935.44
5598.476, 33056.15
5600.404, 32890.01
5602.333, 32578.58
5604.261, 32814.61
5606.190, 32705.46
5608.118, 32681.24
5610.047, 32724.95
5611.975, 32403.39
5613.904, 32521.44
5615.832, 32524.43
5617.761, 32342.79
5619.689, 32395.26
5621.618, 32259.68
5623.546, 32185.34
5625.475, 32213.75
5627.403, 32079.19
5629.332, 32124.04
5631.260, 32103.21
5633.188, 31947.77
5635.117, 31780.23
5637.045, 31865.17
5638.974, 31910.10
5640.902, 31813.44
5642.831, 31683.98
5644.759, 31649.50
5646.688, 31619.12
5648.616, 31590.42
5650.544, 31714.36
5652.473, 31587.47
5654.401, 31528.46
5656.330, 31589.54
5658.258, 31399.24
5660.187, 31368.96
5662.115, 31373.85
5664.044, 31355.15
5665.972, 31357.68
5667.901, 31299.43
5669.829, 31157.50
5671.758, 31032.35
5673.686, 31152.67
5675.615, 30952.03
5677.543, 30786.33
5679.472, 30768.21
5681.400, 30811.37
5683.329, 30746.79
5685.257, 30676.29
5687.186, 30665.38
5689.114, 30772.66
5691.042, 30664.70
5692.971, 30647.42
5694.899, 30661.92
5696.828, 30468.80
5698.756, 30359.46
5700.685, 30320.74
5702.613, 30300.22
5704.542, 30252.20
5706.470, 30306.76
5708.398, 30200.26
5710.327, 30051.32
5712.255, 30010.89
5714.184, 29990.57
5716.112, 30028.21
5718.041, 30053.21
5719.969, 30000.74
5721.898, 29742.46
5723.826, 29828.88
5725.755, 29932.96
5727.683, 29824.14
5729.612, 29438.53
5731.540, 29523.35
5733.469, 29616.63
5735.397, 29547.96
5737.326, 29519.69
5739.254, 29329.61
5741.183, 29262.61
5743.111, 29293.16
5745.040, 29222.36
5746.968, 29352.17
5748.896, 29269.52
5750.825, 29116.08
5752.753, 29149.49
5754.682, 28981.30
5756.610, 28825.22
5758.539, 28757.37
5760.467, 28790.16
5762.396, 28910.71
5764.324, 28761.21
5766.252, 28677.53
5768.181, 28764.63
5770.109, 28662.37
5772.038, 28640.54
5773.966, 28689.55
5775.895, 28736.17
5777.823, 28683.81
5779.752, 28378.37
5781.680, 28360.34
5783.609, 28466.03
5785.537, 28378.62
5787.466, 28276.59
5789.394, 28197.11
5791.323, 28149.89
5793.251, 28120.64
5795.180, 28024.92
5797.108, 27980.66
5799.037, 27866.50
5800.965, 27732.09
5802.894, 27865.28
5804.822, 27833.53
5806.750, 27851.08
5808.679, 27843.02
5810.607, 27641.70
5812.536, 27530.22
5814.464, 27521.08
5816.393, 27550.04
5818.321, 27535.87
5820.250, 27332.86
5822.178, 27455.07
5824.106, 27437.33
5826.035, 27261.16
5827.963, 27283.96
5829.892, 27135.86
5831.820, 27074.64
5833.749, 27088.58
5835.677, 27096.04
5837.606, 27107.81
5839.534, 27101.47
5841.463, 26891.68
5843.391, 26570.90
5845.320, 26712.06
5847.248, 26667.87
5849.177, 26680.88
5851.105, 26696.13
5853.034, 26543.72
5854.962, 26638.85
5856.891, 26503.91
5858.819, 26417.16
5860.748, 26502.62
5862.676, 26437.81
5864.604, 26418.60
5866.533, 26268.03
5868.461, 26133.75
5870.390, 26245.16
5872.318, 26223.17
5874.247, 26120.27
5876.175, 26045.90
5878.104, 26031.39
5880.032, 25979.70
5881.960, 25943.26
5883.889, 25919.30
5885.817, 25880.67
5887.746, 25809.70
5889.674, 25839.66
5891.603, 25813.02
5893.531, 25754.48
5895.460, 25711.74
5897.388, 25760.44
5899.317, 25590.95
5901.245, 25536.16
5903.174, 25502.40
5905.102, 25314.35
5907.031, 25375.03
5908.959, 25241.77
5910.888, 25189.45
5912.816, 25256.12
5914.745, 25205.24
5916.673, 25115.87
5918.602, 25188.47
5920.530, 25254.15
5922.458, 25147.03
5924.387, 24895.96
5926.315, 24859.24
5928.244, 24943.28
5930.172, 24929.49
5932.101, 24683.12
5934.029, 24761.99
5935.958, 24696.49
5937.886, 24598.53
5939.814, 24576.65
5941.743, 24623.83
5943.671, 24437.46
5945.600, 24392.17
5947.528, 24419.99
5949.457, 24403.35
5951.385, 24375.49
5953.314, 24371.29
5955.242, 24280.94
5957.171, 24180.50
5959.099, 24174.62
5961.028, 24090.59
5962.956, 23967.87
5964.885, 23976.94
5966.813, 23970.15
5968.742, 23541.37
5970.670, 23678.02
5972.599, 23793.08
5974.527, 23799.21
5976.456, 23770.50
5978.384, 23852.76
5980.313, 23748.91
5982.241, 23609.30
5984.169, 23586.79
5986.098, 23673.83
5988.026, 23568.44
5989.955, 23553.61
5991.883, 23521.16
5993.812, 23399.21
5995.740, 23242.41
5997.668, 23473.08
5999.597, 23364.15
6001.525, 23356.60
6003.454, 23417.88
6005.382, 23301.83
6007.311, 22979.23
6009.239, 23124.79
6011.168, 23200.08
6013.096, 23093.29
6015.025, 22996.18
6016.953, 22923.36
6018.882, 22870.13
6020.810, 22833.04
6022.739, 22796.22
6024.667, 22747.78
6026.596, 22767.96
6028.524, 22773.25
6030.453, 22690.39
6032.381, 22571.66
6034.310, 22525.95
6036.238, 22419.14
6038.167, 22455.03
6040.095, 22422.61
6042.023, 22344.10
6043.952, 22419.90
6045.880, 22379.93
6047.809, 22251.58
6049.737, 22133.77
6051.666, 22104.68
6053.594, 22188.71
6055.522, 22179.93
6057.451, 22103.47
6059.379, 22052.43
6061.308, 22002.75
6063.236, 21867.90
6065.165, 21799.50
6067.093, 21837.56
6069.022, 21736.91
6070.950, 21588.11
6072.879, 21635.46
6074.807, 21480.68
6076.736, 21534.73
6078.664, 21567.03
6080.593, 21515.36
6082.521, 21457.49
6084.450, 21440.39
6086.378, 21388.53
6088.307, 21401.29
6090.235, 21371.83
6092.164, 21201.24
6094.092, 21130.57
6096.021, 21086.94
6097.949, 21091.51
6099.877, 21065.29
6101.806, 20975.19
6103.734, 20963.38
6105.663, 20908.55
6107.591, 20900.76
6109.520, 20862.08
6111.448, 20780.44
6113.376, 20808.27
6115.305, 20753.35
6117.233, 20663.07
6119.162, 20595.88
6121.090, 20570.91
6123.019, 20580.05
6124.947, 20493.67
6126.876, 20465.74
6128.804, 20411.27
6130.733, 20311.05
6132.661, 20216.10
6134.590, 20313.70
6136.518, 20258.74
6138.447, 20151.78
6140.375, 20065.06
6142.304, 20010.89
6144.232, 19954.61
6146.161, 19940.88
6148.089, 19937.53
6150.018, 19906.53
6151.946, 19859.47
6153.875, 19843.61
6155.803, 19942.01
6157.731, 19763.89
6159.660, 19712.25
6161.588, 19710.70
6163.517, 19551.09
6165.445, 19494.33
6167.374, 19493.72
6169.302, 19447.55
6171.230, 19512.10
6173.159, 19635.80
6175.087, 19455.21
6177.016, 19358.56
6178.944, 19366.49
6180.873, 19389.28
6182.801, 19313.39
6184.730, 19123.47
6186.658, 19206.27
6188.587, 19095.51
6190.515, 19057.42
6192.444, 19069.04
6194.372, 19040.06
6196.301, 18938.63
6198.229, 19037.30
6200.158, 18928.97
6202.086, 18914.27
6204.015, 18910.84
6205.943, 18774.64
6207.872, 18848.46
6209.800, 18819.81
6211.729, 18781.16
6213.657, 18753.99
6215.585, 18673.52
6217.514, 18495.64
6219.442, 18555.89
6221.371, 18671.94
6223.299, 18617.78
6225.228, 18464.33
6227.156, 18359.19
6229.084, 18378.92
6231.013, 18410.22
6232.941, 18345.28
6234.870, 18268.69
6236.798, 18192.08
6238.727, 18084.91
6240.655, 17951.52
6242.584, 18148.54
6244.512, 17905.60
6246.441, 17913.92
6248.369, 18104.46
6250.298, 17943.30
6252.226, 17932.79
6254.155, 17867.46
6256.083, 17845.08
6258.012, 17747.91
6259.940, 17655.73
6261.869, 17764.44
6263.797, 17725.23
6265.726, 17618.16
6267.654, 17646.81
6269.583, 17622.81
6271.511, 17511.43
6273.439, 17537.28
6275.368, 17624.26
6277.296, 17542.17
6279.225, 17438.95
6281.153, 17402.82
6283.082, 17419.59
6285.010, 17416.79
6286.938, 17284.12
6288.867, 17206.46
6290.795, 17107.12
6292.724, 17147.40
6294.652, 17309.08
6296.581, 17280.04
6298.509, 17082.71
6300.438, 17133.08
6302.366, 17110.85
6304.295, 17048.82
6306.223, 17017.54
6308.152, 16940.20
6310.080, 16945.05
6312.009, 16904.30
6313.937, 16898.76
6315.866, 16838.62
6317.794, 16771.30
6319.723, 16859.90
6321.651, 16792.45
6323.580, 16719.54
6325.508, 16645.14
6327.437, 16668.01
6329.365, 16717.42
6331.293, 16658.04
6333.222, 16681.80
6335.150, 16543.35
6337.079, 16426.07
6339.007, 16405.84
6340.936, 16447.99
6342.864, 16462.88
6344.792, 16349.04
6346.721, 16272.37
6348.649, 16269.76
6350.578, 16301.50
6352.506, 16250.26
6354.435, 16123.69
6356.363, 16134.53
6358.292, 16130.63
6360.220, 16056.83
6362.149, 16029.32
6364.077, 15988.22
6366.006, 15957.13
6367.934, 16052.34
6369.863, 16026.24
6371.791, 15867.32
6373.720, 15834.57
6375.648, 15842.21
6377.577, 15857.18
6379.505, 15853.64
6381.434, 15642.13
6383.362, 15534.10
6385.291, 15775.17
6387.219, 15798.11
6389.147, 15678.69
6391.076, 15617.91
6393.004, 15594.80
6394.933, 15554.85
6396.861, 15446.99
6398.790, 15403.30
6400.718, 15396.67
6402.646, 15397.41
6404.575, 15400.05
6406.503, 15387.10
6408.432, 15275.42
6410.360, 15258.45
6412.289, 15384.89
6414.217, 15354.30
6416.146, 15222.95
6418.074, 15240.14
6420.003, 15120.90
6421.931, 15038.89
6423.860, 14996.90
6425.788, 15021.02
6427.717, 15014.20
6429.645, 14934.79
6431.574, 14849.70
6433.502, 14781.70
6435.431, 14921.48
6437.359, 14946.22
6439.288, 14876.99
6441.216, 14824.52
6443.145, 14794.81
6445.073, 14706.31
6447.001, 14641.55
6448.930, 14709.66
6450.858, 14662.77
6452.787, 14530.08
6454.715, 14476.24
6456.644, 14502.12
6458.572, 14404.03
6460.500, 14493.07
6462.429, 14513.06
6464.357, 14416.10
6466.286, 14400.52
6468.214, 14357.06
6470.143, 14222.04
6472.071, 14196.93
6474.000, 14212.52
6475.928, 14339.79
6477.857, 14187.38
6479.785, 14162.55
6481.714, 14154.36
6483.642, 14062.64
6485.571, 14116.16
6487.499, 14120.98
6489.428, 13971.95
6491.356, 13943.71
6493.285, 13985.44
6495.213, 13888.69
6497.142, 13805.12
6499.070, 13976.94
6500.999, 13732.74
6502.927, 13866.90
6504.855, 13839.03
6506.784, 13839.32
6508.712, 13841.53
6510.641, 13794.41
6512.569, 13718.80
6514.498, 13629.70
6516.426, 13576.22
6518.354, 13601.56
6520.283, 13631.88
6522.211, 13523.52
6524.140, 13478.63
6526.068, 13538.47
6527.997, 13442.08
6529.925, 13350.01
6531.854, 13342.98
6533.782, 13376.67
6535.711, 13364.00
6537.639, 13378.94
6539.568, 13358.91
6541.496, 13238.99
6543.425, 13173.81
6545.353, 13209.19
6547.282, 13198.75
6549.210, 13088.61
6551.139, 13107.17
6553.067, 13129.14
6554.996, 13091.57
6556.924, 13074.08
6558.853, 12941.20
6560.781, 12931.83
6562.709, 12985.64
6564.638, 12928.31
6566.566, 12782.69
6568.495, 12788.04
6570.423, 12876.00
6572.352, 12793.41
6574.280, 12916.14
6576.208, 12934.98
6578.137, 12829.23
6580.065, 12656.69
6581.994, 12695.56
6583.922, 12768.35
6585.851, 12711.75
6587.779, 12655.92
6589.708, 12617.55
6591.636, 12677.80
6593.565, 12481.16
6595.493, 12380.93
6597.422, 12494.08
6599.350, 12512.80
6601.279, 12395.51
6603.207, 12390.29
6605.136, 12391.44
6607.064, 12374.46
6608.993, 12364.60
6610.921, 12353.90
6612.850, 12264.03
6614.778, 12232.60
6616.707, 12241.77
6618.635, 12164.43
6620.563, 12074.54
6622.492, 12183.80
6624.420, 12130.97
6626.349, 12125.53
6628.277, 12181.18
6630.206, 12136.05
##END=



