##NAMES=Polylithionite
##RRUFFID=R060225
##IDEAL CHEMISTRY=KLi_2_AlSi_4_O_10_F_2_
##LOCALITY=Mont Saint-Hilaire, Rouville County, Quebec, Canada
##OWNER=RRUFF
##SOURCE=Royal Ontario Museum
##DESCRIPTION=Tan colored hexagonal shaped mica
##STATUS=The identification of this mineral is confirmed by single-crystal X-ray diffraction and chemical analysis
##URL=https://www.rruff.net/odr/rruff_sample/R060225
##MEASURED CHEMISTRY=(K_0.95_[box]_0.05_)(Li_1.95_Mg_0.04_Mn_0.01_)(Al_0.97_Fe^3+^_0.03_)Si_4.00_O_10_(F_1.40_(OH)_0.60_)
##DIFFRACTION SAMPLE DESCRIPTION=Powder
##CELL PARAMETERS=a: 5.1962 b: 8.97 c: 10.0561 alpha: 90 beta: 100.449 gamma: 90 volume: 460.93 crystal system: monoclinic
##FILETYPE=Raman RAW
##RAMAN WAVELENGTH=780

82.56664, 3855.651
84.49510, 3299.545
86.42357, 2773.280
88.35204, 2295.920
90.28050, 1864.984
92.20897, 1413.376
94.13744, 1068.471
96.06590, 822.3028
97.99437, 656.2898
99.92284, 538.0634
101.8513, 461.5297
103.7798, 412.0808
105.7082, 372.5204
107.6367, 341.6839
109.5652, 316.6333
111.4936, 296.8606
113.4221, 279.7948
115.3506, 264.0368
117.2790, 249.8180
119.2075, 237.8433
121.1360, 228.3795
123.0644, 219.7118
124.9929, 211.4698
126.9214, 203.9441
128.8498, 197.3653
130.7783, 191.4789
132.7068, 185.9561
134.6352, 180.5985
136.5637, 176.1998
138.4922, 172.7487
140.4206, 170.1324
142.3491, 168.3894
144.2776, 167.4576
146.2060, 167.4734
148.1345, 168.9173
150.0630, 169.5945
151.9914, 169.1689
153.9199, 168.5342
155.8484, 167.8351
157.7768, 167.1850
159.7053, 166.7116
161.6338, 166.4283
163.5622, 166.3335
165.4907, 166.5038
167.4192, 166.6897
169.3476, 166.9073
171.2761, 167.0313
173.2046, 167.0934
175.1330, 167.0927
177.0615, 166.3130
178.9900, 164.7285
180.9184, 162.6169
182.8469, 159.9007
184.7754, 156.7788
186.7038, 153.1042
188.6323, 149.1333
190.5608, 146.0279
192.4892, 143.8741
194.4177, 142.1003
196.3462, 140.4072
198.2746, 139.4492
200.2031, 139.7066
202.1316, 140.7447
204.0600, 141.6682
205.9885, 142.4003
207.9170, 144.0524
209.8454, 147.0646
211.7739, 150.1855
213.7024, 153.5398
215.6308, 156.2791
217.5593, 157.3202
219.4878, 156.7590
221.4162, 156.2471
223.3447, 155.6684
225.2732, 155.5301
227.2016, 155.7917
229.1301, 156.8205
231.0586, 159.4553
232.9870, 162.8579
234.9155, 164.8558
236.8440, 165.5311
238.7724, 166.2231
240.7009, 167.8243
242.6294, 168.1536
244.5578, 165.9322
246.4863, 162.5998
248.4148, 159.6101
250.3432, 156.8631
252.2717, 153.8288
254.2002, 150.1145
256.1286, 147.5684
258.0571, 147.3902
259.9856, 147.6387
261.9140, 147.3872
263.8425, 146.9266
265.7710, 146.6724
267.6994, 146.6149
269.6279, 146.9627
271.5564, 148.2919
273.4848, 149.0651
275.4133, 148.3763
277.3418, 147.4898
279.2702, 147.6863
281.1987, 148.5051
283.1272, 148.6366
285.0556, 147.8350
286.9841, 147.4691
288.9126, 148.5036
290.8410, 149.0473
292.7695, 148.2051
294.6980, 146.8497
296.6264, 145.8348
298.5549, 145.0500
300.4834, 144.1918
302.4118, 143.3219
304.3403, 142.1495
306.2688, 140.3506
308.1972, 138.6132
310.1257, 137.1557
312.0542, 135.9783
313.9826, 135.0696
315.9111, 134.4334
317.8396, 134.0166
319.7680, 133.8855
321.6965, 133.8686
323.6250, 134.2727
325.5534, 134.4624
327.4819, 133.7054
329.4103, 132.8030
331.3388, 132.9107
333.2673, 134.1052
335.1957, 134.6444
337.1242, 134.1517
339.0527, 133.5137
340.9811, 132.4122
342.9096, 131.6178
344.8381, 131.9663
346.7665, 132.5710
348.6950, 132.2532
350.6235, 130.9940
352.5519, 130.2191
354.4804, 130.1295
356.4089, 130.0460
358.3373, 130.0889
360.2658, 129.8854
362.1943, 128.9954
364.1227, 127.9117
366.0512, 127.0320
367.9797, 126.3646
369.9081, 126.2812
371.8366, 126.7823
373.7651, 127.8905
375.6935, 129.9166
377.6220, 131.9805
379.5505, 133.8412
381.4789, 135.4220
383.4074, 136.4621
385.3359, 137.9651
387.2643, 138.3144
389.1928, 140.0867
391.1213, 141.3486
393.0497, 141.8188
394.9782, 142.2855
396.9067, 142.9823
398.8351, 143.8602
400.7636, 145.3536
402.6921, 146.7642
404.6205, 146.6004
406.5490, 144.8195
408.4775, 142.8847
410.4059, 140.9243
412.3344, 138.4638
414.2629, 134.8553
416.1913, 131.4263
418.1198, 128.8701
420.0483, 126.7379
421.9767, 124.5406
423.9052, 122.3400
425.8337, 120.1723
427.7621, 117.9907
429.6906, 116.7333
431.6191, 116.9342
433.5475, 117.2024
435.4760, 117.0527
437.4045, 116.8809
439.3329, 116.8385
441.2614, 116.9544
443.1899, 117.4827
445.1183, 118.3121
447.0468, 118.7443
448.9753, 118.7016
450.9037, 118.4113
452.8322, 117.8262
454.7607, 117.1588
456.6891, 116.1647
458.6176, 115.4174
460.5461, 115.5652
462.4745, 116.1754
464.4030, 116.4882
466.3315, 116.5515
468.2599, 116.6524
470.1884, 116.1019
472.1169, 116.5979
474.0453, 114.4840
475.9738, 112.5079
477.9023, 111.1133
479.8307, 110.1597
481.7592, 109.7749
483.6877, 109.5621
485.6161, 108.7621
487.5446, 107.4859
489.4731, 106.9148
491.4016, 107.4602
493.3300, 107.7794
495.2585, 107.4375
497.1870, 107.4016
499.1154, 108.0358
501.0439, 108.8839
502.9724, 109.6456
504.9008, 110.4921
506.8293, 111.2638
508.7578, 112.1694
510.6862, 114.8808
512.6147, 119.9771
514.5432, 125.3312
516.4716, 130.7033
518.4001, 136.6597
520.3286, 144.1053
522.2570, 151.0962
524.1855, 157.1858
526.1140, 161.7561
528.0424, 163.6979
529.9709, 163.7956
531.8994, 164.2113
533.8278, 164.9251
535.7563, 165.7803
537.6848, 166.8132
539.6132, 168.0599
541.5417, 169.9560
543.4702, 171.2034
545.3986, 171.5435
547.3271, 170.7320
549.2556, 168.9878
551.1840, 165.8721
553.1125, 160.3428
555.0410, 152.8421
556.9694, 145.4413
558.8979, 138.0008
560.8264, 131.7778
562.7548, 126.8846
564.6833, 122.7203
566.6118, 119.2105
568.5402, 116.3471
570.4687, 114.3711
572.3972, 112.7857
574.3256, 111.1803
576.2541, 109.8587
578.1826, 109.4713
580.1110, 109.8242
582.0395, 109.9218
583.9680, 109.7471
585.8964, 109.4258
587.8249, 108.9025
589.7534, 108.6588
591.6818, 109.0698
593.6103, 109.1725
595.5388, 108.3281
597.4672, 107.4480
599.3957, 107.1069
601.3242, 106.8877
603.2526, 106.1999
605.1811, 105.3219
607.1096, 104.9286
609.0380, 104.9836
610.9665, 105.4263
612.8950, 106.2875
614.8234, 106.6347
616.7519, 106.0942
618.6804, 105.7085
620.6088, 105.9289
622.5373, 106.0528
624.4658, 105.6471
626.3942, 105.3335
628.3227, 105.6057
630.2512, 106.1300
632.1796, 106.5896
634.1081, 106.9265
636.0366, 106.9824
637.9650, 106.8357
639.8935, 107.0393
641.8220, 107.7070
643.7504, 108.1730
645.6789, 108.1981
647.6074, 108.3199
649.5358, 108.2904
651.4643, 108.8001
653.3928, 110.8522
655.3212, 112.6410
657.2497, 112.4114
659.1782, 111.8425
661.1066, 112.7562
663.0351, 114.5295
664.9636, 116.0811
666.8920, 117.5519
668.8205, 119.7555
670.7490, 122.7208
672.6774, 126.1493
674.6059, 129.4637
676.5344, 134.4668
678.4628, 140.7224
680.3913, 149.3695
682.3198, 161.0982
684.2482, 174.6272
686.1767, 191.5853
688.1052, 207.5069
690.0336, 219.8175
691.9621, 228.8118
693.8906, 233.7249
695.8190, 235.8609
697.7475, 237.5905
699.6759, 239.1470
701.6044, 242.6417
703.5328, 248.4140
705.4613, 254.1956
707.3898, 261.4039
709.3182, 263.3587
711.2467, 259.4652
713.1752, 250.3553
715.1036, 234.7104
717.0321, 217.0549
718.9606, 197.0329
720.8890, 178.6849
722.8175, 163.9280
724.7460, 152.0269
726.6744, 142.7641
728.6029, 135.8092
730.5314, 131.1404
732.4598, 128.2302
734.3883, 125.7646
736.3168, 123.7869
738.2452, 122.8719
740.1737, 121.5923
742.1022, 120.9956
744.0306, 121.1217
745.9591, 120.9460
747.8876, 122.4629
749.8160, 123.9321
751.7445, 124.8470
753.6730, 125.9241
755.6014, 127.8417
757.5299, 129.3401
759.4584, 129.7044
761.3868, 129.8314
763.3153, 130.1311
765.2438, 130.5853
767.1722, 131.2233
769.1007, 131.9626
771.0292, 132.9673
772.9576, 133.8758
774.8861, 133.8222
776.8146, 132.9414
778.7430, 131.5280
780.6715, 129.6418
782.6000, 127.7057
784.5284, 125.7554
786.4569, 123.8215
788.3854, 121.8282
790.3138, 120.2247
792.2423, 119.1242
794.1708, 118.3183
796.0992, 117.8415
798.0277, 117.5296
799.9562, 117.4212
801.8846, 117.3474
803.8131, 117.1451
805.7416, 117.0608
807.6700, 117.3937
809.5985, 117.7724
811.5270, 117.9646
813.4554, 117.9622
815.3839, 117.6021
817.3124, 117.1213
819.2408, 116.6913
821.1693, 116.5166
823.0978, 117.4700
825.0262, 119.1071
826.9547, 118.8543
828.8832, 116.7508
830.8116, 116.2594
832.7401, 117.7166
834.6686, 118.6157
836.5970, 118.8173
838.5255, 118.8226
840.4540, 118.3882
842.3824, 118.4230
844.3109, 119.1895
846.2394, 119.8202
848.1678, 120.1672
850.0963, 120.4783
852.0248, 120.9235
853.9532, 121.0090
855.8817, 120.3627
857.8102, 119.7769
859.7386, 119.7409
861.6671, 119.6509
863.5956, 119.0186
865.5240, 118.4059
867.4525, 118.3465
869.3810, 118.2357
871.3094, 117.5136
873.2379, 116.4871
875.1664, 115.4394
877.0948, 114.3769
879.0233, 113.3308
880.9518, 112.2653
882.8802, 111.1019
884.8087, 109.9079
886.7372, 108.7103
888.6656, 107.5645
890.5941, 107.1374
892.5226, 105.9337
894.4510, 104.8484
896.3795, 104.1240
898.3080, 102.6243
900.2365, 101.7692
902.1649, 101.1341
904.0934, 100.6941
906.0219, 99.96889
907.9503, 98.86185
909.8788, 97.97395
911.8073, 97.38988
913.7357, 97.03329
915.6642, 97.12775
917.5927, 96.56841
919.5211, 94.70215
921.4496, 93.32176
923.3781, 93.23841
925.3065, 92.81817
927.2350, 91.15621
929.1635, 90.11269
931.0919, 90.57513
933.0204, 90.88967
934.9489, 90.72592
936.8773, 90.12239
938.8058, 88.35095
940.7343, 87.19380
942.6627, 88.15218
944.5912, 89.00991
946.5197, 88.33362
948.4481, 87.49236
950.3766, 87.33361
952.3051, 87.31970
954.2335, 87.11827
956.1620, 86.84922
958.0905, 86.54990
960.0189, 86.29369
961.9474, 86.01949
963.8759, 85.91846
965.8043, 86.53876
967.7328, 87.10432
969.6613, 86.51936
971.5897, 85.70640
973.5182, 85.65318
975.4467, 86.04258
977.3751, 86.55724
979.3036, 87.14829
981.2321, 87.95812
983.1605, 88.68086
985.0890, 88.75320
987.0175, 88.38041
988.9459, 87.75649
990.8744, 87.12041
992.8029, 86.96171
994.7313, 87.11236
996.6598, 87.35045
998.5883, 87.59798
1000.517, 87.62630
1002.445, 87.48120
1004.374, 87.16702
1006.302, 86.81936
1008.231, 86.95374
1010.159, 87.37711
1012.088, 87.47778
1014.016, 87.32499
1015.944, 87.12996
1017.873, 86.89533
1019.801, 86.60387
1021.730, 86.26359
1023.658, 85.88201
1025.587, 85.51315
1027.515, 85.45885
1029.444, 85.09361
1031.372, 85.29537
1033.301, 84.74526
1035.229, 84.64241
1037.158, 84.77970
1039.086, 84.10075
1041.015, 84.20420
1042.943, 84.03674
1044.871, 83.80000
1046.800, 83.81332
1048.728, 83.28294
1050.657, 83.02015
1052.585, 82.92074
1054.514, 82.58186
1056.442, 82.10196
1058.371, 81.72842
1060.299, 81.49786
1062.228, 81.74798
1064.156, 82.14584
1066.085, 81.52323
1068.013, 80.40169
1069.942, 80.21238
1071.870, 80.57056
1073.798, 80.56478
1075.727, 80.33549
1077.655, 80.31050
1079.584, 80.27639
1081.512, 79.57857
1083.441, 78.64413
1085.369, 78.40791
1087.298, 78.50263
1089.226, 78.25503
1091.155, 77.84619
1093.083, 77.58513
1095.012, 77.37334
1096.940, 77.08202
1098.869, 76.71239
1100.797, 76.02422
1102.725, 75.50185
1104.654, 76.25218
1106.582, 75.35709
1108.511, 76.03145
1110.439, 74.63285
1112.368, 74.08972
1114.296, 73.94761
1116.225, 73.98888
1118.153, 73.98310
1120.082, 73.78062
1122.010, 73.43437
1123.939, 72.75159
1125.867, 72.22478
1127.796, 72.25333
1129.724, 72.47160
1131.652, 72.62637
1133.581, 72.91491
1135.509, 73.76610
1137.438, 74.21688
1139.366, 73.41896
1141.295, 72.99592
1143.223, 73.82002
1145.152, 74.52837
1147.080, 74.69057
1149.009, 74.63284
1150.937, 74.40145
1152.866, 74.05811
1154.794, 73.52496
1156.723, 73.30810
1158.651, 73.20124
1160.579, 73.10028
1162.508, 73.34624
1164.436, 73.31113
1166.365, 73.68737
1168.293, 74.01450
1170.222, 74.23601
1172.150, 74.28370
1174.079, 74.18161
1176.007, 73.91147
1177.936, 73.46220
1179.864, 73.11506
1181.793, 72.92696
1183.721, 73.04139
1185.650, 73.30284
1187.578, 73.03078
1189.506, 72.56535
1191.435, 72.99364
1193.363, 72.86807
1195.292, 73.67985
1197.220, 73.32570
1199.149, 73.52851
1201.077, 73.95208
1203.006, 74.50246
1204.934, 74.72873
1206.863, 73.83764
1208.791, 72.87315
1210.720, 72.71397
1212.648, 72.73489
1214.577, 72.44444
1216.505, 72.31776
1218.433, 72.79311
1220.362, 73.19801
1222.290, 73.34981
1224.219, 73.20014
1226.147, 72.53621
1228.076, 72.13095
1230.004, 72.19376
1231.933, 72.22651
1233.861, 72.16450
1235.790, 72.03244
1237.718, 72.01311
1239.647, 71.92340
1241.575, 71.82768
1243.504, 71.77845
1245.432, 71.66972
1247.360, 71.48589
1249.289, 71.47609
1251.217, 71.35344
1253.146, 71.24715
1255.074, 71.77169
1257.003, 71.64897
1258.931, 72.24539
1260.860, 71.87897
1262.788, 71.89108
1264.717, 72.00119
1266.645, 71.92658
1268.574, 72.13358
1270.502, 73.04764
1272.431, 73.57166
1274.359, 73.22644
1276.287, 73.07798
1278.216, 73.39378
1280.144, 73.79756
1282.073, 74.19727
1284.001, 74.34480
1285.930, 74.73919
1287.858, 74.62014
1289.787, 75.21011
1291.715, 75.42488
1293.644, 75.38078
1295.572, 75.24572
1297.501, 75.07912
1299.429, 75.14970
1301.358, 75.40225
1303.286, 75.94291
1305.214, 76.31782
1307.143, 75.98779
1309.071, 75.61268
1311.000, 75.74836
1312.928, 75.90545
1314.857, 75.39941
1316.785, 75.23351
1318.714, 76.14566
1320.642, 76.91344
1322.571, 77.45531
1324.499, 77.33103
1326.428, 76.36111
1328.356, 75.87193
1330.285, 75.97800
1332.213, 76.34660
1334.141, 76.85025
1336.070, 77.23634
1337.998, 77.30494
1339.927, 76.83565
1341.855, 76.29895
1343.784, 75.53451
1345.712, 74.91483
1347.641, 75.31299
1349.569, 75.83671
1351.498, 75.93721
1353.426, 75.59013
1355.355, 74.63483
1357.283, 74.14291
1359.212, 74.36626
1361.140, 74.47363
1363.068, 74.41028
1364.997, 74.56619
1366.925, 74.84665
1368.854, 74.40556
1370.782, 74.42375
1372.711, 73.67860
1374.639, 73.91905
1376.568, 73.81127
1378.496, 73.51946
1380.425, 72.70358
1382.353, 72.13528
1384.282, 72.38091
1386.210, 72.83205
1388.139, 73.31502
1390.067, 73.69249
1391.995, 73.97530
1393.924, 74.06767
1395.852, 73.92577
1397.781, 73.75892
1399.709, 73.66148
1401.638, 74.05875
1403.566, 74.55274
1405.495, 74.23862
1407.423, 73.84661
1409.352, 74.09590
1411.280, 74.52145
1413.209, 75.04314
1415.137, 75.35935
1417.066, 75.37691
1418.994, 75.29759
1420.922, 75.11083
1422.851, 74.83958
1424.779, 74.48986
1426.708, 74.82185
1428.636, 75.66243
1430.565, 76.09785
1432.493, 76.24119
1434.422, 76.00115
1436.350, 75.89580
1438.279, 76.96261
1440.207, 77.71172
1442.135, 76.96767
1444.064, 76.52698
1445.992, 76.93930
1447.921, 76.79715
1449.849, 76.13927
1451.778, 76.43285
1453.706, 76.24531
1455.635, 77.01226
1457.563, 76.32059
1459.492, 76.37531
1461.420, 76.35066
1463.349, 75.87501
1465.277, 75.57544
1467.206, 75.44036
1469.134, 75.31847
1471.063, 75.29836
1472.991, 75.29821
1474.919, 75.28861
1476.848, 75.45598
1478.776, 75.21452
1480.705, 75.38779
1482.633, 74.83302
1484.562, 74.46770
1486.490, 74.33928
1488.419, 74.83129
1490.347, 75.00176
1492.276, 74.37405
1494.204, 74.01962
1496.133, 74.01030
1498.061, 73.72969
1499.990, 73.39598
1501.918, 73.79955
1503.846, 74.42766
1505.775, 73.85165
1507.703, 74.17646
1509.632, 73.29674
1511.560, 73.89845
1513.489, 74.03358
1515.417, 73.67869
1517.346, 72.86160
1519.274, 72.66470
1521.203, 72.85346
1523.131, 72.65858
1525.060, 72.61813
1526.988, 73.25172
1528.917, 73.90673
1530.845, 73.67432
1532.773, 73.22217
1534.702, 73.16922
1536.630, 73.04863
1538.559, 72.74583
1540.487, 72.30130
1542.416, 71.75968
1544.344, 71.73968
1546.273, 72.05051
1548.201, 72.54414
1550.130, 72.90203
1552.058, 72.42255
1553.987, 72.04178
1555.915, 72.44815
1557.844, 72.63561
1559.772, 72.34152
1561.700, 72.08869
1563.629, 71.94499
1565.557, 71.66915
1567.486, 71.55063
1569.414, 71.30849
1571.343, 71.29982
1573.271, 71.29555
1575.200, 71.19102
1577.128, 71.27849
1579.057, 71.30424
1580.985, 71.33517
1582.914, 71.59976
1584.842, 71.49471
1586.771, 71.91751
1588.699, 72.54539
1590.627, 72.72310
1592.556, 72.81784
1594.484, 73.14800
1596.413, 73.47340
1598.341, 73.92381
1600.270, 74.04576
1602.198, 74.43822
1604.127, 74.36730
1606.055, 74.91846
1607.984, 74.93114
1609.912, 74.86745
1611.841, 74.62138
1613.769, 74.89275
1615.698, 75.08994
1617.626, 75.17637
1619.554, 75.83273
1621.483, 75.76617
1623.411, 76.04545
1625.340, 76.71814
1627.268, 77.19805
1629.197, 76.78243
1631.125, 76.41180
1633.054, 76.60115
1634.982, 76.91724
1636.911, 77.01121
1638.839, 77.03226
1640.768, 77.09428
1642.696, 76.60239
1644.625, 76.92329
1646.553, 76.53455
1648.481, 77.16891
1650.410, 77.32351
1652.338, 77.27592
1654.267, 77.01089
1656.195, 76.60342
1658.124, 76.26877
1660.052, 76.08147
1661.981, 75.64917
1663.909, 75.08874
1665.838, 74.93938
1667.766, 75.46717
1669.695, 75.68898
1671.623, 75.22802
1673.552, 74.98070
1675.480, 75.08346
1677.408, 74.70924
1679.337, 74.72014
1681.265, 74.46025
1683.194, 74.44215
1685.122, 74.61046
1687.051, 74.15459
1688.979, 74.23515
1690.908, 74.27670
1692.836, 74.15207
1694.765, 74.60674
1696.693, 74.85947
1698.622, 74.48540
1700.550, 74.23920
1702.479, 74.52905
1704.407, 74.76384
1706.335, 74.57475
1708.264, 74.31148
1710.192, 74.26079
1712.121, 74.14072
1714.049, 73.89678
1715.978, 73.74117
1717.906, 73.77325
1719.835, 73.79918
1721.763, 73.45751
1723.692, 73.25504
1725.620, 73.57327
1727.549, 73.63200
1729.477, 73.72579
1731.406, 73.87501
1733.334, 73.65255
1735.262, 73.74947
1737.191, 73.37537
1739.119, 73.73302
1741.048, 73.78716
1742.976, 73.87375
1744.905, 73.57823
1746.833, 73.61028
1748.762, 73.62296
1750.690, 73.46798
1752.619, 73.54265
1754.547, 73.63347
1756.476, 73.62523
1758.404, 73.75312
1760.333, 73.69378
1762.261, 73.78904
1764.189, 73.69951
1766.118, 73.34435
1768.046, 72.92326
1769.975, 73.58031
1771.903, 74.20347
1773.832, 73.93294
1775.760, 73.43291
1777.689, 72.84681
1779.617, 73.07850
1781.546, 73.77809
1783.474, 74.25163
1785.403, 74.05019
1787.331, 72.95400
1789.260, 72.64490
1791.188, 72.95153
1793.116, 72.67156
1795.045, 72.46501
1796.973, 72.49672
1798.902, 72.33117
1800.830, 71.76820
1802.759, 71.09270
1804.687, 70.77225
1806.616, 70.50335
1808.544, 70.45942
1810.473, 70.29480
1812.401, 70.14208
1814.330, 70.02021
1816.258, 69.83130
1818.187, 69.66930
1820.115, 69.42935
1822.043, 69.14717
1823.972, 68.84898
1825.900, 68.16641
1827.829, 68.14423
1829.757, 68.36046
1831.686, 67.49711
1833.614, 67.59599
1835.543, 67.48512
1837.471, 66.99384
1839.400, 67.21053
1841.328, 66.66885
1843.257, 65.98255
1845.185, 65.68931
1847.114, 65.86278
1849.042, 65.74940
1850.970, 65.80668
1852.899, 65.66403
1854.827, 65.64919
1856.756, 65.59130
1858.684, 65.40701
1860.613, 65.46342
1862.541, 65.00775
1864.470, 64.92186
1866.398, 64.84803
1868.327, 64.50777
1870.255, 64.55164
1872.184, 64.53469
1874.112, 64.24173
1876.041, 64.39466
1877.969, 64.66351
1879.897, 63.93370
1881.826, 63.31939
1883.754, 63.45604
1885.683, 63.72716
1887.611, 63.28913
1889.540, 61.99215
1891.468, 61.52416
1893.397, 61.92195
1895.325, 62.05312
1897.254, 61.96730
1899.182, 61.85817
1901.111, 61.71114
1903.039, 61.47973
1904.968, 61.47652
1906.896, 61.38414
1908.824, 61.21394
1910.753, 60.81010
1912.681, 60.94920
1914.610, 60.66840
1916.538, 60.59280
1918.467, 60.59359
1920.395, 60.12669
1922.324, 60.29567
1924.252, 59.92456
1926.181, 59.22679
1928.109, 59.35124
1930.038, 59.87627
1931.966, 59.39582
1933.895, 58.86561
1935.823, 58.70751
1937.751, 58.17017
1939.680, 57.78762
1941.608, 57.65052
1943.537, 57.87890
1945.465, 58.34365
1947.394, 58.44783
1949.322, 58.10126
1951.251, 57.79670
1953.179, 57.53460
1955.108, 57.30196
1957.036, 56.96940
1958.965, 57.01062
1960.893, 57.28239
1962.822, 57.44881
1964.750, 57.28626
1966.678, 56.74229
1968.607, 56.01044
1970.535, 55.47348
1972.464, 54.86879
1974.392, 54.63624
1976.321, 54.87422
1978.249, 54.66264
1980.178, 54.46618
1982.106, 54.59025
1984.035, 54.41848
1985.963, 53.61561
1987.892, 53.01856
1989.820, 52.66594
1991.749, 51.87897
1993.677, 51.48655
1995.605, 51.28643
1997.534, 51.02269
1999.462, 51.01739
2001.391, 50.67226
2003.319, 50.46577
2005.248, 50.20397
2007.176, 49.87292
2009.105, 49.83512
2011.033, 49.45184
2012.962, 49.52168
2014.890, 49.33858
2016.819, 50.17201
2018.747, 49.34699
2020.676, 49.56424
2022.604, 50.06434
2024.532, 49.44316
2026.461, 48.97193
2028.389, 48.71004
2030.318, 48.45199
2032.246, 48.28870
2034.175, 48.65733
2036.103, 49.40763
2038.032, 49.99799
2039.960, 49.55544
2041.889, 48.94929
2043.817, 49.70589
2045.746, 49.69382
2047.674, 49.30711
2049.603, 49.46699
2051.531, 49.56453
2053.459, 49.77819
2055.388, 49.86728
2057.316, 50.16868
2059.245, 50.69106
2061.173, 51.26355
2063.102, 51.22829
2065.030, 51.19473
2066.959, 50.95128
2068.887, 50.80046
2070.816, 50.78242
2072.744, 50.40708
2074.673, 50.72960
2076.601, 50.14964
2078.530, 50.07123
2080.458, 50.76588
2082.386, 50.90045
2084.315, 50.99089
2086.243, 50.89599
2088.172, 50.82754
2090.100, 50.68321
2092.029, 50.48782
2093.957, 50.40038
2095.886, 50.24607
2097.814, 50.12695
2099.743, 50.35435
2101.671, 49.85421
2103.600, 49.66284
2105.528, 49.41481
2107.457, 48.32310
2109.385, 48.14177
2111.313, 47.94047
2113.242, 48.64800
2115.170, 48.05484
2117.099, 49.09104
2119.027, 49.62434
2120.956, 49.12582
2122.884, 48.38922
2124.813, 47.97139
2126.741, 47.63981
2128.670, 47.13676
2130.598, 46.98988
2132.527, 47.09730
2134.455, 46.59117
2136.384, 46.75404
2138.312, 46.42289
2140.240, 46.82242
2142.169, 46.51159
2144.097, 46.54526
2146.026, 46.72612
2147.954, 46.45919
2149.883, 45.91237
2151.811, 45.86483
2153.740, 44.93679
2155.668, 45.25758
2157.597, 44.95871
2159.525, 44.51992
2161.454, 44.67425
2163.382, 44.86420
2165.311, 44.51348
2167.239, 44.47929
2169.167, 43.80263
2171.096, 43.83706
2173.024, 43.72146
2174.953, 43.11040
2176.881, 43.17891
2178.810, 42.33781
2180.738, 42.90210
2182.667, 43.26230
2184.595, 43.17962
2186.524, 42.87857
2188.452, 42.80558
2190.381, 42.52937
2192.309, 42.44788
2194.238, 42.50666
2196.166, 42.51075
2198.094, 42.48211
2200.023, 42.86843
2201.951, 42.27389
2203.880, 41.49129
2205.808, 41.21786
2207.737, 41.74839
2209.665, 42.67330
2211.594, 42.96072
2213.522, 42.86099
2215.451, 42.37025
2217.379, 41.76961
2219.308, 41.38622
2221.236, 41.23273
2223.165, 41.02688
2225.093, 41.41183
2227.021, 40.99064
2228.950, 40.80261
2230.878, 41.32795
2232.807, 41.21473
2234.735, 40.79365
2236.664, 40.61354
2238.592, 40.49649
2240.521, 40.32856
2242.449, 40.18732
2244.378, 40.13972
2246.306, 40.01063
2248.235, 39.77485
2250.163, 39.90876
2252.092, 39.23326
2254.020, 38.69799
2255.948, 38.39103
2257.877, 38.46820
2259.805, 38.86538
2261.734, 38.49039
2263.662, 38.97262
2265.591, 38.22776
2267.519, 37.93042
2269.448, 38.02290
2271.376, 38.08195
2273.305, 37.92080
2275.233, 37.43374
2277.162, 36.59446
2279.090, 36.84054
2281.019, 37.03607
2282.947, 35.99211
2284.875, 36.07489
2286.804, 36.48069
2288.732, 35.75077
2290.661, 35.37502
2292.589, 35.67971
2294.518, 35.87476
2296.446, 35.54750
2298.375, 34.83360
2300.303, 34.49529
2302.232, 34.31318
2304.160, 34.41799
2306.089, 34.66806
2308.017, 35.16469
2309.946, 34.54582
2311.874, 34.75285
2313.802, 33.60421
2315.731, 34.25325
2317.659, 34.55877
2319.588, 33.96460
2321.516, 33.99658
2323.445, 34.81612
2325.373, 35.19333
2327.302, 35.19616
2329.230, 35.24031
2331.159, 34.42950
2333.087, 33.19759
2335.016, 32.20404
2336.944, 31.86338
2338.873, 31.96717
2340.801, 31.61604
2342.729, 31.34053
2344.658, 31.34901
2346.586, 31.21000
2348.515, 31.20437
2350.443, 31.23839
2352.372, 31.26193
2354.300, 31.30146
2356.229, 31.31408
2358.157, 31.48970
2360.086, 31.30888
2362.014, 31.17018
2363.943, 29.67311
2365.871, 30.70857
2367.800, 30.22226
2369.728, 30.08004
2371.656, 30.98376
2373.585, 30.91460
2375.513, 30.37758
2377.442, 30.43347
2379.370, 30.52887
2381.299, 30.67673
2383.227, 30.82369
2385.156, 30.65023
2387.084, 30.28901
2389.013, 29.83648
2390.941, 29.66685
2392.870, 30.10071
2394.798, 30.23781
2396.727, 30.05915
2398.655, 29.67310
2400.583, 29.51075
2402.512, 29.48734
2404.440, 29.21534
2406.369, 29.95374
2408.297, 28.97571
2410.226, 28.62695
2412.154, 28.66275
2414.083, 29.25188
2416.011, 29.09126
2417.940, 28.39632
2419.868, 27.54462
2421.797, 27.62283
2423.725, 28.19670
2425.654, 28.40036
2427.582, 27.69274
2429.510, 27.09567
2431.439, 27.66263
2433.367, 27.18213
2435.296, 26.38518
2437.224, 26.72263
2439.153, 26.81883
2441.081, 26.51209
2443.010, 26.47066
2444.938, 26.57258
2446.867, 26.64784
2448.795, 26.44052
2450.724, 26.36157
2452.652, 26.42587
2454.581, 26.06580
2456.509, 25.80788
2458.438, 26.18191
2460.366, 26.00531
2462.294, 25.44864
2464.223, 25.50919
2466.151, 24.55611
2468.080, 25.12505
2470.008, 24.77659
2471.937, 24.75271
2473.865, 25.14876
2475.794, 26.00478
2477.722, 26.37769
2479.651, 26.03295
2481.579, 25.84546
2483.508, 25.53011
2485.436, 25.63010
2487.365, 25.13919
2489.293, 25.81663
2491.221, 26.19518
2493.150, 26.10188
2495.078, 26.09389
2497.007, 26.59388
2498.935, 26.41376
2500.864, 25.92841
2502.792, 25.55614
2504.721, 25.88993
2506.649, 26.33118
2508.578, 25.87113
2510.506, 25.60801
2512.435, 25.58962
2514.363, 25.60437
2516.292, 25.90099
2518.220, 26.91069
2520.148, 26.07627
2522.077, 25.41990
2524.005, 26.52986
2525.934, 27.32213
2527.862, 27.40190
2529.791, 26.86953
2531.719, 25.90045
2533.648, 25.16892
2535.576, 26.18039
2537.505, 26.50970
2539.433, 26.26963
2541.362, 25.59364
2543.290, 25.14541
2545.219, 24.95507
2547.147, 25.37635
2549.075, 25.42820
2551.004, 24.95668
2552.932, 24.31668
2554.861, 24.46346
2556.789, 24.86910
2558.718, 24.48886
2560.646, 24.32161
2562.575, 24.34933
2564.503, 24.34056
2566.432, 24.39354
2568.360, 24.29289
2570.289, 23.79819
2572.217, 24.19934
2574.146, 24.01207
2576.074, 24.64771
2578.002, 24.25221
2579.931, 24.06351
2581.859, 24.45564
2583.788, 24.01052
2585.716, 24.01132
2587.645, 23.27119
2589.573, 23.65122
2591.502, 23.90602
2593.430, 23.69662
2595.359, 23.77550
2597.287, 24.46442
2599.216, 23.39021
2601.144, 22.64541
2603.073, 23.09433
2605.001, 23.44581
2606.929, 23.26436
2608.858, 22.87379
2610.786, 21.92944
2612.715, 21.54134
2614.643, 21.66880
2616.572, 21.68331
2618.500, 21.78740
2620.429, 21.97959
2622.357, 21.38364
2624.286, 21.06419
2626.214, 21.20145
2628.143, 21.31249
2630.071, 21.54355
2632.000, 21.56094
2633.928, 20.89900
2635.856, 20.76678
2637.785, 21.16975
2639.713, 21.65132
2641.642, 21.61775
2643.570, 21.10206
2645.499, 20.83105
2647.427, 20.45295
2649.356, 20.03676
2651.284, 19.99751
2653.213, 19.92327
2655.141, 19.88330
2657.070, 19.99287
2658.998, 20.04441
2660.927, 20.28384
2662.855, 20.41237
2664.783, 20.60719
2666.712, 20.59420
2668.640, 19.84704
2670.569, 19.16014
2672.497, 18.95119
2674.426, 19.25046
2676.354, 19.64975
2678.283, 19.89481
2680.211, 19.55681
2682.140, 19.14687
2684.068, 19.03827
2685.997, 19.30204
2687.925, 19.44964
2689.854, 19.40834
2691.782, 18.81079
2693.710, 18.53448
2695.639, 18.49033
2697.567, 18.51475
2699.496, 18.21667
2701.424, 18.41232
2703.353, 18.39761
2705.281, 18.37644
2707.210, 18.60113
2709.138, 18.39830
2711.067, 18.49791
2712.995, 18.39755
2714.924, 18.27401
2716.852, 18.02298
2718.781, 18.00965
2720.709, 18.04366
2722.637, 17.76614
2724.566, 18.37682
2726.494, 17.83249
2728.423, 17.99735
2730.351, 17.07856
2732.280, 16.24335
2734.208, 15.72414
2736.137, 15.93392
2738.065, 16.53746
2739.994, 17.41416
2741.922, 16.28899
2743.851, 15.56000
2745.779, 16.07559
2747.708, 16.65245
2749.636, 16.64446
2751.564, 16.05914
2753.493, 15.66186
2755.421, 15.87288
2757.350, 16.30313
2759.278, 16.66251
2761.207, 15.68167
2763.135, 14.60181
2765.064, 15.03720
2766.992, 15.11367
2768.921, 14.95868
2770.849, 14.76982
2772.778, 14.34249
2774.706, 14.25048
2776.635, 14.69433
2778.563, 14.97079
2780.491, 14.71332
2782.420, 14.12951
2784.348, 14.68021
2786.277, 14.02317
2788.205, 13.25926
2790.134, 14.46405
2792.062, 14.46587
2793.991, 14.13276
2795.919, 14.57285
2797.848, 13.83423
2799.776, 12.87027
2801.705, 12.20773
2803.633, 12.58030
2805.562, 12.90876
2807.490, 12.97948
2809.418, 12.90360
2811.347, 13.02167
2813.275, 13.10437
2815.204, 12.68861
2817.132, 12.69560
2819.061, 12.57867
2820.989, 11.86224
2822.918, 12.24327
2824.846, 12.34106
2826.775, 11.82479
2828.703, 12.27292
2830.632, 12.18589
2832.560, 11.85394
2834.489, 12.26485
2836.417, 12.18465
2838.345, 12.01008
2840.274, 11.97000
2842.202, 12.07679
2844.131, 12.07803
2846.059, 12.27128
2847.988, 12.13016
2849.916, 11.93010
2851.845, 11.58947
2853.773, 11.91450
2855.702, 11.98982
2857.630, 11.48402
2859.559, 11.63274
2861.487, 10.84654
2863.416, 11.29066
2865.344, 11.28261
2867.272, 10.99093
2869.201, 11.37432
2871.129, 11.98198
2873.058, 11.75415
2874.986, 11.60020
2876.915, 11.40926
2878.843, 11.04545
2880.772, 10.85686
2882.700, 10.64002
2884.629, 10.46319
2886.557, 10.35886
2888.486, 10.46573
2890.414, 10.56625
2892.343, 10.71397
2894.271, 10.29261
2896.199, 10.09765
2898.128, 10.40464
2900.056, 8.996989
2901.985, 9.282640
2903.913, 9.255462
2905.842, 9.848804
2907.770, 9.593078
2909.699, 9.966656
2911.627, 10.00512
2913.556, 10.23605
2915.484, 9.880266
2917.413, 9.223303
2919.341, 10.39167
2921.270, 9.996572
2923.198, 8.952089
2925.126, 9.491998
2927.055, 9.289683
2928.983, 8.866475
2930.912, 8.574828
2932.840, 8.911012
2934.769, 9.316796
2936.697, 9.763083
2938.625, 10.00170
2940.554, 9.746560
2942.482, 9.585928
2944.411, 9.611255
2946.339, 9.483733
2948.268, 9.311474
2950.196, 9.408475
2952.125, 8.854009
2954.053, 8.708927
2955.982, 8.326120
2957.910, 7.387746
2959.839, 7.065026
2961.767, 8.096473
2963.696, 9.439002
2965.624, 9.294743
2967.552, 9.556422
2969.481, 9.650562
2971.409, 8.986149
2973.338, 8.276342
2975.266, 8.437316
2977.195, 8.422803
2979.123, 8.225997
2981.052, 8.451384
2982.980, 8.039880
2984.909, 8.565334
2986.837, 8.191308
2988.766, 7.893856
2990.694, 7.676944
2992.623, 7.522003
2994.551, 7.592355
2996.479, 8.332400
2998.408, 7.761399
3000.336, 7.943021
3002.265, 7.721423
3004.193, 7.580274
3006.122, 8.057295
3008.050, 8.413447
3009.979, 8.014766
3011.907, 8.267329
3013.836, 8.019899
3015.764, 8.070589
3017.693, 7.858132
3019.621, 7.670595
3021.550, 7.258468
3023.478, 7.528575
3025.406, 8.292445
3027.335, 8.828262
3029.263, 8.369898
3031.192, 8.266482
3033.120, 8.258684
3035.049, 7.084764
3036.977, 6.762475
3038.906, 7.415740
3040.834, 8.566973
3042.763, 8.140878
3044.691, 7.183485
3046.620, 6.263638
3048.548, 6.143080
3050.477, 7.421649
3052.405, 7.708899
3054.333, 6.986553
3056.262, 6.330599
3058.190, 5.529335
3060.119, 5.733129
3062.047, 7.257300
3063.976, 7.694252
3065.904, 6.428626
3067.833, 5.617206
3069.761, 6.720551
3071.690, 6.311139
3073.618, 6.121367
3075.547, 6.240340
3077.475, 6.129481
3079.404, 5.359087
3081.332, 5.275725
3083.260, 5.889342
3085.189, 5.141118
3087.117, 5.326502
3089.046, 5.423627
3090.974, 4.757729
3092.903, 4.188543
3094.831, 5.029595
3096.760, 5.711660
3098.688, 4.904880
3100.617, 5.838366
3102.545, 6.181922
3104.474, 5.876493
3106.402, 5.648921
3108.331, 5.399821
3110.259, 5.086963
3112.188, 4.991549
3114.116, 5.039009
3116.044, 5.085028
3117.973, 4.593453
3119.901, 5.381597
3121.830, 5.838295
3123.758, 5.833595
3125.687, 5.108887
3127.615, 4.096659
3129.544, 4.654642
3131.472, 4.831788
3133.401, 4.613968
3135.329, 4.548063
3137.258, 5.255523
3139.186, 5.837998
3141.115, 6.065269
3143.043, 5.415790
3144.971, 4.654117
3146.900, 4.928078
3148.828, 5.085661
3150.757, 3.822584
3152.685, 4.468916
3154.614, 5.321472
3156.542, 5.576955
3158.471, 4.020484
3160.399, 5.119057
3162.328, 5.049385
3164.256, 4.049998
3166.185, 4.860375
3168.113, 5.638777
3170.042, 5.947741
3171.970, 5.114850
3173.898, 5.461650
3175.827, 5.269536
3177.755, 4.788695
3179.684, 4.977813
3181.612, 4.209466
3183.541, 3.614635
3185.469, 4.093329
3187.398, 3.556876
3189.326, 3.985855
3191.255, 3.550848
3193.183, 3.674350
3195.112, 3.991875
3197.040, 4.392893
3198.969, 4.721942
3200.897, 4.039581
3202.825, 2.877052
3204.754, 2.926365
3206.682, 3.467996
3208.611, 3.779219
3210.539, 3.653066
3212.468, 3.408668
3214.396, 2.782124
3216.325, 3.166378
3218.253, 3.684263
3220.182, 2.273733
3222.110, 2.947074
3224.039, 3.474025
3225.967, 3.567388
3227.896, 3.194686
3229.824, 3.943752
3231.752, 3.645122
3233.681, 2.946317
3235.609, 3.305945
3237.538, 2.973222
3239.466, 3.015761
3241.395, 2.982654
3243.323, 2.728218
3245.252, 3.836337
3247.180, 3.560202
3249.109, 3.598348
3251.037, 4.116672
3252.966, 2.730264
3254.894, 2.441622
3256.823, 2.991183
3258.751, 4.085390
3260.679, 4.489792
3262.608, 4.124044
3264.536, 2.923083
3266.465, 2.091246
3268.393, 2.972287
3270.322, 3.454603
3272.250, 3.332810
3274.179, 3.256575
3276.107, 3.814732
3278.036, 3.458871
3279.964, 4.290195
3281.893, 4.684281
3283.821, 3.594089
3285.750, 3.473560
3287.678, 3.054306
3289.606, 3.018069
3291.535, 3.719503
3293.463, 2.695333
3295.392, 3.360628
3297.320, 3.558659
3299.249, 3.172088
3301.177, 3.739062
3303.106, 3.585494
3305.034, 3.467528
3306.963, 2.934572
3308.891, 1.654428
3310.820, 2.499115
3312.748, 1.771733
3314.677, 1.881416
3316.605, 3.770258
3318.533, 4.693704
3320.462, 3.824656
3322.390, 3.595546
3324.319, 3.795603
3326.247, 3.693150
3328.176, 3.342205
3330.104, 4.183014
3332.033, 4.293480
3333.961, 4.349006
3335.890, 4.295599
3337.818, 2.813381
3339.747, 1.458757
3341.675, 1.620297
3343.604, 1.415658
3345.532, 1.265345
3347.460, 2.505357
3349.389, 1.919197
3351.317, 2.370125
3353.246, 3.348714
3355.174, 3.497965
3357.103, 2.899901
3359.031, 2.354681
3360.960, 3.060634
3362.888, 1.848216
3364.817, 1.672777
3366.745, 3.057205
3368.674, 4.925736
3370.602, 3.287271
3372.531, 2.594463
3374.459, 2.160047
3376.387, 1.657035
3378.316, 1.466537
3380.244, 1.582913
3382.173, 2.401504
3384.101, 3.266870
3386.030, 3.327219
3387.958, 2.599835
3389.887, 2.663674
3391.815, 2.480444
3393.744, 2.156542
3395.672, 2.590388
3397.601, 2.503115
3399.529, 2.301126
3401.458, 2.766881
3403.386, 2.770040
3405.314, 2.945359
3407.243, 3.137793
3409.171, 3.777051
3411.100, 3.763065
3413.028, 2.384418
3414.957, 1.889414
3416.885, 2.166178
3418.814, 2.737231
3420.742, 2.830164
3422.671, 1.401074
3424.599, 2.849471
3426.528, 1.547904
3428.456, 2.154338
3430.385, 2.078627
3432.313, 1.477389
3434.241, 1.770347
3436.170, 2.205392
3438.098, 2.000596
3440.027, 1.811459
3441.955, 2.439930
3443.884, 2.266114
3445.812, 3.235326
3447.741, 2.875384
3449.669, 2.402736
3451.598, 2.817393
3453.526, 1.557188
3455.455, 1.332440
3457.383, 2.425210
3459.312, 1.749907
3461.240, 0.4509743
3463.168, 2.064022
3465.097, 2.323227
3467.025, 1.142351
3468.954, 1.820511
3470.882, 1.296356
3472.811, 1.258279
3474.739, 2.061306
3476.668, 2.711555
3478.596, 1.408500
3480.525, 1.424896
3482.453, 1.952890
3484.382, 1.984265
3486.310, 1.806292
3488.239, 2.667322
3490.167, 1.443117
3492.095, -0.4210172
3494.024, 0.6796518
3495.952, 3.625254
3497.881, 3.195063
3499.809, 2.064675
3501.738, 2.265188
3503.666, 2.705912
3505.595, 2.204392
3507.523, 2.202272
3509.452, 1.394866
3511.380, 1.555466
3513.309, 1.304067
3515.237, 1.001471
3517.166, 0.5278056
3519.094, 1.597741
3521.022, 2.030729
3522.951, 2.175676
3524.879, 2.039501
3526.808, 2.413772
3528.736, 2.108668
3530.665, 2.613187
3532.593, 2.100379
3534.522, 1.696199
3536.450, 2.207461
3538.379, 0.5067690
3540.307, 1.800054
3542.236, 1.050720
3544.164, 1.1832820E-02
3546.093, 0.8297656
3548.021, 1.325325
3549.949, 2.225353
3551.878, 2.095501
3553.806, 2.216399
3555.735, 2.621749
3557.663, 1.701988
3559.592, 3.282301
3561.520, 1.919619
3563.449, 1.398616
3565.377, 2.001824
3567.306, 1.343993
3569.234, 1.495525
3571.163, 1.175921
3573.091, 1.568200
3575.020, 1.632919
3576.948, 1.819615
3578.876, 1.784754
3580.805, 1.851498
3582.733, 1.664555
3584.662, 1.269107
3586.590, 1.405236
3588.519, 1.353365
3590.447, 1.927925
3592.376, 1.227530
3594.304, 1.397926
3596.233, 1.977703
3598.161, 1.729702
3600.090, 0.9269521
3602.018, 2.194552
3603.947, 0.8609383
3605.875, 0.9776878
3607.803, 2.952932
3609.732, 3.003373
3611.660, 1.548372
3613.589, 1.317340
3615.517, 1.995824
3617.446, 2.621171
3619.374, 2.629302
3621.303, 2.231018
3623.231, 1.921511
3625.160, 2.317399
3627.088, 1.021002
3629.017, 0.8188815
3630.945, 0.9956600
3632.874, 0.9863976
3634.802, 1.235322
3636.730, 1.484863
3638.659, 1.247720
3640.587, 0.2729289
3642.516, 2.399882
3644.444, 1.546658
3646.373, 1.108016
3648.301, -0.5219995
3650.230, -0.9362228
3652.158, 0.8063246
3654.087, 2.141233
3656.015, 2.460873
3657.944, 2.373547
3659.872, 2.517937
3661.801, 2.290975
3663.729, 1.331468
3665.657, 0.3026692
3667.586, -0.7296135
3669.514, -0.4984412
3671.443, 1.520683
3673.371, 0.4460275
3675.300, 0.8911987
3677.228, 1.823942
3679.157, 0.9948932
3681.085, 0.8002074
3683.014, 0.5064681
3684.942, 0.8185222
3686.871, 1.580606
3688.799, 0.3113055
3690.728, 1.187895
3692.656, 1.049781
3694.584, 0.2828190
3696.513, -0.6684402
3698.441, -0.9884799
3700.370, 0.8837182
3702.298, 2.300564
3704.227, 0.9646795
3706.155, 1.171784
3708.084, 1.195511
3710.012, 0.2822739
3711.941, 0.6641286
3713.869, 0.2797846
3715.798, 0.2878159
3717.726, 0.2169342
3719.655, 4.8196886E-02
3721.583, -6.9754712E-02
3723.511, -0.2087477
3725.440, -0.5302771
3727.368, -0.8451458
3729.297, -1.273983
3731.225, 0.8713323
3733.154, -0.5301102
3735.082, 0.1045473
3737.011, 2.711197
3738.939, 1.547933
3740.868, 0.7097791
3742.796, 2.382768
3744.725, 2.202954
3746.653, -0.2182892
3748.582, -0.5986299
3750.510, 1.220997
3752.438, 0.8341516
3754.367, 0.4518103
3756.295, 0.7387944
3758.224, 0.9517521
3760.152, 0.4791252
3762.081, -0.2019823
3764.009, 1.080289
3765.938, 0.5357009
3767.866, -0.4162590
3769.795, 0.2369924
3771.723, 1.079256
3773.652, 6.3382171E-02
3775.580, 0.1828290
3777.509, 0.1133913
3779.437, 1.041704
3781.365, 1.673117
3783.294, 0.6724367
3785.222, -0.7954372
3787.151, -0.6944438
3789.079, -1.710997
3791.008, -0.4753683
3792.936, 0.3749553
3794.865, 0.9020235
3796.793, 2.061751
3798.722, 2.596394
3800.650, 0.3479064
3802.579, 2.768440
3804.507, 1.219035
3806.436, 1.936126
3808.364, 0.9884158
3810.292, 0.2212729
3812.221, 0.5345597
3814.149, -0.6944124
3816.078, 1.048460
3818.006, 2.629748
3819.935, 0.6580458
3821.863, 0.1008199
3823.792, 0.7660917
3825.720, 1.091536
3827.649, 1.237832
3829.577, 1.464582
3831.506, 1.422345
3833.434, 1.339461
3835.363, 1.268157
3837.291, 1.022961
3839.219, 1.014432
3841.148, 0.4452623
3843.076, -0.5939831
3845.005, -0.4409914
3846.933, -9.4018809E-02
3848.862, -0.6178033
3850.790, 0.8965318
3852.719, 1.065782
3854.647, -4.9368531E-02
3856.576, 2.097739
3858.504, 1.825042
3860.433, 1.494995
3862.361, 1.096597
3864.290, -0.6096722
3866.218, -1.902893
3868.146, -9.7093731E-02
3870.075, 3.401531
3872.003, 1.891432
3873.932, 2.159933
3875.860, 0.2371592
3877.789, -0.2899305
3879.717, 1.103417
3881.646, 0.6653730
3883.574, -0.7210942
3885.503, 0.3265589
3887.431, 0.3726687
3889.360, -9.0639308E-02
3891.288, -0.1445152
3893.217, -7.6640040E-02
3895.145, 1.008981
3897.073, 1.661756
3899.002, 1.373939
3900.930, 0.9216663
3902.859, 1.385396
3904.787, 0.8322710
3906.716, 1.601232
3908.644, 1.479456
3910.573, 1.233700
3912.501, 1.385642
3914.430, 2.134564
3916.358, 2.145254
3918.287, 2.555657
3920.215, 0.1576894
3922.144, 2.894243
3924.072, 0.7324714
3926.000, 0.1632015
3927.929, 1.175357
3929.857, 1.056058
3931.786, -0.2439889
3933.714, -0.6251854
3935.643, 0.3699683
3937.571, 8.4722109E-02
3939.500, 1.324338
3941.428, 1.449705
3943.357, 1.877600
3945.285, 2.540081
3947.214, 2.246290
3949.142, 1.100903
3951.071, 0.6889867
3952.999, 0.5417119
3954.927, 0.6491671
3956.856, 0.5397252
3958.784, 0.9826632
3960.713, 0.9323561
3962.641, 1.119981
3964.570, 0.1434076
3966.498, 1.085654
3968.427, -1.2589380E-03
3970.355, -0.8689033
3972.284, -0.5460489
3974.212, -0.1852587
3976.141, 0.1274306
3978.069, 1.141031
3979.998, 1.349859
3981.926, 1.862023
3983.854, 1.831877
3985.783, 5.4447450E-02
3987.711, 1.046571
3989.640, 0.7681351
3991.568, -0.3845834
3993.497, 0.7832311
3995.425, -0.7677091
3997.354, -0.7633398
3999.282, -1.737380
4001.211, -0.3786913
4003.139, -0.1768534
4005.068, 0.1099102
4006.996, 1.665516
4008.925, 1.570976
4010.853, 0.6894936
4012.781, 0.9609407
4014.710, 0.3906229
4016.638, -9.5614921E-03
4018.567, 0.3658353
4020.495, -0.3923765
4022.424, -0.8083597
4024.352, -1.143834
4026.281, -1.833542
4028.209, -0.1322146
4030.138, 0.1939083
4032.066, 0.8669001
4033.995, 0.6953832
4035.923, 1.366968
4037.852, 1.504669
4039.780, 0.6902362
4041.708, 0.2828290
4043.637, 0.1105212
4045.565, -0.7803112
4047.494, -1.019270
4049.422, 0.8362638
4051.351, 0.3754650
4053.279, 0.6856412
4055.208, 0.1014563
4057.136, 6.7368343E-02
4059.065, 1.086622
4060.993, 8.7428093E-02
4062.922, -1.380723
4064.850, -0.5698322
4066.779, -4.5863591E-02
4068.707, 7.4802288E-03
4070.635, 0.7557489
4072.564, 0.8512729
4074.492, 0.4505279
4076.421, 0.8500642
4078.349, 0.8536056
4080.278, -2.7699631E-02
4082.206, -0.4950454
4084.135, -0.5307519
4086.063, -0.1114340
4087.992, -0.2597275
4089.920, 0.1638387
4091.849, 0.3869484
4093.777, 0.4968036
4095.706, 0.3513456
4097.634, 0.9323707
4099.563, -0.2368669
4101.491, -1.272487
4103.419, -1.599776
4105.348, -0.9308758
4107.276, -1.9064929E-02
4109.205, 0.5260492
4111.133, 1.537617
4113.062, 0.1963432
4114.990, 1.467255
4116.918, 1.273282
4118.847, 2.499988
4120.775, 0.9165662
4122.704, 0.9404741
4124.632, -0.5831423
4126.561, -1.012181
4128.489, 0.9019485
4130.418, 0.6377075
4132.346, 0.3168393
4134.275, -0.8200358
4136.203, -0.1305379
4138.132, 0.8793460
4140.060, 0.4712869
4141.989, 0.4926266
4143.917, 2.541443
4145.846, 2.611595
4147.774, 2.669121
4149.703, 2.837927
4151.631, 1.572565
4153.560, 1.468643
4155.488, -0.3408672
4157.417, -2.001308
4159.345, -0.2982062
4161.273, 0.4426147
4163.202, 0.2230621
4165.130, 0.4689074
4167.059, 1.974929
4168.987, 1.003967
4170.916, -0.5082884
4172.844, 0.4796795
4174.772, 0.5296342
4176.701, -1.057273
4178.629, -0.5009319
4180.558, 1.634428
4182.486, 0.9158208
4184.415, -0.7571293
4186.343, 0.2244391
4188.272, -1.292070
4190.200, -0.3939299
4192.129, -0.7738050
4194.057, 0.4360994
4195.986, 0.3069919
4197.914, 0.3787827
4199.843, -0.1974284
4201.771, 0.2961146
4203.700, 7.7520758E-02
4205.628, 5.9389239E-03
4207.557, -0.5322005
4209.485, -0.5445855
4211.414, 0.4121459
4213.342, -1.692684
4215.271, -0.8290173
4217.199, 1.768172
4219.127, 0.2829570
4221.056, 0.9658148
4222.984, 1.715856
4224.913, 2.177833
4226.841, 2.064962
4228.770, 2.193298
4230.698, 1.154294
4232.626, 1.498301
4234.555, 0.4595466
4236.483, -0.4915724
4238.412, -0.2541918
4240.340, -0.3253727
4242.269, -0.7418221
4244.197, -0.6158026
4246.126, -1.697102
4248.054, -0.9691184
4249.983, -0.5964090
4251.911, -1.150388
4253.840, 1.494333
4255.768, 2.0856511E-02
4257.697, -0.1253177
4259.625, 1.372355
4261.554, 0.9013513
4263.482, -8.9330673E-02
4265.411, 0.3331649
4267.339, -0.3210164
4269.268, 0.3082394
4271.196, -0.6387726
4273.125, -5.4792721E-02
4275.053, 0.2988016
4276.981, 0.6020935
4278.910, 0.5174239
4280.838, -0.4723684
4282.767, -1.238364
4284.695, -1.929561
4286.624, 1.234495
4288.552, 0.3676769
4290.480, -0.9436983
4292.409, 2.716914
4294.337, 1.345384
4296.266, 2.777248
4298.194, 2.494364
4300.123, 1.179719
4302.051, 0.7015070
4303.980, 1.470705
4305.908, 1.418651
4307.837, 1.339857
4309.765, 1.355003
4311.694, 1.146804
4313.622, 0.9653604
4315.551, 0.7642707
4317.479, 0.8535335
4319.408, 0.7259640
4321.336, 0.5788670
4323.265, 1.009146
4325.193, 3.9337330E-02
4327.122, 0.7813281
4329.050, 0.1196308
4330.979, -0.3103793
4332.907, 0.8711012
4334.835, 0.9735331
4336.764, 0.4073325
4338.692, -0.1981315
4340.621, -0.3671024
4342.549, -0.7143259
4344.478, -0.4959808
4346.406, -0.9701898
4348.334, 0.1025413
4350.263, 0.2426230
4352.191, 0.3203924
4354.120, -1.134251
4356.048, -6.2530659E-02
4357.977, 0.2103167
4359.905, -0.1602439
4361.834, 0.4255536
4363.762, 0.4094542
4365.691, 0.6531532
4367.619, -0.2289657
4369.548, 1.360959
4371.476, 0.4386472
4373.405, 0.9357336
4375.333, 0.8712765
4377.262, -0.7753879
4379.190, 0.1444302
4381.119, -0.1532710
##END=



