##NAMES=Polylithionite
##RRUFFID=R050132
##IDEAL CHEMISTRY=KLi_2_AlSi_4_O_10_F_2_
##LOCALITY=Brown Derby mine, Ohio City, Gunnison County, Colorado, USA
##OWNER=RRUFF
##SOURCE=Dave Bunk Minerals
##DESCRIPTION=Purple scaly aggregate, polytype 2M1
##STATUS=The identification of this mineral has been confirmed by X-ray diffraction and chemical analysis
##URL=https://www.rruff.net/odr/rruff_sample/R050132
##MEASURED CHEMISTRY=(K_0.90_Rb_0.10_)(Li_0.62_Al_0.38_)_3_(Si_0.93_Al_0.07_)_4_O_10_(F_0.69_(OH)_0.31_)_2_
##DIFFRACTION SAMPLE DESCRIPTION=Powder, refined as 2M1 polytype
##CELL PARAMETERS=a: 5.1937 b: 9.005 c: 20.052 alpha: 90 beta: 95.555 gamma: 90 volume: 933.5 crystal system: monoclinic
##FILETYPE=Raman RAW
##RAMAN WAVELENGTH=532

88.33008, 206.9595
90.25854, 174.6604
92.18701, 162.1850
94.11548, 173.8885
96.04395, 206.2014
97.97241, 242.0138
99.90088, 279.9007
101.8293, 322.4221
103.7578, 369.5880
105.6863, 420.9603
107.6147, 479.1282
109.5432, 543.9332
111.4717, 616.1663
113.4001, 696.8724
115.3286, 794.2885
117.2571, 897.9487
119.1855, 997.1453
121.1140, 1095.899
123.0425, 1186.766
124.9709, 1265.087
126.8994, 1328.146
128.8279, 1329.988
130.7563, 1329.797
132.6848, 1331.935
134.6133, 1333.803
136.5417, 1337.435
138.4702, 1338.798
140.3987, 1336.894
142.3271, 1330.511
144.2556, 1323.363
146.1841, 1313.665
148.1125, 1303.340
150.0410, 1296.829
151.9695, 1296.929
153.8979, 1298.980
155.8264, 1300.299
157.7549, 1298.626
159.6833, 1299.691
161.6118, 1303.617
163.5403, 1309.934
165.4688, 1322.143
167.3972, 1341.596
169.3257, 1365.320
171.2542, 1390.873
173.1826, 1417.172
175.1111, 1446.327
177.0396, 1480.351
178.9680, 1521.393
180.8965, 1555.808
182.8250, 1584.922
184.7534, 1606.945
186.6819, 1621.901
188.6104, 1628.410
190.5388, 1629.321
192.4673, 1623.411
194.3958, 1607.585
196.3242, 1598.353
198.2527, 1602.131
200.1812, 1611.703
202.1096, 1617.194
204.0381, 1614.221
205.9666, 1610.202
207.8950, 1605.401
209.8235, 1599.234
211.7520, 1597.461
213.6804, 1605.502
215.6089, 1618.424
217.5374, 1626.693
219.4658, 1632.104
221.3943, 1632.475
223.3228, 1624.681
225.2512, 1607.631
227.1797, 1594.030
229.1082, 1583.715
231.0366, 1578.086
232.9651, 1580.148
234.8936, 1587.266
236.8220, 1604.260
238.7505, 1631.723
240.6790, 1671.017
242.6074, 1718.637
244.5359, 1776.167
246.4644, 1841.439
248.3928, 1908.188
250.3213, 1973.502
252.2498, 2044.007
254.1782, 2120.720
256.1067, 2199.895
258.0352, 2295.904
259.9636, 2428.962
261.8921, 2575.653
263.8206, 2701.380
265.7490, 2825.749
267.6775, 2903.438
269.6060, 2911.657
271.5344, 2840.029
273.4629, 2734.324
275.3914, 2567.504
277.3198, 2372.533
279.2483, 2200.565
281.1768, 2056.267
283.1052, 1932.264
285.0337, 1831.261
286.9622, 1751.980
288.8906, 1686.922
290.8191, 1640.461
292.7476, 1605.807
294.6760, 1576.179
296.6045, 1551.166
298.5330, 1530.981
300.4614, 1518.225
302.3899, 1512.191
304.3184, 1506.625
306.2468, 1501.399
308.1753, 1496.317
310.1038, 1490.831
312.0322, 1483.722
313.9607, 1478.466
315.8892, 1476.376
317.8176, 1477.140
319.7461, 1478.448
321.6746, 1481.509
323.6030, 1483.945
325.5315, 1482.881
327.4600, 1476.759
329.3884, 1472.362
331.3169, 1473.239
333.2454, 1478.730
335.1738, 1480.515
337.1023, 1477.135
339.0308, 1472.011
340.9592, 1466.159
342.8877, 1458.617
344.8162, 1454.900
346.7446, 1457.965
348.6731, 1465.657
350.6016, 1471.352
352.5300, 1470.064
354.4585, 1472.127
356.3870, 1481.975
358.3154, 1500.088
360.2439, 1520.533
362.1724, 1544.151
364.1008, 1568.910
366.0293, 1591.688
367.9578, 1610.825
369.8862, 1631.519
371.8147, 1655.932
373.7432, 1684.471
375.6716, 1712.890
377.6001, 1740.511
379.5286, 1768.354
381.4570, 1797.140
383.3855, 1826.696
385.3140, 1856.899
387.2424, 1888.868
389.1709, 1921.819
391.0994, 1951.619
393.0278, 1974.783
394.9563, 1998.530
396.8848, 2026.523
398.8132, 2058.971
400.7417, 2091.981
402.6702, 2129.750
404.5986, 2166.512
406.5271, 2192.233
408.4556, 2208.392
410.3840, 2213.868
412.3125, 2207.289
414.2410, 2189.649
416.1694, 2162.230
418.0979, 2119.439
420.0264, 2071.665
421.9548, 2024.664
423.8833, 1977.399
425.8118, 1934.767
427.7402, 1898.534
429.6687, 1867.743
431.5972, 1841.604
433.5256, 1821.365
435.4541, 1804.371
437.3826, 1789.918
439.3110, 1777.765
441.2395, 1768.909
443.1680, 1766.126
445.0964, 1765.076
447.0249, 1762.531
448.9534, 1758.197
450.8818, 1752.188
452.8103, 1743.668
454.7388, 1733.320
456.6672, 1722.745
458.5957, 1711.032
460.5242, 1700.586
462.4526, 1692.807
464.3811, 1688.791
466.3096, 1684.172
468.2380, 1676.902
470.1665, 1670.101
472.0950, 1666.506
474.0234, 1668.199
475.9519, 1669.802
477.8804, 1671.416
479.8088, 1672.458
481.7373, 1670.918
483.6658, 1667.062
485.5942, 1660.606
487.5227, 1651.191
489.4512, 1637.835
491.3796, 1625.527
493.3081, 1614.824
495.2366, 1604.617
497.1650, 1593.104
499.0935, 1578.842
501.0220, 1566.771
502.9504, 1558.504
504.8789, 1553.289
506.8074, 1549.172
508.7358, 1544.386
510.6643, 1542.428
512.5928, 1546.725
514.5212, 1556.651
516.4497, 1565.288
518.3782, 1570.042
520.3066, 1574.379
522.2351, 1580.497
524.1636, 1589.008
526.0920, 1598.440
528.0205, 1609.744
529.9490, 1621.519
531.8774, 1631.250
533.8059, 1635.178
535.7344, 1642.286
537.6628, 1656.618
539.5913, 1678.272
541.5198, 1697.197
543.4482, 1709.762
545.3767, 1722.844
547.3052, 1740.605
549.2336, 1764.159
551.1621, 1786.135
553.0906, 1805.235
555.0190, 1822.602
556.9475, 1839.330
558.8760, 1855.474
560.8044, 1871.309
562.7329, 1890.269
564.6614, 1909.426
566.5898, 1919.536
568.5183, 1918.112
570.4468, 1909.351
572.3752, 1891.528
574.3037, 1864.657
576.2322, 1838.026
578.1606, 1811.071
580.0891, 1785.457
582.0176, 1761.932
583.9460, 1740.934
585.8745, 1721.531
587.8030, 1702.387
589.7314, 1685.251
591.6599, 1672.097
593.5884, 1662.995
595.5168, 1656.686
597.4453, 1652.264
599.3738, 1650.054
601.3022, 1651.897
603.2307, 1660.915
605.1592, 1670.700
607.0876, 1680.527
609.0161, 1690.288
610.9446, 1698.685
612.8730, 1703.922
614.8015, 1709.837
616.7300, 1718.404
618.6584, 1730.644
620.5869, 1742.860
622.5154, 1755.539
624.4438, 1767.541
626.3723, 1777.789
628.3008, 1786.049
630.2292, 1793.019
632.1577, 1798.827
634.0862, 1803.354
636.0146, 1806.252
637.9431, 1808.634
639.8716, 1808.133
641.8000, 1802.680
643.7285, 1794.258
645.6570, 1786.830
647.5854, 1779.769
649.5139, 1775.776
651.4424, 1774.046
653.3708, 1774.912
655.2993, 1785.403
657.2278, 1806.115
659.1563, 1835.132
661.0847, 1872.783
663.0132, 1918.486
664.9417, 1967.708
666.8701, 2024.788
668.7986, 2081.313
670.7271, 2131.499
672.6555, 2173.168
674.5840, 2213.100
676.5125, 2245.860
678.4409, 2280.310
680.3694, 2323.064
682.2979, 2373.541
684.2263, 2435.518
686.1548, 2505.815
688.0833, 2587.503
690.0117, 2687.845
691.9402, 2805.435
693.8687, 2940.507
695.7971, 3093.937
697.7256, 3265.477
699.6541, 3456.014
701.5825, 3674.824
703.5110, 3901.885
705.4395, 4139.125
707.3679, 4382.856
709.2964, 4609.579
711.2249, 4870.855
713.1533, 5058.137
715.0818, 5132.834
717.0103, 5102.870
718.9387, 4964.647
720.8672, 4642.188
722.7957, 4272.887
724.7241, 3889.901
726.6526, 3484.186
728.5811, 3139.865
730.5095, 2870.820
732.4380, 2655.083
734.3665, 2478.637
736.2949, 2341.979
738.2234, 2232.774
740.1519, 2154.227
742.0803, 2097.470
744.0088, 2059.776
745.9373, 2045.432
747.8657, 2037.619
749.7942, 2041.321
751.7227, 2048.002
753.6511, 2051.063
755.5796, 2050.628
757.5081, 2045.784
759.4365, 2035.581
761.3650, 2021.309
763.2935, 2004.354
765.2219, 1985.008
767.1504, 1961.229
769.0789, 1928.685
771.0073, 1892.688
772.9358, 1859.124
774.8643, 1826.854
776.7927, 1800.904
778.7212, 1785.194
780.6497, 1775.443
782.5781, 1763.387
784.5066, 1746.785
786.4351, 1732.576
788.3635, 1722.737
790.2920, 1716.018
792.2205, 1711.009
794.1489, 1710.128
796.0774, 1705.545
798.0059, 1693.203
799.9343, 1676.193
801.8628, 1662.622
803.7913, 1655.297
805.7197, 1647.056
807.6482, 1634.974
809.5767, 1621.457
811.5051, 1610.989
813.4336, 1605.694
815.3621, 1599.889
817.2905, 1590.010
819.2190, 1578.211
821.1475, 1571.422
823.0759, 1572.272
825.0044, 1573.817
826.9329, 1574.988
828.8613, 1575.745
830.7898, 1576.106
832.7183, 1576.013
834.6467, 1575.515
836.5752, 1573.690
838.5037, 1571.450
840.4321, 1571.580
842.3606, 1577.530
844.2891, 1581.632
846.2175, 1581.877
848.1460, 1579.643
850.0745, 1577.223
852.0029, 1573.296
853.9314, 1572.728
855.8599, 1579.080
857.7883, 1589.301
859.7168, 1596.658
861.6453, 1599.446
863.5737, 1601.116
865.5022, 1600.669
867.4307, 1599.629
869.3591, 1600.901
871.2876, 1605.411
873.2161, 1609.778
875.1445, 1612.318
877.0730, 1614.410
879.0015, 1618.089
880.9299, 1624.311
882.8584, 1630.718
884.7869, 1637.704
886.7153, 1644.335
888.6438, 1648.898
890.5723, 1650.680
892.5007, 1653.410
894.4292, 1657.624
896.3577, 1663.657
898.2861, 1671.813
900.2146, 1681.919
902.1431, 1695.141
904.0715, 1714.307
906.0000, 1734.848
907.9285, 1752.296
909.8569, 1766.319
911.7854, 1779.652
913.7139, 1793.638
915.6423, 1806.001
917.5708, 1815.474
919.4993, 1821.924
921.4277, 1825.891
923.3562, 1826.653
925.2847, 1825.659
927.2131, 1823.210
929.1416, 1819.034
931.0701, 1815.461
932.9985, 1813.592
934.9270, 1811.191
936.8555, 1804.892
938.7839, 1796.025
940.7124, 1792.876
942.6409, 1800.112
944.5693, 1808.282
946.4978, 1813.619
948.4263, 1816.737
950.3547, 1822.089
952.2832, 1833.633
954.2117, 1843.209
956.1401, 1849.001
958.0686, 1851.465
959.9971, 1851.591
961.9255, 1848.392
963.8540, 1844.848
965.7825, 1843.214
967.7109, 1840.985
969.6394, 1834.149
971.5679, 1816.665
973.4963, 1804.210
975.4248, 1800.805
977.3533, 1801.351
979.2817, 1800.505
981.2102, 1798.275
983.1387, 1796.434
985.0671, 1793.224
986.9956, 1792.405
988.9241, 1797.620
990.8525, 1809.613
992.7810, 1817.098
994.7095, 1815.012
996.6379, 1811.744
998.5664, 1810.863
1000.495, 1812.278
1002.423, 1812.947
1004.352, 1812.417
1006.280, 1812.279
1008.209, 1813.432
1010.137, 1815.691
1012.066, 1818.733
1013.994, 1823.666
1015.923, 1827.009
1017.851, 1825.223
1019.780, 1822.190
1021.708, 1823.868
1023.636, 1838.172
1025.565, 1844.863
1027.493, 1837.636
1029.422, 1826.900
1031.350, 1822.100
1033.279, 1823.137
1035.207, 1825.480
1037.136, 1829.680
1039.064, 1834.022
1040.993, 1836.559
1042.921, 1837.205
1044.850, 1842.115
1046.778, 1854.116
1048.707, 1866.844
1050.635, 1879.824
1052.563, 1892.027
1054.492, 1899.914
1056.420, 1900.643
1058.349, 1903.862
1060.277, 1914.456
1062.206, 1927.795
1064.134, 1938.605
1066.063, 1946.240
1067.991, 1955.760
1069.920, 1969.805
1071.848, 1984.756
1073.777, 1998.361
1075.705, 2010.320
1077.634, 2022.987
1079.562, 2037.019
1081.490, 2050.771
1083.419, 2064.683
1085.347, 2077.712
1087.276, 2086.662
1089.204, 2089.395
1091.133, 2093.362
1093.061, 2103.179
1094.990, 2114.479
1096.918, 2122.013
1098.847, 2124.332
1100.775, 2127.139
1102.704, 2134.239
1104.632, 2139.222
1106.561, 2136.231
1108.489, 2124.848
1110.417, 2118.842
1112.346, 2123.093
1114.274, 2126.769
1116.203, 2126.571
1118.131, 2122.823
1120.060, 2115.403
1121.988, 2102.631
1123.917, 2090.539
1125.845, 2080.353
1127.774, 2071.275
1129.702, 2063.499
1131.631, 2059.628
1133.559, 2048.523
1135.488, 2023.332
1137.416, 1998.835
1139.344, 1983.485
1141.273, 1975.959
1143.201, 1966.338
1145.130, 1953.377
1147.058, 1941.034
1148.987, 1930.905
1150.915, 1921.599
1152.844, 1910.912
1154.772, 1897.757
1156.701, 1887.265
1158.629, 1881.888
1160.558, 1878.014
1162.486, 1874.149
1164.415, 1870.489
1166.343, 1867.255
1168.271, 1862.847
1170.200, 1861.201
1172.128, 1865.581
1174.057, 1872.505
1175.985, 1875.786
1177.914, 1874.658
1179.842, 1873.656
1181.771, 1873.324
1183.699, 1873.682
1185.628, 1875.451
1187.556, 1878.482
1189.485, 1879.240
1191.413, 1875.215
1193.342, 1872.276
1195.270, 1872.820
1197.198, 1875.351
1199.127, 1876.979
1201.055, 1876.624
1202.984, 1877.970
1204.912, 1883.217
1206.841, 1888.392
1208.769, 1890.115
1210.698, 1888.974
1212.626, 1888.599
1214.555, 1888.802
1216.483, 1890.102
1218.412, 1893.031
1220.340, 1897.081
1222.269, 1902.206
1224.197, 1909.458
1226.125, 1914.362
1228.054, 1913.879
1229.982, 1913.669
1231.911, 1916.664
1233.839, 1922.411
1235.768, 1927.926
1237.696, 1935.092
1239.625, 1938.852
1241.553, 1934.592
1243.482, 1928.830
1245.410, 1930.433
1247.339, 1939.450
1249.267, 1944.544
1251.196, 1941.094
1253.124, 1938.828
1255.052, 1944.635
1256.981, 1954.672
1258.909, 1958.627
1260.838, 1952.247
1262.766, 1949.799
1264.695, 1956.172
1266.623, 1964.057
1268.552, 1969.105
1270.480, 1971.252
1272.409, 1970.719
1274.337, 1964.065
1276.266, 1960.150
1278.194, 1963.006
1280.123, 1969.066
1282.051, 1973.906
1283.979, 1977.728
1285.908, 1979.792
1287.836, 1978.302
1289.765, 1977.126
1291.693, 1977.734
1293.622, 1980.100
1295.550, 1984.821
1297.479, 1992.778
1299.407, 2000.265
1301.336, 2006.292
1303.264, 2011.586
1305.193, 2016.333
1307.121, 2020.362
1309.050, 2024.017
1310.978, 2026.113
1312.906, 2029.044
1314.835, 2034.876
1316.763, 2040.875
1318.692, 2043.874
1320.620, 2043.842
1322.549, 2044.623
1324.477, 2045.729
1326.406, 2048.854
1328.334, 2054.931
1330.263, 2063.032
1332.191, 2072.868
1334.120, 2084.772
1336.048, 2091.553
1337.977, 2088.611
1339.905, 2084.186
1341.833, 2081.064
1343.762, 2079.844
1345.690, 2082.627
1347.619, 2091.849
1349.547, 2099.656
1351.476, 2105.660
1353.404, 2109.701
1355.333, 2110.880
1357.261, 2109.579
1359.190, 2108.990
1361.118, 2108.748
1363.047, 2109.569
1364.975, 2111.764
1366.904, 2114.753
1368.832, 2118.567
1370.760, 2122.969
1372.689, 2125.840
1374.617, 2125.752
1376.546, 2126.856
1378.474, 2133.405
1380.403, 2139.431
1382.331, 2138.437
1384.260, 2131.355
1386.188, 2127.469
1388.117, 2129.176
1390.045, 2132.000
1391.974, 2133.853
1393.902, 2136.703
1395.831, 2142.773
1397.759, 2152.238
1399.688, 2162.486
1401.616, 2174.795
1403.544, 2184.851
1405.473, 2189.491
1407.401, 2191.618
1409.330, 2195.989
1411.258, 2204.298
1413.187, 2207.396
1415.115, 2201.811
1417.044, 2196.565
1418.972, 2194.594
1420.901, 2195.142
1422.829, 2197.605
1424.758, 2202.316
1426.686, 2205.246
1428.615, 2203.642
1430.543, 2203.195
1432.471, 2207.717
1434.400, 2213.433
1436.328, 2214.844
1438.257, 2211.906
1440.185, 2211.385
1442.114, 2215.370
1444.042, 2220.689
1445.971, 2227.794
1447.899, 2234.919
1449.828, 2239.147
1451.756, 2240.105
1453.685, 2241.997
1455.613, 2246.314
1457.542, 2248.856
1459.470, 2244.237
1461.398, 2238.928
1463.327, 2242.450
1465.255, 2257.623
1467.184, 2267.492
1469.112, 2272.467
1471.041, 2272.621
1472.969, 2262.608
1474.898, 2251.979
1476.826, 2252.320
1478.755, 2264.739
1480.683, 2275.350
1482.612, 2282.835
1484.540, 2289.761
1486.469, 2297.792
1488.397, 2303.947
1490.325, 2303.613
1492.254, 2297.603
1494.182, 2296.025
1496.111, 2300.630
1498.039, 2306.315
1499.968, 2313.175
1501.896, 2319.829
1503.825, 2325.821
1505.753, 2330.850
1507.682, 2332.780
1509.610, 2330.020
1511.539, 2330.235
1513.467, 2339.618
1515.396, 2347.031
1517.324, 2341.965
1519.252, 2330.668
1521.181, 2328.875
1523.109, 2338.688
1525.038, 2347.800
1526.966, 2355.028
1528.895, 2360.439
1530.823, 2363.839
1532.752, 2365.876
1534.680, 2367.000
1536.609, 2366.713
1538.537, 2368.487
1540.466, 2375.292
1542.394, 2379.652
1544.323, 2376.722
1546.251, 2372.372
1548.179, 2373.332
1550.108, 2380.014
1552.036, 2385.576
1553.965, 2389.651
1555.893, 2393.724
1557.822, 2397.587
1559.750, 2401.917
1561.679, 2407.409
1563.607, 2413.520
1565.536, 2418.370
1567.464, 2419.049
1569.393, 2422.972
1571.321, 2432.697
1573.250, 2442.450
1575.178, 2451.158
1577.106, 2457.729
1579.035, 2459.574
1580.963, 2455.904
1582.892, 2453.631
1584.820, 2454.081
1586.749, 2454.639
1588.677, 2453.011
1590.606, 2452.834
1592.534, 2458.891
1594.463, 2470.144
1596.391, 2479.007
1598.320, 2485.730
1600.248, 2489.067
1602.177, 2483.104
1604.105, 2479.233
1606.033, 2486.924
1607.962, 2499.181
1609.890, 2502.273
1611.819, 2495.748
1613.747, 2492.186
1615.676, 2494.272
1617.604, 2497.680
1619.533, 2503.218
1621.461, 2507.983
1623.390, 2507.673
1625.318, 2504.311
1627.247, 2506.021
1629.175, 2514.447
1631.104, 2521.686
1633.032, 2525.695
1634.960, 2527.914
1636.889, 2526.455
1638.817, 2524.777
1640.746, 2529.095
1642.674, 2539.175
1644.603, 2547.084
1646.531, 2552.411
1648.460, 2554.760
1650.388, 2551.075
1652.317, 2547.699
1654.245, 2549.842
1656.174, 2555.859
1658.102, 2561.118
1660.031, 2565.581
1661.959, 2568.553
1663.887, 2567.449
1665.816, 2568.544
1667.744, 2577.735
1669.673, 2587.653
1671.601, 2589.401
1673.530, 2584.630
1675.458, 2585.419
1677.387, 2594.648
1679.315, 2600.942
1681.244, 2599.345
1683.172, 2598.250
1685.101, 2603.750
1687.029, 2611.212
1688.958, 2612.740
1690.886, 2608.621
1692.814, 2608.279
1694.743, 2613.028
1696.671, 2619.395
1698.600, 2627.141
1700.528, 2635.013
1702.457, 2642.087
1704.385, 2648.589
1706.314, 2656.429
1708.242, 2665.850
1710.171, 2667.675
1712.099, 2656.673
1714.028, 2648.369
1715.956, 2650.601
1717.885, 2654.447
1719.813, 2654.291
1721.741, 2652.026
1723.670, 2651.509
1725.598, 2652.701
1727.527, 2658.033
1729.455, 2671.168
1731.384, 2680.542
1733.312, 2676.590
1735.241, 2672.607
1737.169, 2680.855
1739.098, 2695.179
1741.026, 2698.198
1742.955, 2688.955
1744.883, 2681.237
1746.812, 2676.232
1748.740, 2674.507
1750.668, 2677.916
1752.597, 2683.359
1754.525, 2690.279
1756.454, 2697.210
1758.382, 2698.789
1760.311, 2694.392
1762.239, 2698.067
1764.168, 2716.321
1766.096, 2730.547
1768.025, 2733.868
1769.953, 2731.949
1771.882, 2724.644
1773.810, 2716.346
1775.739, 2716.023
1777.667, 2723.612
1779.595, 2733.027
1781.524, 2745.580
1783.452, 2753.852
1785.381, 2753.303
1787.309, 2750.452
1789.238, 2747.340
1791.166, 2745.585
1793.095, 2748.788
1795.023, 2756.366
1796.952, 2761.290
1798.880, 2762.349
1800.809, 2764.289
1802.737, 2771.003
1804.666, 2775.324
1806.594, 2768.703
1808.522, 2761.017
1810.451, 2766.816
1812.379, 2782.417
1814.308, 2789.904
1816.236, 2786.323
1818.165, 2787.371
1820.093, 2799.927
1822.022, 2810.439
1823.950, 2811.746
1825.879, 2810.865
1827.807, 2814.094
1829.736, 2819.853
1831.664, 2823.439
1833.593, 2824.387
1835.521, 2826.304
1837.449, 2830.850
1839.378, 2834.023
1841.306, 2833.655
1843.235, 2833.502
1845.163, 2836.307
1847.092, 2840.468
1849.020, 2843.849
1850.949, 2846.449
1852.877, 2847.545
1854.806, 2844.945
1856.734, 2844.627
1858.663, 2849.219
1860.591, 2852.778
1862.520, 2852.055
1864.448, 2850.852
1866.376, 2850.980
1868.305, 2853.402
1870.233, 2862.449
1872.162, 2880.691
1874.090, 2892.009
1876.019, 2892.861
1877.947, 2892.889
1879.876, 2892.446
1881.804, 2892.886
1883.733, 2896.718
1885.661, 2900.466
1887.590, 2898.880
1889.518, 2893.376
1891.447, 2891.065
1893.375, 2892.070
1895.303, 2897.790
1897.232, 2911.095
1899.160, 2922.970
1901.089, 2931.768
1903.017, 2936.562
1904.946, 2933.183
1906.874, 2927.677
1908.803, 2928.385
1910.731, 2934.381
1912.660, 2940.809
1914.588, 2947.587
1916.517, 2953.081
1918.445, 2957.385
1920.374, 2958.826
1922.302, 2951.748
1924.230, 2946.372
1926.159, 2953.284
1928.087, 2964.853
1930.016, 2966.854
1931.944, 2973.799
1933.873, 2980.100
1935.801, 2978.786
1937.730, 2987.948
1939.658, 2982.794
1941.587, 2979.125
1943.515, 2980.729
1945.444, 2984.574
1947.372, 2990.621
1949.301, 2996.538
1951.229, 2997.267
1953.157, 2993.505
1955.086, 2995.418
1957.014, 3004.579
1958.943, 3013.764
1960.871, 3022.718
1962.800, 3030.314
1964.728, 3034.974
1966.657, 3039.016
1968.585, 3043.552
1970.514, 3048.147
1972.442, 3053.169
1974.371, 3058.030
1976.299, 3058.850
1978.228, 3055.357
1980.156, 3059.010
1982.084, 3075.084
1984.013, 3086.965
1985.941, 3086.218
1987.870, 3085.561
1989.798, 3093.106
1991.727, 3101.389
1993.655, 3101.914
1995.584, 3097.590
1997.512, 3095.713
1999.441, 3096.224
2001.369, 3098.202
2003.298, 3100.618
2005.226, 3106.332
2007.155, 3118.893
2009.083, 3130.171
2011.011, 3139.726
2012.940, 3146.061
2014.868, 3145.733
2016.797, 3143.450
2018.725, 3146.703
2020.654, 3154.072
2022.582, 3157.120
2024.511, 3155.217
2026.439, 3153.202
2028.368, 3150.035
2030.296, 3151.244
2032.225, 3162.268
2034.153, 3170.914
2036.082, 3171.444
2038.010, 3168.162
2039.938, 3161.402
2041.867, 3155.247
2043.795, 3158.164
2045.724, 3169.058
2047.652, 3175.797
2049.581, 3176.155
2051.509, 3180.060
2053.438, 3191.107
2055.366, 3199.731
2057.295, 3203.294
2059.223, 3205.719
2061.152, 3208.223
2063.080, 3210.397
2065.009, 3211.280
2066.937, 3211.729
2068.865, 3213.125
2070.794, 3215.556
2072.722, 3220.499
2074.651, 3228.370
2076.579, 3234.584
2078.508, 3238.544
2080.436, 3241.663
2082.365, 3243.789
2084.293, 3246.018
2086.222, 3249.401
2088.150, 3252.218
2090.079, 3253.038
2092.007, 3252.596
2093.936, 3251.990
2095.864, 3251.502
2097.792, 3251.430
2099.721, 3251.986
2101.649, 3253.692
2103.578, 3255.846
2105.506, 3260.392
2107.435, 3268.166
2109.363, 3275.944
2111.292, 3282.471
2113.220, 3288.148
2115.149, 3292.490
2117.077, 3296.840
2119.006, 3305.219
2120.934, 3314.161
2122.863, 3313.893
2124.791, 3306.263
2126.719, 3305.501
2128.648, 3313.432
2130.576, 3319.308
2132.505, 3318.674
2134.433, 3321.624
2136.362, 3335.157
2138.290, 3344.605
2140.219, 3342.005
2142.147, 3337.258
2144.076, 3335.102
2146.004, 3336.471
2147.933, 3345.086
2149.861, 3357.646
2151.790, 3362.843
2153.718, 3361.330
2155.646, 3361.138
2157.575, 3362.340
2159.503, 3367.139
2161.432, 3377.662
2163.360, 3386.619
2165.289, 3392.762
2167.217, 3396.879
2169.146, 3397.681
2171.074, 3398.952
2173.003, 3402.727
2174.931, 3408.655
2176.860, 3417.893
2178.788, 3427.900
2180.717, 3430.823
2182.645, 3437.367
2184.573, 3442.938
2186.502, 3443.896
2188.430, 3452.141
2190.359, 3453.739
2192.287, 3456.846
2194.216, 3466.042
2196.144, 3471.814
2198.073, 3466.111
2200.001, 3462.636
2201.930, 3469.856
2203.858, 3479.967
2205.787, 3487.463
2207.715, 3492.429
2209.644, 3494.090
2211.572, 3493.618
2213.500, 3495.426
2215.429, 3499.696
2217.357, 3504.079
2219.286, 3508.442
2221.214, 3514.171
2223.143, 3521.395
2225.071, 3528.638
2227.000, 3534.599
2228.928, 3541.816
2230.857, 3555.708
2232.785, 3565.374
2234.714, 3560.812
2236.642, 3554.945
2238.571, 3559.868
2240.499, 3569.755
2242.427, 3576.575
2244.356, 3581.030
2246.284, 3584.188
2248.213, 3586.423
2250.141, 3594.966
2252.070, 3610.251
2253.998, 3617.425
2255.927, 3612.475
2257.855, 3614.229
2259.784, 3631.121
2261.712, 3644.861
2263.641, 3647.760
2265.569, 3651.000
2267.498, 3657.336
2269.426, 3666.368
2271.354, 3681.345
2273.283, 3694.963
2275.211, 3698.546
2277.140, 3697.206
2279.068, 3699.387
2280.997, 3704.150
2282.925, 3707.991
2284.854, 3711.456
2286.782, 3716.839
2288.711, 3724.198
2290.639, 3733.384
2292.568, 3746.092
2294.496, 3755.146
2296.425, 3758.012
2298.353, 3759.531
2300.281, 3755.710
2302.210, 3757.563
2304.138, 3774.138
2306.067, 3789.715
2307.995, 3794.113
2309.924, 3797.352
2311.852, 3810.497
2313.781, 3824.426
2315.709, 3824.787
2317.638, 3834.572
2319.566, 3825.386
2321.495, 3840.239
2323.423, 3845.986
2325.352, 3841.784
2327.280, 3846.574
2329.208, 3861.794
2331.137, 3871.267
2333.065, 3872.227
2334.994, 3876.126
2336.922, 3885.347
2338.851, 3896.490
2340.779, 3912.066
2342.708, 3924.120
2344.636, 3925.563
2346.565, 3928.633
2348.493, 3941.309
2350.422, 3954.353
2352.350, 3962.935
2354.279, 3966.906
2356.207, 3961.935
2358.135, 3955.766
2360.064, 3961.659
2361.992, 3974.859
2363.921, 3984.150
2365.849, 3990.499
2367.778, 3998.186
2369.706, 4007.178
2371.635, 4015.083
2373.563, 4021.318
2375.492, 4027.714
2377.420, 4033.816
2379.349, 4042.201
2381.277, 4053.786
2383.206, 4066.375
2385.134, 4081.032
2387.063, 4092.808
2388.991, 4096.743
2390.919, 4101.572
2392.848, 4113.354
2394.776, 4122.736
2396.705, 4120.575
2398.633, 4119.009
2400.562, 4130.290
2402.490, 4144.204
2404.419, 4147.726
2406.347, 4149.756
2408.276, 4165.210
2410.204, 4186.365
2412.133, 4195.927
2414.061, 4196.948
2415.990, 4201.202
2417.918, 4208.681
2419.846, 4223.766
2421.775, 4229.577
2423.703, 4235.586
2425.632, 4248.381
2427.560, 4246.997
2429.489, 4255.097
2431.417, 4268.604
2433.346, 4291.140
2435.274, 4307.656
2437.203, 4314.243
2439.131, 4316.429
2441.060, 4306.242
2442.988, 4305.492
2444.917, 4328.122
2446.845, 4347.750
2448.773, 4349.914
2450.702, 4351.259
2452.630, 4363.296
2454.559, 4376.220
2456.487, 4381.483
2458.416, 4385.106
2460.344, 4392.849
2462.273, 4402.916
2464.201, 4415.092
2466.130, 4426.736
2468.058, 4430.448
2469.987, 4430.852
2471.915, 4437.953
2473.844, 4450.731
2475.772, 4469.297
2477.700, 4491.478
2479.629, 4493.813
2481.557, 4474.704
2483.486, 4476.389
2485.414, 4501.225
2487.343, 4517.113
2489.271, 4521.941
2491.200, 4532.845
2493.128, 4553.349
2495.057, 4569.042
2496.985, 4575.914
2498.914, 4580.666
2500.842, 4581.618
2502.771, 4583.386
2504.699, 4585.050
2506.627, 4590.992
2508.556, 4604.730
2510.484, 4619.241
2512.413, 4634.375
2514.341, 4647.070
2516.270, 4653.537
2518.198, 4660.469
2520.127, 4669.519
2522.055, 4680.839
2523.984, 4695.053
2525.912, 4709.761
2527.841, 4725.534
2529.769, 4739.056
2531.698, 4747.567
2533.626, 4753.849
2535.554, 4757.904
2537.483, 4764.457
2539.411, 4781.789
2541.340, 4803.552
2543.268, 4820.294
2545.197, 4832.219
2547.125, 4835.010
2549.054, 4835.913
2550.982, 4857.665
2552.911, 4867.587
2554.839, 4883.204
2556.768, 4905.093
2558.696, 4915.730
2560.625, 4936.422
2562.553, 4948.031
2564.481, 4951.657
2566.410, 4957.399
2568.338, 4965.515
2570.267, 4980.235
2572.195, 4991.145
2574.124, 5019.144
2576.052, 5025.647
2577.981, 5041.882
2579.909, 5071.055
2581.838, 5085.744
2583.766, 5082.067
2585.695, 5082.985
2587.623, 5091.651
2589.552, 5105.944
2591.480, 5129.515
2593.408, 5151.106
2595.337, 5170.081
2597.265, 5186.479
2599.194, 5201.022
2601.122, 5207.282
2603.051, 5195.808
2604.979, 5198.008
2606.908, 5234.090
2608.836, 5265.206
2610.765, 5284.645
2612.693, 5297.607
2614.622, 5299.195
2616.550, 5308.463
2618.479, 5337.261
2620.407, 5361.058
2622.335, 5364.163
2624.264, 5368.419
2626.192, 5381.023
2628.121, 5396.596
2630.049, 5417.062
2631.978, 5434.226
2633.906, 5443.488
2635.835, 5452.032
2637.763, 5461.312
2639.692, 5474.336
2641.620, 5499.255
2643.549, 5519.065
2645.477, 5516.168
2647.406, 5515.374
2649.334, 5532.868
2651.262, 5554.318
2653.191, 5572.225
2655.119, 5589.817
2657.048, 5610.233
2658.976, 5629.670
2660.905, 5644.809
2662.833, 5657.402
2664.762, 5664.001
2666.690, 5673.703
2668.619, 5696.056
2670.547, 5721.109
2672.476, 5747.173
2674.404, 5765.988
2676.333, 5761.972
2678.261, 5757.798
2680.189, 5773.464
2682.118, 5798.917
2684.046, 5831.997
2685.975, 5862.734
2687.903, 5878.675
2689.832, 5890.645
2691.760, 5907.460
2693.689, 5927.245
2695.617, 5951.393
2697.546, 5974.225
2699.474, 5989.264
2701.403, 6002.490
2703.331, 6022.235
2705.260, 6040.512
2707.188, 6043.075
2709.116, 6046.327
2711.045, 6072.733
2712.973, 6101.688
2714.902, 6112.444
2716.830, 6118.417
2718.759, 6131.307
2720.687, 6148.287
2722.616, 6170.269
2724.544, 6191.556
2726.473, 6200.635
2728.401, 6212.749
2730.330, 6248.953
2732.258, 6284.082
2734.187, 6287.884
2736.115, 6286.670
2738.043, 6305.083
2739.972, 6330.147
2741.900, 6354.374
2743.829, 6376.845
2745.757, 6397.610
2747.686, 6416.151
2749.614, 6428.656
2751.543, 6442.362
2753.471, 6460.835
2755.400, 6484.816
2757.328, 6521.949
2759.257, 6554.589
2761.185, 6568.060
2763.114, 6576.360
2765.042, 6583.813
2766.970, 6596.983
2768.899, 6624.860
2770.827, 6652.928
2772.756, 6672.129
2774.684, 6690.685
2776.613, 6713.688
2778.541, 6736.208
2780.470, 6756.934
2782.398, 6774.015
2784.327, 6784.750
2786.255, 6795.870
2788.184, 6811.060
2790.112, 6827.038
2792.041, 6842.331
2793.969, 6859.170
2795.897, 6874.327
2797.826, 6899.255
2799.754, 6944.972
2801.683, 6979.578
2803.611, 6986.287
2805.540, 6991.822
2807.468, 7000.337
2809.397, 7015.392
2811.325, 7042.177
2813.254, 7061.939
2815.182, 7064.859
2817.111, 7082.505
2819.039, 7130.376
2820.968, 7173.154
2822.896, 7208.909
2824.824, 7233.558
2826.753, 7245.379
2828.681, 7253.801
2830.610, 7258.123
2832.538, 7273.052
2834.467, 7302.842
2836.395, 7335.208
2838.324, 7370.917
2840.252, 7402.490
2842.181, 7429.476
2844.109, 7443.116
2846.038, 7442.194
2847.966, 7464.681
2849.895, 7510.181
2851.823, 7547.734
2853.751, 7577.464
2855.680, 7599.662
2857.608, 7616.288
2859.537, 7636.698
2861.465, 7660.088
2863.394, 7684.185
2865.322, 7708.545
2867.251, 7731.807
2869.179, 7754.226
2871.108, 7774.112
2873.036, 7794.889
2874.965, 7821.228
2876.893, 7853.216
2878.822, 7897.986
2880.750, 7941.533
2882.678, 7968.495
2884.607, 7988.548
2886.535, 8007.434
2888.464, 8026.956
2890.392, 8049.765
2892.321, 8071.199
2894.249, 8082.174
2896.178, 8100.821
2898.106, 8147.513
2900.035, 8187.862
2901.963, 8205.723
2903.892, 8219.967
2905.820, 8232.192
2907.749, 8250.571
2909.677, 8279.060
2911.605, 8310.602
2913.534, 8344.986
2915.462, 8378.584
2917.391, 8411.570
2919.319, 8438.424
2921.248, 8470.941
2923.176, 8498.792
2925.105, 8525.094
2927.033, 8552.904
2928.962, 8567.318
2930.890, 8589.054
2932.819, 8618.026
2934.747, 8645.470
2936.676, 8671.611
2938.604, 8704.033
2940.532, 8739.539
2942.461, 8767.276
2944.389, 8790.961
2946.318, 8816.406
2948.246, 8844.268
2950.175, 8876.890
2952.103, 8909.900
2954.032, 8933.369
2955.960, 8958.967
2957.889, 9000.885
2959.817, 9042.547
2961.746, 9076.132
2963.674, 9099.895
2965.603, 9107.316
2967.531, 9119.386
2969.459, 9147.355
2971.388, 9178.587
2973.316, 9215.150
2975.245, 9240.387
2977.173, 9246.063
2979.102, 9265.432
2981.030, 9306.545
2982.959, 9353.006
2984.887, 9406.871
2986.816, 9453.615
2988.744, 9492.956
2990.673, 9504.284
2992.601, 9546.806
2994.530, 9577.210
2996.458, 9604.996
2998.386, 9648.375
3000.315, 9674.295
3002.243, 9711.495
3004.172, 9748.706
3006.100, 9762.979
3008.029, 9774.407
3009.957, 9807.401
3011.886, 9846.469
3013.814, 9887.357
3015.743, 9919.393
3017.671, 9920.119
3019.600, 9938.430
3021.528, 10006.57
3023.457, 10058.76
3025.385, 10068.50
3027.313, 10086.78
3029.242, 10125.82
3031.170, 10175.38
3033.099, 10237.97
3035.027, 10278.73
3036.956, 10294.93
3038.884, 10321.59
3040.813, 10359.05
3042.741, 10402.74
3044.670, 10449.23
3046.598, 10486.74
3048.527, 10516.37
3050.455, 10535.40
3052.384, 10553.50
3054.312, 10583.10
3056.240, 10620.95
3058.169, 10673.45
3060.097, 10720.34
3062.026, 10738.85
3063.954, 10764.36
3065.883, 10812.49
3067.811, 10858.15
3069.740, 10890.91
3071.668, 10928.24
3073.597, 10979.56
3075.525, 11014.62
3077.454, 11031.98
3079.382, 11060.45
3081.311, 11102.16
3083.239, 11151.04
3085.167, 11202.49
3087.096, 11225.18
3089.024, 11270.51
3090.953, 11281.82
3092.881, 11334.70
3094.810, 11362.13
3096.738, 11382.14
3098.667, 11401.16
3100.595, 11433.44
3102.524, 11493.56
3104.452, 11556.53
3106.381, 11619.36
3108.309, 11666.52
3110.238, 11691.13
3112.166, 11720.02
3114.094, 11760.38
3116.023, 11795.07
3117.951, 11824.77
3119.880, 11858.54
3121.808, 11896.22
3123.737, 11932.48
3125.665, 11968.86
3127.594, 12008.18
3129.522, 12050.39
3131.451, 12101.41
3133.379, 12147.55
3135.308, 12170.05
3137.236, 12197.95
3139.165, 12254.16
3141.093, 12303.72
3143.021, 12328.34
3144.950, 12367.16
3146.878, 12439.92
3148.807, 12485.70
3150.735, 12501.68
3152.664, 12525.56
3154.592, 12558.86
3156.521, 12591.16
3158.449, 12624.49
3160.378, 12666.81
3162.306, 12701.57
3164.235, 12746.79
3166.163, 12781.62
3168.092, 12822.80
3170.020, 12869.06
3171.948, 12922.17
3173.877, 12975.67
3175.805, 13030.30
3177.734, 13076.58
3179.662, 13109.03
3181.591, 13158.50
3183.519, 13226.81
3185.448, 13289.67
3187.376, 13345.41
3189.305, 13391.23
3191.233, 13430.31
3193.162, 13468.89
3195.090, 13508.19
3197.019, 13550.46
3198.947, 13593.19
3200.875, 13634.43
3202.804, 13675.76
3204.732, 13717.57
3206.661, 13760.49
3208.589, 13805.00
3210.518, 13846.57
3212.446, 13883.84
3214.375, 13934.50
3216.303, 13995.07
3218.232, 14022.38
3220.160, 14035.00
3222.089, 14078.01
3224.017, 14135.63
3225.946, 14198.15
3227.874, 14251.72
3229.802, 14276.15
3231.731, 14311.96
3233.659, 14386.89
3235.588, 14452.50
3237.516, 14499.27
3239.445, 14550.42
3241.373, 14608.89
3243.302, 14654.01
3245.230, 14704.84
3247.159, 14755.31
3249.087, 14799.74
3251.016, 14852.00
3252.944, 14900.18
3254.873, 14946.46
3256.801, 14986.89
3258.729, 15016.96
3260.658, 15047.72
3262.586, 15084.39
3264.515, 15124.48
3266.443, 15170.00
3268.372, 15215.66
3270.300, 15263.02
3272.229, 15318.32
3274.157, 15379.67
3276.086, 15444.03
3278.014, 15505.74
3279.943, 15553.40
3281.871, 15599.73
3283.800, 15651.60
3285.728, 15705.83
3287.656, 15764.54
3289.585, 15819.86
3291.513, 15872.92
3293.442, 15921.61
3295.370, 15965.93
3297.299, 15992.73
3299.227, 16016.65
3301.156, 16088.61
3303.084, 16167.46
3305.013, 16211.22
3306.941, 16238.49
3308.870, 16242.61
3310.798, 16270.77
3312.727, 16336.20
3314.655, 16417.25
3316.583, 16515.56
3318.512, 16591.30
3320.440, 16644.35
3322.369, 16669.13
3324.297, 16686.04
3326.226, 16738.41
3328.154, 16800.27
3330.083, 16851.09
3332.011, 16895.72
3333.940, 16933.11
3335.868, 16970.30
3337.797, 17006.73
3339.725, 17059.99
3341.654, 17104.79
3343.582, 17155.23
3345.510, 17213.41
3347.439, 17266.37
3349.367, 17331.38
3351.296, 17400.86
3353.224, 17470.24
3355.153, 17534.75
3357.081, 17594.27
3359.010, 17647.44
3360.938, 17693.42
3362.867, 17732.54
3364.795, 17777.91
3366.724, 17828.45
3368.652, 17868.96
3370.581, 17910.66
3372.509, 17980.45
3374.438, 18046.41
3376.366, 18076.29
3378.294, 18112.57
3380.223, 18171.33
3382.151, 18222.07
3384.080, 18259.04
3386.008, 18340.51
3387.937, 18386.93
3389.865, 18451.19
3391.794, 18510.43
3393.722, 18573.74
3395.651, 18645.46
3397.579, 18695.92
3399.508, 18748.95
3401.436, 18821.01
3403.365, 18866.52
3405.293, 18877.79
3407.221, 18919.62
3409.150, 18985.43
3411.078, 19036.92
3413.007, 19089.36
3414.935, 19173.35
3416.864, 19256.48
3418.792, 19316.69
3420.721, 19369.07
3422.649, 19410.00
3424.578, 19484.64
3426.506, 19526.03
3428.435, 19635.74
3430.363, 19632.59
3432.292, 19690.68
3434.220, 19758.19
3436.148, 19762.20
3438.077, 19782.88
3440.005, 19860.83
3441.934, 19948.18
3443.862, 20040.74
3445.791, 20114.83
3447.719, 20173.67
3449.648, 20228.70
3451.576, 20289.81
3453.505, 20382.22
3455.433, 20471.36
3457.362, 20519.87
3459.290, 20579.09
3461.219, 20685.02
3463.147, 20754.76
3465.075, 20786.99
3467.004, 20833.98
3468.932, 20888.94
3470.861, 20914.09
3472.789, 20943.07
3474.718, 21017.73
3476.646, 21092.28
3478.575, 21131.86
3480.503, 21205.20
3482.432, 21276.06
3484.360, 21393.46
3486.289, 21426.28
3488.217, 21491.81
3490.146, 21563.67
3492.074, 21606.27
3494.002, 21646.25
3495.931, 21698.56
3497.859, 21758.50
3499.788, 21808.63
3501.716, 21887.73
3503.645, 21931.75
3505.573, 22004.72
3507.502, 22088.00
3509.430, 22154.80
3511.359, 22212.92
3513.287, 22262.54
3515.216, 22317.84
3517.144, 22393.70
3519.073, 22432.77
3521.001, 22448.63
3522.929, 22548.96
3524.858, 22586.91
3526.786, 22698.96
3528.715, 22718.79
3530.643, 22801.58
3532.572, 22876.17
3534.500, 22928.93
3536.429, 22984.24
3538.357, 23045.62
3540.286, 23113.16
3542.214, 23186.05
3544.143, 23259.71
3546.071, 23338.23
3548.000, 23415.90
3549.928, 23508.92
3551.856, 23577.52
3553.785, 23654.63
3555.713, 23737.63
3557.642, 23771.18
3559.570, 23800.07
3561.499, 23883.83
3563.427, 23980.68
3565.356, 24070.49
3567.284, 24145.97
3569.213, 24195.54
3571.141, 24279.89
3573.070, 24381.37
3574.998, 24421.14
3576.927, 24448.87
3578.855, 24514.23
3580.783, 24603.28
3582.712, 24718.03
3584.640, 24825.62
3586.569, 24917.98
3588.497, 25030.06
3590.426, 25157.43
3592.354, 25303.62
3594.283, 25443.56
3596.211, 25550.00
3598.140, 25674.72
3600.068, 25840.64
3601.997, 26024.63
3603.925, 26229.35
3605.854, 26450.72
3607.782, 26700.14
3609.710, 27000.48
3611.639, 27324.20
3613.567, 27666.09
3615.496, 27999.80
3617.424, 28321.05
3619.353, 28693.93
3621.281, 29091.74
3623.210, 29439.23
3625.138, 29771.79
3627.067, 30146.25
3628.995, 30462.89
3630.924, 30695.56
3632.852, 30847.35
3634.781, 30920.99
3636.709, 30986.04
3638.637, 31020.20
3640.566, 30982.04
3642.494, 30932.02
3644.423, 30908.43
3646.351, 30870.38
3648.280, 30813.62
3650.208, 30692.80
3652.137, 30544.38
3654.065, 30459.93
3655.994, 30387.13
3657.922, 30309.22
3659.851, 30190.55
3661.779, 30024.74
3663.708, 29884.12
3665.636, 29762.68
3667.564, 29612.98
3669.493, 29465.84
3671.421, 29345.11
3673.350, 29244.09
3675.278, 29161.92
3677.207, 29085.04
3679.135, 29010.02
3681.064, 28900.15
3682.992, 28793.34
3684.921, 28725.49
3686.849, 28692.90
3688.778, 28658.64
3690.706, 28693.21
3692.635, 28672.23
3694.563, 28712.75
3696.491, 28769.36
3698.420, 28761.33
3700.348, 28764.87
3702.277, 28824.88
3704.205, 28865.28
3706.134, 28872.59
3708.062, 28916.47
3709.991, 28980.69
3711.919, 29052.02
3713.848, 29107.66
3715.776, 29135.62
3717.705, 29154.71
3719.633, 29170.32
3721.562, 29227.20
3723.490, 29306.88
3725.418, 29379.59
3727.347, 29426.94
3729.275, 29499.98
3731.204, 29566.65
3733.132, 29615.68
3735.061, 29704.71
3736.989, 29749.75
3738.918, 29811.72
3740.846, 29889.05
3742.775, 29946.53
3744.703, 30013.28
3746.632, 30086.42
3748.560, 30142.34
3750.489, 30218.53
3752.417, 30289.89
3754.345, 30354.44
3756.274, 30411.95
3758.202, 30466.30
3760.131, 30517.74
3762.059, 30562.54
3763.988, 30609.24
3765.916, 30680.71
3767.845, 30750.11
3769.773, 30796.81
3771.702, 30865.01
3773.630, 30960.01
3775.559, 31050.04
3777.487, 31114.92
3779.416, 31082.29
3781.344, 31097.89
3783.272, 31245.27
3785.201, 31356.79
3787.129, 31417.97
3789.058, 31457.41
3790.986, 31491.53
3792.915, 31542.54
3794.843, 31593.69
3796.772, 31637.08
3798.700, 31702.35
3800.629, 31782.78
3802.557, 31850.90
3804.486, 31895.76
3806.414, 31960.80
3808.343, 32016.83
3810.271, 32060.51
3812.199, 32143.20
3814.128, 32186.61
3816.056, 32274.41
3817.985, 32360.03
3819.913, 32392.96
3821.842, 32461.80
3823.770, 32571.45
3825.699, 32648.82
3827.627, 32700.96
3829.556, 32771.22
3831.484, 32762.72
3833.413, 32847.75
3835.341, 32879.08
3837.270, 32868.66
3839.198, 32899.35
3841.126, 32957.65
3843.055, 33049.77
3844.983, 33108.25
3846.912, 33095.34
3848.840, 33120.75
3850.769, 33186.10
3852.697, 33317.11
3854.626, 33426.64
3856.554, 33445.57
3858.483, 33501.98
3860.411, 33613.98
3862.340, 33640.06
3864.268, 33728.96
3866.197, 33756.14
3868.125, 33872.91
3870.053, 33976.89
3871.982, 34048.24
3873.910, 34096.57
3875.839, 34162.03
3877.767, 34228.59
3879.696, 34274.03
3881.624, 34339.32
3883.553, 34429.29
3885.481, 34550.35
3887.410, 34661.93
3889.338, 34694.24
3891.267, 34718.90
3893.195, 34764.33
3895.124, 34805.37
3897.052, 34845.50
3898.980, 34877.92
3900.909, 34939.15
3902.837, 35085.75
3904.766, 35187.67
3906.694, 35228.71
3908.623, 35229.56
3910.551, 35237.46
3912.480, 35351.04
3914.408, 35457.59
3916.337, 35522.05
3918.265, 35542.95
3920.194, 35558.95
3922.122, 35683.45
3924.051, 35807.82
3925.979, 35841.42
3927.907, 35891.63
3929.836, 35971.44
3931.764, 36056.10
3933.693, 36119.15
3935.621, 36117.64
3937.550, 36141.38
3939.478, 36211.21
3941.407, 36287.32
3943.335, 36368.94
3945.264, 36432.32
3947.192, 36502.57
3949.121, 36550.78
3951.049, 36633.32
3952.978, 36665.31
3954.906, 36734.32
3956.834, 36798.99
3958.763, 36818.13
3960.691, 36870.41
3962.620, 36949.27
3964.548, 36997.54
3966.477, 37057.29
3968.405, 37147.13
3970.334, 37209.19
3972.262, 37244.49
3974.191, 37262.42
3976.119, 37273.62
3978.048, 37348.46
3979.976, 37443.24
3981.905, 37503.70
3983.833, 37536.45
3985.761, 37543.29
3987.690, 37594.84
3989.618, 37677.15
3991.547, 37741.43
3993.475, 37792.73
3995.404, 37855.20
3997.332, 37948.94
3999.261, 38026.14
4001.189, 38032.04
4003.118, 38044.01
4005.046, 38110.63
4006.975, 38189.95
4008.903, 38249.65
4010.832, 38279.86
4012.760, 38347.48
4014.688, 38427.42
4016.617, 38492.19
4018.545, 38567.47
4020.474, 38655.93
4022.402, 38746.55
4024.331, 38772.65
4026.259, 38782.31
4028.188, 38843.80
4030.116, 38913.94
4032.045, 38992.56
4033.973, 39063.84
4035.902, 39094.42
4037.830, 39141.39
4039.759, 39170.96
4041.687, 39219.78
4043.615, 39280.68
4045.544, 39336.13
4047.472, 39405.87
4049.401, 39483.48
4051.329, 39576.29
4053.258, 39650.15
4055.186, 39688.31
4057.115, 39753.98
4059.043, 39782.88
4060.972, 39768.44
4062.900, 39789.62
4064.829, 39874.79
4066.757, 39978.83
4068.686, 40049.95
4070.614, 40023.28
4072.542, 40018.24
4074.471, 40151.34
4076.399, 40247.73
4078.328, 40265.12
4080.256, 40272.71
4082.185, 40305.41
4084.113, 40356.85
4086.042, 40419.41
4087.970, 40454.09
4089.899, 40461.34
4091.827, 40485.85
4093.756, 40529.09
4095.684, 40572.74
4097.612, 40622.23
4099.541, 40677.13
4101.470, 40723.51
4103.398, 40754.66
4105.326, 40848.68
4107.255, 40892.68
4109.184, 41010.43
4111.112, 41018.84
4113.040, 41102.84
4114.969, 41164.40
4116.897, 41211.11
4118.826, 41212.43
4120.754, 41189.91
4122.683, 41255.46
4124.611, 41328.32
4126.540, 41372.59
4128.468, 41462.00
4130.396, 41553.36
4132.325, 41588.76
4134.253, 41623.59
4136.182, 41694.88
4138.110, 41771.50
4140.039, 41810.90
4141.967, 41815.97
4143.896, 41838.07
4145.824, 41871.61
4147.753, 41887.63
4149.681, 41926.46
4151.609, 41946.86
4153.538, 41980.43
4155.467, 42015.62
4157.395, 42059.88
4159.323, 42142.30
4161.252, 42211.93
4163.181, 42276.88
4165.109, 42353.72
4167.037, 42344.80
4168.966, 42318.13
4170.895, 42374.46
4172.823, 42411.75
4174.751, 42415.54
4176.680, 42458.96
4178.608, 42522.04
4180.537, 42538.25
4182.465, 42577.46
4184.394, 42619.96
4186.322, 42647.58
4188.250, 42720.32
4190.179, 42755.30
4192.107, 42800.96
4194.036, 42850.87
4195.964, 42890.66
4197.893, 42938.32
4199.821, 42990.05
4201.750, 42973.19
4203.678, 42905.80
4205.606, 42909.35
4207.535, 42959.23
4209.464, 43061.88
4211.392, 43120.94
4213.320, 43134.26
4215.249, 43120.37
4217.178, 43118.37
4219.106, 43148.73
4221.034, 43171.79
4222.963, 43184.37
4224.892, 43218.83
4226.820, 43191.46
4228.748, 43274.17
4230.677, 43326.99
4232.605, 43348.35
4234.534, 43313.84
4236.462, 43319.43
4238.391, 43388.32
4240.319, 43461.08
4242.248, 43526.34
4244.176, 43580.34
4246.104, 43609.89
4248.033, 43616.39
4249.961, 43613.75
4251.890, 43634.89
4253.818, 43727.80
4255.747, 43776.26
4257.675, 43772.41
4259.604, 43803.33
4261.532, 43835.70
4263.461, 43853.72
4265.389, 43845.51
4267.317, 43826.83
4269.246, 43850.34
4271.175, 43876.76
4273.103, 43885.02
4275.031, 43897.17
4276.960, 43915.27
4278.889, 43967.40
4280.817, 43965.61
4282.745, 43890.68
4284.674, 43895.68
4286.603, 43945.80
4288.531, 44019.89
4290.459, 44026.90
4292.388, 43967.16
4294.316, 43980.31
4296.245, 44032.96
4298.173, 44117.10
4300.102, 44140.44
4302.030, 44180.20
4303.958, 44168.01
4305.887, 44209.64
4307.815, 44226.04
4309.744, 44208.45
4311.672, 44185.90
4313.601, 44230.12
4315.529, 44217.04
4317.458, 44140.05
4319.386, 44153.25
4321.314, 44213.46
4323.243, 44291.51
4325.172, 44316.40
4327.100, 44299.95
4329.028, 44338.44
4330.957, 44347.15
4332.886, 44288.71
4334.814, 44335.39
4336.742, 44419.85
4338.671, 44408.43
4340.600, 44390.37
4342.528, 44390.70
4344.456, 44500.44
4346.385, 44601.40
4348.313, 44570.35
4350.242, 44565.66
4352.170, 44587.07
4354.099, 44596.00
4356.027, 44608.94
4357.956, 44638.10
4359.884, 44666.49
4361.813, 44684.46
4363.741, 44667.66
4365.669, 44658.79
4367.598, 44663.73
4369.526, 44685.93
4371.455, 44703.11
4373.383, 44694.98
4375.312, 44702.86
4377.240, 44720.69
4379.169, 44731.20
4381.097, 44738.09
4383.025, 44740.68
4384.954, 44772.54
4386.883, 44781.93
4388.811, 44779.58
4390.739, 44791.78
4392.668, 44769.39
4394.597, 44787.95
4396.525, 44785.34
4398.453, 44771.75
4400.382, 44738.76
4402.311, 44706.99
4404.239, 44696.42
4406.167, 44713.87
4408.096, 44758.30
4410.024, 44764.66
4411.953, 44783.74
4413.881, 44806.19
4415.810, 44788.59
4417.738, 44790.71
4419.667, 44756.43
4421.595, 44717.51
4423.523, 44682.89
4425.452, 44652.42
4427.380, 44641.09
4429.309, 44670.60
4431.237, 44684.76
4433.166, 44686.80
4435.094, 44745.45
4437.022, 44702.75
4438.951, 44844.11
4440.880, 44897.98
4442.808, 44924.27
4444.736, 44949.27
4446.665, 44954.02
4448.594, 44926.53
4450.522, 44922.36
4452.450, 44808.40
4454.379, 44866.32
4456.308, 44811.42
4458.236, 44763.41
4460.164, 44781.21
4462.093, 44817.70
4464.021, 44838.03
4465.950, 44779.49
4467.878, 44744.50
4469.807, 44729.19
4471.735, 44632.46
4473.664, 44610.38
4475.592, 44629.14
4477.521, 44742.64
4479.449, 44697.94
4481.377, 44726.46
4483.306, 44762.60
4485.234, 44788.94
4487.163, 44770.85
4489.091, 44783.84
4491.020, 44839.32
4492.948, 44767.85
4494.877, 44691.26
4496.805, 44729.32
4498.733, 44743.23
4500.662, 44732.37
4502.591, 44740.67
4504.519, 44684.66
4506.447, 44711.34
4508.376, 44671.29
4510.305, 44632.48
4512.233, 44633.51
4514.161, 44591.23
4516.090, 44543.56
4518.019, 44540.70
4519.947, 44523.07
4521.875, 44506.16
4523.804, 44527.47
4525.732, 44637.01
4527.661, 44571.99
4529.589, 44602.66
4531.518, 44628.46
4533.446, 44549.20
4535.375, 44524.69
4537.303, 44535.39
4539.231, 44543.54
4541.160, 44542.04
4543.088, 44535.57
4545.017, 44555.39
4546.945, 44550.14
4548.874, 44500.94
4550.802, 44489.63
4552.730, 44505.14
4554.659, 44562.41
4556.588, 44538.01
4558.516, 44461.22
4560.444, 44374.51
4562.373, 44366.54
4564.302, 44432.07
4566.230, 44437.61
4568.158, 44411.47
4570.087, 44367.70
4572.016, 44357.77
4573.944, 44349.01
4575.872, 44312.48
4577.801, 44258.27
4579.729, 44198.84
4581.658, 44147.39
4583.586, 44125.37
4585.515, 44135.26
4587.443, 44177.56
4589.372, 44215.49
4591.300, 44233.40
4593.229, 44244.14
4595.157, 44232.49
4597.085, 44185.78
4599.014, 44131.09
4600.942, 44084.04
4602.871, 44074.42
4604.799, 44055.44
4606.728, 44032.71
4608.656, 44035.26
4610.585, 44056.04
4612.513, 44079.51
4614.441, 44026.29
4616.370, 43953.59
4618.299, 43892.57
4620.227, 43837.56
4622.155, 43805.35
4624.084, 43779.77
4626.013, 43757.95
4627.941, 43764.12
4629.869, 43744.93
4631.798, 43751.70
4633.727, 43763.46
4635.655, 43729.46
4637.583, 43673.68
4639.512, 43613.98
4641.440, 43647.58
4643.369, 43668.05
4645.297, 43612.30
4647.226, 43540.73
4649.154, 43482.66
4651.083, 43460.34
4653.011, 43463.89
4654.939, 43477.04
4656.868, 43490.70
4658.796, 43476.64
4660.725, 43435.30
4662.653, 43361.54
4664.582, 43299.09
4666.510, 43254.81
4668.438, 43214.22
4670.367, 43168.61
4672.296, 43117.49
4674.224, 43081.41
4676.152, 43067.88
4678.081, 43086.96
4680.010, 43074.38
4681.938, 43074.70
4683.866, 43078.88
4685.795, 43132.84
4687.724, 43062.57
4689.652, 43066.43
4691.580, 43021.41
4693.509, 42938.76
4695.438, 42915.66
4697.366, 42874.23
4699.294, 42813.32
4701.223, 42870.40
4703.151, 42899.31
4705.080, 42852.39
4707.008, 42823.21
4708.937, 42791.33
4710.865, 42754.18
4712.793, 42649.92
4714.722, 42530.63
4716.650, 42430.57
4718.579, 42431.54
4720.507, 42458.34
4722.436, 42398.98
4724.364, 42386.55
4726.293, 42396.43
4728.221, 42364.60
4730.149, 42357.91
4732.078, 42359.60
4734.007, 42288.35
4735.935, 42200.73
4737.863, 42117.51
4739.792, 42080.72
4741.721, 42065.96
4743.649, 42061.96
4745.577, 41988.87
4747.506, 41923.47
4749.435, 41893.13
4751.363, 41862.54
4753.291, 41835.02
4755.220, 41812.36
4757.148, 41793.75
4759.077, 41751.59
4761.005, 41665.79
4762.934, 41614.58
4764.862, 41571.09
4766.791, 41537.82
4768.719, 41478.68
4770.647, 41503.61
4772.576, 41497.56
4774.504, 41479.05
4776.433, 41447.61
4778.361, 41390.89
4780.290, 41362.40
4782.218, 41340.36
4784.146, 41254.82
4786.075, 41193.08
4788.004, 41160.23
4789.932, 41130.71
4791.860, 41089.94
4793.789, 41036.54
4795.718, 40976.08
4797.646, 40924.10
4799.574, 40881.98
4801.503, 40832.30
4803.432, 40815.46
4805.360, 40836.65
4807.288, 40812.10
4809.217, 40778.79
4811.146, 40748.08
4813.074, 40709.68
4815.002, 40683.54
4816.931, 40673.79
4818.859, 40653.76
4820.788, 40598.62
4822.716, 40498.13
4824.645, 40446.99
4826.573, 40412.90
4828.501, 40378.26
4830.430, 40325.76
4832.358, 40278.43
4834.287, 40248.10
4836.215, 40216.87
4838.144, 40250.04
4840.072, 40173.84
4842.001, 40146.99
4843.929, 40123.54
4845.857, 40060.98
4847.786, 40041.47
4849.715, 40036.61
4851.643, 40019.92
4853.571, 40002.49
4855.500, 39981.26
4857.429, 39947.96
4859.357, 39916.73
4861.285, 39850.84
4863.214, 39788.38
4865.143, 39714.46
4867.071, 39653.21
4868.999, 39629.10
4870.928, 39614.47
4872.856, 39601.28
4874.785, 39580.67
4876.713, 39554.15
4878.642, 39499.39
4880.570, 39448.94
4882.499, 39345.16
4884.427, 39324.99
4886.355, 39261.00
4888.284, 39215.97
4890.212, 39168.05
4892.141, 39084.87
4894.069, 39052.27
4895.998, 39029.02
4897.926, 38974.66
4899.854, 38860.26
4901.783, 38749.73
4903.712, 38703.35
4905.640, 38682.70
4907.568, 38679.38
4909.497, 38650.05
4911.426, 38632.92
4913.354, 38623.40
4915.282, 38587.09
4917.211, 38580.97
4919.140, 38558.61
4921.068, 38476.62
4922.996, 38400.36
4924.925, 38348.95
4926.854, 38334.91
4928.782, 38236.66
4930.710, 38159.97
4932.639, 38173.20
4934.567, 38170.81
4936.496, 38113.05
4938.424, 38104.26
4940.353, 38014.65
4942.281, 38014.59
4944.209, 37914.60
4946.138, 37823.32
4948.066, 37741.62
4949.995, 37670.15
4951.923, 37655.09
4953.852, 37663.65
4955.780, 37672.19
4957.709, 37609.46
4959.637, 37534.82
4961.565, 37468.36
4963.494, 37429.88
4965.423, 37384.64
4967.351, 37327.73
4969.279, 37267.73
4971.208, 37187.28
4973.137, 37106.75
4975.065, 37107.38
4976.993, 37046.46
4978.922, 36961.99
4980.851, 36998.36
4982.779, 36944.62
4984.707, 36849.41
4986.636, 36820.68
4988.564, 36772.91
4990.493, 36719.20
4992.421, 36689.18
4994.350, 36612.83
4996.278, 36519.47
4998.207, 36433.19
5000.135, 36413.98
5002.063, 36386.35
5003.992, 36299.98
5005.920, 36282.09
5007.849, 36253.41
5009.777, 36177.17
5011.706, 36144.76
5013.634, 36102.38
5015.563, 36034.14
5017.491, 35987.59
5019.420, 35913.42
5021.348, 35823.13
5023.276, 35819.74
5025.205, 35802.10
5027.134, 35753.46
5029.062, 35688.38
5030.990, 35616.46
5032.919, 35556.86
5034.848, 35538.91
5036.776, 35506.72
5038.704, 35471.73
5040.633, 35460.30
5042.562, 35406.91
5044.490, 35317.32
5046.418, 35201.03
5048.347, 35121.71
5050.275, 35060.96
5052.204, 35007.37
5054.132, 34988.62
5056.061, 34958.54
5057.989, 34903.53
5059.917, 34856.15
5061.846, 34807.02
5063.774, 34752.20
5065.703, 34698.30
5067.631, 34643.07
5069.560, 34582.27
5071.488, 34522.59
5073.417, 34460.76
5075.345, 34359.52
5077.273, 34281.84
5079.202, 34218.09
5081.131, 34146.53
5083.059, 34099.22
5084.987, 34035.23
5086.916, 33992.83
5088.845, 33947.47
5090.773, 33934.93
5092.701, 33905.25
5094.630, 33860.88
5096.559, 33878.52
5098.487, 33863.45
5100.415, 33798.46
5102.344, 33681.46
5104.272, 33566.63
5106.201, 33483.02
5108.129, 33455.66
5110.058, 33430.13
5111.986, 33397.05
5113.915, 33372.43
5115.843, 33329.01
5117.771, 33313.91
5119.700, 33293.37
5121.628, 33253.58
5123.557, 33181.80
5125.485, 33091.18
5127.414, 33008.68
5129.342, 32972.05
5131.271, 32951.38
5133.199, 32906.28
5135.128, 32866.09
5137.056, 32820.19
5138.984, 32778.87
5140.913, 32724.51
5142.842, 32692.00
5144.770, 32664.92
5146.698, 32619.23
5148.627, 32572.56
5150.556, 32515.69
5152.484, 32459.65
5154.412, 32412.52
5156.341, 32347.05
5158.270, 32301.76
5160.198, 32288.58
5162.126, 32223.07
5164.055, 32192.74
5165.983, 32134.83
5167.912, 32069.37
5169.840, 32020.47
5171.769, 31946.01
5173.697, 31905.65
5175.625, 31875.02
5177.554, 31820.71
5179.482, 31768.04
5181.411, 31718.58
5183.339, 31673.04
5185.268, 31657.41
5187.196, 31585.87
5189.125, 31542.67
5191.053, 31498.32
5192.981, 31414.96
5194.910, 31392.29
5196.839, 31303.64
5198.767, 31230.24
5200.695, 31172.43
5202.624, 31104.74
5204.553, 31062.35
5206.481, 31001.51
5208.409, 30955.08
5210.338, 30898.19
5212.267, 30841.74
5214.195, 30788.97
5216.123, 30730.54
5218.052, 30686.84
5219.980, 30637.35
5221.909, 30605.90
5223.837, 30564.31
5225.766, 30517.14
5227.694, 30481.57
5229.623, 30423.07
5231.551, 30375.20
5233.479, 30322.59
5235.408, 30261.16
5237.336, 30184.64
5239.265, 30134.42
5241.193, 30044.06
5243.122, 29969.60
5245.050, 29927.03
5246.979, 29897.53
5248.907, 29805.24
5250.836, 29784.17
5252.764, 29782.06
5254.692, 29723.04
5256.621, 29690.25
5258.550, 29641.93
5260.478, 29573.28
5262.406, 29519.73
5264.335, 29508.20
5266.264, 29372.50
5268.192, 29346.20
5270.120, 29247.24
5272.049, 29150.78
5273.978, 29112.87
5275.906, 29074.03
5277.834, 29036.42
5279.763, 28991.78
5281.691, 28911.61
5283.620, 28885.88
5285.548, 28764.51
5287.477, 28796.70
5289.405, 28752.36
5291.333, 28682.52
5293.262, 28607.85
5295.190, 28510.26
5297.119, 28485.56
5299.047, 28471.81
5300.976, 28369.62
5302.904, 28324.44
5304.833, 28266.66
5306.761, 28174.20
5308.689, 28131.23
5310.618, 28109.35
5312.547, 28083.29
5314.475, 28024.44
5316.403, 27992.85
5318.332, 27948.53
5320.261, 27893.43
5322.189, 27848.19
5324.117, 27781.80
5326.046, 27700.29
5327.975, 27600.83
5329.903, 27563.39
5331.831, 27497.12
5333.760, 27427.02
5335.688, 27372.73
5337.617, 27293.47
5339.545, 27253.04
5341.474, 27177.30
5343.402, 27133.29
5345.331, 27077.81
5347.259, 26995.66
5349.188, 27000.90
5351.116, 26975.18
5353.044, 26906.01
5354.973, 26811.04
5356.901, 26723.53
5358.830, 26676.32
5360.758, 26613.26
5362.687, 26598.19
5364.615, 26538.03
5366.544, 26505.12
5368.472, 26489.44
5370.400, 26433.63
5372.329, 26361.19
5374.258, 26286.48
5376.186, 26213.31
5378.114, 26133.71
5380.043, 26058.14
5381.972, 25999.35
5383.900, 25985.66
5385.828, 25943.83
5387.757, 25871.49
5389.686, 25865.05
5391.614, 25797.99
5393.542, 25719.83
5395.471, 25690.98
5397.399, 25563.62
5399.328, 25491.02
5401.256, 25475.76
5403.185, 25422.37
5405.113, 25343.46
5407.042, 25274.37
5408.970, 25234.33
5410.898, 25216.31
5412.827, 25126.83
5414.755, 25094.88
5416.684, 24999.14
5418.612, 24977.06
5420.541, 24923.86
5422.469, 24838.81
5424.397, 24764.62
5426.326, 24651.57
5428.255, 24555.05
5430.183, 24522.06
5432.111, 24510.49
5434.040, 24503.44
5435.969, 24472.80
5437.897, 24351.95
5439.825, 24334.61
5441.754, 24296.84
5443.683, 24200.12
5445.611, 24204.39
5447.539, 24161.00
5449.468, 24086.54
5451.396, 24022.42
5453.325, 23966.21
5455.253, 23925.43
5457.182, 23887.61
5459.110, 23827.19
5461.039, 23722.75
5462.967, 23645.20
5464.896, 23620.20
5466.824, 23597.65
5468.752, 23540.60
5470.681, 23482.89
5472.609, 23455.37
5474.538, 23388.63
5476.466, 23317.32
5478.395, 23261.09
5480.323, 23241.22
5482.252, 23209.71
5484.180, 23132.96
5486.108, 23027.06
5488.037, 23008.93
5489.966, 22926.80
5491.894, 22849.37
5493.822, 22829.88
5495.751, 22764.40
5497.680, 22718.91
5499.608, 22694.13
5501.536, 22678.12
5503.465, 22571.32
5505.394, 22479.45
5507.322, 22426.22
5509.250, 22382.52
5511.179, 22372.40
5513.107, 22324.36
5515.036, 22230.71
5516.964, 22209.20
5518.893, 22136.34
5520.821, 22071.32
5522.750, 22062.24
5524.678, 22017.17
5526.606, 21909.31
5528.535, 21803.44
5530.463, 21780.88
5532.392, 21720.10
5534.320, 21666.80
5536.249, 21630.80
5538.177, 21607.45
5540.105, 21548.11
5542.034, 21489.40
5543.963, 21442.73
5545.891, 21387.23
5547.819, 21349.56
5549.748, 21306.98
5551.677, 21242.38
5553.605, 21191.49
5555.533, 21102.70
5557.462, 21070.85
5559.391, 20950.85
5561.319, 20891.57
5563.247, 20867.76
5565.176, 20836.36
5567.104, 20763.75
5569.033, 20700.68
5570.961, 20650.81
5572.890, 20609.71
5574.818, 20577.53
5576.747, 20496.90
5578.675, 20427.31
5580.604, 20382.85
5582.532, 20356.15
5584.460, 20292.77
5586.389, 20237.52
5588.317, 20198.65
5590.246, 20155.45
5592.174, 20120.37
5594.103, 20074.17
5596.031, 20015.09
5597.960, 19972.76
5599.888, 19893.46
5601.816, 19838.00
5603.745, 19821.11
5605.674, 19757.29
5607.602, 19685.15
5609.530, 19640.95
5611.459, 19580.38
5613.388, 19533.33
5615.316, 19482.87
5617.244, 19452.56
5619.173, 19417.49
5621.102, 19390.61
5623.030, 19354.73
5624.958, 19298.79
5626.887, 19222.11
5628.815, 19153.50
5630.744, 19072.10
5632.672, 19001.16
5634.601, 18956.68
5636.529, 18895.32
5638.458, 18853.53
5640.386, 18818.49
5642.314, 18772.36
5644.243, 18693.02
5646.171, 18639.82
5648.100, 18611.64
5650.028, 18593.89
5651.957, 18568.18
5653.885, 18506.39
5655.813, 18436.26
5657.742, 18384.45
5659.671, 18355.84
5661.599, 18311.64
5663.527, 18264.42
5665.456, 18228.55
5667.385, 18180.66
5669.313, 18095.80
5671.241, 18007.45
5673.170, 17954.17
5675.099, 17901.21
5677.027, 17862.39
5678.955, 17833.89
5680.884, 17798.68
5682.813, 17778.02
5684.741, 17717.92
5686.669, 17635.46
5688.598, 17554.14
5690.526, 17507.57
5692.455, 17434.66
5694.383, 17394.88
5696.312, 17335.07
5698.240, 17320.57
5700.168, 17312.21
5702.097, 17277.14
5704.025, 17202.99
5705.954, 17081.76
5707.882, 17041.09
5709.811, 17036.45
5711.739, 17021.41
5713.668, 16956.99
5715.596, 16904.07
5717.524, 16860.59
5719.453, 16826.22
5721.382, 16810.11
5723.310, 16761.23
5725.238, 16681.60
5727.167, 16607.54
5729.096, 16598.31
5731.024, 16543.09
5732.952, 16506.52
5734.881, 16486.87
5736.810, 16460.00
5738.738, 16406.29
5740.666, 16362.71
5742.595, 16295.54
5744.523, 16198.28
5746.452, 16258.15
5748.380, 16217.03
5750.309, 16123.06
5752.237, 16040.45
5754.166, 15994.34
5756.094, 15977.97
5758.022, 15909.40
5759.951, 15873.38
5761.879, 15821.12
5763.808, 15780.41
5765.736, 15724.47
5767.665, 15683.39
5769.593, 15646.49
5771.521, 15616.84
5773.450, 15577.05
5775.379, 15552.59
5777.307, 15515.84
5779.235, 15449.83
5781.164, 15390.09
5783.093, 15362.46
5785.021, 15354.12
5786.949, 15255.06
5788.878, 15184.58
5790.807, 15162.79
5792.735, 15152.53
5794.663, 15054.37
5796.592, 15031.68
5798.521, 14985.85
5800.449, 14915.38
5802.377, 14870.18
5804.306, 14827.75
5806.234, 14790.39
5808.163, 14749.29
5810.091, 14698.71
5812.020, 14660.83
5813.948, 14614.39
5815.876, 14568.60
5817.805, 14529.33
5819.733, 14492.15
5821.662, 14448.35
5823.590, 14393.32
5825.519, 14336.50
5827.447, 14291.54
5829.376, 14261.72
5831.304, 14229.12
5833.232, 14188.48
5835.161, 14142.66
5837.090, 14111.41
5839.018, 14078.81
5840.946, 14030.10
5842.875, 13975.29
5844.804, 13950.37
5846.732, 13898.10
5848.660, 13827.87
5850.589, 13766.10
5852.518, 13731.96
5854.446, 13682.21
5856.374, 13673.76
5858.303, 13663.29
5860.231, 13622.76
5862.160, 13550.34
5864.088, 13525.08
5866.017, 13475.54
5867.945, 13415.07
5869.874, 13386.08
5871.802, 13373.86
5873.730, 13336.77
5875.659, 13268.19
5877.587, 13195.88
5879.516, 13190.62
5881.444, 13145.85
5883.373, 13124.86
5885.301, 13093.33
5887.229, 13061.39
5889.158, 13024.79
5891.087, 12990.49
5893.015, 12956.01
5894.943, 12893.79
5896.872, 12885.03
5898.801, 12848.81
5900.729, 12796.34
5902.657, 12738.42
5904.586, 12683.46
5906.515, 12659.44
5908.443, 12633.36
5910.371, 12606.49
5912.300, 12584.02
5914.229, 12578.43
5916.157, 12484.51
5918.085, 12458.72
5920.014, 12443.29
5921.942, 12367.72
5923.871, 12351.11
5925.799, 12307.98
5927.728, 12274.91
5929.656, 12247.52
5931.584, 12194.02
5933.513, 12164.16
5935.441, 12140.20
5937.370, 12105.75
5939.298, 12066.38
5941.227, 11981.92
5943.155, 11970.68
5945.084, 11918.01
5947.012, 11849.58
5948.940, 11816.62
5950.869, 11797.48
5952.798, 11779.58
5954.726, 11723.66
5956.654, 11660.34
5958.583, 11651.95
5960.512, 11598.00
5962.440, 11570.94
5964.368, 11548.91
5966.297, 11512.10
5968.226, 11465.19
5970.154, 11415.78
5972.082, 11345.92
5974.011, 11305.96
5975.939, 11262.91
5977.868, 11219.96
5979.796, 11197.69
5981.725, 11195.33
5983.653, 11177.47
5985.582, 11132.43
5987.510, 11066.12
5989.438, 11037.39
5991.367, 11011.17
5993.295, 10975.93
5995.224, 10942.96
5997.152, 10947.55
5999.081, 10925.71
6001.009, 10872.34
6002.938, 10814.68
6004.866, 10797.11
6006.795, 10789.47
6008.723, 10721.87
6010.651, 10675.14
6012.580, 10671.18
6014.509, 10608.76
6016.437, 10584.38
6018.365, 10557.31
6020.294, 10525.97
6022.223, 10492.67
6024.151, 10464.08
6026.079, 10432.15
6028.008, 10402.67
6029.937, 10370.69
6031.865, 10338.47
6033.793, 10307.29
6035.722, 10268.09
6037.650, 10229.84
6039.579, 10184.90
6041.507, 10140.68
6043.436, 10090.95
6045.364, 10073.88
6047.292, 10045.01
6049.221, 10011.50
6051.149, 9996.843
6053.078, 9961.621
6055.006, 9949.602
6056.935, 9901.830
6058.863, 9878.382
6060.792, 9849.494
6062.720, 9806.577
6064.648, 9782.941
6066.577, 9731.561
6068.506, 9724.266
6070.434, 9678.651
6072.362, 9650.707
6074.291, 9614.304
6076.220, 9580.073
6078.148, 9556.184
6080.076, 9539.060
6082.005, 9504.260
6083.934, 9501.090
6085.862, 9450.935
6087.790, 9382.394
6089.719, 9336.750
6091.647, 9312.697
6093.576, 9313.745
6095.504, 9269.300
6097.433, 9227.644
6099.361, 9205.574
6101.290, 9137.326
6103.218, 9115.969
6105.146, 9092.747
6107.075, 9072.933
6109.003, 9043.658
6110.932, 9015.116
6112.860, 8981.303
6114.789, 8946.767
6116.717, 8905.388
6118.646, 8861.116
6120.574, 8819.584
6122.503, 8784.442
6124.431, 8750.788
6126.359, 8724.195
6128.288, 8690.367
6130.217, 8676.573
6132.145, 8644.104
6134.073, 8619.572
6136.002, 8592.640
6137.931, 8554.885
6139.859, 8524.025
6141.787, 8483.234
6143.716, 8427.458
6145.645, 8397.997
6147.573, 8383.286
6149.501, 8370.889
6151.430, 8361.494
6153.358, 8325.738
6155.287, 8330.494
6157.215, 8257.167
6159.144, 8203.287
6161.072, 8178.433
6163.000, 8180.044
6164.929, 8163.270
6166.857, 8099.261
6168.786, 8083.460
6170.714, 8063.533
6172.643, 8063.387
6174.571, 8031.749
6176.500, 8009.797
6178.428, 7977.492
6180.356, 7945.413
6182.285, 7931.081
6184.214, 7878.351
6186.142, 7850.001
6188.070, 7838.787
6189.999, 7812.163
6191.928, 7768.887
6193.856, 7769.143
6195.784, 7708.721
6197.713, 7672.089
6199.642, 7656.116
6201.570, 7646.212
6203.498, 7631.899
6205.427, 7603.688
6207.355, 7583.697
6209.284, 7544.040
6211.212, 7521.527
6213.141, 7493.678
6215.069, 7446.419
6216.998, 7443.614
6218.926, 7413.396
6220.854, 7368.646
6222.783, 7338.806
6224.711, 7333.502
6226.640, 7303.083
6228.568, 7306.783
6230.497, 7249.872
6232.425, 7218.736
6234.354, 7226.990
6236.282, 7161.419
6238.211, 7130.614
6240.139, 7114.982
6242.067, 7118.080
6243.996, 7112.470
6245.925, 7076.677
6247.853, 7025.440
6249.781, 6996.608
6251.710, 6975.857
6253.639, 6931.659
6255.567, 6901.549
6257.495, 6923.315
6259.424, 6885.096
6261.353, 6876.045
6263.281, 6849.699
6265.209, 6815.353
6267.138, 6789.063
6269.066, 6771.787
6270.995, 6719.974
6272.923, 6695.433
6274.852, 6695.975
6276.780, 6667.742
6278.708, 6622.638
6280.637, 6628.089
6282.565, 6598.873
6284.494, 6564.437
6286.422, 6556.005
6288.351, 6527.130
6290.279, 6478.162
6292.208, 6474.571
6294.136, 6463.741
6296.064, 6411.779
6297.993, 6383.215
6299.922, 6375.663
6301.850, 6365.077
6303.778, 6343.269
6305.707, 6320.708
6307.636, 6302.647
6309.564, 6255.678
6311.492, 6252.064
6313.421, 6233.788
6315.350, 6192.985
6317.278, 6178.790
6319.206, 6147.625
6321.135, 6125.478
6323.063, 6104.157
6324.992, 6077.517
6326.920, 6057.571
6328.849, 6037.779
6330.777, 6005.944
6332.706, 5982.885
6334.634, 5958.996
6336.563, 5935.070
6338.491, 5909.177
6340.419, 5902.424
6342.348, 5873.540
6344.276, 5861.114
6346.205, 5841.683
6348.133, 5818.746
6350.062, 5815.415
6351.990, 5817.861
6353.919, 5795.029
6355.847, 5786.247
6357.775, 5757.313
6359.704, 5742.489
6361.633, 5714.217
6363.561, 5673.229
6365.489, 5670.287
6367.418, 5655.985
6369.347, 5615.405
6371.275, 5574.546
6373.203, 5547.167
6375.132, 5519.786
6377.061, 5511.384
6378.989, 5484.451
6380.917, 5470.187
6382.846, 5469.847
6384.774, 5456.159
6386.703, 5414.887
6388.631, 5420.446
6390.560, 5365.431
6392.488, 5377.805
6394.417, 5378.002
6396.345, 5338.544
6398.273, 5299.032
6400.202, 5307.353
6402.130, 5293.740
6404.059, 5254.717
6405.987, 5233.688
6407.916, 5219.330
6409.844, 5195.317
6411.772, 5166.938
6413.701, 5158.614
6415.630, 5141.038
6417.558, 5117.059
6419.486, 5102.990
6421.415, 5076.089
6423.344, 5044.786
6425.272, 5054.212
6427.200, 5031.785
6429.129, 5004.662
6431.058, 4985.493
6432.986, 4974.039
6434.914, 4973.805
6436.843, 4972.372
6438.771, 4924.504
6440.700, 4902.181
6442.628, 4880.601
6444.557, 4851.655
6446.485, 4821.944
6448.414, 4803.092
6450.342, 4797.568
6452.271, 4791.133
6454.199, 4781.026
6456.127, 4764.663
6458.056, 4755.283
6459.984, 4725.064
6461.913, 4709.445
6463.841, 4687.741
6465.770, 4672.167
6467.698, 4665.221
6469.627, 4642.554
6471.555, 4633.049
6473.483, 4610.596
6475.412, 4590.228
6477.341, 4579.056
6479.269, 4574.013
6481.197, 4554.723
6483.126, 4546.394
6485.055, 4539.440
6486.983, 4512.437
6488.911, 4488.613
6490.840, 4489.150
6492.769, 4458.976
6494.697, 4458.423
6496.625, 4431.974
6498.554, 4426.282
6500.482, 4398.839
6502.411, 4368.495
6504.339, 4369.944
6506.268, 4343.351
6508.196, 4321.311
6510.125, 4314.822
6512.053, 4300.175
6513.981, 4289.031
6515.910, 4290.286
6517.838, 4272.942
6519.767, 4273.464
6521.695, 4249.983
6523.624, 4217.355
6525.552, 4194.360
6527.480, 4183.130
6529.409, 4174.738
6531.338, 4158.691
6533.266, 4139.308
6535.194, 4123.936
6537.123, 4114.625
6539.052, 4088.059
6540.980, 4093.524
6542.908, 4082.510
6544.837, 4061.313
6546.766, 4058.800
6548.694, 4059.976
6550.622, 4014.534
6552.551, 4006.608
6554.479, 4017.404
6556.408, 3992.292
6558.336, 3963.167
6560.265, 3946.931
6562.193, 3923.069
6564.122, 3901.480
6566.050, 3917.105
6567.979, 3903.355
6569.907, 3879.499
6571.835, 3854.965
6573.764, 3825.925
6575.692, 3806.248
6577.621, 3815.255
6579.549, 3820.263
6581.478, 3780.181
6583.406, 3764.731
6585.335, 3760.727
6587.263, 3736.286
6589.191, 3722.620
6591.120, 3735.120
6593.049, 3732.772
6594.977, 3708.168
6596.905, 3696.930
6598.834, 3691.113
6600.763, 3691.165
6602.691, 3663.487
6604.619, 3640.151
6606.548, 3631.484
6608.477, 3598.952
6610.405, 3589.711
6612.333, 3582.284
6614.262, 3604.259
6616.190, 3574.518
6618.119, 3573.041
6620.047, 3568.059
6621.976, 3542.070
6623.904, 3527.358
6625.833, 3506.544
6627.761, 3519.510
6629.689, 3504.432
##END=



