##NAMES=Polylithionite
##RRUFFID=R060225
##IDEAL CHEMISTRY=KLi_2_AlSi_4_O_10_F_2_
##LOCALITY=Mont Saint-Hilaire, Rouville County, Quebec, Canada
##OWNER=RRUFF
##SOURCE=Royal Ontario Museum
##DESCRIPTION=Tan colored hexagonal shaped mica
##STATUS=The identification of this mineral is confirmed by single-crystal X-ray diffraction and chemical analysis
##URL=https://www.rruff.net/odr/rruff_sample/R060225
##MEASURED CHEMISTRY=(K_0.95_[box]_0.05_)(Li_1.95_Mg_0.04_Mn_0.01_)(Al_0.97_Fe^3+^_0.03_)Si_4.00_O_10_(F_1.40_(OH)_0.60_)
##DIFFRACTION SAMPLE DESCRIPTION=Powder
##CELL PARAMETERS=a: 5.1962 b: 8.97 c: 10.0561 alpha: 90 beta: 100.449 gamma: 90 volume: 460.93 crystal system: monoclinic
##FILETYPE=Raman RAW
##RAMAN WAVELENGTH=532

86.13089, 34.72274
88.05936, 32.80017
89.98782, 30.70138
91.91629, 29.49567
93.84476, 29.61040
95.77322, 29.71978
97.70169, 29.63195
99.63016, 29.32895
101.5586, 28.89361
103.4871, 28.10606
105.4156, 27.31812
107.3440, 26.79704
109.2725, 26.39425
111.2010, 26.41293
113.1294, 27.14557
115.0579, 28.47678
116.9864, 29.77205
118.9148, 30.15992
120.8433, 30.77195
122.7718, 33.02507
124.7002, 37.00399
126.6287, 42.12630
128.5572, 48.07163
130.4856, 54.86644
132.4141, 62.56514
134.3426, 71.37901
136.2710, 81.02100
138.1995, 91.04967
140.1280, 101.6912
142.0564, 112.4626
143.9849, 122.9058
145.9134, 132.7650
147.8418, 143.8291
149.7703, 157.1494
151.6988, 170.4984
153.6272, 174.8057
155.5557, 177.7226
157.4842, 179.8732
159.4126, 180.6079
161.3411, 179.9051
163.2696, 180.9128
165.1980, 183.2145
167.1265, 187.1656
169.0550, 194.2365
170.9834, 205.8515
172.9119, 217.9609
174.8404, 229.8194
176.7688, 243.1461
178.6973, 251.8608
180.6258, 255.8560
182.5542, 255.1712
184.4827, 251.3008
186.4112, 242.6208
188.3396, 232.2758
190.2681, 221.4021
192.1966, 208.6509
194.1250, 197.9114
196.0535, 189.8644
197.9820, 183.8979
199.9104, 178.9742
201.8389, 176.6030
203.7674, 173.9802
205.6958, 169.5463
207.6243, 163.1325
209.5528, 157.7810
211.4812, 153.6017
213.4097, 150.7135
215.3382, 150.2178
217.2666, 153.5923
219.1951, 157.6517
221.1236, 161.4964
223.0520, 165.1610
224.9805, 168.4768
226.9090, 169.9503
228.8374, 171.3245
230.7659, 175.5673
232.6944, 181.4783
234.6228, 191.4700
236.5513, 206.9222
238.4798, 230.5108
240.4082, 251.7836
242.3367, 273.6432
244.2652, 292.6107
246.1936, 302.8697
248.1221, 301.1740
250.0506, 294.5282
251.9790, 284.8963
253.9075, 270.9559
255.8360, 258.2558
257.7644, 246.0320
259.6929, 236.2581
261.6214, 230.1902
263.5498, 231.1978
265.4783, 232.4607
267.4068, 233.4869
269.3352, 234.0069
271.2637, 231.9052
273.1922, 224.6511
275.1206, 215.8338
277.0491, 207.8952
278.9776, 199.9859
280.9060, 194.3645
282.8345, 192.1388
284.7630, 192.5769
286.6914, 194.1155
288.6199, 197.6607
290.5484, 201.5783
292.4768, 205.2984
294.4053, 209.1008
296.3338, 212.3573
298.2622, 214.6933
300.1907, 216.0089
302.1192, 216.2189
304.0476, 214.7213
305.9761, 212.9027
307.9046, 211.0126
309.8330, 209.0032
311.7615, 207.0009
313.6900, 205.2564
315.6184, 203.4014
317.5469, 201.2281
319.4754, 198.6732
321.4038, 196.1283
323.3323, 193.3765
325.2608, 190.5664
327.1892, 188.5842
329.1177, 187.7547
331.0462, 187.4006
332.9747, 187.2655
334.9031, 187.3354
336.8316, 187.4145
338.7601, 187.6663
340.6885, 188.1554
342.6170, 188.2854
344.5455, 187.4063
346.4739, 186.3690
348.4024, 185.6898
350.3309, 185.2528
352.2593, 185.3887
354.1878, 186.7010
356.1163, 188.8960
358.0447, 191.2518
359.9732, 193.9505
361.9017, 196.1058
363.8301, 197.1192
365.7586, 196.9260
367.6871, 195.9256
369.6155, 193.7163
371.5440, 191.7620
373.4725, 190.4410
375.4009, 189.5285
377.3294, 189.1353
379.2579, 189.7757
381.1863, 191.1560
383.1148, 193.2195
385.0433, 196.1860
386.9717, 199.6694
388.9002, 203.0585
390.8287, 206.4381
392.7571, 211.6636
394.6856, 219.0912
396.6141, 228.5849
398.5425, 241.0722
400.4710, 257.0924
402.3995, 274.5823
404.3279, 293.6139
406.2564, 312.6942
408.1849, 328.1757
410.1133, 338.8932
412.0418, 345.5382
413.9703, 347.4188
415.8987, 344.5302
417.8272, 337.6500
419.7557, 326.7771
421.6841, 314.0706
423.6126, 300.9473
425.5411, 287.1987
427.4695, 273.9303
429.3980, 262.1790
431.3265, 251.6515
433.2549, 241.6174
435.1834, 231.2724
437.1119, 221.9694
439.0403, 213.4823
440.9688, 205.9122
442.8973, 200.2594
444.8257, 197.7741
446.7542, 196.8339
448.6827, 195.9489
450.6111, 194.5897
452.5396, 192.8797
454.4681, 190.3699
456.3965, 187.9205
458.3250, 186.6314
460.2535, 186.6131
462.1819, 188.8840
464.1104, 194.1698
466.0389, 202.3591
467.9673, 210.8031
469.8958, 220.2058
471.8243, 228.5464
473.7527, 233.3733
475.6812, 233.3361
477.6097, 229.2261
479.5381, 223.2307
481.4666, 216.4091
483.3951, 209.3457
485.3235, 202.3165
487.2520, 197.0898
489.1805, 194.3649
491.1089, 193.1698
493.0374, 191.9517
494.9659, 190.3719
496.8943, 188.5115
498.8228, 186.4478
500.7513, 184.5266
502.6797, 183.1875
504.6082, 181.8957
506.5367, 181.6641
508.4651, 183.0349
510.3936, 186.1890
512.3221, 189.9794
514.2505, 193.9958
516.1790, 198.7166
518.1075, 204.3936
520.0359, 210.8738
521.9644, 218.4096
523.8929, 227.6321
525.8214, 238.2987
527.7498, 248.4905
529.6783, 258.7062
531.6068, 270.0611
533.5352, 282.3138
535.4637, 294.9370
537.3922, 309.5568
539.3206, 326.0989
541.2491, 346.3377
543.1776, 372.8938
545.1060, 406.2369
547.0345, 441.0893
548.9630, 476.2129
550.8914, 505.3805
552.8199, 525.7620
554.7484, 528.6341
556.6768, 518.2704
558.6053, 494.4974
560.5338, 464.6107
562.4622, 431.0779
564.3907, 395.9985
566.3192, 364.9218
568.2476, 338.8917
570.1761, 317.9184
572.1046, 301.1335
574.0330, 288.6763
575.9615, 277.0225
577.8900, 264.8539
579.8184, 251.7287
581.7469, 239.6690
583.6754, 228.0139
585.6038, 217.3824
587.5323, 208.5929
589.4608, 201.5350
591.3892, 195.2855
593.3177, 190.1508
595.2462, 186.1113
597.1746, 183.1164
599.1031, 180.9078
601.0316, 178.4590
602.9600, 175.6071
604.8885, 172.9993
606.8170, 171.0329
608.7454, 169.7533
610.6739, 168.5293
612.6024, 167.0440
614.5308, 165.4522
616.4593, 164.3364
618.3878, 163.8177
620.3162, 163.4494
622.2447, 163.1485
624.1732, 163.0247
626.1016, 162.9860
628.0301, 162.9198
629.9586, 163.0303
631.8870, 163.3043
633.8155, 163.9693
635.7440, 165.3517
637.6724, 167.7375
639.6009, 169.7114
641.5294, 170.3929
643.4578, 170.5459
645.3863, 171.0634
647.3148, 171.9399
649.2432, 173.0860
651.1717, 174.5652
653.1002, 176.4456
655.0286, 178.7162
656.9571, 181.3824
658.8856, 184.7415
660.8140, 188.4573
662.7425, 192.6597
664.6710, 197.8003
666.5994, 203.4548
668.5279, 210.5269
670.4564, 220.2791
672.3848, 231.8486
674.3133, 244.2705
676.2418, 257.7163
678.1702, 271.7616
680.0987, 287.0970
682.0272, 302.1323
683.9556, 319.4400
685.8841, 338.2946
687.8126, 361.1880
689.7410, 388.9140
691.6695, 424.1792
693.5980, 464.1583
695.5264, 504.7825
697.4549, 546.3948
699.3834, 596.5316
701.3118, 648.0419
703.2403, 714.4094
705.1688, 804.1178
707.0972, 915.6008
709.0257, 1037.281
710.9542, 1188.001
712.8826, 1311.491
714.8111, 1411.938
716.7396, 1466.677
718.6680, 1450.978
720.5965, 1352.401
722.5250, 1230.218
724.4534, 1083.639
726.3819, 929.3118
728.3104, 798.4109
730.2388, 697.8660
732.1673, 618.0656
734.0958, 564.1228
736.0242, 536.2981
737.9527, 507.7352
739.8812, 479.3855
741.8096, 448.4374
743.7381, 411.1744
745.6666, 367.9453
747.5950, 332.0050
749.5235, 306.8803
751.4520, 288.1204
753.3804, 274.8491
755.3089, 268.4353
757.2374, 264.7845
759.1658, 264.9302
761.0943, 266.8304
763.0228, 269.7239
764.9512, 273.5863
766.8797, 277.3971
768.8082, 280.3224
770.7366, 283.7231
772.6651, 288.3308
774.5936, 294.5139
776.5220, 301.6309
778.4505, 312.2558
780.3790, 320.8900
782.3074, 325.3489
784.2359, 325.6658
786.1644, 321.8947
788.0928, 311.6572
790.0213, 299.6400
791.9498, 287.1304
793.8782, 273.9911
795.8067, 262.8799
797.7352, 254.3797
799.6636, 247.5892
801.5921, 242.1241
803.5206, 238.0357
805.4490, 234.4731
807.3775, 231.9008
809.3060, 229.4020
811.2344, 226.2637
813.1629, 222.4936
815.0914, 219.6499
817.0198, 218.0642
818.9483, 217.1021
820.8768, 216.4972
822.8052, 216.2746
824.7337, 216.1342
826.6622, 216.0279
828.5906, 215.8618
830.5191, 215.6109
832.4476, 215.3833
834.3760, 215.5970
836.3045, 216.6944
838.2330, 217.7581
840.1614, 218.4366
842.0899, 218.7663
844.0184, 218.6057
845.9468, 217.1899
847.8753, 215.9778
849.8038, 215.6574
851.7322, 216.2027
853.6607, 216.8736
855.5892, 217.5317
857.5176, 218.4686
859.4461, 219.3104
861.3746, 220.5300
863.3030, 223.4743
865.2315, 229.2549
867.1600, 235.3342
869.0884, 242.3377
871.0169, 250.2096
872.9454, 254.7867
874.8738, 256.0591
876.8023, 254.9975
878.7308, 250.8226
880.6592, 244.0848
882.5877, 237.4480
884.5162, 230.7871
886.4446, 225.2572
888.3731, 221.1239
890.3016, 217.8998
892.2300, 214.8637
894.1585, 212.0311
896.0870, 209.2294
898.0154, 206.6135
899.9439, 203.9724
901.8724, 200.7104
903.8008, 196.3960
905.7293, 192.5676
907.6578, 189.6229
909.5862, 187.7795
911.5147, 186.4531
913.4432, 185.2671
915.3716, 184.0830
917.3001, 182.9550
919.2286, 182.1532
921.1570, 181.5642
923.0855, 181.2325
925.0140, 180.9394
926.9424, 180.7380
928.8709, 180.2343
930.7994, 179.4044
932.7278, 178.5050
934.6563, 178.0689
936.5848, 178.2016
938.5132, 178.6379
940.4417, 179.2353
942.3702, 179.9144
944.2986, 180.5281
946.2271, 181.0928
948.1556, 181.6764
950.0840, 182.3680
952.0125, 182.6518
953.9410, 182.7400
955.8694, 182.8592
957.7979, 183.3450
959.7264, 184.1506
961.6548, 185.1118
963.5833, 185.5876
965.5118, 185.2245
967.4402, 184.9582
969.3687, 185.5801
971.2972, 186.7349
973.2256, 187.2608
975.1541, 186.8000
977.0826, 186.6197
979.0110, 187.4412
980.9395, 188.9107
982.8680, 189.7185
984.7964, 189.3844
986.7249, 189.2162
988.6534, 189.5431
990.5818, 189.8879
992.5103, 189.8692
994.4388, 190.1919
996.3672, 190.5508
998.2957, 190.6223
1000.224, 190.4518
1002.153, 190.4457
1004.081, 190.6657
1006.010, 190.8457
1007.938, 190.9369
1009.867, 190.8977
1011.795, 190.7141
1013.723, 190.2551
1015.652, 189.7281
1017.580, 189.3932
1019.509, 189.3448
1021.437, 189.6836
1023.366, 189.8712
1025.294, 189.9660
1027.223, 189.8517
1029.151, 189.5111
1031.080, 189.1738
1033.008, 189.3290
1034.937, 189.5990
1036.865, 189.0473
1038.794, 188.6499
1040.722, 188.8807
1042.651, 189.5795
1044.579, 190.1350
1046.507, 190.1633
1048.436, 189.9461
1050.364, 189.5605
1052.293, 189.4950
1054.221, 190.1057
1056.150, 190.1880
1058.078, 190.6743
1060.007, 191.3921
1061.935, 191.8051
1063.864, 193.0196
1065.792, 193.9232
1067.721, 193.6717
1069.649, 193.6987
1071.578, 194.2719
1073.506, 194.7795
1075.434, 194.6218
1077.363, 194.2989
1079.291, 194.8790
1081.220, 196.0442
1083.148, 196.5294
1085.077, 195.9891
1087.005, 194.8821
1088.934, 194.5073
1090.862, 194.8943
1092.791, 195.2876
1094.719, 195.7538
1096.648, 196.4493
1098.576, 197.2384
1100.505, 197.5323
1102.433, 197.0122
1104.361, 196.1194
1106.290, 195.6536
1108.218, 195.9613
1110.147, 196.6758
1112.075, 196.9820
1114.004, 196.9973
1115.932, 197.2182
1117.861, 197.4903
1119.789, 197.5286
1121.718, 197.2921
1123.646, 196.9815
1125.575, 197.1190
1127.503, 198.0361
1129.432, 199.1222
1131.360, 199.5813
1133.288, 199.3149
1135.217, 198.8817
1137.145, 199.0815
1139.074, 199.9673
1141.002, 201.2819
1142.931, 202.9063
1144.859, 205.0339
1146.788, 207.1712
1148.716, 209.7283
1150.645, 213.2080
1152.573, 216.8310
1154.502, 219.7865
1156.430, 221.5980
1158.359, 223.4760
1160.287, 224.2704
1162.215, 223.0004
1164.144, 219.4800
1166.072, 215.1573
1168.001, 210.6818
1169.929, 207.3992
1171.858, 204.6845
1173.786, 202.3340
1175.715, 200.7345
1177.643, 200.1620
1179.572, 200.1122
1181.500, 200.6751
1183.429, 201.2683
1185.357, 201.4055
1187.286, 201.0524
1189.214, 200.5794
1191.142, 199.9497
1193.071, 199.3007
1194.999, 198.8836
1196.928, 198.8504
1198.856, 199.2224
1200.785, 199.9483
1202.713, 200.1401
1204.642, 199.2520
1206.570, 198.6928
1208.499, 198.8761
1210.427, 199.3545
1212.356, 199.4389
1214.284, 199.2453
1216.213, 199.2570
1218.141, 199.2409
1220.069, 199.3747
1221.998, 199.6891
1223.926, 200.1647
1225.855, 200.4416
1227.783, 200.6044
1229.712, 200.9000
1231.640, 201.2164
1233.569, 201.3548
1235.497, 201.4287
1237.426, 201.5460
1239.354, 201.9484
1241.283, 202.6641
1243.211, 203.3903
1245.140, 204.0070
1247.068, 204.5290
1248.996, 204.4241
1250.925, 202.6869
1252.853, 201.4178
1254.782, 201.9571
1256.710, 203.8643
1258.639, 205.3277
1260.567, 206.0242
1262.496, 205.9250
1264.424, 204.8182
1266.353, 204.3684
1268.281, 205.3999
1270.210, 207.5494
1272.138, 208.4925
1274.067, 207.4844
1275.995, 206.7576
1277.923, 207.5730
1279.852, 209.3675
1281.780, 210.4651
1283.709, 210.5309
1285.637, 210.2181
1287.566, 209.5058
1289.494, 209.3481
1291.423, 209.9175
1293.351, 210.9611
1295.280, 212.0132
1297.208, 213.3529
1299.137, 214.1440
1301.065, 213.8974
1302.994, 213.5410
1304.922, 213.6108
1306.850, 213.9757
1308.779, 214.3386
1310.707, 214.8705
1312.636, 215.3058
1314.564, 215.1321
1316.493, 214.7580
1318.421, 215.2958
1320.350, 216.6870
1322.278, 217.5266
1324.207, 217.4785
1326.135, 217.3371
1328.064, 216.9632
1329.992, 216.5378
1331.921, 216.9405
1333.849, 218.4858
1335.777, 219.3790
1337.706, 218.5175
1339.634, 217.8158
1341.563, 218.0120
1343.491, 218.6797
1345.420, 219.3014
1347.348, 220.2401
1349.277, 220.7346
1351.205, 220.0772
1353.134, 219.3247
1355.062, 219.4438
1356.991, 220.3364
1358.919, 220.7382
1360.848, 220.4173
1362.776, 220.1949
1364.704, 220.2759
1366.633, 220.5414
1368.561, 221.0858
1370.490, 221.8192
1372.418, 222.0285
1374.347, 221.2268
1376.275, 220.7632
1378.204, 221.4386
1380.132, 222.4582
1382.061, 223.0658
1383.989, 223.2751
1385.918, 223.5356
1387.846, 223.9288
1389.775, 224.3108
1391.703, 224.8991
1393.631, 225.3894
1395.560, 225.2414
1397.488, 224.1398
1399.417, 223.8566
1401.345, 224.9853
1403.274, 226.0537
1405.202, 226.7873
1407.131, 227.1368
1409.059, 226.9063
1410.988, 225.9757
1412.916, 225.4433
1414.845, 225.8039
1416.773, 226.0572
1418.702, 225.5707
1420.630, 224.9356
1422.558, 225.0047
1424.487, 225.7636
1426.415, 226.5371
1428.344, 227.1959
1430.272, 227.8793
1432.201, 228.9698
1434.129, 229.9328
1436.058, 229.7821
1437.986, 228.3986
1439.915, 227.6302
1441.843, 228.0544
1443.772, 228.6120
1445.700, 229.1168
1447.629, 229.4804
1449.557, 229.6191
1451.485, 229.6498
1453.414, 229.3909
1455.342, 228.1951
1457.271, 227.4095
1459.199, 227.5181
1461.128, 228.2626
1463.056, 229.4034
1464.985, 231.2122
1466.913, 231.9255
1468.842, 230.6347
1470.770, 229.5062
1472.699, 229.3392
1474.627, 229.5804
1476.556, 229.7738
1478.484, 229.8894
1480.412, 229.3219
1482.341, 227.4298
1484.269, 226.3394
1486.198, 227.1775
1488.126, 228.5208
1490.055, 229.0659
1491.983, 228.9111
1493.912, 228.8429
1495.840, 229.0883
1497.769, 229.2713
1499.697, 228.9131
1501.626, 228.6144
1503.554, 229.2436
1505.483, 230.6095
1507.411, 231.3916
1509.339, 231.2996
1511.268, 231.3342
1513.196, 231.8099
1515.125, 232.3845
1517.053, 232.7329
1518.982, 232.9443
1520.910, 233.5786
1522.839, 234.7574
1524.767, 235.9329
1526.696, 237.2428
1528.624, 238.3112
1530.553, 239.0137
1532.481, 239.2888
1534.410, 239.0082
1536.338, 237.7192
1538.266, 237.5405
1540.195, 239.5175
1542.123, 241.4601
1544.052, 242.6006
1545.980, 243.2746
1547.909, 243.9993
1549.837, 244.9221
1551.766, 245.9203
1553.694, 247.3673
1555.623, 248.3008
1557.551, 248.4988
1559.480, 247.9715
1561.408, 246.3225
1563.337, 243.9812
1565.265, 243.1933
1567.193, 244.5250
1569.122, 245.6479
1571.050, 246.2847
1572.979, 246.7224
1574.907, 246.9725
1576.836, 247.1130
1578.764, 247.4411
1580.693, 247.9413
1582.621, 248.1541
1584.550, 247.6821
1586.478, 247.5657
1588.407, 248.7762
1590.335, 250.2040
1592.264, 250.1534
1594.192, 248.8133
1596.120, 248.4463
1598.049, 249.5960
1599.977, 250.7007
1601.906, 251.2756
1603.834, 251.6894
1605.763, 252.0192
1607.691, 252.4552
1609.620, 253.6129
1611.548, 255.7148
1613.477, 257.0182
1615.405, 256.3944
1617.334, 255.9938
1619.262, 257.3451
1621.191, 259.1493
1623.119, 259.8462
1625.047, 259.5290
1626.976, 259.1886
1628.904, 258.7818
1630.833, 258.7454
1632.761, 259.8541
1634.690, 260.7867
1636.618, 260.4495
1638.547, 259.3680
1640.475, 258.7110
1642.404, 258.4887
1644.332, 258.6879
1646.261, 259.5032
1648.189, 260.3230
1650.118, 261.0615
1652.046, 261.5874
1653.974, 261.5363
1655.903, 261.0982
1657.831, 261.4614
1659.760, 262.9095
1661.688, 264.3141
1663.617, 265.6531
1665.545, 266.5348
1667.474, 266.5551
1669.402, 266.0820
1671.331, 265.5391
1673.259, 264.9221
1675.188, 265.0296
1677.116, 266.2052
1679.045, 267.5318
1680.973, 269.2881
1682.901, 270.6284
1684.830, 270.6830
1686.758, 270.0013
1688.687, 270.1295
1690.615, 271.2046
1692.544, 271.7173
1694.472, 270.9971
1696.401, 270.5969
1698.329, 271.0612
1700.258, 271.9882
1702.186, 273.3614
1704.115, 275.0038
1706.043, 275.9864
1707.972, 276.1672
1709.900, 276.5479
1711.828, 277.5789
1713.757, 278.2926
1715.685, 277.6694
1717.614, 277.0961
1719.542, 278.1440
1721.471, 280.4577
1723.399, 282.0621
1725.328, 282.9667
1727.256, 282.9995
1729.185, 281.3454
1731.113, 280.1027
1733.042, 280.3736
1734.970, 281.2402
1736.899, 281.8405
1738.827, 282.2023
1740.755, 282.4699
1742.684, 282.4989
1744.612, 283.0214
1746.541, 284.6684
1748.469, 286.0207
1750.398, 286.5447
1752.326, 286.4672
1754.255, 285.6349
1756.183, 284.3331
1758.112, 284.1242
1760.040, 285.3540
1761.969, 286.0164
1763.897, 285.0446
1765.826, 284.6546
1767.754, 286.6502
1769.682, 288.9569
1771.611, 289.5570
1773.539, 288.8422
1775.468, 288.1190
1777.396, 287.3507
1779.325, 287.2192
1781.253, 288.3227
1783.182, 289.1238
1785.110, 288.7920
1787.039, 288.1331
1788.967, 287.7403
1790.896, 287.5755
1792.824, 287.5185
1794.753, 287.5612
1796.681, 287.7329
1798.609, 287.8722
1800.538, 288.4613
1802.466, 289.1650
1804.395, 290.8589
1806.323, 295.7946
1808.252, 301.5024
1810.180, 303.1759
1812.109, 300.9135
1814.037, 297.9495
1815.966, 293.7994
1817.894, 290.9326
1819.823, 290.5976
1821.751, 290.8751
1823.680, 290.6386
1825.608, 290.4726
1827.536, 291.4924
1829.465, 293.5204
1831.393, 294.5858
1833.322, 294.4105
1835.250, 294.2207
1837.179, 294.2136
1839.107, 294.1578
1841.036, 293.7268
1842.964, 293.4261
1844.893, 293.8864
1846.821, 294.8069
1848.750, 295.2306
1850.678, 294.9952
1852.607, 295.0019
1854.535, 295.4010
1856.464, 295.8802
1858.392, 296.4958
1860.320, 297.1057
1862.249, 297.2847
1864.177, 297.5973
1866.106, 298.9267
1868.034, 301.2043
1869.963, 303.8456
1871.891, 308.0392
1873.820, 309.0769
1875.748, 303.4019
1877.677, 299.2826
1879.605, 300.4574
1881.534, 302.5264
1883.462, 301.8960
1885.391, 299.9415
1887.319, 299.9901
1889.247, 301.9861
1891.176, 303.2149
1893.104, 303.3606
1895.033, 303.2527
1896.961, 303.0168
1898.890, 302.7097
1900.818, 302.0972
1902.747, 301.7140
1904.675, 302.2998
1906.604, 303.3984
1908.532, 303.7210
1910.461, 303.2284
1912.389, 303.5132
1914.318, 305.2381
1916.246, 306.1721
1918.174, 304.9728
1920.103, 303.8163
1922.031, 303.7305
1923.960, 304.1889
1925.888, 304.6276
1927.817, 305.1242
1929.745, 305.9273
1931.674, 306.9697
1933.602, 308.6779
1935.531, 312.1930
1937.459, 314.6025
1939.388, 315.7097
1941.316, 315.5504
1943.245, 313.1599
1945.173, 310.3418
1947.101, 308.7984
1949.030, 308.4218
1950.958, 308.9961
1952.887, 310.6784
1954.815, 312.0692
1956.744, 312.9566
1958.672, 313.8965
1960.601, 315.3819
1962.529, 316.3494
1964.458, 315.9514
1966.386, 315.2579
1968.315, 314.9195
1970.243, 315.0707
1972.172, 316.2276
1974.100, 318.3073
1976.028, 319.9978
1977.957, 321.2483
1979.885, 321.8376
1981.814, 321.0399
1983.742, 320.7029
1985.671, 322.0154
1987.599, 323.5048
1989.528, 323.7094
1991.456, 323.5941
1993.385, 325.2211
1995.313, 328.3213
1997.242, 329.6632
1999.170, 328.2744
2001.099, 327.6377
2003.027, 328.0139
2004.955, 328.6572
2006.884, 329.9784
2008.812, 330.8788
2010.741, 330.5370
2012.669, 329.8299
2014.598, 329.4676
2016.526, 329.5600
2018.455, 330.4923
2020.383, 332.2528
2022.312, 334.0675
2024.240, 335.9287
2026.169, 337.4640
2028.097, 338.5160
2030.026, 339.3004
2031.954, 339.6570
2033.882, 340.0415
2035.811, 340.7489
2037.739, 341.6881
2039.668, 343.0668
2041.596, 344.5967
2043.525, 344.8619
2045.453, 343.5222
2047.382, 342.8649
2049.310, 343.2770
2051.239, 343.6941
2053.167, 343.8607
2055.096, 344.3261
2057.024, 345.5485
2058.953, 346.8440
2060.881, 347.9064
2062.810, 348.6761
2064.738, 348.7407
2066.667, 348.4041
2068.595, 349.2681
2070.523, 351.3595
2072.452, 353.0143
2074.380, 354.0131
2076.309, 354.9607
2078.237, 356.2509
2080.166, 356.9928
2082.094, 356.2216
2084.023, 355.4771
2085.951, 355.9084
2087.880, 355.7898
2089.808, 357.0335
2091.737, 356.9512
2093.665, 357.5385
2095.594, 358.8882
2097.522, 359.9198
2099.450, 360.6149
2101.379, 361.0714
2103.307, 360.9160
2105.236, 361.2266
2107.164, 362.5151
2109.093, 363.9594
2111.021, 365.5782
2112.950, 366.7680
2114.878, 366.8464
2116.807, 366.2242
2118.735, 365.3158
2120.664, 364.3287
2122.592, 364.2227
2124.521, 365.0923
2126.449, 366.4829
2128.377, 368.8820
2130.306, 370.6324
2132.234, 370.8110
2134.163, 371.2420
2136.091, 372.6806
2138.020, 374.1842
2139.948, 375.5148
2141.877, 376.3503
2143.805, 376.1278
2145.734, 375.2426
2147.662, 374.1319
2149.591, 373.0775
2151.519, 374.5041
2153.448, 378.6761
2155.376, 381.6803
2157.304, 382.8803
2159.233, 383.4909
2161.161, 383.4554
2163.090, 383.4612
2165.018, 383.3552
2166.947, 383.9086
2168.875, 386.5617
2170.804, 389.2513
2172.732, 389.4445
2174.661, 388.1896
2176.589, 387.3820
2178.518, 387.0587
2180.446, 388.3169
2182.375, 391.3024
2184.303, 392.3263
2186.231, 390.6505
2188.160, 389.5664
2190.088, 389.7796
2192.017, 390.4348
2193.945, 391.7696
2195.874, 392.7436
2197.802, 392.4850
2199.731, 392.0126
2201.659, 391.9396
2203.588, 392.2859
2205.516, 393.4861
2207.445, 395.1211
2209.373, 395.6948
2211.302, 395.2794
2213.230, 395.2617
2215.158, 395.7455
2217.087, 395.7388
2219.015, 394.9006
2220.944, 394.4746
2222.872, 394.7236
2224.801, 395.2236
2226.729, 395.9306
2228.658, 396.6547
2230.586, 397.2602
2232.515, 397.9357
2234.443, 399.4319
2236.372, 400.7285
2238.300, 399.8628
2240.229, 397.8621
2242.157, 397.6247
2244.085, 398.9568
2246.014, 400.1801
2247.942, 401.2188
2249.871, 401.9967
2251.799, 402.5659
2253.728, 402.0638
2255.656, 399.3255
2257.585, 397.8571
2259.513, 399.4007
2261.442, 401.2534
2263.370, 403.2838
2265.299, 404.4015
2267.227, 403.1753
2269.156, 401.5169
2271.084, 401.1700
2273.012, 401.6212
2274.941, 402.2885
2276.869, 403.0023
2278.798, 403.0399
2280.726, 402.5962
2282.655, 403.2577
2284.583, 405.1905
2286.512, 406.9630
2288.440, 408.8640
2290.369, 409.6766
2292.297, 407.8932
2294.226, 407.4059
2296.154, 409.5044
2298.083, 411.8307
2300.011, 414.1170
2301.939, 415.9215
2303.868, 417.1001
2305.796, 417.5796
2307.725, 416.6709
2309.653, 415.5786
2311.582, 415.9194
2313.510, 417.1191
2315.439, 417.7257
2317.367, 418.1164
2319.296, 420.0783
2321.224, 423.6613
2323.153, 428.0396
2325.081, 433.5241
2327.010, 436.9278
2328.938, 437.8817
2330.866, 437.1317
2332.795, 434.3169
2334.723, 431.1556
2336.652, 427.4708
2338.580, 424.6563
2340.509, 423.8324
2342.437, 423.2154
2344.366, 422.0761
2346.294, 420.7661
2348.223, 419.0596
2350.151, 417.7432
2352.080, 417.9781
2354.008, 418.8269
2355.937, 418.7888
2357.865, 418.2814
2359.793, 418.1371
2361.722, 418.4258
2363.650, 419.7368
2365.579, 422.1673
2367.507, 423.5493
2369.436, 423.6792
2371.364, 423.4479
2373.293, 422.6179
2375.221, 422.1194
2377.150, 421.7343
2379.078, 422.7775
2381.007, 426.7308
2382.935, 429.2283
2384.864, 427.2747
2386.792, 425.8936
2388.720, 427.8953
2390.649, 429.9712
2392.577, 429.7656
2394.506, 429.5487
2396.434, 431.5580
2398.363, 433.9850
2400.291, 434.6410
2402.220, 434.6252
2404.148, 435.5336
2406.077, 436.9714
2408.005, 438.0093
2409.934, 438.8405
2411.862, 440.6080
2413.791, 441.5455
2415.719, 442.6966
2417.647, 444.2538
2419.576, 444.9489
2421.504, 446.7944
2423.433, 448.1914
2425.361, 448.9620
2427.290, 449.8196
2429.218, 451.1700
2431.147, 451.9026
2433.075, 450.8113
2435.004, 450.6671
2436.932, 452.5617
2438.861, 454.5739
2440.789, 456.0787
2442.718, 457.5538
2444.646, 459.3140
2446.574, 460.8808
2448.503, 461.8102
2450.431, 462.6219
2452.360, 463.8961
2454.288, 465.1158
2456.217, 465.7823
2458.145, 466.0423
2460.074, 466.8889
2462.002, 464.6851
2463.931, 468.3023
2465.859, 468.5072
2467.788, 469.9222
2469.716, 472.6148
2471.645, 472.8444
2473.573, 475.2853
2475.501, 477.7065
2477.430, 480.1696
2479.358, 481.2977
2481.287, 480.8010
2483.215, 481.4029
2485.144, 483.3592
2487.072, 484.7137
2489.001, 485.0114
2490.929, 486.1058
2492.858, 488.5101
2494.786, 491.1845
2496.715, 494.5632
2498.643, 497.1748
2500.572, 498.6721
2502.500, 499.6154
2504.428, 499.7831
2506.357, 500.0864
2508.285, 500.3569
2510.214, 501.7110
2512.142, 506.0907
2514.071, 509.7737
2515.999, 510.3418
2517.928, 510.1156
2519.856, 510.0946
2521.785, 510.3783
2523.713, 510.9152
2525.642, 511.8876
2527.570, 514.0379
2529.499, 516.1728
2531.427, 516.8109
2533.355, 516.8627
2535.284, 517.4856
2537.212, 518.5358
2539.141, 519.5587
2541.069, 520.8368
2542.998, 523.2010
2544.926, 526.1693
2546.855, 528.7108
2548.783, 530.7487
2550.712, 532.0632
2552.640, 532.8121
2554.569, 534.1405
2556.497, 536.0769
2558.426, 537.9727
2560.354, 539.9134
2562.282, 542.3407
2564.211, 545.2202
2566.139, 546.9581
2568.068, 548.9404
2569.996, 550.8587
2571.925, 551.9135
2573.853, 554.2503
2575.782, 555.3243
2577.710, 557.1625
2579.639, 560.0934
2581.567, 563.1580
2583.496, 566.4368
2585.424, 569.4069
2587.353, 571.4285
2589.281, 574.3986
2591.209, 579.3700
2593.138, 582.9641
2595.066, 583.7833
2596.995, 585.9182
2598.923, 590.8347
2600.852, 595.0320
2602.780, 597.3741
2604.709, 599.1826
2606.637, 600.7191
2608.566, 602.0724
2610.494, 603.1816
2612.423, 604.4515
2614.351, 605.5385
2616.280, 607.8802
2618.208, 613.0264
2620.136, 617.9401
2622.065, 621.8249
2623.993, 624.4264
2625.922, 624.2646
2627.850, 624.6093
2629.779, 627.1892
2631.707, 629.9885
2633.636, 632.4766
2635.564, 634.3159
2637.493, 634.8637
2639.421, 635.4893
2641.350, 637.1614
2643.278, 639.0613
2645.207, 639.9125
2647.135, 641.7256
2649.063, 647.2353
2650.992, 652.0823
2652.920, 652.2347
2654.849, 651.6578
2656.777, 653.6520
2658.706, 655.9519
2660.634, 656.1813
2662.563, 656.7234
2664.491, 659.3048
2666.420, 663.1161
2668.348, 668.4787
2670.277, 673.5383
2672.205, 676.7940
2674.134, 678.6039
2676.062, 678.5336
2677.990, 678.0131
2679.919, 677.9867
2681.847, 678.7255
2683.776, 680.6754
2685.704, 683.4418
2687.633, 687.5098
2689.561, 691.2269
2691.490, 691.3957
2693.418, 691.7148
2695.347, 697.5320
2697.275, 703.6269
2699.204, 703.8348
2701.132, 703.1409
2703.061, 707.5017
2704.989, 713.0583
2706.917, 716.3536
2708.846, 718.0200
2710.774, 717.5197
2712.703, 716.8785
2714.631, 717.2060
2716.560, 719.1480
2718.488, 724.3215
2720.417, 730.3966
2722.345, 735.8037
2724.274, 740.0907
2726.202, 742.1101
2728.131, 743.8199
2730.059, 746.8057
2731.988, 750.4869
2733.916, 754.3806
2735.844, 758.5286
2737.773, 763.2893
2739.701, 767.8060
2741.630, 771.3404
2743.558, 774.4105
2745.487, 777.6199
2747.415, 780.4183
2749.344, 781.8857
2751.272, 783.4598
2753.201, 785.6051
2755.129, 789.1765
2757.058, 796.7169
2758.986, 803.1869
2760.915, 803.0982
2762.843, 803.5149
2764.771, 810.5857
2766.700, 817.4843
2768.628, 820.2211
2770.557, 821.8888
2772.485, 823.1262
2774.414, 825.2125
2776.342, 828.7323
2778.271, 833.3389
2780.199, 840.6923
2782.128, 846.2445
2784.056, 847.3566
2785.985, 848.5587
2787.913, 852.2998
2789.842, 856.0250
2791.770, 858.4943
2793.698, 861.4386
2795.627, 864.9536
2797.555, 869.4349
2799.484, 875.3422
2801.412, 880.7231
2803.341, 885.0016
2805.269, 888.2091
2807.198, 889.4562
2809.126, 891.8344
2811.055, 896.5318
2812.983, 900.1726
2814.912, 901.9340
2816.840, 903.8801
2818.769, 905.6996
2820.697, 909.5478
2822.625, 912.8384
2824.554, 916.9515
2826.482, 922.4902
2828.411, 926.4493
2830.339, 933.9980
2832.268, 939.5578
2834.196, 942.7648
2836.125, 945.2095
2838.053, 946.9697
2839.982, 950.1797
2841.910, 954.9469
2843.839, 960.8593
2845.767, 967.8032
2847.696, 973.5983
2849.624, 978.4882
2851.552, 984.3890
2853.481, 990.8796
2855.409, 996.5869
2857.338, 1001.382
2859.266, 1004.182
2861.195, 1006.120
2863.123, 1010.444
2865.052, 1016.014
2866.980, 1021.382
2868.909, 1026.108
2870.837, 1028.690
2872.766, 1031.133
2874.694, 1036.564
2876.623, 1042.671
2878.551, 1046.052
2880.479, 1050.124
2882.408, 1059.491
2884.336, 1068.148
2886.265, 1070.387
2888.193, 1072.173
2890.122, 1076.736
2892.050, 1081.732
2893.979, 1085.807
2895.907, 1090.728
2897.836, 1098.493
2899.764, 1105.118
2901.693, 1108.996
2903.621, 1113.411
2905.550, 1118.911
2907.478, 1125.333
2909.406, 1133.325
2911.335, 1140.574
2913.263, 1147.035
2915.192, 1152.170
2917.120, 1155.799
2919.049, 1161.670
2920.977, 1170.604
2922.906, 1178.441
2924.834, 1185.151
2926.763, 1190.906
2928.691, 1196.004
2930.620, 1203.174
2932.548, 1208.166
2934.477, 1216.437
2936.405, 1219.605
2938.333, 1224.781
2940.262, 1231.295
2942.190, 1238.804
2944.119, 1245.974
2946.047, 1250.526
2947.976, 1254.345
2949.904, 1258.554
2951.833, 1264.083
2953.761, 1273.549
2955.690, 1281.513
2957.618, 1282.472
2959.547, 1284.155
2961.475, 1291.663
2963.404, 1297.422
2965.332, 1298.080
2967.260, 1300.082
2969.189, 1307.262
2971.117, 1312.465
2973.046, 1314.852
2974.974, 1316.188
2976.903, 1316.273
2978.831, 1320.515
2980.760, 1330.158
2982.688, 1338.716
2984.617, 1346.077
2986.545, 1350.972
2988.474, 1354.041
2990.402, 1358.764
2992.331, 1364.576
2994.259, 1370.090
2996.188, 1375.469
2998.116, 1380.882
3000.044, 1386.698
3001.973, 1394.283
3003.901, 1401.397
3005.830, 1404.878
3007.758, 1408.608
3009.687, 1415.385
3011.615, 1422.600
3013.544, 1429.029
3015.472, 1435.487
3017.401, 1441.664
3019.329, 1448.646
3021.258, 1456.335
3023.186, 1465.510
3025.115, 1473.162
3027.043, 1485.758
3028.971, 1490.721
3030.900, 1498.301
3032.828, 1508.487
3034.757, 1520.669
3036.685, 1533.745
3038.614, 1541.645
3040.542, 1546.568
3042.471, 1553.782
3044.399, 1562.532
3046.328, 1572.215
3048.256, 1582.068
3050.185, 1591.947
3052.113, 1600.911
3054.042, 1608.254
3055.970, 1614.792
3057.898, 1620.053
3059.827, 1626.312
3061.755, 1634.238
3063.684, 1643.884
3065.612, 1650.598
3067.541, 1658.147
3069.469, 1666.503
3071.398, 1671.478
3073.326, 1680.053
3075.255, 1686.410
3077.183, 1691.339
3079.112, 1699.440
3081.040, 1705.952
3082.969, 1715.858
3084.897, 1721.770
3086.825, 1731.837
3088.754, 1742.105
3090.682, 1747.364
3092.611, 1753.060
3094.539, 1766.075
3096.468, 1775.185
3098.396, 1774.855
3100.325, 1774.779
3102.253, 1777.828
3104.182, 1782.554
3106.110, 1789.241
3108.039, 1795.587
3109.967, 1801.478
3111.896, 1808.474
3113.824, 1816.615
3115.752, 1827.171
3117.681, 1832.278
3119.609, 1842.739
3121.538, 1844.778
3123.466, 1850.085
3125.395, 1857.350
3127.323, 1865.875
3129.252, 1874.885
3131.180, 1884.005
3133.109, 1893.268
3135.037, 1902.913
3136.966, 1912.641
3138.894, 1923.441
3140.823, 1928.992
3142.751, 1927.554
3144.679, 1931.824
3146.608, 1942.180
3148.536, 1950.842
3150.465, 1958.818
3152.393, 1970.754
3154.322, 1977.306
3156.250, 1988.963
3158.179, 1993.452
3160.107, 2002.758
3162.036, 2012.960
3163.964, 2021.411
3165.893, 2030.847
3167.821, 2043.650
3169.750, 2054.054
3171.678, 2060.327
3173.606, 2068.867
3175.535, 2081.198
3177.463, 2089.552
3179.392, 2094.919
3181.320, 2106.526
3183.249, 2114.114
3185.177, 2128.454
3187.106, 2134.270
3189.034, 2147.579
3190.963, 2161.835
3192.891, 2171.574
3194.820, 2181.272
3196.748, 2192.591
3198.677, 2205.023
3200.605, 2218.761
3202.533, 2231.872
3204.462, 2244.294
3206.390, 2254.181
3208.319, 2265.352
3210.247, 2272.326
3212.176, 2283.917
3214.104, 2290.991
3216.033, 2297.628
3217.961, 2311.000
3219.890, 2325.398
3221.818, 2338.194
3223.747, 2347.889
3225.675, 2349.501
3227.604, 2357.044
3229.532, 2374.244
3231.460, 2388.849
3233.389, 2398.413
3235.317, 2409.708
3237.246, 2421.989
3239.174, 2429.847
3241.103, 2441.262
3243.031, 2447.776
3244.960, 2460.497
3246.888, 2468.765
3248.817, 2476.609
3250.745, 2486.542
3252.674, 2496.842
3254.602, 2506.946
3256.531, 2517.224
3258.459, 2528.659
3260.387, 2541.288
3262.316, 2552.429
3264.244, 2564.249
3266.173, 2577.368
3268.101, 2587.686
3270.030, 2599.214
3271.958, 2610.594
3273.887, 2621.093
3275.815, 2629.083
3277.744, 2639.030
3279.672, 2653.605
3281.601, 2668.243
3283.529, 2682.097
3285.458, 2698.483
3287.386, 2716.928
3289.314, 2730.094
3291.243, 2738.994
3293.171, 2744.457
3295.100, 2750.317
3297.028, 2760.599
3298.957, 2773.448
3300.885, 2790.574
3302.814, 2804.088
3304.742, 2811.043
3306.671, 2818.505
3308.599, 2827.990
3310.528, 2838.339
3312.456, 2849.882
3314.385, 2863.536
3316.313, 2878.660
3318.241, 2894.726
3320.170, 2910.464
3322.098, 2925.495
3324.027, 2938.355
3325.955, 2947.634
3327.884, 2956.108
3329.812, 2963.926
3331.741, 2977.215
3333.669, 2991.058
3335.598, 3012.856
3337.526, 3026.290
3339.455, 3047.813
3341.383, 3071.011
3343.312, 3087.482
3345.240, 3101.946
3347.168, 3116.783
3349.097, 3131.536
3351.025, 3145.303
3352.954, 3162.372
3354.882, 3183.596
3356.811, 3202.100
3358.739, 3217.680
3360.668, 3227.951
3362.596, 3238.649
3364.525, 3262.577
3366.453, 3287.609
3368.382, 3307.239
3370.310, 3321.460
3372.239, 3342.111
3374.167, 3360.268
3376.095, 3375.146
3378.024, 3398.323
3379.952, 3413.381
3381.881, 3431.174
3383.809, 3448.962
3385.738, 3461.454
3387.666, 3473.763
3389.595, 3489.278
3391.523, 3506.268
3393.452, 3525.111
3395.380, 3540.616
3397.309, 3551.948
3399.237, 3565.026
3401.166, 3578.159
3403.094, 3582.371
3405.022, 3584.178
3406.951, 3591.890
3408.879, 3603.585
3410.808, 3620.330
3412.736, 3636.106
3414.665, 3649.717
3416.593, 3661.097
3418.522, 3670.325
3420.450, 3677.677
3422.379, 3684.197
3424.307, 3691.865
3426.236, 3701.339
3428.164, 3713.239
3430.093, 3726.866
3432.021, 3741.705
3433.949, 3758.465
3435.878, 3773.852
3437.806, 3794.258
3439.735, 3807.279
3441.663, 3824.159
3443.592, 3841.500
3445.520, 3851.196
3447.449, 3862.449
3449.377, 3882.134
3451.306, 3903.240
3453.234, 3923.540
3455.163, 3945.512
3457.091, 3969.140
3459.020, 3990.831
3460.948, 4011.842
3462.876, 4036.460
3464.805, 4061.481
3466.733, 4084.724
3468.662, 4105.743
3470.590, 4133.583
3472.519, 4158.357
3474.447, 4183.971
3476.376, 4211.430
3478.304, 4228.899
3480.233, 4252.495
3482.161, 4274.389
3484.090, 4281.444
3486.018, 4292.486
3487.947, 4320.560
3489.875, 4345.954
3491.803, 4364.946
3493.732, 4390.471
3495.660, 4413.625
3497.589, 4442.597
3499.517, 4461.883
3501.446, 4488.334
3503.374, 4513.373
3505.303, 4532.503
3507.231, 4549.842
3509.160, 4566.350
3511.088, 4581.744
3513.017, 4597.396
3514.945, 4622.033
3516.874, 4647.993
3518.802, 4660.271
3520.730, 4675.291
3522.659, 4704.529
3524.587, 4729.047
3526.516, 4744.382
3528.444, 4758.556
3530.373, 4772.229
3532.301, 4786.062
3534.230, 4801.603
3536.158, 4821.328
3538.087, 4843.408
3540.015, 4868.380
3541.944, 4892.479
3543.872, 4915.231
3545.801, 4937.409
3547.729, 4958.944
3549.657, 4978.991
3551.586, 4998.408
3553.514, 5016.915
3555.443, 5037.333
3557.371, 5062.130
3559.300, 5085.282
3561.228, 5105.980
3563.157, 5122.727
3565.085, 5142.945
3567.014, 5157.728
3568.942, 5177.976
3570.871, 5193.376
3572.799, 5209.119
3574.728, 5227.021
3576.656, 5245.286
3578.584, 5263.764
3580.513, 5275.525
3582.441, 5288.992
3584.370, 5322.390
3586.298, 5354.717
3588.227, 5368.736
3590.155, 5389.814
3592.084, 5423.767
3594.012, 5456.100
3595.941, 5485.104
3597.869, 5501.364
3599.798, 5516.779
3601.726, 5549.234
3603.655, 5574.205
3605.583, 5580.982
3607.511, 5595.709
3609.440, 5622.016
3611.368, 5641.064
3613.297, 5657.213
3615.225, 5674.462
3617.154, 5697.146
3619.082, 5728.361
3621.011, 5759.452
3622.939, 5786.968
3624.868, 5812.898
3626.796, 5838.521
3628.725, 5873.992
3630.653, 5907.521
3632.582, 5921.388
3634.510, 5941.708
3636.438, 5981.177
3638.367, 6011.275
3640.295, 6032.404
3642.224, 6062.358
3644.152, 6096.104
3646.081, 6126.651
3648.009, 6157.802
3649.938, 6192.196
3651.866, 6223.130
3653.795, 6249.372
3655.723, 6286.188
3657.652, 6311.849
3659.580, 6347.458
3661.509, 6366.937
3663.437, 6393.270
3665.365, 6418.982
3667.294, 6444.060
3669.222, 6463.451
3671.151, 6480.579
3673.079, 6500.965
3675.008, 6528.228
3676.936, 6565.844
3678.865, 6605.914
3680.793, 6648.780
3682.722, 6673.690
3684.650, 6685.969
3686.579, 6709.626
3688.507, 6737.713
3690.436, 6768.426
3692.364, 6791.641
3694.292, 6813.120
3696.221, 6818.983
3698.149, 6850.904
3700.078, 6874.439
3702.006, 6895.813
3703.935, 6923.956
3705.863, 6949.002
3707.792, 6965.156
3709.720, 6983.881
3711.649, 7005.591
3713.577, 7029.396
3715.506, 7052.577
3717.434, 7074.206
3719.363, 7099.012
3721.291, 7117.739
3723.219, 7144.016
3725.148, 7165.913
3727.076, 7180.802
3729.005, 7195.475
3730.933, 7220.664
3732.862, 7244.673
3734.790, 7263.017
3736.719, 7279.484
3738.647, 7294.404
3740.576, 7307.029
3742.504, 7321.873
3744.433, 7347.985
3746.361, 7373.691
3748.290, 7398.122
3750.218, 7409.357
3752.146, 7410.540
3754.075, 7414.415
3756.003, 7426.226
3757.932, 7455.370
3759.860, 7486.992
3761.789, 7517.531
3763.717, 7544.034
3765.646, 7565.333
3767.574, 7571.494
3769.503, 7580.683
3771.431, 7614.539
3773.360, 7648.710
3775.288, 7679.068
3777.217, 7704.078
3779.145, 7740.991
3781.073, 7768.135
3783.002, 7809.722
3784.930, 7844.170
3786.859, 7877.977
3788.787, 7912.313
3790.716, 7937.943
3792.644, 7962.745
3794.573, 8004.456
3796.501, 8044.885
3798.430, 8072.508
3800.358, 8109.506
3802.287, 8156.491
3804.215, 8179.716
3806.144, 8198.246
3808.072, 8236.690
3810.000, 8276.662
3811.929, 8312.069
3813.857, 8349.624
3815.786, 8388.006
3817.714, 8416.475
3819.643, 8446.550
3821.571, 8492.132
3823.500, 8531.563
3825.428, 8560.916
3827.357, 8589.812
3829.285, 8618.274
3831.214, 8649.115
3833.142, 8673.333
3835.071, 8701.291
3836.999, 8722.395
3838.927, 8745.578
3840.856, 8760.815
3842.784, 8765.812
3844.713, 8780.872
3846.641, 8798.771
3848.570, 8821.571
3850.498, 8824.184
3852.427, 8842.150
3854.355, 8840.325
3856.284, 8862.996
3858.212, 8865.670
3860.141, 8870.645
3862.069, 8881.675
3863.998, 8889.179
3865.926, 8894.000
3867.854, 8892.564
3869.783, 8899.891
3871.711, 8922.313
3873.640, 8939.299
3875.568, 8953.090
3877.497, 8983.556
3879.425, 9012.175
3881.354, 9022.363
3883.282, 9036.187
3885.211, 9056.947
3887.139, 9075.743
3889.068, 9096.710
3890.996, 9129.294
3892.925, 9159.871
3894.853, 9183.007
3896.781, 9208.895
3898.710, 9238.144
3900.638, 9275.603
3902.567, 9309.571
3904.495, 9345.466
3906.424, 9381.275
3908.352, 9416.948
3910.281, 9452.896
3912.209, 9482.501
3914.138, 9518.720
3916.066, 9557.723
3917.995, 9598.265
3919.923, 9632.899
3921.852, 9661.860
3923.780, 9691.573
3925.708, 9723.627
3927.637, 9755.629
3929.565, 9790.618
3931.494, 9825.573
3933.422, 9844.311
3935.351, 9863.938
3937.279, 9893.451
3939.208, 9921.607
3941.136, 9947.090
3943.065, 9982.607
3944.993, 10015.88
3946.922, 10027.85
3948.850, 10043.16
3950.779, 10067.11
3952.707, 10095.50
3954.635, 10122.08
3956.564, 10139.63
3958.492, 10155.97
3960.421, 10173.00
3962.349, 10199.70
3964.278, 10229.75
3966.206, 10242.83
3968.135, 10259.51
3970.063, 10294.34
3971.992, 10322.36
3973.920, 10342.51
3975.849, 10377.04
3977.777, 10412.65
3979.706, 10437.33
3981.634, 10463.33
3983.563, 10492.01
3985.491, 10518.00
3987.419, 10539.18
3989.348, 10548.20
3991.276, 10565.32
3993.205, 10594.63
3995.133, 10619.77
3997.062, 10640.23
3998.990, 10651.83
4000.919, 10669.09
4002.847, 10698.33
4004.776, 10726.04
4006.704, 10750.51
4008.633, 10765.05
4010.561, 10781.59
4012.490, 10804.63
4014.418, 10824.25
4016.346, 10842.69
4018.275, 10861.55
4020.203, 10877.25
4022.132, 10895.42
4024.060, 10905.75
4025.989, 10921.01
4027.917, 10931.55
4029.846, 10937.73
4031.774, 10948.91
4033.703, 10957.42
4035.631, 10963.86
4037.560, 10973.98
4039.488, 10979.01
4041.417, 10992.94
4043.345, 11004.99
4045.273, 11020.19
4047.202, 11037.70
4049.130, 11051.07
4051.059, 11069.18
4052.987, 11092.60
4054.916, 11103.42
4056.844, 11122.00
4058.773, 11137.89
4060.701, 11152.47
4062.630, 11158.18
4064.558, 11186.38
4066.487, 11206.89
4068.415, 11229.75
4070.344, 11259.39
4072.272, 11284.54
4074.200, 11307.84
4076.129, 11334.84
4078.057, 11362.40
4079.986, 11390.92
4081.914, 11416.58
4083.843, 11452.59
4085.771, 11487.98
4087.700, 11522.14
4089.628, 11549.92
4091.557, 11579.83
4093.485, 11622.22
4095.414, 11660.24
4097.342, 11687.64
4099.271, 11718.17
4101.199, 11748.62
4103.127, 11776.94
4105.056, 11800.22
4106.984, 11831.22
4108.913, 11859.52
4110.841, 11889.25
4112.770, 11920.14
4114.698, 11950.34
4116.627, 11981.50
4118.555, 12011.52
4120.484, 12038.77
4122.412, 12070.83
4124.341, 12097.30
4126.269, 12124.63
4128.198, 12145.86
4130.126, 12169.89
4132.055, 12194.28
4133.983, 12222.27
4135.912, 12258.77
4137.840, 12284.37
4139.769, 12302.67
4141.697, 12323.30
4143.625, 12345.88
4145.554, 12371.24
4147.482, 12393.46
4149.411, 12422.21
4151.339, 12445.72
4153.268, 12462.54
4155.196, 12478.89
4157.125, 12481.84
4159.053, 12494.85
4160.981, 12491.93
4162.910, 12510.33
4164.838, 12520.71
4166.767, 12529.79
4168.695, 12547.03
4170.624, 12561.25
4172.552, 12565.60
4174.481, 12581.70
4176.409, 12576.65
4178.338, 12599.11
4180.266, 12594.25
4182.195, 12588.82
4184.123, 12597.38
4186.052, 12591.22
4187.980, 12574.73
4189.909, 12576.49
4191.837, 12579.65
4193.766, 12576.78
4195.694, 12587.01
4197.623, 12603.37
4199.551, 12615.86
4201.479, 12614.21
4203.408, 12598.12
4205.336, 12605.38
4207.265, 12624.57
4209.193, 12637.36
4211.122, 12655.20
4213.050, 12678.89
4214.979, 12706.66
4216.907, 12737.60
4218.835, 12760.10
4220.764, 12791.54
4222.692, 12814.92
4224.621, 12853.40
4226.549, 12865.13
4228.478, 12885.81
4230.406, 12915.39
4232.335, 12953.14
4234.263, 12992.76
4236.192, 13033.48
4238.120, 13074.35
4240.049, 13104.43
4241.977, 13155.49
4243.906, 13186.00
4245.834, 13248.92
4247.763, 13306.99
4249.691, 13347.24
4251.620, 13375.14
4253.548, 13408.81
4255.477, 13444.89
4257.405, 13472.68
4259.333, 13511.82
4261.262, 13533.38
4263.190, 13567.33
4265.119, 13600.08
4267.047, 13627.26
4268.976, 13661.58
4270.904, 13695.54
4272.833, 13719.36
4274.761, 13737.99
4276.689, 13750.64
4278.618, 13747.52
4280.546, 13740.07
4282.475, 13734.45
4284.403, 13748.30
4286.332, 13747.02
4288.260, 13764.65
4290.189, 13761.91
4292.117, 13783.27
4294.046, 13793.47
4295.974, 13797.26
4297.903, 13810.87
4299.831, 13808.38
4301.760, 13812.99
4303.688, 13820.49
4305.617, 13814.78
4307.545, 13827.49
4309.474, 13829.80
4311.402, 13822.13
4313.331, 13817.41
4315.259, 13808.61
4317.188, 13792.13
4319.116, 13799.93
4321.044, 13796.48
4322.973, 13809.96
4324.901, 13812.24
4326.830, 13834.96
4328.758, 13858.27
4330.687, 13878.70
4332.615, 13905.36
4334.543, 13917.00
4336.472, 13956.05
4338.400, 13975.71
4340.329, 13996.74
4342.257, 14029.53
4344.186, 14053.43
4346.114, 14073.98
4348.043, 14099.07
4349.971, 14117.48
4351.900, 14139.00
4353.828, 14155.08
4355.757, 14170.05
4357.685, 14188.95
4359.614, 14207.71
4361.542, 14225.73
4363.471, 14249.47
4365.399, 14265.77
4367.328, 14288.64
4369.256, 14312.56
4371.185, 14326.60
4373.113, 14312.67
4375.042, 14303.04
4376.970, 14304.40
4378.898, 14317.95
4380.827, 14333.17
4382.755, 14338.88
4384.684, 14358.11
4386.612, 14384.57
4388.541, 14410.52
4390.469, 14421.43
4392.397, 14414.12
4394.326, 14437.83
4396.254, 14462.28
4398.183, 14457.20
4400.111, 14475.33
4402.040, 14508.63
4403.968, 14522.84
4405.897, 14544.55
4407.825, 14581.64
4409.754, 14599.67
4411.682, 14616.84
4413.611, 14651.04
4415.539, 14679.97
4417.468, 14705.08
4419.396, 14742.70
4421.325, 14778.41
4423.253, 14807.96
4425.182, 14848.14
4427.110, 14890.75
4429.039, 14926.19
4430.967, 14961.37
4432.896, 14994.62
4434.824, 15020.07
4436.752, 15039.72
4438.681, 15053.82
4440.609, 15068.24
4442.538, 15083.19
4444.466, 15099.09
4446.395, 15116.09
4448.323, 15134.23
4450.251, 15157.38
4452.180, 15171.24
4454.108, 15171.11
4456.037, 15166.37
4457.965, 15164.63
4459.894, 15174.30
4461.822, 15178.53
4463.751, 15179.54
4465.679, 15193.86
4467.608, 15193.41
4469.536, 15171.14
4471.465, 15170.78
4473.393, 15172.17
4475.322, 15152.87
4477.250, 15141.78
4479.179, 15135.48
4481.107, 15121.24
4483.036, 15117.93
4484.964, 15128.54
4486.893, 15118.45
4488.821, 15103.19
4490.750, 15091.40
4492.678, 15081.19
4494.606, 15074.22
4496.535, 15073.13
4498.463, 15078.32
4500.392, 15088.85
4502.320, 15096.67
4504.249, 15108.11
4506.177, 15124.35
4508.105, 15137.39
4510.034, 15156.58
4511.962, 15176.12
4513.891, 15196.32
4515.819, 15229.42
4517.748, 15249.92
4519.676, 15273.07
4521.605, 15301.67
4523.533, 15322.64
4525.462, 15343.10
4527.390, 15365.88
4529.319, 15411.65
4531.247, 15458.44
4533.176, 15467.50
4535.104, 15489.49
4537.033, 15528.18
4538.961, 15575.06
4540.890, 15614.90
4542.818, 15641.87
4544.747, 15678.20
4546.675, 15714.69
4548.604, 15744.54
4550.532, 15777.03
4552.460, 15810.86
4554.389, 15844.53
4556.317, 15871.82
4558.246, 15891.28
4560.174, 15920.42
4562.103, 15913.98
4564.031, 15965.11
4565.959, 15975.62
4567.888, 15988.19
4569.816, 16035.73
4571.745, 16061.25
4573.673, 16078.90
4575.602, 16122.38
4577.530, 16153.92
4579.459, 16168.51
4581.387, 16195.74
4583.316, 16176.62
4585.244, 16223.27
4587.173, 16228.45
4589.101, 16229.83
4591.030, 16253.53
4592.958, 16241.53
4594.887, 16225.08
4596.815, 16252.22
4598.744, 16265.17
4600.672, 16261.44
4602.601, 16253.01
4604.529, 16246.81
4606.458, 16243.71
4608.386, 16223.42
4610.314, 16206.19
4612.243, 16200.75
4614.171, 16186.83
4616.100, 16168.11
4618.028, 16149.29
4619.957, 16132.31
4621.885, 16116.91
4623.813, 16102.39
4625.742, 16077.94
4627.670, 16044.83
4629.599, 16016.73
4631.527, 15994.17
4633.456, 15975.97
4635.384, 15946.10
4637.313, 15913.16
4639.241, 15883.91
4641.170, 15864.75
4643.098, 15854.68
4645.027, 15851.89
4646.955, 15839.41
4648.884, 15833.13
4650.812, 15838.84
4652.741, 15843.83
4654.669, 15855.96
4656.598, 15868.43
4658.526, 15883.78
4660.455, 15893.56
4662.383, 15905.08
4664.312, 15916.16
4666.240, 15924.73
4668.168, 15939.76
4670.097, 15949.51
4672.025, 15968.86
4673.954, 15991.99
4675.882, 16030.40
4677.811, 16109.08
4679.739, 16149.72
4681.667, 16168.36
4683.596, 16200.14
4685.524, 16242.02
4687.453, 16288.83
4689.381, 16327.97
4691.310, 16369.46
4693.238, 16410.14
4695.167, 16431.41
4697.095, 16417.85
4699.024, 16466.31
4700.952, 16477.26
4702.881, 16486.47
4704.809, 16513.68
4706.738, 16525.12
4708.666, 16534.92
4710.595, 16559.50
4712.523, 16571.51
4714.452, 16570.65
4716.380, 16554.33
4718.309, 16553.00
4720.237, 16559.15
4722.166, 16554.88
4724.094, 16542.42
4726.022, 16527.75
4727.951, 16512.10
4729.879, 16495.82
4731.808, 16476.80
4733.736, 16462.90
4735.665, 16454.07
4737.593, 16443.15
4739.521, 16420.68
4741.450, 16402.67
4743.378, 16397.25
4745.307, 16369.98
4747.235, 16352.89
4749.164, 16363.17
4751.092, 16337.22
4753.021, 16312.22
4754.949, 16336.61
4756.878, 16324.16
4758.806, 16288.52
4760.735, 16239.65
4762.663, 16237.08
4764.592, 16259.20
4766.520, 16273.37
4768.449, 16264.11
4770.377, 16248.96
4772.306, 16273.89
4774.234, 16270.63
4776.163, 16248.07
4778.091, 16250.36
4780.020, 16265.69
4781.948, 16281.00
4783.876, 16253.79
4785.805, 16240.75
4787.733, 16245.60
4789.662, 16203.39
4791.590, 16178.90
4793.519, 16182.95
4795.447, 16159.27
4797.375, 16133.05
4799.304, 16112.90
4801.232, 16090.52
4803.161, 16074.63
4805.089, 16066.94
4807.018, 16052.73
4808.946, 16024.67
4810.875, 15978.07
4812.803, 15951.82
4814.732, 15938.30
4816.660, 15933.24
4818.589, 15922.71
4820.517, 15908.29
4822.446, 15891.39
4824.374, 15874.80
4826.303, 15832.76
4828.231, 15839.71
4830.160, 15826.55
4832.088, 15816.04
4834.017, 15838.64
4835.945, 15833.88
4837.874, 15819.43
4839.802, 15810.47
4841.730, 15811.74
4843.659, 15826.12
4845.587, 15866.69
4847.516, 15867.79
4849.444, 15864.51
4851.373, 15902.21
4853.301, 15905.03
4855.229, 15898.24
4857.158, 15919.53
4859.086, 15942.57
4861.015, 15960.10
4862.943, 15967.05
4864.872, 15988.27
4866.800, 15969.94
4868.729, 16016.15
4870.657, 16026.37
4872.586, 16031.24
4874.514, 16080.66
4876.443, 16095.76
4878.371, 16089.46
4880.300, 16087.54
4882.228, 16099.86
4884.157, 16108.06
4886.085, 16084.45
4888.014, 16060.49
4889.942, 16049.89
4891.871, 16070.28
4893.799, 16071.39
4895.728, 16055.22
4897.656, 16029.06
4899.584, 16001.79
4901.513, 15969.71
4903.441, 15925.74
4905.370, 15906.43
4907.298, 15889.42
4909.227, 15841.01
4911.155, 15804.94
4913.083, 15773.43
4915.012, 15736.22
4916.940, 15716.37
4918.869, 15690.25
4920.797, 15628.79
4922.726, 15577.02
4924.654, 15536.59
4926.583, 15509.13
4928.511, 15459.09
4930.440, 15403.16
4932.368, 15355.94
4934.297, 15305.70
4936.225, 15264.87
4938.154, 15240.74
4940.082, 15207.58
4942.011, 15179.41
4943.939, 15163.99
4945.868, 15160.14
4947.796, 15152.80
4949.725, 15134.46
4951.653, 15102.59
4953.582, 15074.74
4955.510, 15058.23
4957.438, 15052.03
4959.367, 15046.93
4961.295, 15041.28
4963.224, 15041.81
4965.152, 15043.36
4967.081, 15043.90
4969.009, 15039.84
4970.938, 15048.92
4972.866, 15066.49
4974.794, 15068.37
4976.723, 15059.96
4978.651, 15050.73
4980.580, 15062.03
4982.508, 15060.71
4984.437, 15055.46
4986.365, 15068.87
4988.294, 15084.53
4990.222, 15094.88
4992.151, 15093.88
4994.079, 15083.33
4996.008, 15078.13
4997.936, 15096.62
4999.865, 15108.73
5001.793, 15117.93
5003.722, 15126.15
5005.650, 15135.76
5007.579, 15143.15
5009.507, 15146.64
5011.436, 15141.34
5013.364, 15138.29
5015.292, 15141.55
5017.221, 15145.77
5019.149, 15145.32
5021.078, 15136.29
5023.006, 15103.50
5024.935, 15084.32
5026.863, 15079.75
5028.792, 15067.60
5030.720, 15054.05
5032.648, 15042.37
5034.577, 15040.42
5036.505, 15023.69
5038.434, 15003.73
5040.362, 15000.79
5042.291, 14980.12
5044.219, 14956.03
5046.148, 14939.65
5048.076, 14920.55
5050.005, 14899.00
5051.933, 14876.62
5053.862, 14816.38
5055.790, 14761.50
5057.719, 14725.69
5059.647, 14690.09
5061.576, 14643.60
5063.504, 14591.51
5065.433, 14560.31
5067.361, 14523.63
5069.290, 14483.28
5071.218, 14451.64
5073.146, 14403.03
5075.075, 14355.96
5077.003, 14335.00
5078.932, 14285.48
5080.860, 14245.70
5082.789, 14212.47
5084.717, 14179.63
5086.646, 14145.12
5088.574, 14131.44
5090.502, 14120.91
5092.431, 14107.50
5094.359, 14091.27
5096.288, 14078.84
5098.216, 14071.15
5100.145, 14060.04
5102.073, 14030.20
5104.002, 14013.16
5105.930, 14007.74
5107.859, 14011.56
5109.787, 14012.96
5111.716, 14014.86
5113.644, 14018.95
5115.573, 14014.85
5117.501, 14029.59
5119.430, 14062.16
5121.358, 14076.30
5123.287, 14079.27
5125.215, 14082.00
5127.144, 14109.90
5129.072, 14123.51
5131.000, 14127.08
5132.929, 14128.94
5134.857, 14133.62
5136.786, 14138.78
5138.714, 14141.92
5140.643, 14146.29
5142.571, 14142.34
5144.500, 14132.20
5146.428, 14141.15
5148.356, 14138.34
5150.285, 14122.52
5152.213, 14096.82
5154.142, 14076.01
5156.070, 14059.92
5157.999, 14049.40
5159.927, 14028.61
5161.856, 13999.50
5163.784, 13968.61
5165.713, 13971.95
5167.641, 13954.23
5169.570, 13917.64
5171.498, 13921.37
5173.427, 13917.97
5175.355, 13901.06
5177.284, 13872.34
5179.212, 13840.74
5181.141, 13809.46
5183.069, 13780.82
5184.998, 13773.81
5186.926, 13762.74
5188.854, 13740.60
5190.783, 13715.51
5192.711, 13699.42
5194.640, 13685.75
5196.568, 13664.31
5198.497, 13644.28
5200.425, 13624.23
5202.354, 13596.14
5204.282, 13576.65
5206.210, 13547.85
5208.139, 13530.43
5210.067, 13507.43
5211.996, 13493.07
5213.924, 13471.83
5215.853, 13448.83
5217.781, 13428.97
5219.710, 13408.68
5221.638, 13385.33
5223.567, 13359.31
5225.495, 13330.00
5227.424, 13297.19
5229.352, 13260.42
5231.281, 13226.25
5233.209, 13184.07
5235.138, 13142.87
5237.066, 13084.49
5238.995, 13058.51
5240.923, 13010.76
5242.852, 12976.85
5244.780, 12935.58
5246.708, 12890.90
5248.637, 12869.71
5250.565, 12816.84
5252.494, 12761.58
5254.422, 12732.40
5256.351, 12672.90
5258.279, 12635.46
5260.208, 12625.03
5262.136, 12580.22
5264.064, 12553.53
5265.993, 12531.15
5267.921, 12471.76
5269.850, 12448.69
5271.778, 12431.23
5273.707, 12403.71
5275.635, 12392.73
5277.564, 12374.56
5279.492, 12347.67
5281.421, 12313.57
5283.349, 12298.27
5285.278, 12297.04
5287.206, 12306.52
5289.135, 12295.54
5291.063, 12301.83
5292.992, 12299.83
5294.920, 12302.60
5296.849, 12303.83
5298.777, 12297.69
5300.706, 12313.32
5302.634, 12308.18
5304.563, 12300.07
5306.491, 12297.62
5308.419, 12306.04
5310.348, 12301.25
5312.276, 12298.76
5314.205, 12319.07
5316.133, 12314.44
5318.062, 12310.40
5319.990, 12314.53
5321.918, 12300.88
5323.847, 12290.52
5325.775, 12282.46
5327.704, 12270.91
5329.632, 12265.89
5331.561, 12244.54
5333.489, 12205.45
5335.418, 12191.62
5337.346, 12157.10
5339.275, 12114.59
5341.203, 12088.15
5343.132, 12065.46
5345.060, 12039.20
5346.989, 12004.28
5348.917, 11950.13
5350.846, 11897.84
5352.774, 11856.67
5354.703, 11838.40
5356.631, 11779.41
5358.560, 11726.51
5360.488, 11689.09
5362.417, 11621.62
5364.345, 11584.47
5366.273, 11549.20
5368.202, 11482.24
5370.130, 11456.16
5372.059, 11420.97
5373.987, 11365.63
5375.916, 11313.88
5377.844, 11262.57
5379.772, 11218.71
5381.701, 11186.96
5383.629, 11148.87
5385.558, 11112.76
5387.486, 11077.73
5389.415, 11034.14
5391.343, 11028.21
5393.272, 11020.67
5395.200, 10989.13
5397.129, 10959.04
5399.057, 10935.82
5400.986, 10921.14
5402.914, 10914.85
5404.843, 10907.94
5406.771, 10887.46
5408.700, 10855.89
5410.628, 10844.61
5412.557, 10816.88
5414.485, 10795.60
5416.414, 10807.45
5418.342, 10782.36
5420.271, 10761.86
5422.199, 10750.94
5424.127, 10734.94
5426.056, 10729.09
5427.984, 10721.80
5429.913, 10707.30
5431.841, 10694.21
5433.770, 10684.55
5435.698, 10672.46
5437.626, 10648.60
5439.555, 10629.66
5441.483, 10643.59
5443.412, 10671.04
5445.340, 10644.48
5447.269, 10616.07
5449.197, 10591.54
5451.126, 10573.19
5453.054, 10581.67
5454.983, 10583.88
5456.911, 10569.17
5458.840, 10527.71
5460.768, 10518.10
5462.697, 10520.10
5464.625, 10522.68
5466.554, 10517.49
5468.482, 10507.99
5470.411, 10491.02
5472.339, 10467.45
5474.268, 10455.19
5476.196, 10429.99
5478.125, 10403.02
5480.053, 10390.32
5481.981, 10372.74
5483.910, 10348.14
5485.838, 10316.72
5487.767, 10279.09
5489.695, 10276.18
5491.624, 10255.90
5493.552, 10208.45
5495.480, 10195.93
5497.409, 10146.78
5499.337, 10108.25
5501.266, 10114.82
5503.194, 10070.48
5505.123, 10032.99
5507.051, 10004.00
5508.980, 9970.605
5510.908, 9931.368
5512.837, 9891.934
5514.765, 9849.674
5516.694, 9793.459
5518.622, 9778.327
5520.551, 9748.729
5522.479, 9692.132
5524.408, 9667.999
5526.336, 9641.292
5528.265, 9610.175
5530.193, 9576.782
5532.122, 9545.869
5534.050, 9506.729
5535.979, 9468.067
5537.907, 9438.933
5539.835, 9407.882
5541.764, 9383.785
5543.692, 9362.139
5545.621, 9332.306
5547.549, 9324.344
5549.478, 9318.981
5551.406, 9308.543
5553.334, 9293.388
5555.263, 9274.244
5557.191, 9246.478
5559.120, 9214.175
5561.048, 9190.653
5562.977, 9173.098
5564.905, 9180.476
5566.834, 9146.753
5568.762, 9139.076
5570.691, 9129.752
5572.619, 9113.361
5574.548, 9090.640
5576.476, 9081.462
5578.405, 9063.515
5580.333, 9046.668
5582.262, 9027.861
5584.190, 9013.654
5586.119, 8986.842
5588.047, 8965.507
5589.976, 8948.931
5591.904, 8924.052
5593.833, 8920.782
5595.761, 8897.710
5597.689, 8886.037
5599.618, 8862.957
5601.546, 8846.565
5603.475, 8830.295
5605.403, 8806.792
5607.332, 8783.943
5609.260, 8759.175
5611.188, 8736.742
5613.117, 8725.577
5615.045, 8704.124
5616.974, 8685.569
5618.902, 8666.365
5620.831, 8642.336
5622.759, 8621.168
5624.688, 8594.401
5626.616, 8577.442
5628.545, 8554.183
5630.473, 8538.970
5632.402, 8521.009
5634.330, 8503.306
5636.259, 8489.799
5638.187, 8471.659
5640.116, 8459.350
5642.044, 8446.122
5643.973, 8426.083
5645.901, 8398.223
5647.830, 8373.417
5649.758, 8356.456
5651.687, 8349.674
5653.615, 8330.310
5655.543, 8309.115
5657.472, 8287.041
5659.400, 8249.643
5661.329, 8214.833
5663.257, 8182.644
5665.186, 8152.614
5667.114, 8114.540
5669.042, 8080.083
5670.971, 8036.722
5672.899, 7999.279
5674.828, 7952.782
5676.756, 7910.171
5678.685, 7877.448
5680.613, 7850.827
5682.542, 7822.104
5684.470, 7758.150
5686.399, 7705.423
5688.327, 7670.313
5690.256, 7635.717
5692.184, 7584.769
5694.113, 7542.799
5696.041, 7504.930
5697.970, 7452.505
5699.898, 7409.105
5701.827, 7375.951
5703.755, 7346.792
5705.684, 7314.109
5707.612, 7271.796
5709.541, 7231.601
5711.469, 7197.787
5713.397, 7171.038
5715.326, 7139.240
5717.254, 7118.673
5719.183, 7105.733
5721.111, 7093.679
5723.040, 7074.171
5724.968, 7053.458
5726.896, 7039.596
5728.825, 7034.006
5730.753, 7024.369
5732.682, 7014.474
5734.610, 7005.441
5736.539, 6996.129
5738.467, 6982.222
5740.396, 6972.372
5742.324, 6965.618
5744.253, 6960.715
5746.181, 6957.844
5748.110, 6947.194
5750.038, 6939.396
5751.967, 6936.420
5753.895, 6935.464
5755.824, 6920.791
5757.752, 6922.560
5759.681, 6926.658
5761.609, 6914.653
5763.538, 6900.268
5765.466, 6888.638
5767.395, 6878.092
5769.323, 6864.652
5771.251, 6839.590
5773.180, 6826.702
5775.108, 6804.932
5777.037, 6776.298
5778.965, 6768.224
5780.894, 6751.807
5782.822, 6732.238
5784.750, 6711.421
5786.679, 6688.269
5788.607, 6660.728
5790.536, 6642.614
5792.464, 6615.374
5794.393, 6566.104
5796.321, 6542.925
5798.250, 6509.347
5800.178, 6479.123
5802.107, 6455.593
5804.035, 6415.335
5805.964, 6382.771
5807.892, 6351.623
5809.821, 6320.082
5811.749, 6290.401
5813.678, 6257.714
5815.606, 6238.358
5817.535, 6214.474
5819.463, 6174.151
5821.392, 6162.604
5823.320, 6138.643
5825.249, 6107.205
5827.177, 6073.103
5829.105, 6045.904
5831.034, 6009.569
5832.962, 5988.225
5834.891, 5962.213
5836.819, 5939.281
5838.748, 5927.461
5840.676, 5908.563
5842.604, 5891.208
5844.533, 5881.783
5846.461, 5872.703
5848.390, 5853.726
5850.318, 5837.763
5852.247, 5824.808
5854.175, 5804.877
5856.104, 5799.883
5858.032, 5783.216
5859.961, 5763.192
5861.889, 5751.578
5863.818, 5742.698
5865.746, 5712.911
5867.675, 5699.048
5869.603, 5700.005
5871.532, 5679.557
5873.460, 5668.433
5875.389, 5648.412
5877.317, 5636.826
5879.246, 5623.169
5881.174, 5610.458
5883.103, 5601.562
5885.031, 5588.151
5886.959, 5579.043
5888.888, 5573.406
5890.816, 5561.703
5892.745, 5552.140
5894.673, 5547.146
5896.602, 5545.729
5898.530, 5529.580
5900.458, 5523.358
5902.387, 5511.337
5904.315, 5495.128
5906.244, 5490.257
5908.172, 5490.926
5910.101, 5468.017
5912.029, 5452.800
5913.958, 5461.036
5915.886, 5452.304
5917.815, 5450.318
5919.743, 5428.819
5921.672, 5406.152
5923.600, 5413.283
5925.529, 5392.684
5927.457, 5409.401
5929.386, 5376.033
5931.314, 5372.839
5933.243, 5370.945
5935.171, 5363.720
5937.100, 5346.669
5939.028, 5324.143
5940.957, 5300.443
5942.885, 5273.322
5944.813, 5258.734
5946.742, 5238.238
5948.670, 5213.671
5950.599, 5196.573
5952.527, 5176.848
5954.456, 5154.595
5956.384, 5136.169
5958.313, 5119.524
5960.241, 5091.738
5962.169, 5069.177
5964.098, 5057.197
5966.026, 5045.142
5967.955, 5029.186
5969.883, 5011.968
5971.812, 4998.302
5973.740, 4972.122
5975.669, 4954.221
5977.597, 4931.912
5979.526, 4926.799
5981.454, 4948.372
5983.383, 4963.893
5985.311, 4951.072
5987.240, 4900.951
5989.168, 4840.647
5991.097, 4813.470
5993.025, 4796.178
5994.954, 4776.444
5996.882, 4760.464
5998.811, 4727.458
6000.739, 4705.394
6002.667, 4699.033
6004.596, 4692.781
6006.524, 4656.732
6008.453, 4654.385
6010.381, 4647.672
6012.310, 4630.095
6014.238, 4611.128
6016.167, 4607.006
6018.095, 4591.497
6020.023, 4565.961
6021.952, 4550.031
6023.880, 4549.320
6025.809, 4534.581
6027.737, 4518.198
6029.666, 4498.328
6031.594, 4482.991
6033.523, 4468.701
6035.451, 4457.970
6037.380, 4443.743
6039.308, 4432.095
6041.237, 4422.247
6043.165, 4412.318
6045.094, 4391.403
6047.022, 4389.605
6048.951, 4379.033
6050.879, 4359.158
6052.808, 4342.282
6054.736, 4343.396
6056.665, 4333.030
6058.593, 4325.245
6060.521, 4322.915
6062.450, 4320.129
6064.378, 4300.089
6066.307, 4287.050
6068.235, 4285.120
6070.164, 4278.885
6072.092, 4260.854
6074.021, 4264.257
6075.949, 4241.662
6077.877, 4238.226
6079.806, 4243.626
6081.734, 4237.251
6083.663, 4232.330
6085.591, 4213.690
6087.520, 4213.954
6089.448, 4203.971
6091.377, 4187.943
6093.305, 4193.938
6095.234, 4175.456
6097.162, 4154.290
6099.091, 4138.218
6101.019, 4128.408
6102.948, 4106.744
6104.876, 4094.720
6106.805, 4071.743
6108.733, 4060.575
6110.662, 4047.333
6112.590, 4014.910
6114.519, 4002.100
6116.447, 3980.987
6118.375, 3955.358
6120.304, 3925.881
6122.232, 3904.463
6124.161, 3880.178
6126.089, 3856.042
6128.018, 3830.078
6129.946, 3803.985
6131.875, 3775.034
6133.803, 3742.707
6135.731, 3730.846
6137.660, 3710.474
6139.588, 3682.154
6141.517, 3655.938
6143.445, 3642.189
6145.374, 3620.976
6147.302, 3585.577
6149.231, 3559.468
6151.159, 3546.064
6153.088, 3532.204
6155.016, 3515.840
6156.945, 3503.187
6158.873, 3482.343
6160.802, 3474.126
6162.730, 3461.895
6164.659, 3443.401
6166.587, 3436.667
6168.516, 3423.344
6170.444, 3409.759
6172.373, 3402.003
6174.301, 3398.036
6176.229, 3405.613
6178.158, 3402.497
6180.086, 3385.829
6182.015, 3374.005
6183.943, 3381.347
6185.872, 3390.575
6187.800, 3380.650
6189.729, 3367.722
6191.657, 3363.012
6193.585, 3365.874
6195.514, 3366.845
6197.442, 3358.234
6199.371, 3359.175
6201.299, 3350.935
6203.228, 3346.750
6205.156, 3340.356
6207.085, 3335.703
6209.013, 3323.215
6210.942, 3315.255
6212.870, 3303.013
6214.799, 3290.738
6216.727, 3288.676
6218.656, 3270.990
6220.584, 3267.450
6222.513, 3264.445
6224.441, 3252.554
6226.370, 3238.153
6228.298, 3241.964
6230.227, 3228.513
6232.155, 3209.338
6234.083, 3192.875
6236.012, 3176.892
6237.940, 3158.604
6239.869, 3149.994
6241.797, 3124.358
6243.726, 3107.899
6245.654, 3098.586
6247.583, 3086.411
6249.511, 3066.560
6251.439, 3047.419
6253.368, 3027.309
6255.296, 3011.459
6257.225, 3000.048
6259.153, 2989.115
6261.082, 2974.161
6263.010, 2970.535
6264.939, 2960.938
6266.867, 2935.074
6268.796, 2914.621
6270.724, 2911.473
6272.653, 2900.482
6274.581, 2892.195
6276.510, 2874.123
6278.438, 2854.500
6280.367, 2844.523
6282.295, 2845.762
6284.224, 2842.473
6286.152, 2850.227
6288.081, 2808.919
6290.009, 2776.352
6291.938, 2763.496
6293.866, 2748.713
6295.794, 2729.938
6297.723, 2724.834
6299.651, 2714.802
6301.580, 2696.303
6303.508, 2681.695
6305.437, 2676.732
6307.365, 2659.551
6309.293, 2648.549
6311.222, 2639.954
6313.150, 2620.740
6315.079, 2607.172
6317.007, 2607.302
6318.936, 2585.877
6320.864, 2577.071
6322.793, 2564.514
6324.721, 2553.708
6326.650, 2547.046
6328.578, 2540.872
6330.507, 2529.456
6332.435, 2514.914
6334.364, 2506.040
6336.292, 2492.287
6338.221, 2481.817
6340.149, 2479.557
6342.078, 2474.472
6344.006, 2465.319
6345.935, 2470.165
6347.863, 2468.817
6349.792, 2460.256
6351.720, 2450.402
6353.648, 2441.606
6355.577, 2430.746
6357.505, 2422.483
6359.434, 2423.602
6361.362, 2418.365
6363.291, 2401.641
6365.219, 2384.521
6367.147, 2390.967
6369.076, 2383.286
6371.004, 2385.681
6372.933, 2382.103
6374.861, 2388.724
6376.790, 2376.980
6378.718, 2380.169
6380.647, 2358.197
6382.575, 2347.591
6384.504, 2345.093
6386.432, 2334.673
6388.361, 2317.549
6390.289, 2306.053
6392.218, 2288.872
6394.146, 2282.047
6396.075, 2273.517
6398.003, 2268.395
6399.932, 2258.862
6401.860, 2241.944
6403.789, 2235.711
6405.717, 2215.078
6407.646, 2210.286
6409.574, 2206.720
6411.502, 2194.044
6413.431, 2176.927
6415.359, 2163.810
6417.288, 2150.286
6419.216, 2136.447
6421.145, 2123.584
6423.073, 2112.231
6425.001, 2101.463
6426.930, 2091.143
6428.858, 2081.013
6430.787, 2064.634
6432.715, 2051.874
6434.644, 2042.009
6436.572, 2033.058
6438.501, 2027.441
6440.429, 2021.523
6442.358, 2002.096
6444.286, 1989.873
6446.215, 1975.295
6448.143, 1964.861
6450.072, 1954.074
6452.000, 1951.184
6453.929, 1935.090
6455.857, 1928.771
6457.786, 1919.831
6459.714, 1905.183
6461.643, 1896.342
6463.571, 1883.021
6465.500, 1870.054
6467.428, 1863.828
6469.356, 1848.783
6471.285, 1837.879
6473.213, 1833.588
6475.142, 1820.337
6477.070, 1807.835
6478.999, 1801.681
6480.927, 1796.915
6482.855, 1785.727
6484.784, 1774.678
6486.712, 1770.192
6488.641, 1759.630
6490.569, 1752.740
6492.498, 1745.316
6494.426, 1735.473
6496.355, 1739.520
6498.283, 1731.341
6500.212, 1735.167
6502.140, 1738.661
6504.069, 1723.410
6505.997, 1699.762
6507.926, 1691.174
6509.854, 1705.488
6511.783, 1702.680
6513.711, 1704.400
6515.640, 1686.817
6517.568, 1684.291
6519.497, 1680.369
6521.425, 1669.405
6523.354, 1668.790
6525.282, 1667.416
6527.210, 1659.644
6529.139, 1652.599
6531.067, 1650.255
6532.996, 1647.835
6534.924, 1645.656
6536.853, 1641.349
6538.781, 1629.055
6540.709, 1632.961
6542.638, 1619.666
6544.566, 1613.337
6546.495, 1607.026
6548.423, 1602.354
6550.352, 1593.609
6552.280, 1586.939
6554.209, 1576.033
6556.137, 1570.211
6558.066, 1560.153
6559.994, 1549.541
6561.923, 1545.976
6563.851, 1537.264
6565.780, 1519.543
6567.708, 1507.467
6569.637, 1502.040
6571.565, 1484.751
6573.494, 1474.273
6575.422, 1456.034
6577.351, 1442.418
6579.279, 1433.688
6581.208, 1423.852
6583.136, 1415.631
6585.064, 1396.496
6586.993, 1388.219
6588.921, 1371.414
6590.850, 1367.883
6592.778, 1362.289
6594.707, 1350.691
6596.635, 1338.505
6598.563, 1324.646
6600.492, 1321.805
6602.420, 1315.328
6604.349, 1302.299
6606.277, 1300.924
6608.206, 1292.015
6610.134, 1278.047
6612.063, 1270.237
6613.991, 1266.048
6615.920, 1268.438
6617.848, 1261.597
6619.777, 1258.712
6621.705, 1253.941
6623.634, 1245.717
6625.562, 1237.967
6627.491, 1236.410
6629.419, 1240.047
##END=



