##NAMES=Powellite
##RRUFFID=R050355
##IDEAL CHEMISTRY=Ca(MoO_4_)
##LOCALITY=Nasik, India
##OWNER=RRUFF
##SOURCE=George Rossman
##DESCRIPTION=Light brown fragment
##STATUS=The identification of this mineral has been confirmed by X-ray diffraction and chemical analysis
##URL=https://www.rruff.net/odr/rruff_sample/R050355
##MEASURED CHEMISTRY=Ca_1.00_Mo_1.00_O_4_
##DIFFRACTION SAMPLE DESCRIPTION=Powder
##CELL PARAMETERS=a: 5.22674 b: 5.22674 c: 11.4346 alpha: 90 beta: 90 gamma: 90 volume: 312.38 crystal system: tetragonal
##FILETYPE=Raman RAW
##RAMAN WAVELENGTH=532

83.46240, 0.0000000E+00
85.39087, 0.0000000E+00
87.31934, 108.7255
89.24780, 137.7910
91.17627, 177.0252
93.10474, 237.0946
95.03320, 323.0738
96.96167, 432.2002
98.89014, 558.2416
100.8186, 714.8920
102.7471, 877.6826
104.6755, 1021.852
106.6040, 1120.318
108.5325, 1253.863
110.4609, 1459.732
112.3894, 1759.987
114.3179, 2014.886
116.2463, 2260.397
118.1748, 2445.272
120.1033, 2501.520
122.0317, 2287.158
123.9602, 2057.457
125.8887, 1845.747
127.8171, 1636.098
129.7456, 1491.193
131.6741, 1403.931
133.6025, 1363.647
135.5310, 1372.465
137.4595, 1436.801
139.3879, 1526.063
141.3164, 1636.615
143.2449, 1800.836
145.1733, 1901.938
147.1018, 1919.542
149.0303, 1853.765
150.9587, 1766.367
152.8872, 1624.498
154.8157, 1482.159
156.7441, 1378.774
158.6726, 1339.939
160.6011, 1314.332
162.5295, 1299.720
164.4580, 1294.948
166.3865, 1293.217
168.3149, 1292.281
170.2434, 1293.936
172.1719, 1301.514
174.1003, 1312.275
176.0288, 1330.276
177.9573, 1355.086
179.8857, 1384.483
181.8142, 1428.760
183.7427, 1492.232
185.6711, 1569.201
187.5996, 1647.668
189.5281, 1725.012
191.4565, 1807.015
193.3850, 1893.936
195.3135, 1979.298
197.2419, 2083.739
199.1704, 2208.725
201.0989, 2354.707
203.0273, 2521.189
204.9558, 2793.568
206.8843, 3007.336
208.8127, 3076.905
210.7412, 2938.030
212.6697, 2766.338
214.5981, 2544.857
216.5266, 2295.333
218.4551, 2078.504
220.3835, 1906.025
222.3120, 1761.100
224.2405, 1642.733
226.1689, 1550.536
228.0974, 1475.285
230.0259, 1417.384
231.9543, 1374.841
233.8828, 1344.917
235.8113, 1332.172
237.7397, 1327.252
239.6682, 1325.373
241.5967, 1326.855
243.5251, 1329.819
245.4536, 1331.652
247.3821, 1333.265
249.3105, 1342.256
251.2390, 1365.306
253.1675, 1390.160
255.0959, 1409.567
257.0244, 1419.669
258.9529, 1432.250
260.8813, 1446.127
262.8098, 1463.497
264.7383, 1491.540
266.6667, 1536.525
268.5952, 1587.530
270.5237, 1637.858
272.4521, 1684.735
274.3806, 1735.082
276.3091, 1790.846
278.2375, 1850.838
280.1660, 1911.073
282.0945, 1973.657
284.0229, 2034.317
285.9514, 2090.935
287.8799, 2143.814
289.8083, 2191.059
291.7368, 2221.574
293.6653, 2245.870
295.5938, 2286.160
297.5222, 2340.425
299.4507, 2415.228
301.3792, 2517.720
303.3076, 2650.402
305.2361, 2797.844
307.1646, 2949.220
309.0930, 3114.145
311.0215, 3320.058
312.9500, 3564.346
314.8784, 3852.232
316.8069, 4202.458
318.7354, 4613.870
320.6638, 5042.657
322.5923, 5541.899
324.5208, 6043.251
326.4492, 6435.119
328.3777, 6808.303
330.3062, 6998.601
332.2346, 6892.180
334.1631, 6526.429
336.0915, 6064.184
338.0200, 5428.496
339.9485, 4753.684
341.8769, 4178.697
343.8054, 3705.663
345.7339, 3313.106
347.6623, 3016.670
349.5908, 2803.480
351.5193, 2630.200
353.4477, 2503.269
355.3762, 2405.281
357.3047, 2330.291
359.2331, 2277.874
361.1616, 2239.902
363.0901, 2212.402
365.0185, 2196.180
366.9470, 2203.149
368.8755, 2237.857
370.8039, 2289.550
372.7324, 2355.141
374.6609, 2431.767
376.5893, 2527.707
378.5178, 2641.894
380.4463, 2775.258
382.3747, 2936.418
384.3032, 3100.339
386.2317, 3311.044
388.1601, 3635.066
390.0886, 4052.164
392.0171, 4377.384
393.9455, 4661.987
395.8740, 4808.427
397.8025, 4675.725
399.7309, 4137.032
401.6594, 3616.142
403.5879, 3203.068
405.5163, 2875.133
407.4448, 2598.702
409.3733, 2382.424
411.3017, 2208.203
413.2302, 2080.416
415.1587, 2001.908
417.0871, 1937.961
419.0156, 1888.800
420.9441, 1850.120
422.8725, 1817.563
424.8010, 1789.760
426.7295, 1769.538
428.6579, 1761.139
430.5864, 1762.791
432.5149, 1763.417
434.4433, 1760.745
436.3718, 1757.328
438.3003, 1754.663
440.2287, 1750.974
442.1572, 1751.076
444.0857, 1761.968
446.0141, 1775.906
447.9426, 1778.902
449.8711, 1759.364
451.7995, 1742.289
453.7280, 1735.974
455.6565, 1742.422
457.5849, 1752.834
459.5134, 1775.707
461.4419, 1796.925
463.3703, 1805.882
465.2988, 1795.241
467.2273, 1787.942
469.1557, 1791.094
471.0842, 1801.262
473.0127, 1805.752
474.9411, 1800.342
476.8696, 1794.901
478.7981, 1793.447
480.7265, 1796.238
482.6550, 1800.319
484.5835, 1807.439
486.5119, 1814.597
488.4404, 1818.077
490.3689, 1816.444
492.2973, 1816.865
494.2258, 1822.240
496.1543, 1831.290
498.0827, 1840.623
500.0112, 1851.914
501.9397, 1861.797
503.8681, 1867.381
505.7966, 1869.098
507.7251, 1873.713
509.6535, 1886.539
511.5820, 1899.898
513.5105, 1908.479
515.4390, 1907.888
517.3674, 1907.448
519.2959, 1905.548
521.2244, 1904.278
523.1528, 1907.230
525.0813, 1918.150
527.0098, 1927.921
528.9382, 1932.514
530.8667, 1931.415
532.7952, 1933.423
534.7236, 1942.380
536.6521, 1951.513
538.5806, 1956.929
540.5090, 1958.372
542.4375, 1959.024
544.3660, 1957.965
546.2944, 1957.028
548.2229, 1959.328
550.1514, 1967.104
552.0798, 1973.622
554.0083, 1973.735
555.9368, 1970.395
557.8652, 1972.917
559.7937, 1988.702
561.7222, 2004.417
563.6506, 2016.614
565.5791, 2025.110
567.5076, 2029.146
569.4360, 2022.505
571.3645, 2016.138
573.2930, 2018.109
575.2214, 2032.765
577.1499, 2046.340
579.0783, 2058.610
581.0068, 2068.395
582.9352, 2072.763
584.8637, 2067.656
586.7922, 2065.454
588.7206, 2071.842
590.6491, 2085.347
592.5776, 2097.119
594.5060, 2106.119
596.4345, 2114.508
598.3630, 2123.612
600.2914, 2133.459
602.2199, 2141.294
604.1484, 2147.457
606.0768, 2150.716
608.0053, 2149.506
609.9338, 2138.201
611.8622, 2133.421
613.7907, 2140.314
615.7192, 2152.349
617.6476, 2159.704
619.5761, 2159.630
621.5046, 2162.865
623.4330, 2176.291
625.3615, 2196.165
627.2900, 2209.157
629.2184, 2208.312
631.1469, 2207.979
633.0754, 2212.907
635.0038, 2222.027
636.9323, 2230.006
638.8608, 2234.837
640.7892, 2239.815
642.7177, 2247.705
644.6462, 2261.743
646.5746, 2268.102
648.5031, 2258.424
650.4316, 2247.077
652.3600, 2247.637
654.2885, 2262.316
656.2170, 2273.695
658.1454, 2272.274
660.0739, 2267.565
662.0024, 2271.268
663.9308, 2295.961
665.8593, 2314.224
667.7878, 2321.265
669.7162, 2320.265
671.6447, 2317.265
673.5732, 2308.020
675.5016, 2304.505
677.4301, 2312.395
679.3586, 2330.419
681.2870, 2344.835
683.2155, 2356.979
685.1440, 2364.816
687.0724, 2364.336
689.0009, 2357.417
690.9294, 2354.664
692.8578, 2361.886
694.7863, 2369.961
696.7148, 2374.095
698.6432, 2372.401
700.5717, 2373.117
702.5002, 2378.302
704.4286, 2384.243
706.3571, 2386.264
708.2856, 2382.944
710.2141, 2386.893
712.1425, 2410.129
714.0710, 2437.121
715.9995, 2453.615
717.9279, 2454.992
719.8564, 2452.408
721.7849, 2437.958
723.7133, 2423.297
725.6418, 2423.087
727.5703, 2441.837
729.4987, 2463.069
731.4272, 2484.697
733.3557, 2504.926
735.2841, 2519.665
737.2126, 2520.864
739.1411, 2525.847
741.0695, 2535.318
742.9980, 2551.273
744.9265, 2578.682
746.8549, 2627.642
748.7834, 2672.082
750.7119, 2703.527
752.6403, 2723.180
754.5688, 2739.732
756.4973, 2750.523
758.4257, 2761.546
760.3542, 2774.913
762.2827, 2790.067
764.2111, 2804.279
766.1396, 2809.037
768.0681, 2823.588
769.9965, 2855.788
771.9250, 2906.676
773.8535, 2965.756
775.7819, 3025.506
777.7104, 3099.235
779.6389, 3197.611
781.5673, 3317.785
783.4958, 3443.766
785.4243, 3549.082
787.3527, 3687.138
789.2812, 3893.825
791.2097, 4190.586
793.1381, 4461.317
795.0666, 4811.255
796.9951, 5055.561
798.9235, 5028.772
800.8520, 4750.008
802.7805, 4464.815
804.7089, 4171.766
806.6374, 3920.628
808.5659, 3743.169
810.4943, 3658.061
812.4228, 3592.255
814.3513, 3534.090
816.2797, 3500.041
818.2082, 3497.348
820.1367, 3522.848
822.0651, 3600.351
823.9936, 3720.820
825.9221, 3911.509
827.8505, 4188.759
829.7790, 4562.356
831.7075, 4991.323
833.6359, 5504.290
835.5644, 6042.740
837.4929, 6562.081
839.4213, 7060.831
841.3498, 7585.185
843.2783, 8164.600
845.2067, 8748.721
847.1352, 9373.263
849.0637, 10110.01
850.9921, 10469.67
852.9206, 10166.62
854.8491, 9704.785
856.7775, 9310.049
858.7060, 8961.738
860.6345, 8937.949
862.5629, 9316.277
864.4914, 9989.934
866.4199, 10882.35
868.3483, 11991.14
870.2768, 13305.27
872.2053, 14779.97
874.1337, 16506.92
876.0622, 18844.71
877.9907, 21984.46
879.9191, 23951.45
881.8476, 24913.31
883.7761, 24568.57
885.7045, 22177.86
887.6330, 18074.20
889.5615, 14416.46
891.4899, 11414.07
893.4184, 8989.693
895.3469, 7198.186
897.2753, 6049.583
899.2038, 5160.363
901.1323, 4595.429
903.0607, 4185.691
904.9892, 3917.973
906.9177, 3765.770
908.8461, 3643.003
910.7746, 3549.800
912.7031, 3477.042
914.6315, 3422.541
916.5600, 3384.186
918.4885, 3353.470
920.4169, 3335.367
922.3454, 3319.166
924.2739, 3305.691
926.2023, 3293.118
928.1308, 3276.610
930.0593, 3255.113
931.9877, 3233.727
933.9162, 3213.943
935.8447, 3195.399
937.7731, 3176.629
939.7016, 3150.577
941.6301, 3137.248
943.5585, 3147.794
945.4870, 3167.324
947.4155, 3176.016
949.3439, 3171.598
951.2724, 3168.286
953.2009, 3166.076
955.1293, 3168.013
957.0578, 3178.855
958.9863, 3201.324
960.9147, 3214.290
962.8432, 3204.634
964.7717, 3192.960
966.7001, 3191.399
968.6286, 3201.763
970.5571, 3210.992
972.4855, 3216.275
974.4140, 3222.812
976.3425, 3237.949
978.2709, 3257.877
980.1994, 3265.328
982.1279, 3254.024
984.0563, 3237.147
985.9848, 3214.750
987.9133, 3190.110
989.8417, 3177.220
991.7702, 3182.807
993.6987, 3192.146
995.6271, 3208.487
997.5556, 3226.006
999.4841, 3232.291
1001.413, 3222.618
1003.341, 3220.634
1005.269, 3239.557
1007.198, 3265.008
1009.126, 3283.501
1011.055, 3292.765
1012.983, 3300.381
1014.912, 3303.262
1016.840, 3307.031
1018.769, 3318.248
1020.697, 3338.812
1022.626, 3347.196
1024.554, 3332.198
1026.483, 3317.738
1028.411, 3318.250
1030.340, 3329.259
1032.268, 3335.938
1034.197, 3334.713
1036.125, 3333.167
1038.053, 3333.098
1039.982, 3334.136
1041.910, 3335.603
1043.839, 3333.720
1045.767, 3337.363
1047.696, 3351.315
1049.624, 3369.047
1051.553, 3384.503
1053.481, 3398.420
1055.410, 3407.157
1057.338, 3404.571
1059.267, 3402.029
1061.195, 3405.827
1063.124, 3415.940
1065.052, 3428.645
1066.980, 3450.164
1068.909, 3466.588
1070.837, 3469.984
1072.766, 3463.897
1074.694, 3462.790
1076.623, 3466.967
1078.551, 3475.072
1080.480, 3493.937
1082.408, 3513.038
1084.337, 3518.245
1086.265, 3506.298
1088.193, 3500.000
1090.122, 3508.843
1092.050, 3521.384
1093.979, 3532.839
1095.907, 3543.993
1097.836, 3547.253
1099.764, 3530.355
1101.693, 3519.794
1103.621, 3530.435
1105.550, 3554.877
1107.478, 3569.014
1109.407, 3568.766
1111.335, 3569.048
1113.264, 3576.677
1115.192, 3586.155
1117.120, 3591.604
1119.049, 3592.498
1120.977, 3592.939
1122.906, 3591.956
1124.834, 3592.183
1126.763, 3594.416
1128.691, 3598.573
1130.620, 3606.316
1132.548, 3623.624
1134.477, 3636.322
1136.405, 3634.348
1138.334, 3626.998
1140.262, 3631.173
1142.191, 3649.079
1144.119, 3668.820
1146.047, 3695.060
1147.976, 3715.716
1149.904, 3717.602
1151.833, 3697.306
1153.761, 3692.112
1155.690, 3721.598
1157.618, 3746.795
1159.547, 3750.416
1161.475, 3739.590
1163.404, 3739.321
1165.332, 3755.849
1167.261, 3767.885
1169.189, 3764.314
1171.118, 3758.983
1173.046, 3766.805
1174.974, 3787.416
1176.903, 3803.958
1178.831, 3814.164
1180.760, 3820.518
1182.688, 3826.997
1184.617, 3832.048
1186.545, 3826.607
1188.474, 3791.535
1190.402, 3776.308
1192.331, 3801.895
1194.259, 3839.555
1196.188, 3858.185
1198.116, 3853.044
1200.045, 3852.014
1201.973, 3858.820
1203.901, 3865.980
1205.830, 3867.974
1207.758, 3868.268
1209.687, 3876.009
1211.615, 3895.224
1213.544, 3911.385
1215.472, 3919.105
1217.401, 3923.428
1219.329, 3927.536
1221.258, 3931.107
1223.186, 3937.619
1225.115, 3952.528
1227.043, 3964.499
1228.972, 3965.892
1230.900, 3961.883
1232.828, 3967.141
1234.757, 3985.803
1236.685, 4000.564
1238.614, 4002.783
1240.542, 4004.391
1242.471, 4018.407
1244.399, 4041.397
1246.328, 4051.099
1248.256, 4035.820
1250.185, 4026.509
1252.113, 4038.674
1254.042, 4062.123
1255.970, 4084.429
1257.899, 4108.736
1259.827, 4121.077
1261.755, 4109.162
1263.684, 4096.219
1265.612, 4089.579
1267.541, 4089.901
1269.469, 4104.014
1271.398, 4144.817
1273.326, 4175.103
1275.255, 4193.425
1277.183, 4196.552
1279.112, 4169.290
1281.040, 4116.817
1282.969, 4094.568
1284.897, 4123.489
1286.826, 4156.098
1288.754, 4171.114
1290.682, 4178.190
1292.611, 4194.873
1294.539, 4227.507
1296.468, 4241.205
1298.396, 4204.001
1300.325, 4174.085
1302.253, 4184.016
1304.182, 4224.778
1306.110, 4254.398
1308.039, 4269.393
1309.967, 4277.134
1311.896, 4268.718
1313.824, 4260.410
1315.753, 4267.978
1317.681, 4290.419
1319.609, 4307.417
1321.538, 4317.803
1323.466, 4324.235
1325.395, 4324.777
1327.323, 4323.399
1329.252, 4324.787
1331.180, 4329.119
1333.109, 4332.332
1335.037, 4332.953
1336.966, 4334.657
1338.894, 4337.866
1340.823, 4343.626
1342.751, 4354.148
1344.680, 4370.926
1346.608, 4387.347
1348.536, 4407.617
1350.465, 4421.597
1352.393, 4420.865
1354.322, 4409.514
1356.250, 4401.773
1358.179, 4392.769
1360.107, 4397.578
1362.036, 4435.081
1363.964, 4471.347
1365.893, 4477.631
1367.821, 4462.090
1369.750, 4462.912
1371.678, 4487.346
1373.607, 4508.200
1375.535, 4513.799
1377.464, 4515.745
1379.392, 4522.981
1381.320, 4534.529
1383.249, 4544.069
1385.177, 4548.930
1387.106, 4557.380
1389.034, 4580.166
1390.963, 4601.839
1392.891, 4605.405
1394.820, 4588.190
1396.748, 4584.026
1398.677, 4603.843
1400.605, 4622.304
1402.534, 4635.728
1404.462, 4644.492
1406.391, 4648.379
1408.319, 4646.743
1410.247, 4644.476
1412.176, 4631.651
1414.104, 4631.358
1416.033, 4665.010
1417.961, 4705.306
1419.890, 4713.305
1421.818, 4689.442
1423.747, 4681.868
1425.675, 4702.917
1427.604, 4725.213
1429.532, 4739.391
1431.461, 4748.996
1433.389, 4756.860
1435.318, 4762.806
1437.246, 4770.251
1439.174, 4778.666
1441.103, 4788.629
1443.031, 4801.199
1444.960, 4814.151
1446.888, 4826.784
1448.817, 4839.406
1450.745, 4844.221
1452.674, 4833.068
1454.602, 4827.805
1456.531, 4842.473
1458.459, 4861.518
1460.388, 4864.803
1462.316, 4848.653
1464.245, 4848.602
1466.173, 4883.157
1468.101, 4907.957
1470.030, 4904.240
1471.958, 4893.324
1473.887, 4895.685
1475.815, 4911.341
1477.744, 4931.264
1479.672, 4967.800
1481.601, 4990.970
1483.529, 4988.220
1485.458, 4977.392
1487.386, 4968.995
1489.315, 4964.835
1491.243, 4977.015
1493.172, 5014.783
1495.100, 5042.730
1497.028, 5044.967
1498.957, 5039.337
1500.885, 5036.633
1502.814, 5035.893
1504.742, 5032.448
1506.671, 5022.881
1508.599, 5029.885
1510.528, 5079.961
1512.456, 5122.936
1514.385, 5118.140
1516.313, 5089.485
1518.242, 5093.210
1520.170, 5137.063
1522.099, 5166.337
1524.027, 5160.475
1525.955, 5154.031
1527.884, 5162.437
1529.812, 5177.962
1531.741, 5189.749
1533.669, 5198.062
1535.598, 5200.521
1537.526, 5183.238
1539.455, 5180.951
1541.383, 5214.722
1543.312, 5258.278
1545.240, 5287.466
1547.169, 5301.833
1549.097, 5304.372
1551.026, 5277.571
1552.954, 5263.736
1554.882, 5270.087
1556.811, 5287.455
1558.739, 5318.419
1560.668, 5356.623
1562.596, 5374.199
1564.525, 5359.116
1566.453, 5347.573
1568.382, 5337.170
1570.310, 5334.522
1572.239, 5346.439
1574.167, 5366.678
1576.096, 5385.617
1578.024, 5403.448
1579.953, 5416.931
1581.881, 5418.675
1583.809, 5425.174
1585.738, 5451.349
1587.666, 5474.772
1589.595, 5467.705
1591.523, 5435.763
1593.452, 5419.675
1595.380, 5422.483
1597.309, 5433.155
1599.237, 5459.045
1601.166, 5483.000
1603.094, 5492.649
1605.023, 5495.472
1606.951, 5507.562
1608.880, 5529.745
1610.808, 5541.666
1612.736, 5534.515
1614.665, 5528.359
1616.593, 5531.507
1618.522, 5538.064
1620.450, 5537.869
1622.379, 5535.248
1624.307, 5553.044
1626.236, 5598.986
1628.164, 5636.617
1630.093, 5656.996
1632.021, 5667.711
1633.950, 5669.552
1635.878, 5666.339
1637.807, 5661.339
1639.735, 5654.942
1641.663, 5658.813
1643.592, 5681.425
1645.520, 5697.467
1647.449, 5689.853
1649.377, 5680.220
1651.306, 5682.983
1653.234, 5696.304
1655.163, 5717.923
1657.091, 5750.137
1659.020, 5771.321
1660.948, 5772.150
1662.877, 5770.408
1664.805, 5773.583
1666.734, 5779.111
1668.662, 5786.034
1670.590, 5794.001
1672.519, 5795.279
1674.447, 5783.057
1676.376, 5787.991
1678.304, 5833.327
1680.233, 5875.866
1682.161, 5891.566
1684.090, 5890.752
1686.018, 5889.410
1687.947, 5887.365
1689.875, 5882.290
1691.804, 5869.256
1693.732, 5866.172
1695.661, 5884.703
1697.589, 5908.824
1699.517, 5936.317
1701.446, 5960.138
1703.374, 5955.292
1705.303, 5917.774
1707.231, 5912.034
1709.160, 5965.913
1711.088, 6006.760
1713.017, 5996.627
1714.945, 5978.937
1716.874, 5986.712
1718.802, 6010.353
1720.731, 6019.852
1722.659, 6012.961
1724.588, 6011.597
1726.516, 6015.911
1728.444, 6030.673
1730.373, 6071.294
1732.301, 6109.738
1734.230, 6122.127
1736.158, 6115.801
1738.087, 6111.423
1740.015, 6108.956
1741.944, 6114.589
1743.872, 6132.242
1745.801, 6152.417
1747.729, 6178.395
1749.658, 6198.734
1751.586, 6197.563
1753.515, 6184.775
1755.443, 6193.160
1757.371, 6226.354
1759.300, 6237.975
1761.228, 6207.963
1763.157, 6186.216
1765.085, 6189.839
1767.014, 6209.998
1768.942, 6256.729
1770.871, 6309.957
1772.799, 6318.498
1774.728, 6280.126
1776.656, 6254.549
1778.585, 6250.842
1780.513, 6256.831
1782.442, 6271.984
1784.370, 6292.518
1786.298, 6323.361
1788.227, 6354.491
1790.155, 6364.157
1792.084, 6353.073
1794.012, 6350.662
1795.941, 6360.868
1797.869, 6373.439
1799.798, 6388.910
1801.726, 6401.681
1803.655, 6404.794
1805.583, 6406.537
1807.512, 6423.847
1809.440, 6453.666
1811.369, 6465.429
1813.297, 6451.938
1815.225, 6443.084
1817.154, 6451.325
1819.082, 6454.626
1821.011, 6428.371
1822.939, 6404.712
1824.868, 6424.917
1826.796, 6477.376
1828.725, 6512.935
1830.653, 6531.090
1832.582, 6538.129
1834.510, 6520.417
1836.439, 6512.716
1838.367, 6532.239
1840.296, 6554.078
1842.224, 6556.313
1844.152, 6550.512
1846.081, 6562.748
1848.009, 6595.596
1849.938, 6615.024
1851.866, 6609.602
1853.795, 6608.610
1855.723, 6621.521
1857.652, 6628.103
1859.580, 6608.917
1861.509, 6587.975
1863.437, 6595.921
1865.366, 6625.279
1867.294, 6638.055
1869.223, 6629.708
1871.151, 6627.897
1873.079, 6639.145
1875.008, 6649.230
1876.936, 6650.651
1878.865, 6655.234
1880.793, 6673.256
1882.722, 6695.308
1884.650, 6706.617
1886.579, 6708.143
1888.507, 6708.783
1890.436, 6707.228
1892.364, 6713.187
1894.293, 6733.997
1896.221, 6750.875
1898.150, 6757.119
1900.078, 6756.880
1902.006, 6741.868
1903.935, 6728.283
1905.863, 6753.800
1907.792, 6812.806
1909.720, 6839.749
1911.649, 6821.551
1913.577, 6809.236
1915.506, 6814.014
1917.434, 6823.134
1919.363, 6831.226
1921.291, 6841.900
1923.220, 6863.872
1925.148, 6889.098
1927.077, 6894.951
1929.005, 6879.123
1930.933, 6884.997
1932.862, 6933.637
1934.790, 6965.702
1936.719, 6967.798
1938.647, 6966.743
1940.576, 6969.246
1942.504, 6973.197
1944.433, 6978.013
1946.361, 6982.876
1948.290, 6985.542
1950.218, 6986.207
1952.147, 6989.148
1954.075, 6993.344
1956.004, 7004.859
1957.932, 7031.204
1959.860, 7052.506
1961.789, 7056.103
1963.717, 7057.901
1965.646, 7069.401
1967.574, 7085.269
1969.503, 7099.449
1971.431, 7111.185
1973.360, 7113.733
1975.288, 7105.318
1977.217, 7101.365
1979.145, 7107.040
1981.074, 7110.309
1983.002, 7097.298
1984.931, 7092.264
1986.859, 7122.157
1988.787, 7157.962
1990.716, 7158.604
1992.644, 7134.550
1994.573, 7129.931
1996.501, 7151.083
1998.430, 7164.561
2000.358, 7158.855
2002.287, 7164.381
2004.215, 7187.742
2006.144, 7215.385
2008.072, 7246.382
2010.001, 7274.269
2011.929, 7295.976
2013.858, 7309.069
2015.786, 7304.448
2017.714, 7285.097
2019.643, 7278.306
2021.571, 7286.027
2023.500, 7304.120
2025.428, 7341.431
2027.357, 7365.479
2029.285, 7356.249
2031.214, 7345.743
2033.142, 7347.600
2035.071, 7359.268
2036.999, 7387.785
2038.928, 7421.240
2040.856, 7426.688
2042.785, 7403.092
2044.713, 7387.210
2046.641, 7381.091
2048.570, 7380.011
2050.499, 7386.444
2052.427, 7395.969
2054.355, 7401.169
2056.284, 7417.346
2058.212, 7469.156
2060.141, 7520.837
2062.069, 7524.735
2063.998, 7498.219
2065.926, 7494.092
2067.854, 7510.209
2069.783, 7520.335
2071.711, 7522.547
2073.640, 7524.662
2075.568, 7529.009
2077.497, 7533.813
2079.425, 7539.402
2081.354, 7545.888
2083.282, 7550.166
2085.211, 7558.311
2087.139, 7582.098
2089.068, 7611.038
2090.996, 7622.216
2092.925, 7615.812
2094.853, 7603.478
2096.781, 7576.420
2098.710, 7569.975
2100.638, 7598.538
2102.567, 7620.860
2104.495, 7625.833
2106.424, 7631.334
2108.352, 7645.966
2110.281, 7660.864
2112.209, 7667.770
2114.138, 7671.941
2116.066, 7677.906
2117.995, 7687.019
2119.923, 7707.649
2121.852, 7739.848
2123.780, 7760.246
2125.708, 7765.114
2127.637, 7769.126
2129.565, 7777.985
2131.494, 7781.595
2133.422, 7768.629
2135.351, 7762.309
2137.279, 7781.675
2139.208, 7803.389
2141.136, 7799.707
2143.065, 7788.228
2144.993, 7805.160
2146.922, 7841.753
2148.850, 7857.687
2150.779, 7852.662
2152.707, 7845.807
2154.635, 7838.222
2156.564, 7833.836
2158.492, 7836.384
2160.421, 7837.802
2162.349, 7829.268
2164.278, 7828.707
2166.206, 7849.564
2168.135, 7876.313
2170.063, 7899.140
2171.992, 7916.529
2173.920, 7922.672
2175.849, 7921.089
2177.777, 7930.611
2179.706, 7951.131
2181.634, 7959.529
2183.563, 7953.339
2185.491, 7946.715
2187.419, 7939.617
2189.348, 7937.199
2191.276, 7936.695
2193.205, 7947.628
2195.133, 7984.616
2197.062, 8022.515
2198.990, 8050.290
2200.919, 8067.980
2202.847, 8070.679
2204.776, 8065.726
2206.704, 8066.365
2208.633, 8072.212
2210.561, 8088.586
2212.490, 8115.656
2214.418, 8120.066
2216.346, 8092.473
2218.275, 8087.029
2220.203, 8123.723
2222.132, 8152.977
2224.060, 8157.724
2225.989, 8159.306
2227.917, 8164.333
2229.846, 8171.686
2231.774, 8180.694
2233.703, 8190.116
2235.631, 8200.750
2237.560, 8209.118
2239.488, 8207.025
2241.417, 8196.981
2243.345, 8193.241
2245.273, 8196.442
2247.202, 8200.734
2249.130, 8206.110
2251.059, 8214.754
2252.987, 8224.813
2254.916, 8242.995
2256.844, 8277.313
2258.773, 8306.684
2260.701, 8330.354
2262.630, 8338.574
2264.558, 8313.101
2266.487, 8285.943
2268.415, 8284.480
2270.344, 8296.104
2272.272, 8308.939
2274.200, 8321.183
2276.129, 8327.766
2278.057, 8328.532
2279.986, 8319.034
2281.914, 8298.836
2283.843, 8299.753
2285.771, 8332.026
2287.700, 8348.550
2289.628, 8330.056
2291.557, 8325.888
2293.485, 8348.708
2295.414, 8375.556
2297.342, 8414.669
2299.271, 8438.750
2301.199, 8412.369
2303.127, 8395.549
2305.056, 8447.218
2306.984, 8506.234
2308.913, 8511.047
2310.841, 8485.079
2312.770, 8455.421
2314.698, 8429.915
2316.627, 8438.095
2318.555, 8477.813
2320.484, 8492.271
2322.412, 8476.199
2324.341, 8483.237
2326.269, 8520.171
2328.198, 8535.475
2330.126, 8514.874
2332.054, 8501.427
2333.983, 8508.205
2335.911, 8515.490
2337.840, 8522.942
2339.768, 8523.462
2341.697, 8501.829
2343.625, 8490.189
2345.554, 8513.972
2347.482, 8550.712
2349.411, 8589.434
2351.339, 8622.530
2353.268, 8637.999
2355.196, 8640.682
2357.125, 8629.894
2359.053, 8614.528
2360.981, 8634.792
2362.910, 8686.956
2364.838, 8715.587
2366.767, 8718.517
2368.695, 8713.450
2370.624, 8698.186
2372.552, 8691.134
2374.481, 8697.887
2376.409, 8702.075
2378.338, 8700.086
2380.266, 8699.242
2382.195, 8695.682
2384.123, 8702.507
2386.052, 8738.156
2387.980, 8763.960
2389.908, 8750.074
2391.837, 8732.416
2393.765, 8732.503
2395.694, 8743.646
2397.622, 8765.563
2399.551, 8791.852
2401.479, 8825.256
2403.408, 8850.976
2405.336, 8826.980
2407.265, 8777.232
2409.193, 8772.554
2411.122, 8808.453
2413.050, 8862.070
2414.979, 8936.596
2416.907, 8964.664
2418.835, 8942.054
2420.764, 8913.424
2422.692, 8877.974
2424.621, 8869.735
2426.549, 8904.564
2428.478, 8919.962
2430.406, 8878.815
2432.335, 8866.066
2434.263, 8927.619
2436.192, 8972.761
2438.120, 8970.384
2440.049, 8959.064
2441.977, 8938.738
2443.906, 8931.470
2445.834, 8960.729
2447.762, 8991.588
2449.691, 8996.403
2451.619, 8996.173
2453.548, 9012.962
2455.476, 9033.154
2457.405, 9033.091
2459.333, 9029.589
2461.262, 9059.736
2463.190, 9103.530
2465.119, 9115.219
2467.047, 9101.174
2468.976, 9071.549
2470.904, 9032.724
2472.833, 9021.278
2474.761, 9037.423
2476.689, 9053.050
2478.618, 9069.035
2480.546, 9078.776
2482.475, 9081.024
2484.403, 9084.855
2486.332, 9088.913
2488.260, 9109.995
2490.189, 9160.020
2492.117, 9188.640
2494.046, 9171.522
2495.974, 9158.338
2497.903, 9151.258
2499.831, 9155.280
2501.760, 9182.692
2503.688, 9199.855
2505.616, 9192.596
2507.545, 9184.008
2509.473, 9187.093
2511.402, 9187.415
2513.330, 9165.567
2515.259, 9154.834
2517.187, 9186.724
2519.116, 9221.993
2521.044, 9239.649
2522.973, 9241.244
2524.901, 9208.346
2526.830, 9181.653
2528.758, 9215.553
2530.687, 9265.305
2532.615, 9272.669
2534.543, 9260.126
2536.472, 9253.783
2538.400, 9259.003
2540.329, 9302.956
2542.257, 9360.318
2544.186, 9357.748
2546.114, 9319.941
2548.043, 9323.723
2549.971, 9358.882
2551.900, 9375.537
2553.828, 9375.612
2555.757, 9372.190
2557.685, 9366.288
2559.614, 9396.383
2561.542, 9458.206
2563.470, 9474.642
2565.399, 9440.365
2567.327, 9422.182
2569.256, 9426.648
2571.184, 9429.852
2573.113, 9427.768
2575.041, 9440.477
2576.970, 9473.500
2578.898, 9488.378
2580.827, 9477.795
2582.755, 9476.860
2584.684, 9494.931
2586.612, 9514.380
2588.541, 9540.155
2590.469, 9553.152
2592.397, 9546.635
2594.326, 9536.272
2596.254, 9515.656
2598.183, 9516.956
2600.111, 9558.127
2602.040, 9600.143
2603.968, 9650.237
2605.897, 9672.026
2607.825, 9632.256
2609.754, 9602.161
2611.682, 9600.916
2613.611, 9602.136
2615.539, 9590.861
2617.468, 9588.938
2619.396, 9611.277
2621.324, 9638.362
2623.253, 9676.880
2625.181, 9700.971
2627.110, 9690.369
2629.038, 9676.223
2630.967, 9668.990
2632.895, 9663.693
2634.824, 9650.531
2636.752, 9645.289
2638.681, 9665.595
2640.609, 9685.925
2642.538, 9691.805
2644.466, 9693.116
2646.395, 9693.612
2648.323, 9696.868
2650.251, 9710.709
2652.180, 9721.155
2654.108, 9712.356
2656.037, 9701.738
2657.965, 9698.597
2659.894, 9704.550
2661.822, 9725.548
2663.751, 9750.907
2665.679, 9776.630
2667.608, 9797.752
2669.536, 9811.027
2671.465, 9815.690
2673.393, 9803.834
2675.322, 9790.917
2677.250, 9794.495
2679.178, 9801.404
2681.107, 9794.065
2683.035, 9790.696
2684.964, 9821.148
2686.892, 9852.562
2688.821, 9845.051
2690.749, 9827.908
2692.678, 9833.227
2694.606, 9844.158
2696.535, 9840.199
2698.463, 9837.425
2700.392, 9850.819
2702.320, 9873.444
2704.249, 9901.755
2706.177, 9929.454
2708.105, 9952.793
2710.034, 9968.673
2711.962, 9967.778
2713.891, 9966.910
2715.819, 9995.680
2717.748, 10020.41
2719.676, 9987.098
2721.605, 9951.548
2723.533, 9979.248
2725.462, 10022.74
2727.390, 10044.28
2729.319, 10055.93
2731.247, 10068.95
2733.176, 10078.73
2735.104, 10075.67
2737.032, 10072.90
2738.961, 10089.01
2740.889, 10101.14
2742.818, 10071.41
2744.746, 10052.70
2746.675, 10111.08
2748.603, 10171.61
2750.532, 10177.26
2752.460, 10157.18
2754.389, 10104.72
2756.317, 10074.26
2758.246, 10124.15
2760.174, 10182.25
2762.103, 10206.68
2764.031, 10211.96
2765.959, 10191.40
2767.888, 10175.17
2769.816, 10181.49
2771.745, 10192.71
2773.673, 10207.27
2775.602, 10212.99
2777.530, 10184.38
2779.459, 10177.74
2781.387, 10246.16
2783.316, 10287.93
2785.244, 10231.64
2787.173, 10191.28
2789.101, 10222.46
2791.030, 10261.94
2792.958, 10298.40
2794.886, 10318.64
2796.815, 10309.79
2798.743, 10310.00
2800.672, 10346.70
2802.600, 10366.35
2804.529, 10334.95
2806.457, 10327.29
2808.386, 10368.99
2810.314, 10387.49
2812.243, 10364.33
2814.171, 10332.35
2816.100, 10277.63
2818.028, 10265.89
2819.957, 10317.47
2821.885, 10367.85
2823.813, 10416.80
2825.742, 10439.15
2827.670, 10428.24
2829.599, 10414.88
2831.527, 10399.10
2833.456, 10386.15
2835.384, 10374.85
2837.313, 10373.24
2839.241, 10381.71
2841.170, 10412.30
2843.098, 10464.97
2845.027, 10478.75
2846.955, 10456.83
2848.884, 10453.11
2850.812, 10462.15
2852.740, 10453.11
2854.669, 10431.96
2856.597, 10415.51
2858.526, 10408.72
2860.454, 10436.27
2862.383, 10479.93
2864.311, 10495.57
2866.240, 10497.06
2868.168, 10506.13
2870.097, 10518.19
2872.025, 10529.91
2873.954, 10538.21
2875.882, 10540.83
2877.811, 10536.95
2879.739, 10515.30
2881.667, 10500.36
2883.596, 10520.41
2885.524, 10543.80
2887.453, 10541.92
2889.381, 10545.28
2891.310, 10572.42
2893.238, 10601.44
2895.167, 10631.97
2897.095, 10646.13
2899.024, 10625.07
2900.952, 10614.08
2902.881, 10631.68
2904.809, 10636.31
2906.738, 10601.25
2908.666, 10589.60
2910.594, 10617.79
2912.523, 10643.22
2914.451, 10662.97
2916.380, 10676.59
2918.308, 10684.37
2920.237, 10675.19
2922.165, 10643.96
2924.094, 10645.47
2926.022, 10676.96
2927.951, 10703.92
2929.879, 10724.02
2931.808, 10730.82
2933.736, 10727.30
2935.665, 10725.71
2937.593, 10723.75
2939.521, 10710.26
2941.450, 10697.84
2943.378, 10716.03
2945.307, 10738.11
2947.235, 10723.68
2949.164, 10701.47
2951.092, 10693.40
2953.021, 10697.25
2954.949, 10712.45
2956.878, 10737.40
2958.806, 10786.47
2960.735, 10818.57
2962.663, 10808.84
2964.592, 10805.13
2966.520, 10833.51
2968.448, 10848.80
2970.377, 10833.19
2972.305, 10815.86
2974.234, 10793.78
2976.162, 10804.28
2978.091, 10859.67
2980.019, 10880.67
2981.948, 10859.23
2983.876, 10855.54
2985.805, 10867.63
2987.733, 10875.12
2989.662, 10877.78
2991.590, 10874.32
2993.519, 10868.60
2995.447, 10874.71
2997.375, 10883.70
2999.304, 10880.15
3001.232, 10870.94
3003.161, 10858.48
3005.089, 10850.87
3007.018, 10859.70
3008.946, 10869.66
3010.875, 10867.32
3012.803, 10872.16
3014.732, 10897.97
3016.660, 10923.88
3018.589, 10944.64
3020.517, 10964.46
3022.446, 10985.46
3024.374, 10999.39
3026.302, 11004.49
3028.231, 11002.85
3030.159, 10994.27
3032.088, 10996.29
3034.016, 11009.79
3035.945, 11045.16
3037.873, 11087.33
3039.802, 11061.36
3041.730, 11001.10
3043.659, 10989.59
3045.587, 10995.40
3047.516, 10969.38
3049.444, 10952.26
3051.373, 11009.66
3053.301, 11057.50
3055.229, 11029.98
3057.158, 11008.44
3059.086, 11028.67
3061.015, 11063.79
3062.943, 11117.11
3064.872, 11144.25
3066.800, 11133.41
3068.729, 11116.25
3070.657, 11093.66
3072.586, 11092.08
3074.514, 11111.22
3076.443, 11105.92
3078.371, 11083.82
3080.300, 11084.44
3082.228, 11095.54
3084.156, 11072.68
3086.085, 11053.25
3088.013, 11116.88
3089.942, 11174.50
3091.870, 11119.47
3093.799, 11065.32
3095.727, 11085.36
3097.656, 11116.44
3099.584, 11144.58
3101.513, 11161.74
3103.441, 11160.27
3105.370, 11157.22
3107.298, 11153.09
3109.227, 11134.91
3111.155, 11100.20
3113.083, 11103.48
3115.012, 11137.20
3116.940, 11132.32
3118.869, 11115.11
3120.797, 11160.50
3122.726, 11218.82
3124.654, 11215.13
3126.583, 11193.76
3128.511, 11186.38
3130.440, 11184.34
3132.368, 11190.18
3134.297, 11184.54
3136.225, 11146.77
3138.154, 11135.18
3140.082, 11163.58
3142.010, 11190.54
3143.939, 11209.83
3145.867, 11252.00
3147.796, 11310.46
3149.724, 11303.52
3151.653, 11256.92
3153.581, 11242.12
3155.510, 11247.87
3157.438, 11263.95
3159.367, 11281.21
3161.295, 11296.23
3163.224, 11304.59
3165.152, 11289.85
3167.081, 11299.25
3169.009, 11361.71
3170.938, 11386.65
3172.866, 11341.80
3174.794, 11299.46
3176.723, 11261.56
3178.651, 11241.87
3180.580, 11242.51
3182.508, 11283.40
3184.437, 11338.19
3186.365, 11334.58
3188.294, 11316.13
3190.222, 11344.58
3192.151, 11367.19
3194.079, 11324.07
3196.008, 11303.03
3197.936, 11348.81
3199.865, 11380.81
3201.793, 11380.08
3203.721, 11358.84
3205.650, 11312.54
3207.578, 11300.12
3209.507, 11316.01
3211.435, 11324.20
3213.364, 11325.29
3215.292, 11312.98
3217.221, 11306.54
3219.149, 11334.69
3221.078, 11371.00
3223.006, 11397.00
3224.935, 11424.47
3226.863, 11460.17
3228.792, 11487.35
3230.720, 11506.66
3232.648, 11488.24
3234.577, 11424.43
3236.505, 11436.02
3238.434, 11495.86
3240.362, 11463.94
3242.291, 11398.72
3244.219, 11428.20
3246.148, 11476.81
3248.076, 11478.81
3250.005, 11463.81
3251.933, 11432.98
3253.862, 11418.93
3255.790, 11432.41
3257.719, 11440.35
3259.647, 11432.19
3261.575, 11462.04
3263.504, 11524.43
3265.432, 11530.48
3267.361, 11502.12
3269.289, 11486.04
3271.218, 11474.84
3273.146, 11443.74
3275.075, 11438.85
3277.003, 11516.82
3278.932, 11573.99
3280.860, 11570.09
3282.789, 11559.93
3284.717, 11546.82
3286.646, 11546.50
3288.574, 11557.51
3290.502, 11566.48
3292.431, 11566.24
3294.359, 11523.26
3296.288, 11482.60
3298.216, 11509.42
3300.145, 11535.35
3302.073, 11514.88
3304.002, 11509.10
3305.930, 11551.66
3307.859, 11572.88
3309.787, 11566.42
3311.716, 11580.06
3313.644, 11606.65
3315.573, 11581.46
3317.501, 11546.44
3319.429, 11623.50
3321.358, 11683.74
3323.286, 11576.46
3325.215, 11488.08
3327.143, 11509.79
3329.072, 11531.76
3331.000, 11534.11
3332.929, 11531.69
3334.857, 11525.49
3336.786, 11573.53
3338.714, 11642.40
3340.643, 11634.66
3342.571, 11604.47
3344.500, 11622.24
3346.428, 11641.36
3348.356, 11648.72
3350.285, 11622.88
3352.213, 11520.41
3354.142, 11520.74
3356.070, 11630.72
3357.999, 11648.81
3359.927, 11599.47
3361.856, 11598.66
3363.784, 11617.54
3365.713, 11620.41
3367.641, 11617.58
3369.570, 11611.04
3371.498, 11611.37
3373.427, 11623.52
3375.355, 11629.38
3377.283, 11622.58
3379.212, 11649.27
3381.140, 11694.50
3383.069, 11696.12
3384.997, 11682.70
3386.926, 11697.78
3388.854, 11713.95
3390.783, 11718.52
3392.711, 11712.31
3394.640, 11687.97
3396.568, 11678.53
3398.497, 11685.82
3400.425, 11681.44
3402.354, 11671.71
3404.282, 11684.11
3406.210, 11702.16
3408.139, 11705.67
3410.067, 11704.69
3411.996, 11702.22
3413.924, 11701.99
3415.853, 11704.49
3417.781, 11712.84
3419.710, 11727.41
3421.638, 11761.47
3423.567, 11794.25
3425.495, 11757.46
3427.424, 11722.72
3429.352, 11791.16
3431.281, 11835.37
3433.209, 11794.31
3435.137, 11764.89
3437.066, 11764.24
3438.994, 11776.48
3440.923, 11793.54
3442.851, 11764.73
3444.780, 11733.06
3446.708, 11795.85
3448.637, 11845.12
3450.565, 11793.16
3452.494, 11750.93
3454.422, 11740.17
3456.351, 11764.53
3458.279, 11818.44
3460.208, 11803.15
3462.136, 11751.65
3464.064, 11740.41
3465.993, 11751.14
3467.921, 11787.92
3469.850, 11805.81
3471.778, 11785.29
3473.707, 11778.28
3475.635, 11795.34
3477.564, 11805.46
3479.492, 11807.04
3481.421, 11786.79
3483.349, 11764.54
3485.278, 11758.19
3487.206, 11766.89
3489.135, 11799.42
3491.063, 11811.21
3492.991, 11784.77
3494.920, 11788.92
3496.848, 11817.67
3498.777, 11856.02
3500.705, 11888.71
3502.634, 11901.09
3504.562, 11887.11
3506.491, 11809.17
3508.419, 11787.76
3510.348, 11843.81
3512.276, 11889.34
3514.205, 11915.42
3516.133, 11892.38
3518.062, 11855.22
3519.990, 11845.38
3521.918, 11850.18
3523.847, 11878.15
3525.775, 11882.37
3527.704, 11856.03
3529.632, 11842.17
3531.561, 11843.88
3533.489, 11880.07
3535.418, 11911.72
3537.346, 11877.45
3539.275, 11852.11
3541.203, 11878.15
3543.132, 11893.48
3545.060, 11887.52
3546.989, 11911.08
3548.917, 11951.30
3550.845, 11948.23
3552.774, 11934.23
3554.702, 11945.15
3556.631, 11947.92
3558.559, 11928.96
3560.488, 11912.01
3562.416, 11900.15
3564.345, 11902.21
3566.273, 11913.67
3568.202, 11921.49
3570.130, 11934.42
3572.059, 11965.69
3573.987, 11989.34
3575.916, 12001.25
3577.844, 11973.41
3579.772, 11914.99
3581.701, 11933.39
3583.629, 11979.54
3585.558, 11989.37
3587.486, 11969.36
3589.415, 11901.42
3591.343, 11878.09
3593.272, 11925.63
3595.200, 11949.43
3597.129, 11953.68
3599.057, 11954.07
3600.986, 11959.63
3602.914, 11986.93
3604.843, 12004.97
3606.771, 11985.63
3608.699, 11999.28
3610.628, 12040.64
3612.556, 12019.04
3614.485, 11980.11
3616.413, 12025.98
3618.342, 12068.31
3620.270, 12036.86
3622.199, 12032.83
3624.127, 12071.55
3626.056, 12060.02
3627.984, 12012.18
3629.913, 11967.40
3631.841, 11957.01
3633.770, 12043.07
3635.698, 12092.49
3637.626, 12059.27
3639.555, 12007.31
3641.483, 11950.96
3643.412, 11966.54
3645.340, 12004.59
3647.269, 11987.00
3649.197, 11974.23
3651.126, 12008.02
3653.054, 12016.66
3654.983, 11996.12
3656.911, 12002.56
3658.840, 12024.70
3660.768, 12040.59
3662.697, 12054.15
3664.625, 12073.55
3666.553, 12077.66
3668.482, 12063.49
3670.410, 12063.71
3672.339, 12075.15
3674.267, 12099.19
3676.196, 12108.31
3678.124, 12058.39
3680.053, 12045.33
3681.981, 12095.42
3683.910, 12065.55
3685.838, 11984.71
3687.767, 12030.36
3689.695, 12094.41
3691.624, 12065.70
3693.552, 12031.65
3695.480, 12012.10
3697.409, 12028.16
3699.337, 12071.11
3701.266, 12085.81
3703.194, 12081.60
3705.123, 12049.17
3707.051, 12048.44
3708.980, 12108.87
3710.908, 12131.70
3712.837, 12115.93
3714.765, 12127.70
3716.694, 12130.10
3718.622, 12048.26
3720.551, 12015.95
3722.479, 12107.54
3724.407, 12098.15
3726.336, 11997.99
3728.264, 12024.99
3730.193, 12096.77
3732.121, 12130.43
3734.050, 12133.66
3735.978, 12100.51
3737.907, 12075.42
3739.835, 12064.10
3741.764, 12093.54
3743.692, 12123.50
3745.621, 12091.63
3747.549, 12082.99
3749.478, 12140.20
3751.406, 12140.61
3753.334, 12095.26
3755.263, 12106.44
3757.191, 12129.49
3759.120, 12114.48
3761.048, 12106.50
3762.977, 12122.01
3764.905, 12123.60
3766.834, 12113.77
3768.762, 12109.25
3770.691, 12099.30
3772.619, 12058.50
3774.548, 12054.03
3776.476, 12104.88
3778.405, 12116.39
3780.333, 12103.53
3782.261, 12116.45
3784.190, 12136.38
3786.118, 12158.07
3788.047, 12159.14
3789.975, 12136.63
3791.904, 12137.14
3793.832, 12149.25
3795.761, 12154.49
3797.689, 12151.79
3799.618, 12138.68
3801.546, 12124.58
3803.475, 12111.06
3805.403, 12105.79
3807.332, 12108.80
3809.260, 12133.17
3811.188, 12141.10
3813.117, 12110.61
3815.045, 12115.25
3816.974, 12144.22
3818.902, 12123.96
3820.831, 12105.62
3822.759, 12150.27
3824.688, 12166.94
3826.616, 12122.28
3828.545, 12144.48
3830.473, 12192.79
3832.402, 12176.25
3834.330, 12149.02
3836.259, 12138.76
3838.187, 12132.64
3840.115, 12130.49
3842.044, 12152.53
3843.972, 12182.48
3845.901, 12213.42
3847.829, 12211.74
3849.758, 12165.26
3851.686, 12133.76
3853.615, 12123.95
3855.543, 12169.36
3857.472, 12211.75
3859.400, 12206.46
3861.329, 12194.79
3863.257, 12181.20
3865.186, 12192.30
3867.114, 12209.02
3869.042, 12184.09
3870.971, 12178.38
3872.899, 12231.00
3874.828, 12232.42
3876.756, 12201.90
3878.685, 12234.43
3880.613, 12264.45
3882.542, 12237.91
3884.470, 12204.07
3886.399, 12180.62
3888.327, 12218.48
3890.256, 12269.27
3892.184, 12269.37
3894.113, 12264.63
3896.041, 12274.70
3897.969, 12275.54
3899.898, 12267.06
3901.826, 12210.07
3903.755, 12175.27
3905.683, 12231.92
3907.612, 12270.56
3909.540, 12271.12
3911.469, 12313.79
3913.397, 12347.92
3915.326, 12302.93
3917.254, 12269.61
3919.183, 12257.69
3921.111, 12278.47
3923.040, 12344.90
3924.968, 12382.16
3926.896, 12369.91
3928.825, 12331.05
3930.753, 12281.52
3932.682, 12238.07
3934.610, 12263.75
3936.539, 12299.01
3938.467, 12293.51
3940.396, 12298.50
3942.324, 12313.54
3944.253, 12342.41
3946.181, 12357.36
3948.110, 12307.36
3950.038, 12274.70
3951.967, 12282.80
3953.895, 12288.20
3955.823, 12293.61
3957.752, 12324.95
3959.680, 12348.57
3961.609, 12326.61
3963.537, 12303.03
3965.466, 12306.12
3967.394, 12334.85
3969.323, 12355.10
3971.251, 12365.23
3973.180, 12349.39
3975.108, 12322.51
3977.037, 12323.62
3978.965, 12346.23
3980.894, 12397.25
3982.822, 12413.01
3984.750, 12382.18
3986.679, 12388.52
3988.607, 12428.66
3990.536, 12444.30
3992.464, 12423.18
3994.393, 12379.69
3996.321, 12401.87
3998.250, 12418.59
4000.178, 12398.26
4002.107, 12412.06
4004.035, 12434.50
4005.964, 12426.49
4007.892, 12396.82
4009.821, 12422.85
4011.749, 12465.27
4013.677, 12463.96
4015.606, 12425.32
4017.534, 12396.22
4019.463, 12414.27
4021.391, 12413.76
4023.320, 12401.19
4025.248, 12416.87
4027.177, 12452.07
4029.105, 12482.36
4031.034, 12482.44
4032.962, 12474.00
4034.891, 12480.93
4036.819, 12488.44
4038.748, 12509.04
4040.676, 12513.37
4042.604, 12481.41
4044.533, 12484.92
4046.461, 12509.42
4048.390, 12461.39
4050.318, 12411.32
4052.247, 12402.48
4054.175, 12460.07
4056.104, 12538.49
4058.032, 12527.83
4059.961, 12499.26
4061.889, 12495.09
4063.818, 12497.46
4065.746, 12488.22
4067.675, 12487.03
4069.603, 12498.29
4071.531, 12527.73
4073.460, 12485.67
4075.388, 12404.06
4077.317, 12422.65
4079.245, 12466.71
4081.174, 12483.11
4083.102, 12466.55
4085.031, 12448.27
4086.959, 12478.23
4088.888, 12505.09
4090.816, 12509.44
4092.745, 12496.28
4094.673, 12482.67
4096.602, 12505.04
4098.530, 12506.82
4100.458, 12478.14
4102.387, 12467.05
4104.315, 12467.31
4106.244, 12503.05
4108.172, 12533.09
4110.101, 12528.59
4112.029, 12536.20
4113.958, 12545.84
4115.886, 12528.40
4117.814, 12505.77
4119.743, 12494.03
4121.671, 12488.12
4123.600, 12480.14
4125.528, 12444.09
4127.457, 12424.45
4129.385, 12473.44
4131.314, 12497.41
4133.242, 12495.10
4135.171, 12502.33
4137.099, 12520.76
4139.028, 12555.84
4140.956, 12564.72
4142.885, 12549.96
4144.813, 12588.49
4146.742, 12601.04
4148.670, 12499.66
4150.599, 12479.57
4152.527, 12548.13
4154.456, 12582.80
4156.384, 12574.56
4158.313, 12494.43
4160.241, 12471.93
4162.169, 12514.42
4164.098, 12550.11
4166.026, 12561.28
4167.955, 12526.69
4169.883, 12488.72
4171.812, 12453.48
4173.740, 12473.23
4175.668, 12509.62
4177.597, 12542.73
4179.525, 12563.81
4181.454, 12567.89
4183.382, 12564.65
4185.311, 12546.71
4187.239, 12492.13
4189.168, 12460.25
4191.096, 12459.96
4193.025, 12487.73
4194.953, 12522.61
4196.882, 12569.48
4198.810, 12549.05
4200.739, 12482.12
4202.667, 12415.59
4204.596, 12416.07
4206.524, 12528.86
4208.453, 12538.06
4210.381, 12477.35
4212.310, 12447.92
4214.238, 12456.68
4216.167, 12505.31
4218.095, 12469.57
4220.023, 12415.83
4221.952, 12487.63
4223.880, 12559.39
4225.809, 12596.69
4227.737, 12526.26
4229.666, 12446.11
4231.594, 12508.63
4233.522, 12530.87
4235.451, 12487.39
4237.379, 12489.13
4239.308, 12496.55
4241.236, 12465.58
4243.165, 12443.81
4245.093, 12434.74
4247.022, 12389.98
4248.950, 12372.30
4250.879, 12441.26
4252.807, 12444.75
4254.736, 12394.25
4256.664, 12388.48
4258.593, 12396.49
4260.521, 12402.50
4262.450, 12452.16
4264.378, 12506.17
4266.307, 12460.88
4268.235, 12407.44
4270.164, 12372.54
4272.092, 12370.23
4274.021, 12386.91
4275.949, 12421.12
4277.877, 12417.08
4279.806, 12366.62
4281.734, 12303.66
4283.663, 12257.12
4285.591, 12251.58
4287.520, 12270.79
4289.448, 12308.26
4291.376, 12369.23
4293.305, 12389.75
4295.233, 12328.53
4297.162, 12311.24
4299.090, 12323.25
4301.019, 12329.50
4302.947, 12311.12
4304.876, 12264.05
4306.804, 12283.40
4308.733, 12316.00
4310.661, 12294.59
4312.590, 12285.94
4314.518, 12296.20
4316.447, 12295.81
4318.375, 12285.90
4320.304, 12265.07
4322.232, 12258.10
4324.161, 12251.15
4326.089, 12180.07
4328.018, 12153.21
4329.946, 12201.14
4331.875, 12223.78
4333.803, 12227.33
4335.731, 12228.81
4337.660, 12206.44
4339.588, 12168.01
4341.517, 12177.45
4343.445, 12189.92
4345.374, 12160.41
4347.302, 12235.29
4349.230, 12341.67
4351.159, 12294.45
4353.087, 12221.30
4355.016, 12163.69
4356.944, 12151.92
4358.873, 12175.47
4360.801, 12245.29
4362.730, 12262.05
4364.658, 12224.70
4366.587, 12185.72
4368.515, 12163.68
4370.444, 12180.97
4372.372, 12188.23
4374.301, 12182.30
4376.229, 12139.47
4378.158, 12122.91
4380.086, 12143.52
4382.015, 12204.18
4383.943, 12239.73
4385.872, 12191.42
4387.800, 12172.43
4389.729, 12177.25
4391.657, 12175.98
4393.585, 12169.36
4395.514, 12157.27
4397.442, 12087.39
4399.371, 12035.35
4401.299, 12080.96
4403.228, 12105.42
4405.156, 12097.11
4407.084, 12041.25
4409.013, 12021.81
4410.941, 12066.40
4412.870, 12055.34
4414.798, 12029.14
4416.727, 12056.11
4418.655, 12019.64
4420.584, 11938.51
4422.512, 11933.79
4424.441, 11969.80
4426.369, 12056.13
4428.298, 12006.66
4430.226, 11926.94
4432.155, 11956.54
4434.083, 11985.47
4436.012, 12002.28
4437.940, 12035.94
4439.869, 12043.83
4441.797, 12007.00
4443.726, 11987.87
4445.654, 11973.76
4447.583, 11943.38
4449.511, 11922.63
4451.439, 11921.84
4453.368, 11995.35
4455.296, 12012.91
4457.225, 11917.19
4459.153, 11924.23
4461.082, 11974.20
4463.010, 12018.52
4464.938, 11972.96
4466.867, 11867.25
4468.795, 11827.18
4470.724, 11823.65
4472.652, 11850.97
4474.581, 11873.15
4476.509, 11884.58
4478.438, 11880.77
4480.366, 11855.60
4482.295, 11819.99
4484.223, 11791.19
4486.152, 11789.94
4488.080, 11813.06
4490.009, 11790.43
4491.937, 11757.01
4493.866, 11731.67
4495.794, 11750.09
4497.723, 11784.29
4499.651, 11781.08
4501.580, 11773.46
4503.508, 11769.62
4505.437, 11797.70
4507.365, 11803.78
4509.293, 11759.72
4511.222, 11757.12
4513.150, 11767.71
4515.079, 11755.12
4517.007, 11761.70
4518.936, 11771.00
4520.864, 11714.29
4522.792, 11668.37
4524.721, 11659.62
4526.649, 11714.02
4528.578, 11743.70
4530.506, 11660.35
4532.435, 11643.73
4534.363, 11660.75
4536.292, 11655.08
4538.220, 11637.11
4540.149, 11611.79
4542.077, 11569.21
4544.006, 11586.26
4545.934, 11683.12
4547.863, 11678.50
4549.791, 11638.91
4551.720, 11631.15
4553.648, 11581.82
4555.577, 11529.80
4557.505, 11584.51
4559.434, 11566.79
4561.362, 11477.18
4563.291, 11520.21
4565.219, 11559.49
4567.147, 11546.56
4569.076, 11539.38
4571.004, 11535.33
4572.933, 11538.33
4574.861, 11490.80
4576.790, 11435.46
4578.718, 11463.98
4580.646, 11501.94
4582.575, 11530.87
4584.503, 11504.06
4586.432, 11491.33
4588.360, 11510.07
4590.289, 11446.54
4592.217, 11392.75
4594.146, 11421.08
4596.074, 11456.54
4598.003, 11472.64
4599.931, 11408.12
4601.860, 11427.28
4603.788, 11495.26
4605.717, 11422.33
4607.645, 11373.43
4609.574, 11377.31
4611.502, 11335.75
4613.431, 11304.34
4615.359, 11312.49
4617.288, 11332.50
4619.216, 11353.81
4621.145, 11378.21
4623.073, 11346.33
4625.001, 11293.80
4626.930, 11290.38
4628.858, 11273.89
4630.787, 11249.00
4632.715, 11279.37
4634.644, 11289.17
4636.572, 11257.43
4638.500, 11250.73
4640.429, 11237.89
4642.357, 11198.42
4644.286, 11195.79
4646.214, 11198.35
4648.143, 11173.61
4650.071, 11183.43
4652.000, 11209.26
4653.928, 11217.93
4655.857, 11215.35
4657.785, 11202.36
4659.714, 11170.66
4661.642, 11146.56
4663.571, 11135.02
4665.499, 11129.29
4667.428, 11128.78
4669.356, 11132.99
4671.285, 11123.38
4673.213, 11128.20
4675.142, 11175.76
4677.070, 11217.30
4678.999, 11226.66
4680.927, 11164.44
4682.855, 11160.26
4684.784, 11179.67
4686.712, 11139.74
4688.641, 11084.58
4690.569, 11033.10
4692.498, 11035.75
4694.426, 11012.70
4696.354, 10958.30
4698.283, 10996.34
4700.211, 11022.43
4702.140, 11000.56
4704.068, 10935.34
4705.997, 10906.79
4707.925, 10982.66
4709.854, 10969.04
4711.782, 10910.65
4713.711, 10834.13
4715.639, 10864.56
4717.568, 10924.27
4719.496, 10903.97
4721.425, 10879.16
4723.353, 10861.51
4725.282, 10855.41
4727.210, 10873.82
4729.139, 10900.58
4731.067, 10891.59
4732.996, 10848.85
4734.924, 10785.66
4736.853, 10755.62
4738.781, 10759.51
4740.709, 10793.36
4742.638, 10767.33
4744.566, 10769.31
4746.495, 10827.99
4748.423, 10817.90
4750.352, 10771.80
4752.280, 10697.35
4754.208, 10740.33
4756.137, 10780.07
4758.065, 10717.53
4759.994, 10779.82
4761.922, 10849.94
4763.851, 10766.80
4765.779, 10694.66
4767.708, 10648.19
4769.636, 10629.08
4771.565, 10679.77
4773.493, 10741.22
4775.422, 10697.80
4777.350, 10640.59
4779.279, 10606.75
4781.207, 10684.77
4783.136, 10681.06
4785.064, 10605.16
4786.993, 10586.59
4788.921, 10603.46
4790.850, 10637.84
4792.778, 10635.61
4794.707, 10631.89
4796.635, 10634.58
4798.563, 10638.61
4800.492, 10620.49
4802.420, 10575.32
4804.349, 10511.80
4806.277, 10509.33
4808.206, 10589.75
4810.134, 10521.28
4812.063, 10469.42
4813.991, 10509.65
4815.919, 10434.75
4817.848, 10402.94
4819.776, 10509.65
4821.705, 10517.01
4823.633, 10486.28
4825.562, 10458.07
4827.490, 10434.34
4829.419, 10437.67
4831.347, 10489.89
4833.276, 10515.47
4835.204, 10496.88
4837.133, 10414.68
4839.061, 10395.39
4840.990, 10397.32
4842.918, 10375.59
4844.847, 10379.23
4846.775, 10377.56
4848.704, 10337.81
4850.632, 10296.80
4852.561, 10275.00
4854.489, 10291.90
4856.417, 10344.84
4858.346, 10383.21
4860.274, 10351.26
4862.203, 10292.89
4864.131, 10253.43
4866.060, 10292.08
4867.988, 10274.38
4869.917, 10235.33
4871.845, 10221.92
4873.773, 10227.42
4875.702, 10254.05
4877.630, 10316.48
4879.559, 10294.52
4881.487, 10248.17
4883.416, 10267.50
4885.344, 10245.94
4887.273, 10203.76
4889.201, 10169.18
4891.130, 10159.80
4893.058, 10161.54
4894.987, 10165.53
4896.915, 10121.69
4898.844, 10090.17
4900.772, 10144.96
4902.701, 10127.90
4904.629, 10084.34
4906.558, 10067.31
4908.486, 10114.47
4910.415, 10132.90
4912.343, 10028.63
4914.271, 9997.427
4916.200, 10011.28
4918.128, 10041.34
4920.057, 10033.33
4921.985, 10020.37
4923.914, 10028.63
4925.842, 10016.77
4927.771, 9993.121
4929.699, 9961.388
4931.627, 10017.17
4933.556, 10039.33
4935.484, 9951.286
4937.413, 9893.950
4939.341, 9900.957
4941.270, 9981.750
4943.198, 9956.434
4945.127, 9932.265
4947.055, 9965.128
4948.984, 9890.353
4950.912, 9852.555
4952.841, 9894.063
4954.769, 9903.293
4956.698, 9878.080
4958.626, 9827.895
4960.555, 9835.227
4962.483, 9854.270
4964.412, 9856.960
4966.340, 9761.796
4968.269, 9709.466
4970.197, 9717.110
4972.125, 9729.291
4974.054, 9734.808
4975.982, 9742.553
4977.911, 9800.055
4979.839, 9772.961
4981.768, 9702.075
4983.696, 9693.236
4985.625, 9719.204
4987.553, 9736.837
4989.481, 9682.736
4991.410, 9661.125
4993.338, 9668.244
4995.267, 9707.866
4997.195, 9621.321
4999.124, 9534.524
5001.052, 9557.955
5002.981, 9531.376
5004.909, 9502.732
5006.838, 9506.488
5008.766, 9565.737
5010.695, 9582.652
5012.623, 9513.294
5014.552, 9498.273
5016.480, 9514.572
5018.409, 9539.781
5020.337, 9506.683
5022.266, 9449.161
5024.194, 9395.669
5026.123, 9419.355
5028.051, 9437.209
5029.979, 9440.266
5031.908, 9441.009
5033.836, 9470.627
5035.765, 9488.918
5037.693, 9427.176
5039.622, 9373.729
5041.550, 9332.525
5043.479, 9298.105
5045.407, 9377.998
5047.335, 9424.826
5049.264, 9336.498
5051.192, 9341.273
5053.121, 9345.636
5055.049, 9308.354
5056.978, 9314.333
5058.906, 9311.210
5060.835, 9290.648
5062.763, 9275.385
5064.692, 9268.439
5066.620, 9262.274
5068.549, 9222.829
5070.477, 9256.537
5072.406, 9298.049
5074.334, 9232.655
5076.263, 9232.103
5078.191, 9248.014
5080.120, 9219.432
5082.048, 9208.493
5083.977, 9196.492
5085.905, 9174.839
5087.833, 9183.440
5089.762, 9149.366
5091.690, 9079.618
5093.619, 9155.228
5095.547, 9161.946
5097.476, 9102.116
5099.404, 9097.496
5101.333, 9103.173
5103.261, 9106.384
5105.189, 9101.022
5107.118, 9066.125
5109.046, 9050.991
5110.975, 9110.215
5112.903, 9055.371
5114.832, 9019.756
5116.760, 9046.995
5118.689, 9028.682
5120.617, 8994.596
5122.546, 8967.222
5124.474, 9000.855
5126.403, 9005.651
5128.331, 8970.560
5130.260, 8890.270
5132.188, 8903.833
5134.117, 8939.412
5136.045, 8925.311
5137.974, 8925.238
5139.902, 8886.965
5141.831, 8800.224
5143.759, 8867.671
5145.688, 8930.589
5147.616, 8944.618
5149.544, 8882.523
5151.473, 8897.911
5153.401, 8931.707
5155.330, 8863.488
5157.258, 8813.990
5159.187, 8804.912
5161.115, 8841.718
5163.043, 8798.655
5164.972, 8781.479
5166.900, 8812.895
5168.829, 8779.245
5170.757, 8764.449
5172.686, 8771.030
5174.614, 8768.838
5176.543, 8765.246
5178.471, 8756.938
5180.400, 8740.173
5182.328, 8722.592
5184.257, 8708.388
5186.185, 8698.595
5188.114, 8672.378
5190.042, 8670.229
5191.971, 8672.995
5193.899, 8596.033
5195.828, 8619.124
5197.756, 8673.729
5199.685, 8664.835
5201.613, 8631.535
5203.542, 8609.858
5205.470, 8613.232
5207.398, 8603.041
5209.327, 8561.872
5211.255, 8513.417
5213.184, 8518.570
5215.112, 8574.729
5217.041, 8605.163
5218.969, 8509.022
5220.897, 8494.868
5222.826, 8515.740
5224.754, 8541.968
5226.683, 8543.051
5228.611, 8525.982
5230.540, 8503.398
5232.468, 8500.106
5234.397, 8480.750
5236.325, 8437.726
5238.254, 8365.311
5240.182, 8334.175
5242.111, 8369.698
5244.039, 8443.035
5245.968, 8400.293
5247.896, 8401.210
5249.825, 8416.729
5251.753, 8353.270
5253.682, 8303.767
5255.610, 8300.332
5257.539, 8346.581
5259.467, 8318.108
5261.396, 8273.275
5263.324, 8249.766
5265.252, 8321.992
5267.181, 8299.215
5269.109, 8242.313
5271.038, 8221.977
5272.966, 8224.663
5274.895, 8201.809
5276.823, 8153.693
5278.751, 8151.847
5280.680, 8158.753
5282.608, 8159.356
5284.537, 8137.622
5286.465, 8132.524
5288.394, 8140.892
5290.322, 8156.326
5292.251, 8149.398
5294.179, 8129.431
5296.108, 8121.848
5298.036, 8183.694
5299.965, 8101.401
5301.893, 8026.044
5303.822, 8057.248
5305.750, 8048.296
5307.679, 8044.333
5309.607, 8046.873
5311.536, 8031.859
5313.464, 8040.249
5315.393, 8056.184
5317.321, 8063.507
5319.250, 8029.577
5321.178, 7977.059
5323.106, 7922.076
5325.035, 7872.023
5326.963, 7912.162
5328.892, 7974.337
5330.820, 7996.921
5332.749, 7956.750
5334.677, 7905.910
5336.605, 7863.422
5338.534, 7829.119
5340.462, 7824.855
5342.391, 7824.047
5344.319, 7805.743
5346.248, 7810.176
5348.176, 7794.898
5350.105, 7773.222
5352.033, 7815.014
5353.962, 7768.184
5355.890, 7732.609
5357.819, 7789.896
5359.747, 7841.521
5361.676, 7837.233
5363.604, 7779.480
5365.533, 7689.769
5367.461, 7695.532
5369.390, 7693.526
5371.318, 7634.777
5373.247, 7732.579
5375.175, 7722.963
5377.104, 7657.542
5379.032, 7756.440
5380.960, 7671.148
5382.889, 7600.954
5384.817, 7622.731
5386.746, 7541.553
5388.674, 7539.042
5390.603, 7568.948
5392.531, 7542.908
5394.459, 7518.774
5396.388, 7512.650
5398.316, 7520.077
5400.245, 7499.019
5402.173, 7541.173
5404.102, 7551.518
5406.030, 7456.869
5407.959, 7407.370
5409.887, 7413.330
5411.816, 7448.367
5413.744, 7473.760
5415.673, 7428.878
5417.601, 7394.966
5419.530, 7407.885
5421.458, 7383.414
5423.387, 7361.150
5425.315, 7348.199
5427.244, 7343.334
5429.172, 7335.384
5431.101, 7352.185
5433.029, 7370.335
5434.958, 7276.056
5436.886, 7273.382
5438.814, 7315.669
5440.743, 7352.700
5442.671, 7265.635
5444.600, 7267.030
5446.528, 7301.890
5448.457, 7241.450
5450.385, 7254.729
5452.313, 7261.094
5454.242, 7235.331
5456.170, 7211.289
5458.099, 7194.368
5460.027, 7175.550
5461.956, 7149.887
5463.884, 7128.152
5465.813, 7105.119
5467.741, 7096.144
5469.670, 7119.639
5471.598, 7120.284
5473.527, 7070.471
5475.455, 7007.708
5477.384, 7063.555
5479.312, 7038.317
5481.241, 7024.114
5483.169, 7065.619
5485.098, 7022.632
5487.026, 6993.962
5488.955, 6960.450
5490.883, 6894.397
5492.812, 6941.031
5494.740, 6982.394
5496.668, 6981.911
5498.597, 6932.337
5500.525, 6913.016
5502.454, 6916.037
5504.382, 6921.384
5506.311, 6876.183
5508.239, 6850.323
5510.167, 6858.872
5512.096, 6893.047
5514.024, 6854.547
5515.953, 6840.180
5517.881, 6842.072
5519.810, 6833.576
5521.738, 6796.971
5523.667, 6752.340
5525.595, 6728.757
5527.524, 6779.344
5529.452, 6765.688
5531.381, 6725.229
5533.309, 6693.254
5535.238, 6720.607
5537.166, 6706.608
5539.095, 6690.214
5541.023, 6687.907
5542.952, 6639.888
5544.880, 6680.516
5546.809, 6705.530
5548.737, 6639.010
5550.666, 6614.222
5552.594, 6609.553
5554.522, 6609.458
5556.451, 6603.639
5558.379, 6579.849
5560.308, 6576.229
5562.236, 6591.662
5564.165, 6610.164
5566.093, 6533.734
5568.021, 6499.535
5569.950, 6518.296
5571.878, 6527.279
5573.807, 6530.672
5575.735, 6485.099
5577.664, 6419.901
5579.592, 6463.486
5581.521, 6519.269
5583.449, 6513.041
5585.378, 6443.808
5587.306, 6401.205
5589.235, 6420.578
5591.163, 6435.218
5593.092, 6415.505
5595.020, 6405.834
5596.949, 6443.448
5598.877, 6469.261
5600.806, 6442.680
5602.734, 6377.319
5604.663, 6333.093
5606.591, 6324.495
5608.520, 6351.435
5610.448, 6400.768
5612.376, 6332.287
5614.305, 6262.266
5616.233, 6297.197
5618.162, 6254.273
5620.090, 6225.845
5622.019, 6200.501
5623.947, 6156.705
5625.875, 6210.397
5627.804, 6245.879
5629.732, 6240.691
5631.661, 6201.231
5633.589, 6130.227
5635.518, 6145.849
5637.446, 6175.869
5639.375, 6112.573
5641.303, 6110.836
5643.232, 6101.110
5645.160, 6097.844
5647.089, 6129.829
5649.017, 6101.226
5650.946, 6079.004
5652.874, 6057.750
5654.803, 6014.850
5656.731, 6011.926
5658.660, 6031.389
5660.588, 6046.620
5662.517, 6035.476
5664.445, 5989.031
5666.374, 5956.672
5668.302, 5952.414
5670.230, 5974.476
5672.159, 5952.191
5674.087, 5948.972
5676.016, 5949.498
5677.944, 5929.674
5679.873, 5933.368
5681.801, 5911.673
5683.729, 5875.881
5685.658, 5848.391
5687.586, 5875.310
5689.515, 5848.930
5691.443, 5824.816
5693.372, 5850.167
5695.300, 5844.538
5697.229, 5808.118
5699.157, 5783.627
5701.086, 5788.181
5703.014, 5766.513
5704.943, 5724.346
5706.871, 5715.955
5708.800, 5744.913
5710.728, 5719.286
5712.657, 5683.962
5714.585, 5699.498
5716.514, 5744.409
5718.442, 5689.699
5720.371, 5647.494
5722.299, 5617.538
5724.228, 5599.707
5726.156, 5600.245
5728.084, 5645.730
5730.013, 5610.537
5731.941, 5549.043
5733.870, 5604.936
5735.798, 5604.834
5737.727, 5616.098
5739.655, 5604.266
5741.583, 5525.919
5743.512, 5523.070
5745.440, 5536.060
5747.369, 5543.261
5749.297, 5534.671
5751.226, 5492.820
5753.154, 5443.134
5755.083, 5411.734
5757.011, 5405.281
5758.940, 5398.112
5760.868, 5403.000
5762.797, 5415.339
5764.725, 5421.705
5766.654, 5396.939
5768.582, 5361.305
5770.511, 5344.545
5772.439, 5349.125
5774.368, 5364.536
5776.296, 5343.468
5778.225, 5343.789
5780.153, 5340.036
5782.082, 5310.420
5784.010, 5341.354
5785.938, 5339.922
5787.867, 5269.077
5789.795, 5179.723
5791.724, 5280.779
5793.652, 5266.502
5795.581, 5222.006
5797.509, 5210.888
5799.438, 5269.057
5801.366, 5197.905
5803.294, 5147.543
5805.223, 5133.991
5807.151, 5126.542
5809.080, 5152.182
5811.008, 5181.631
5812.937, 5154.309
5814.865, 5081.736
5816.794, 5126.113
5818.722, 5128.290
5820.651, 5085.933
5822.579, 5040.751
5824.508, 5046.304
5826.436, 5090.234
5828.365, 5083.794
5830.293, 5054.296
5832.222, 5044.826
5834.150, 5044.181
5836.079, 4985.008
5838.007, 4983.086
5839.936, 5043.342
5841.864, 4987.454
5843.792, 4963.241
5845.721, 4965.710
5847.649, 4973.823
5849.578, 4968.256
5851.506, 4960.634
5853.435, 4938.809
5855.363, 4917.462
5857.292, 4903.639
5859.220, 4880.317
5861.148, 4864.449
5863.077, 4853.458
5865.005, 4862.266
5866.934, 4911.727
5868.862, 4945.894
5870.791, 4867.625
5872.719, 4806.426
5874.648, 4837.073
5876.576, 4814.927
5878.505, 4830.793
5880.433, 4843.573
5882.362, 4819.672
5884.290, 4753.205
5886.219, 4817.651
5888.147, 4794.223
5890.076, 4761.394
5892.004, 4775.336
5893.933, 4691.497
5895.861, 4750.408
5897.790, 4736.534
5899.718, 4666.827
5901.646, 4680.960
5903.575, 4703.515
5905.503, 4697.235
5907.432, 4654.685
5909.360, 4605.268
5911.289, 4650.538
5913.217, 4619.279
5915.146, 4612.840
5917.074, 4611.632
5919.002, 4566.881
5920.931, 4605.239
5922.859, 4574.559
5924.788, 4565.671
5926.716, 4584.027
5928.645, 4540.071
5930.573, 4600.440
5932.502, 4533.559
5934.430, 4489.425
5936.359, 4558.695
5938.287, 4484.990
5940.216, 4492.596
5942.144, 4494.903
5944.073, 4488.789
5946.001, 4506.679
5947.930, 4473.350
5949.858, 4462.687
5951.787, 4475.772
5953.715, 4474.061
5955.644, 4407.641
5957.572, 4437.254
5959.500, 4427.628
5961.429, 4382.936
5963.357, 4343.552
5965.286, 4358.804
5967.214, 4356.278
5969.143, 4370.560
5971.071, 4382.982
5973.000, 4365.006
5974.928, 4306.984
5976.856, 4293.536
5978.785, 4299.421
5980.713, 4305.573
5982.642, 4306.090
5984.570, 4289.282
5986.499, 4289.328
5988.427, 4281.066
5990.356, 4262.933
5992.284, 4262.776
5994.213, 4240.569
5996.141, 4204.939
5998.070, 4194.641
5999.998, 4210.946
6001.927, 4207.879
6003.855, 4151.487
6005.784, 4117.558
6007.712, 4148.258
6009.641, 4206.122
6011.569, 4124.559
6013.498, 4113.423
6015.426, 4142.919
6017.354, 4128.217
6019.283, 4054.425
6021.211, 4107.341
6023.140, 4114.857
6025.068, 4088.045
6026.997, 4080.327
6028.925, 4100.720
6030.854, 3995.141
6032.782, 4030.450
6034.710, 4022.010
6036.639, 3979.104
6038.567, 3981.900
6040.496, 3996.199
6042.424, 4028.116
6044.353, 3984.354
6046.281, 3937.876
6048.210, 3971.904
6050.138, 3953.207
6052.067, 3970.292
6053.995, 3944.333
6055.924, 3918.614
6057.852, 3950.127
6059.781, 3932.338
6061.709, 3892.774
6063.638, 3881.973
6065.566, 3875.711
6067.495, 3843.344
6069.423, 3832.785
6071.352, 3815.751
6073.280, 3822.816
6075.208, 3823.887
6077.137, 3798.603
6079.065, 3823.200
6080.994, 3823.780
6082.922, 3796.076
6084.851, 3779.089
6086.779, 3784.624
6088.708, 3744.518
6090.636, 3755.083
6092.564, 3764.795
6094.493, 3751.739
6096.421, 3721.147
6098.350, 3696.098
6100.278, 3721.824
6102.207, 3692.139
6104.135, 3660.009
6106.064, 3659.688
6107.992, 3657.841
6109.921, 3663.137
6111.849, 3659.578
6113.778, 3671.076
6115.706, 3655.176
6117.635, 3553.034
6119.563, 3612.993
6121.492, 3602.216
6123.420, 3574.719
6125.349, 3568.450
6127.277, 3577.134
6129.206, 3583.046
6131.134, 3570.764
6133.063, 3564.922
6134.991, 3547.642
6136.919, 3508.711
6138.848, 3484.811
6140.776, 3523.525
6142.705, 3570.331
6144.633, 3547.201
6146.562, 3477.040
6148.490, 3476.132
6150.418, 3489.304
6152.347, 3498.345
6154.275, 3473.776
6156.204, 3438.295
6158.132, 3434.703
6160.061, 3479.252
6161.989, 3444.906
6163.918, 3425.767
6165.846, 3426.893
6167.775, 3420.515
6169.703, 3401.580
6171.632, 3390.350
6173.560, 3393.524
6175.489, 3406.358
6177.417, 3398.776
6179.346, 3346.562
6181.274, 3353.297
6183.203, 3321.155
6185.131, 3297.339
6187.060, 3308.689
6188.988, 3337.759
6190.917, 3323.103
6192.845, 3270.872
6194.773, 3260.812
6196.702, 3290.313
6198.630, 3299.365
6200.559, 3240.362
6202.487, 3264.590
6204.416, 3242.448
6206.344, 3225.770
6208.272, 3230.335
6210.201, 3243.643
6212.129, 3250.425
6214.058, 3181.452
6215.986, 3181.290
6217.915, 3180.404
6219.843, 3168.335
6221.772, 3183.797
6223.700, 3165.477
6225.629, 3174.820
6227.557, 3174.238
6229.486, 3164.587
6231.414, 3146.835
6233.343, 3109.069
6235.271, 3109.716
6237.200, 3098.881
6239.128, 3098.036
6241.057, 3101.674
6242.985, 3100.291
6244.914, 3111.534
6246.842, 3089.063
6248.771, 3057.058
6250.699, 3045.697
6252.627, 3029.873
6254.556, 2987.891
6256.484, 3031.850
6258.413, 3020.179
6260.341, 3050.521
6262.270, 3026.498
6264.198, 2977.375
6266.126, 3024.591
6268.055, 3011.021
6269.983, 3008.716
6271.912, 2967.962
6273.840, 2945.766
6275.769, 2953.268
6277.697, 2934.880
6279.626, 2906.782
6281.554, 2950.473
6283.483, 2968.071
6285.411, 2936.337
6287.340, 2895.423
6289.268, 2897.249
6291.197, 2906.829
6293.125, 2906.729
6295.054, 2898.835
6296.982, 2887.307
6298.911, 2878.764
6300.839, 2872.909
6302.768, 2796.259
6304.696, 2796.347
6306.625, 2838.122
6308.553, 2865.260
6310.481, 2834.684
6312.410, 2749.930
6314.338, 2829.707
6316.267, 2793.198
6318.195, 2795.392
6320.124, 2806.156
6322.052, 2780.123
6323.980, 2748.183
6325.909, 2779.912
6327.837, 2753.642
6329.766, 2766.678
6331.694, 2782.130
6333.623, 2766.986
6335.551, 2739.661
6337.480, 2769.180
6339.408, 2729.453
6341.337, 2688.305
6343.265, 2678.113
6345.194, 2681.795
6347.122, 2673.847
6349.051, 2662.052
6350.979, 2702.860
6352.908, 2645.052
6354.836, 2636.352
6356.765, 2663.836
6358.693, 2655.013
6360.622, 2641.010
6362.550, 2665.003
6364.479, 2679.014
6366.407, 2624.717
6368.335, 2588.063
6370.264, 2600.729
6372.192, 2599.157
6374.121, 2628.847
6376.049, 2602.348
6377.978, 2562.963
6379.906, 2556.576
6381.834, 2560.695
6383.763, 2544.836
6385.691, 2565.667
6387.620, 2513.931
6389.548, 2508.183
6391.477, 2521.354
6393.405, 2519.979
6395.334, 2489.553
6397.262, 2431.348
6399.191, 2472.402
6401.119, 2509.663
6403.048, 2461.481
6404.976, 2469.216
6406.905, 2493.567
6408.833, 2449.786
6410.762, 2475.965
6412.690, 2460.459
6414.619, 2422.441
6416.547, 2415.541
6418.476, 2402.765
6420.404, 2394.106
6422.333, 2436.499
6424.261, 2411.079
6426.189, 2431.104
6428.118, 2410.932
6430.046, 2410.968
6431.975, 2420.638
6433.903, 2410.011
6435.832, 2396.341
6437.760, 2409.849
6439.688, 2344.065
6441.617, 2364.946
6443.545, 2368.042
6445.474, 2348.281
6447.402, 2345.119
6449.331, 2302.080
6451.259, 2329.745
6453.188, 2338.103
6455.116, 2312.167
6457.045, 2310.733
6458.973, 2312.251
6460.902, 2276.876
6462.830, 2256.509
6464.759, 2271.900
6466.687, 2271.561
6468.616, 2271.915
6470.544, 2295.010
6472.473, 2267.072
6474.401, 2175.441
6476.330, 2260.186
6478.258, 2229.073
6480.187, 2250.339
6482.115, 2216.127
6484.043, 2199.481
6485.972, 2213.305
6487.900, 2213.044
6489.829, 2203.868
6491.757, 2193.396
6493.686, 2190.143
6495.614, 2185.429
6497.542, 2175.697
6499.471, 2181.184
6501.399, 2196.438
6503.328, 2178.550
6505.256, 2175.187
6507.185, 2165.348
6509.113, 2173.647
6511.042, 2173.996
6512.970, 2170.256
6514.899, 2158.438
6516.827, 2126.263
6518.756, 2138.117
6520.684, 2107.034
6522.613, 2094.651
6524.541, 2113.279
6526.470, 2097.305
6528.398, 2065.474
6530.327, 2076.354
6532.255, 2099.344
6534.184, 2060.231
6536.112, 2046.098
6538.041, 2059.952
6539.969, 2075.325
6541.897, 2065.309
6543.826, 2039.477
6545.754, 2031.273
6547.683, 2046.279
6549.611, 2028.313
6551.540, 2078.328
6553.468, 2062.245
6555.396, 2035.748
6557.325, 2020.793
6559.253, 1998.666
6561.182, 1998.652
6563.110, 2007.290
6565.039, 1993.231
6566.967, 1979.553
6568.896, 1990.764
6570.824, 1992.810
6572.753, 1984.226
6574.681, 1988.137
6576.610, 1988.610
6578.538, 1975.856
6580.467, 1968.178
6582.395, 1952.846
6584.324, 1963.866
6586.252, 1970.651
6588.181, 1962.028
6590.109, 1954.507
6592.038, 1932.100
6593.966, 1931.813
6595.895, 1908.815
6597.823, 1889.122
6599.751, 1919.651
6601.680, 1929.034
6603.608, 1904.491
6605.537, 1893.354
6607.465, 1879.585
6609.394, 1870.170
6611.322, 1880.851
6613.250, 1862.457
6615.179, 1869.541
6617.107, 1884.279
6619.036, 1879.314
6620.964, 1861.015
6622.893, 1850.658
6624.821, 1846.420
6626.750, 1833.994
##END=



