##NAMES=Prehnite
##RRUFFID=R040047
##IDEAL CHEMISTRY=Ca_2_Al(Si_3_Al)O_10_(OH)_2_
##LOCALITY=Chloride, Mohave County, Arizona, USA
##OWNER=RRUFF
##SOURCE=University of Arizona Mineral Museum
##DESCRIPTION=Green coarsely crystalline massive
##STATUS=The identification of this mineral has been confirmed by X-ray diffraction and chemical analysis
##URL=https://www.rruff.net/odr/rruff_sample/R040047
##MEASURED CHEMISTRY=Ca_2.01_(Al_1.61_Fe_0.43_)Si_3.08_O_10_(OH)_2_ ; Chemical analysis represents the light bands in the image. The dark bands are Ca_1.99_(Al_1.82_Fe_0.19_)Si_3.04_O_10_(OH)_2_
##DIFFRACTION SAMPLE DESCRIPTION=Powder
##CELL PARAMETERS=a: 4.649 b: 5.4888 c: 18.582 alpha: 90 beta: 90 gamma: 90 volume: 474.2 crystal system: orthorhombic
##FILETYPE=Raman RAW
##RAMAN WAVELENGTH=780

151.0822, 3000.473
153.0107, 3074.593
154.9392, 3210.952
156.8676, 3523.955
158.7961, 3861.308
160.7246, 4065.974
162.6530, 4129.735
164.5815, 4056.011
166.5100, 3787.073
168.4384, 3524.242
170.3669, 3323.189
172.2954, 3170.327
174.2238, 3059.602
176.1523, 2992.860
178.0808, 2954.922
180.0092, 2945.350
181.9377, 2966.862
183.8662, 3047.612
185.7946, 3133.365
187.7231, 3187.168
189.6516, 3214.319
191.5800, 3248.488
193.5085, 3293.981
195.4370, 3323.786
197.3654, 3331.701
199.2939, 3318.966
201.2224, 3271.626
203.1508, 3207.211
205.0793, 3164.995
207.0078, 3144.444
208.9362, 3132.568
210.8647, 3136.276
212.7932, 3134.030
214.7216, 3125.943
216.6501, 3104.256
218.5786, 3049.999
220.5070, 2968.473
222.4355, 2896.704
224.3640, 2843.982
226.2924, 2787.210
228.2209, 2707.052
230.1494, 2632.537
232.0779, 2586.102
234.0063, 2565.378
235.9348, 2561.627
237.8633, 2579.359
239.7917, 2586.334
241.7202, 2564.939
243.6487, 2543.956
245.5771, 2538.688
247.5056, 2538.076
249.4341, 2520.488
251.3625, 2488.329
253.2910, 2470.462
255.2195, 2473.141
257.1479, 2487.146
259.0764, 2515.318
261.0049, 2548.842
262.9333, 2575.762
264.8618, 2602.190
266.7903, 2644.740
268.7187, 2704.381
270.6472, 2779.637
272.5757, 2877.264
274.5041, 2981.095
276.4326, 3086.509
278.3611, 3194.439
280.2895, 3318.931
282.2180, 3452.735
284.1465, 3542.010
286.0749, 3584.309
288.0034, 3570.614
289.9319, 3471.746
291.8603, 3350.197
293.7888, 3226.729
295.7173, 3114.556
297.6457, 3030.254
299.5742, 2973.337
301.5027, 2956.770
303.4311, 2971.286
305.3596, 3042.834
307.2881, 3206.201
309.2165, 3404.393
311.1450, 3621.615
313.0735, 3830.478
315.0019, 3963.585
316.9304, 4013.474
318.8589, 4003.681
320.7873, 3891.607
322.7158, 3787.004
324.6443, 3743.402
326.5727, 3705.178
328.5012, 3618.819
330.4296, 3493.697
332.3581, 3362.020
334.2866, 3219.572
336.2150, 3089.378
338.1435, 2959.025
340.0720, 2856.697
342.0004, 2795.549
343.9289, 2767.318
345.8574, 2764.308
347.7858, 2784.894
349.7143, 2818.247
351.6428, 2859.570
353.5712, 2924.866
355.4997, 3042.156
357.4282, 3145.761
359.3566, 3200.509
361.2851, 3239.254
363.2136, 3280.577
365.1420, 3329.341
367.0705, 3418.699
368.9990, 3575.307
370.9274, 3718.616
372.8559, 3836.070
374.7844, 3958.359
376.7128, 4101.874
378.6413, 4248.966
380.5698, 4412.134
382.4982, 4567.393
384.4267, 4624.450
386.3552, 4570.415
388.2836, 4439.833
390.2121, 4197.385
392.1406, 3947.390
394.0690, 3700.375
395.9975, 3477.292
397.9260, 3291.993
399.8544, 3137.137
401.7829, 2994.557
403.7114, 2860.200
405.6398, 2772.680
407.5683, 2744.357
409.4968, 2726.062
411.4252, 2708.614
413.3537, 2699.189
415.2822, 2702.443
417.2106, 2715.421
419.1391, 2736.134
421.0676, 2764.557
422.9960, 2797.095
424.9245, 2836.334
426.8530, 2869.490
428.7814, 2901.207
430.7099, 2914.450
432.6384, 2888.389
434.5668, 2854.816
436.4953, 2847.115
438.4238, 2846.531
440.3522, 2797.077
442.2807, 2690.180
444.2092, 2615.234
446.1376, 2576.285
448.0661, 2554.600
449.9946, 2550.115
451.9230, 2555.412
453.8515, 2568.258
455.7800, 2586.146
457.7084, 2611.625
459.6369, 2641.803
461.5654, 2661.208
463.4938, 2670.169
465.4223, 2668.861
467.3508, 2647.503
469.2792, 2644.970
471.2077, 2684.843
473.1362, 2734.358
475.0646, 2782.042
476.9931, 2825.129
478.9216, 2859.555
480.8500, 2886.047
482.7785, 2905.736
484.7070, 2916.763
486.6354, 2948.014
488.5639, 3001.877
490.4924, 3079.948
492.4208, 3180.682
494.3493, 3309.564
496.2778, 3444.060
498.2062, 3626.967
500.1347, 3916.169
502.0632, 4304.936
503.9916, 4747.791
505.9201, 5243.511
507.8486, 5827.374
509.7770, 6548.260
511.7055, 7214.716
513.6340, 7884.114
515.5624, 8338.616
517.4909, 8482.888
519.4194, 8370.105
521.3478, 7979.548
523.2763, 7386.396
525.2048, 6787.552
527.1332, 6185.837
529.0617, 5623.963
530.9902, 5099.035
532.9186, 4645.892
534.8471, 4296.920
536.7756, 3990.689
538.7040, 3719.584
540.6325, 3473.764
542.5610, 3249.466
544.4894, 3044.922
546.4179, 2854.968
548.3464, 2681.881
550.2748, 2537.620
552.2033, 2422.989
554.1318, 2329.872
556.0602, 2263.966
557.9887, 2205.080
559.9172, 2145.821
561.8456, 2096.034
563.7741, 2063.700
565.7026, 2038.967
567.6310, 2010.656
569.5595, 1984.195
571.4880, 1971.186
573.4164, 1969.757
575.3449, 1966.804
577.2734, 1959.313
579.2018, 1963.003
581.1303, 1987.641
583.0588, 2011.488
584.9872, 2020.902
586.9157, 2042.208
588.8442, 2100.057
590.7726, 2163.688
592.7011, 2199.564
594.6296, 2223.110
596.5580, 2256.587
598.4865, 2301.056
600.4150, 2369.127
602.3434, 2475.659
604.2719, 2530.213
606.2004, 2499.535
608.1288, 2455.197
610.0573, 2394.350
611.9858, 2333.619
613.9142, 2279.090
615.8427, 2227.167
617.7712, 2172.440
619.6996, 2120.510
621.6281, 2078.904
623.5566, 2045.919
625.4850, 2014.938
627.4135, 1985.181
629.3420, 1963.773
631.2704, 1954.398
633.1989, 1946.765
635.1274, 1942.477
637.0558, 1936.698
638.9843, 1930.863
640.9128, 1920.351
642.8412, 1895.462
644.7697, 1872.438
646.6982, 1865.560
648.6266, 1868.239
650.5551, 1870.920
652.4836, 1874.369
654.4120, 1881.083
656.3405, 1888.769
658.2690, 1914.679
660.1974, 1966.011
662.1259, 2020.135
664.0544, 2076.971
665.9828, 2135.921
667.9113, 2196.125
669.8398, 2259.839
671.7682, 2333.001
673.6967, 2404.400
675.6252, 2475.411
677.5536, 2532.724
679.4821, 2559.622
681.4106, 2558.984
683.3391, 2540.898
685.2675, 2505.227
687.1960, 2435.616
689.1245, 2319.813
691.0529, 2218.400
692.9814, 2134.201
694.9099, 2056.058
696.8383, 1981.997
698.7667, 1914.264
700.6952, 1852.448
702.6237, 1799.102
704.5521, 1752.757
706.4806, 1718.750
708.4091, 1708.346
710.3375, 1706.851
712.2660, 1690.591
714.1945, 1668.908
716.1229, 1671.377
718.0514, 1695.525
719.9799, 1708.721
721.9083, 1710.385
723.8368, 1708.399
725.7653, 1700.491
727.6937, 1706.301
729.6222, 1733.545
731.5507, 1757.683
733.4791, 1766.693
735.4076, 1781.413
737.3361, 1818.167
739.2645, 1853.744
741.1930, 1879.356
743.1215, 1895.886
745.0499, 1896.051
746.9784, 1893.539
748.9069, 1915.946
750.8353, 1949.934
752.7638, 1951.263
754.6923, 1927.205
756.6207, 1932.730
758.5492, 1966.660
760.4777, 1998.878
762.4061, 2026.240
764.3346, 2067.874
766.2631, 2130.411
768.1915, 2192.048
770.1200, 2255.347
772.0485, 2300.441
773.9769, 2318.593
775.9054, 2320.710
777.8339, 2316.080
779.7623, 2289.798
781.6908, 2225.758
783.6193, 2143.212
785.5477, 2044.250
787.4762, 1949.432
789.4047, 1894.848
791.3331, 1864.391
793.2616, 1818.483
795.1901, 1765.222
797.1185, 1734.948
799.0470, 1725.379
800.9755, 1715.776
802.9039, 1704.745
804.8324, 1682.691
806.7609, 1645.628
808.6893, 1618.203
810.6178, 1607.881
812.5463, 1596.076
814.4747, 1576.386
816.4032, 1560.054
818.3317, 1555.372
820.2601, 1544.730
822.1886, 1513.437
824.1171, 1487.365
826.0455, 1484.741
827.9740, 1485.859
829.9025, 1474.659
831.8309, 1462.285
833.7594, 1461.426
835.6879, 1465.184
837.6163, 1463.221
839.5448, 1458.431
841.4733, 1456.136
843.4017, 1456.706
845.3302, 1461.646
847.2587, 1469.683
849.1871, 1474.690
851.1156, 1476.565
853.0441, 1467.088
854.9725, 1441.774
856.9010, 1432.748
858.8295, 1449.947
860.7579, 1458.906
862.6864, 1451.417
864.6149, 1446.623
866.5433, 1447.623
868.4718, 1448.494
870.4003, 1449.165
872.3287, 1447.556
874.2572, 1437.270
876.1857, 1433.663
878.1141, 1445.906
880.0426, 1460.653
881.9711, 1475.356
883.8995, 1485.854
885.8280, 1487.917
887.7565, 1486.285
889.6849, 1478.562
891.6134, 1475.961
893.5419, 1489.464
895.4703, 1511.565
897.3988, 1535.062
899.3273, 1560.842
901.2557, 1591.142
903.1842, 1623.630
905.1127, 1655.297
907.0411, 1685.911
908.9696, 1710.707
910.8981, 1730.648
912.8265, 1745.075
914.7550, 1758.406
916.6835, 1836.388
918.6119, 1979.384
920.5404, 2104.767
922.4689, 2209.978
924.3973, 2345.394
926.3258, 2515.942
928.2543, 2677.799
930.1827, 2831.333
932.1112, 2975.187
934.0397, 3118.044
935.9681, 3213.952
937.8966, 3256.295
939.8251, 3251.421
941.7535, 3195.027
943.6820, 3111.635
945.6105, 3000.158
947.5389, 2885.972
949.4674, 2776.662
951.3959, 2659.917
953.3243, 2528.916
955.2528, 2396.907
957.1813, 2259.741
959.1097, 2140.287
961.0382, 2044.715
962.9667, 1975.291
964.8951, 1940.315
966.8236, 1916.937
968.7521, 1884.893
970.6805, 1881.099
972.6090, 1935.723
974.5375, 2001.501
976.4659, 2060.923
978.3944, 2111.710
980.3229, 2149.106
982.2513, 2187.618
984.1798, 2257.546
986.1083, 2301.149
988.0367, 2266.774
989.9652, 2197.015
991.8937, 2117.453
993.8221, 2032.613
995.7506, 1944.132
997.6791, 1856.382
999.6075, 1762.896
1001.536, 1681.648
1003.464, 1642.357
1005.393, 1619.915
1007.321, 1587.399
1009.250, 1549.721
1011.178, 1506.379
1013.107, 1469.242
1015.035, 1455.590
1016.964, 1455.386
1018.892, 1457.558
1020.821, 1459.927
1022.749, 1460.626
1024.678, 1456.852
1026.606, 1446.514
1028.535, 1434.465
1030.463, 1422.672
1032.391, 1416.515
1034.320, 1426.592
1036.248, 1438.018
1038.177, 1428.330
1040.105, 1413.532
1042.034, 1413.255
1043.962, 1420.747
1045.891, 1436.528
1047.819, 1454.374
1049.748, 1453.968
1051.676, 1448.280
1053.605, 1459.885
1055.533, 1483.630
1057.462, 1513.950
1059.390, 1545.510
1061.318, 1571.103
1063.247, 1592.438
1065.175, 1609.150
1067.104, 1629.059
1069.032, 1663.423
1070.961, 1706.060
1072.889, 1752.405
1074.818, 1797.711
1076.746, 1846.344
1078.675, 1878.059
1080.603, 1854.682
1082.532, 1802.354
1084.460, 1756.202
1086.389, 1708.236
1088.317, 1639.655
1090.245, 1568.448
1092.174, 1519.150
1094.102, 1480.542
1096.031, 1436.861
1097.959, 1398.406
1099.888, 1378.761
1101.816, 1366.163
1103.745, 1355.991
1105.673, 1341.675
1107.602, 1307.042
1109.530, 1277.905
1111.459, 1279.437
1113.387, 1285.986
1115.316, 1282.010
1117.244, 1277.681
1119.172, 1275.364
1121.101, 1274.509
1123.029, 1278.654
1124.958, 1282.366
1126.886, 1279.004
1128.815, 1276.899
1130.743, 1285.636
1132.672, 1294.532
1134.600, 1294.568
1136.529, 1289.679
1138.457, 1284.936
1140.386, 1281.057
1142.314, 1277.136
1144.243, 1267.351
1146.171, 1243.817
1148.099, 1230.056
1150.028, 1240.321
1151.956, 1248.548
1153.885, 1243.250
1155.813, 1238.978
1157.742, 1244.355
1159.670, 1244.459
1161.599, 1232.245
1163.527, 1216.369
1165.456, 1198.293
1167.384, 1196.534
1169.313, 1214.723
1171.241, 1221.031
1173.170, 1212.739
1175.098, 1203.750
1177.026, 1194.584
1178.955, 1194.997
1180.883, 1203.913
1182.812, 1208.197
1184.740, 1208.632
1186.669, 1208.017
1188.597, 1206.762
1190.526, 1206.937
1192.454, 1209.845
1194.383, 1212.662
1196.311, 1211.284
1198.240, 1208.046
1200.168, 1205.505
1202.097, 1198.716
1204.025, 1193.978
1205.953, 1209.421
1207.882, 1222.357
1209.810, 1197.669
1211.739, 1172.843
1213.667, 1185.135
1215.596, 1200.356
1217.524, 1196.342
1219.453, 1189.027
1221.381, 1183.494
1223.310, 1182.376
1225.238, 1189.725
1227.167, 1193.137
1229.095, 1187.604
1231.024, 1187.125
1232.952, 1195.087
1234.880, 1197.715
1236.809, 1193.625
1238.737, 1193.035
1240.666, 1196.063
1242.594, 1199.144
1244.523, 1202.134
1246.451, 1198.553
1248.380, 1189.432
1250.308, 1184.368
1252.237, 1182.834
1254.165, 1178.609
1256.094, 1174.367
1258.022, 1186.309
1259.951, 1204.544
1261.879, 1205.775
1263.807, 1199.469
1265.736, 1198.584
1267.664, 1202.031
1269.593, 1212.024
1271.521, 1215.425
1273.450, 1196.417
1275.378, 1179.310
1277.307, 1178.496
1279.235, 1186.072
1281.164, 1203.809
1283.092, 1209.146
1285.021, 1190.922
1286.949, 1180.417
1288.878, 1187.285
1290.806, 1191.283
1292.734, 1185.462
1294.663, 1183.951
1296.591, 1188.711
1298.520, 1196.747
1300.448, 1206.840
1302.377, 1214.020
1304.305, 1219.319
1306.234, 1211.533
1308.162, 1198.451
1310.091, 1206.485
1312.019, 1219.322
1313.948, 1213.366
1315.876, 1204.672
1317.805, 1205.694
1319.733, 1206.131
1321.661, 1200.185
1323.590, 1195.776
1325.518, 1195.681
1327.447, 1194.045
1329.375, 1190.185
1331.304, 1191.703
1333.232, 1199.783
1335.161, 1203.340
1337.089, 1200.566
1339.018, 1199.033
1340.946, 1202.293
1342.875, 1203.131
1344.803, 1198.675
1346.732, 1193.751
1348.660, 1191.535
1350.589, 1189.572
1352.517, 1187.394
1354.445, 1191.701
1356.374, 1197.837
1358.302, 1198.897
1360.231, 1196.210
1362.159, 1191.659
1364.088, 1187.348
1366.016, 1184.556
1367.945, 1186.576
1369.873, 1189.922
1371.802, 1181.695
1373.730, 1166.906
1375.659, 1173.888
1377.587, 1196.862
1379.516, 1203.204
1381.444, 1197.361
1383.372, 1201.551
1385.301, 1204.996
1387.229, 1185.031
1389.158, 1167.295
1391.086, 1175.005
1393.015, 1184.883
1394.943, 1188.120
1396.872, 1186.565
1398.800, 1178.727
1400.729, 1174.697
1402.657, 1173.493
1404.586, 1174.510
1406.514, 1178.242
1408.443, 1178.897
1410.371, 1179.359
1412.299, 1181.092
1414.228, 1181.543
1416.156, 1183.779
1418.085, 1186.702
1420.013, 1185.360
1421.942, 1181.796
1423.870, 1178.436
1425.799, 1177.079
1427.727, 1183.665
1429.656, 1183.087
1431.584, 1167.081
1433.513, 1164.082
1435.441, 1175.690
1437.369, 1173.985
1439.298, 1163.975
1441.226, 1165.278
1443.155, 1169.049
1445.083, 1161.404
1447.012, 1155.077
1448.940, 1161.718
1450.869, 1168.445
1452.797, 1169.339
1454.726, 1171.880
1456.654, 1178.672
1458.583, 1182.549
1460.511, 1179.283
1462.439, 1173.787
1464.368, 1169.002
1466.296, 1158.856
1468.225, 1146.248
1470.153, 1140.628
1472.082, 1140.139
1474.010, 1136.539
1475.939, 1131.870
1477.867, 1137.806
1479.796, 1149.122
1481.724, 1157.537
1483.653, 1149.884
1485.581, 1132.395
1487.510, 1123.495
1489.438, 1117.838
1491.366, 1119.527
1493.295, 1124.182
1495.223, 1128.156
1497.152, 1130.718
1499.080, 1122.619
1501.009, 1114.053
1502.937, 1110.112
1504.866, 1107.376
1506.794, 1109.194
1508.723, 1112.346
1510.651, 1107.366
1512.580, 1096.349
1514.508, 1089.451
1516.437, 1094.323
1518.365, 1101.857
1520.293, 1108.974
1522.222, 1111.674
1524.150, 1104.501
1526.079, 1098.663
1528.007, 1093.160
1529.936, 1089.970
1531.864, 1093.378
1533.793, 1098.224
1535.721, 1097.761
1537.650, 1094.791
1539.578, 1096.455
1541.507, 1101.787
1543.435, 1102.465
1545.364, 1093.772
1547.292, 1097.583
1549.220, 1127.526
1551.149, 1127.482
1553.077, 1098.629
1555.006, 1087.629
1556.934, 1089.793
1558.863, 1093.185
1560.791, 1092.159
1562.720, 1082.403
1564.648, 1078.124
1566.577, 1085.103
1568.505, 1087.744
1570.434, 1080.981
1572.362, 1075.025
1574.291, 1074.532
1576.219, 1075.897
1578.147, 1077.762
1580.076, 1080.318
1582.004, 1079.241
1583.933, 1068.602
1585.861, 1058.147
1587.790, 1057.982
1589.718, 1057.453
1591.647, 1052.712
1593.575, 1049.488
1595.504, 1046.970
1597.432, 1053.356
1599.361, 1058.422
1601.289, 1038.068
1603.218, 1022.745
1605.146, 1033.684
1607.074, 1047.787
1609.003, 1057.217
1610.931, 1058.837
1612.860, 1053.116
1614.788, 1046.621
1616.717, 1038.726
1618.645, 1024.729
1620.574, 1010.979
1622.502, 1008.889
1624.431, 1011.310
1626.359, 1018.169
1628.288, 1026.073
1630.216, 1025.927
1632.145, 1025.019
1634.073, 1028.398
1636.001, 1025.370
1637.930, 1019.294
1639.858, 1022.961
1641.787, 1022.618
1643.715, 1009.387
1645.644, 1004.159
1647.572, 1005.614
1649.501, 1000.043
1651.429, 994.9306
1653.358, 1009.341
1655.286, 1020.818
1657.215, 1011.136
1659.143, 1003.060
1661.072, 992.6581
1663.000, 984.1483
1664.928, 979.9502
1666.857, 981.6528
1668.785, 992.1052
1670.714, 995.4042
1672.642, 987.9224
1674.571, 983.9242
1676.499, 984.3586
1678.428, 974.5320
1680.356, 966.5115
1682.285, 964.0745
1684.213, 961.1212
1686.142, 958.5626
1688.070, 956.0979
1689.999, 956.0889
1691.927, 958.4708
1693.855, 963.7924
1695.784, 969.8551
1697.712, 972.1594
1699.641, 972.3124
1701.569, 961.9510
1703.498, 952.6124
1705.426, 954.1598
1707.355, 950.3135
1709.283, 945.5016
1711.212, 949.9588
1713.140, 950.4236
1715.069, 936.9984
1716.997, 925.8552
1718.926, 928.9525
1720.854, 939.1643
1722.782, 948.1254
1724.711, 946.0396
1726.639, 936.5097
1728.568, 938.7781
1730.496, 942.6872
1732.425, 926.6937
1734.353, 914.1037
1736.282, 917.6874
1738.210, 926.5324
1740.139, 937.9138
1742.067, 935.0313
1743.996, 919.5632
1745.924, 911.4169
1747.853, 913.9048
1749.781, 922.6821
1751.709, 917.2549
1753.638, 904.6680
1755.566, 901.9943
1757.495, 906.3763
1759.423, 910.6531
1761.352, 905.2307
1763.280, 893.8970
1765.209, 891.9158
1767.137, 891.7993
1769.066, 885.3032
1770.994, 877.5178
1772.923, 884.7183
1774.851, 898.2210
1776.780, 902.7736
1778.708, 891.7903
1780.636, 860.4241
1782.565, 846.9296
1784.493, 860.4194
1786.422, 870.9951
1788.350, 866.5859
1790.279, 863.5961
1792.207, 863.2865
1794.136, 869.5742
1796.064, 867.6789
1797.993, 855.1171
1799.921, 850.9533
1801.850, 851.2157
1803.778, 855.6528
1805.707, 862.8741
1807.635, 851.1838
1809.563, 840.9876
1811.492, 850.0533
1813.420, 853.1784
1815.349, 844.2567
1817.277, 832.6872
1819.206, 828.2861
1821.134, 837.9059
1823.063, 839.2650
1824.991, 820.9476
1826.920, 813.8806
1828.848, 823.3537
1830.777, 819.3372
1832.705, 806.5237
1834.634, 800.7267
1836.562, 797.5011
1838.490, 797.3032
1840.419, 800.1595
1842.347, 798.9234
1844.276, 805.9753
1846.204, 820.8410
1848.133, 819.4315
1850.061, 811.4238
1851.990, 808.9929
1853.918, 797.9254
1855.847, 783.2491
1857.775, 785.8217
1859.704, 798.8890
1861.632, 802.2460
1863.561, 795.5248
1865.489, 781.5619
1867.417, 780.2407
1869.346, 785.4427
1871.274, 788.1944
1873.203, 789.1377
1875.131, 786.4501
1877.060, 771.2521
1878.988, 746.5964
1880.917, 741.5783
1882.845, 758.1972
1884.774, 772.7960
1886.702, 778.0449
1888.631, 768.3752
1890.559, 752.5952
1892.488, 757.6120
1894.416, 755.4395
1896.344, 742.1756
1898.273, 736.6942
1900.201, 738.5274
1902.130, 732.5932
1904.058, 725.5136
1905.987, 738.5107
1907.915, 739.1890
1909.844, 726.9225
1911.772, 730.8430
1913.701, 734.1256
1915.629, 724.4933
1917.558, 727.2761
1919.486, 727.3827
1921.415, 723.6260
1923.343, 728.5394
1925.271, 718.8912
1927.200, 708.9548
1929.128, 707.1799
1931.057, 707.3093
1932.985, 713.4824
1934.914, 714.2004
1936.842, 709.6057
1938.771, 709.5403
1940.699, 706.7970
1942.628, 702.6658
1944.556, 699.3790
1946.485, 704.5272
1948.413, 697.5084
1950.342, 673.6169
1952.270, 673.7996
1954.198, 694.0814
1956.127, 701.3695
1958.055, 685.9017
1959.984, 666.7466
1961.912, 668.1027
1963.841, 670.7401
1965.769, 672.0628
1967.698, 674.6319
1969.626, 676.4380
1971.555, 672.8835
1973.483, 656.8147
1975.412, 654.6874
1977.340, 657.7573
1979.269, 659.2275
1981.197, 664.0239
1983.125, 658.0969
1985.054, 650.6049
1986.982, 655.0214
1988.911, 655.4428
1990.839, 655.1171
1992.768, 651.6400
1994.696, 647.1595
1996.625, 649.5255
1998.553, 647.9084
2000.482, 639.1508
2002.410, 627.6693
2004.339, 627.0762
2006.267, 625.7028
2008.196, 611.6946
2010.124, 603.3406
2012.052, 602.7274
2013.981, 607.9843
2015.909, 624.9355
2017.838, 625.8571
2019.766, 608.1811
2021.695, 598.0654
2023.623, 589.9656
2025.552, 595.1548
2027.480, 598.6445
2029.409, 589.5577
2031.337, 594.7221
2033.266, 599.6938
2035.194, 592.9478
2037.123, 586.2811
2039.051, 586.3049
2040.979, 591.2291
2042.908, 592.6925
2044.836, 583.5646
2046.765, 576.7510
2048.693, 579.0172
2050.622, 579.2102
2052.550, 576.2835
2054.479, 581.7255
2056.407, 574.9780
2058.336, 559.3586
2060.264, 552.9912
2062.193, 555.3291
2064.121, 570.1356
2066.050, 562.5770
2067.978, 544.3828
2069.906, 540.9986
2071.835, 547.3760
2073.763, 549.9016
2075.692, 548.2251
2077.620, 550.6555
2079.549, 537.4068
2081.477, 528.1253
2083.406, 530.5139
2085.334, 530.5369
2087.263, 539.5195
2089.191, 534.8856
2091.120, 521.7910
2093.048, 527.8635
2094.977, 535.0500
2096.905, 537.0490
2098.833, 535.7133
2100.762, 529.9493
2102.690, 520.6484
2104.619, 518.9656
2106.547, 519.6199
2108.476, 520.8734
2110.404, 528.2692
2112.333, 526.9917
2114.261, 501.3090
2116.190, 487.6979
2118.118, 502.3016
2120.047, 504.9059
2121.975, 495.2501
2123.904, 493.2115
2125.832, 491.8926
2127.760, 492.0466
2129.689, 492.1002
2131.617, 495.5036
2133.546, 485.2068
2135.474, 477.8204
2137.403, 484.3058
2139.331, 490.3404
2141.260, 492.1138
2143.188, 486.3849
2145.117, 481.8963
2147.045, 473.8125
2148.974, 468.3458
2150.902, 464.9259
2152.831, 460.5241
2154.759, 459.5016
2156.688, 446.7642
2158.616, 455.9051
2160.544, 481.7924
2162.473, 470.4227
2164.401, 452.8393
2166.330, 453.9275
2168.258, 455.9709
2170.187, 454.3501
2172.115, 444.3050
2174.044, 438.2079
2175.972, 436.7477
2177.901, 440.8478
2179.829, 444.0729
2181.758, 439.3126
2183.686, 436.1757
2185.615, 435.7392
2187.543, 446.9193
2189.471, 446.8308
2191.400, 440.8694
2193.328, 443.7621
2195.257, 435.2981
2197.185, 428.9128
2199.114, 437.2312
2201.042, 448.6930
2202.971, 442.6275
2204.899, 429.3648
2206.828, 419.3948
2208.756, 410.0592
2210.685, 398.4094
2212.613, 404.5011
2214.542, 413.0733
2216.470, 413.0934
2218.398, 406.9947
2220.327, 401.9286
2222.255, 414.0683
2224.184, 416.5357
2226.112, 408.9907
2228.041, 408.8626
2229.969, 408.6848
2231.898, 400.3127
2233.826, 395.3007
2235.755, 395.4721
2237.683, 407.2629
2239.612, 407.0121
2241.540, 376.1478
2243.469, 367.8746
2245.397, 380.1488
2247.325, 391.3216
2249.254, 392.9675
2251.182, 389.1995
2253.111, 383.5721
2255.039, 381.0001
2256.968, 388.8557
2258.896, 389.7540
2260.825, 380.7967
2262.753, 366.3371
2264.682, 365.0030
2266.610, 382.0713
2268.539, 364.0501
2270.467, 346.0335
2272.396, 359.5372
2274.324, 368.3253
2276.252, 373.2516
2278.181, 363.7113
2280.109, 360.4688
2282.038, 371.7184
2283.966, 357.6459
2285.895, 343.8380
2287.823, 361.1098
2289.752, 361.3946
2291.680, 346.9802
2293.609, 352.6054
2295.537, 351.5844
2297.466, 339.4958
2299.394, 345.3908
2301.323, 349.4290
2303.251, 350.7593
2305.179, 345.4547
2307.108, 326.7357
2309.036, 330.8834
2310.965, 335.1479
2312.893, 332.6918
2314.822, 342.1355
2316.750, 344.0837
2318.679, 334.5008
2320.607, 330.1234
2322.536, 335.1509
2324.464, 348.1090
2326.393, 350.6245
2328.321, 335.9231
2330.250, 322.6444
2332.178, 323.5769
2334.106, 335.0037
2336.035, 336.2446
2337.963, 328.4100
2339.892, 318.3279
2341.820, 315.9957
2343.749, 311.7576
2345.677, 308.5700
2347.606, 309.1259
2349.534, 310.9763
2351.463, 308.4665
2353.391, 306.9272
2355.320, 312.7562
2357.248, 308.2349
2359.177, 300.2026
2361.105, 300.0611
2363.033, 300.2513
2364.962, 295.2672
2366.890, 294.5262
2368.819, 291.2417
2370.747, 277.6701
2372.676, 268.7978
2374.604, 269.1768
2376.533, 295.9755
2378.461, 290.5919
2380.390, 263.5908
2382.318, 269.0045
2384.247, 279.8429
2386.175, 284.7561
2388.104, 280.7083
2390.032, 275.3544
2391.960, 279.8302
2393.889, 281.9543
2395.817, 278.3235
2397.746, 266.1515
2399.674, 267.6404
2401.603, 276.2473
2403.531, 279.9704
2405.460, 281.0866
2407.388, 278.5302
2409.317, 262.3047
2411.245, 251.5211
2413.174, 260.1441
2415.102, 273.3357
2417.031, 280.1161
2418.959, 275.0165
2420.887, 262.3163
2422.816, 250.7931
2424.744, 250.7106
2426.673, 252.3412
2428.601, 245.0731
2430.530, 245.3016
2432.458, 253.8494
2434.387, 260.6267
2436.315, 255.1135
2438.244, 249.2259
2440.172, 247.3218
2442.101, 235.8704
2444.029, 229.9814
2445.958, 238.5390
2447.886, 244.6698
2449.814, 246.7611
2451.743, 238.6954
2453.671, 233.6049
2455.600, 232.9312
2457.528, 221.6013
2459.457, 219.5508
2461.385, 232.6800
2463.314, 244.6641
2465.242, 245.6987
2467.171, 234.2053
2469.099, 221.9373
2471.028, 216.6128
2472.956, 225.4233
2474.885, 231.7432
2476.813, 230.5273
2478.741, 218.8850
2480.670, 221.3507
2482.598, 225.2581
2484.527, 217.2807
2486.455, 218.0966
2488.384, 228.6847
2490.312, 235.2138
2492.241, 224.1496
2494.169, 205.9932
2496.098, 218.3013
2498.026, 218.8414
2499.955, 192.5770
2501.883, 197.5695
2503.812, 209.0824
2505.740, 206.4365
2507.668, 213.4902
2509.597, 213.3487
2511.525, 193.3280
2513.454, 194.5611
2515.382, 202.6836
2517.311, 203.9844
2519.239, 194.3862
2521.168, 189.0370
2523.096, 198.8086
2525.025, 196.1143
2526.953, 192.6664
2528.882, 206.6580
2530.810, 211.2546
2532.739, 201.0555
2534.667, 169.4403
2536.595, 166.6280
2538.524, 185.8460
2540.452, 183.1108
2542.381, 182.5301
2544.309, 190.0338
2546.238, 187.4193
2548.166, 175.3804
2550.095, 167.2419
2552.023, 160.7479
2553.952, 160.3510
2555.880, 168.8660
2557.809, 158.8861
2559.737, 156.5062
2561.666, 174.5770
2563.594, 178.1765
2565.522, 182.0234
2567.451, 194.2103
2569.379, 178.8376
2571.308, 158.2207
2573.236, 156.2985
2575.165, 168.1382
2577.093, 177.8054
2579.022, 179.9875
2580.950, 172.3851
2582.879, 164.2472
2584.807, 154.0467
2586.736, 156.5882
2588.664, 163.1133
2590.593, 164.4101
2592.521, 172.9551
2594.449, 174.8033
2596.378, 130.8597
2598.306, 129.9604
2600.235, 153.7618
2602.163, 159.2632
2604.092, 151.2714
2606.020, 147.6371
2607.949, 155.0403
2609.877, 151.2706
2611.806, 139.9151
2613.734, 145.2455
2615.663, 154.5434
2617.591, 155.3368
2619.520, 160.6762
2621.448, 155.5350
2623.376, 143.7631
2625.305, 145.5540
2627.233, 136.3406
2629.162, 130.1644
2631.090, 144.5744
2633.019, 160.8204
2634.947, 165.2707
2636.876, 129.3643
2638.804, 122.8645
2640.733, 131.1937
2642.661, 118.3346
2644.590, 117.0121
2646.518, 125.7914
2648.447, 135.6236
2650.375, 145.9512
2652.303, 148.8936
2654.232, 125.9709
2656.160, 127.7691
2658.089, 136.4104
2660.017, 128.6679
2661.946, 133.3464
2663.874, 129.9141
2665.803, 108.9612
2667.731, 113.4028
2669.660, 119.4239
2671.588, 121.3554
2673.517, 115.3674
2675.445, 115.9261
2677.374, 122.4246
2679.302, 116.3107
2681.230, 111.1244
2683.159, 107.7280
2685.087, 108.7714
2687.016, 113.3617
2688.944, 116.9421
2690.873, 123.6490
2692.801, 125.2166
2694.730, 115.8884
2696.658, 107.8820
2698.587, 109.6408
2700.515, 108.8626
2702.444, 110.5988
2704.372, 103.8530
2706.301, 96.49236
2708.229, 98.72198
2710.157, 107.3652
2712.086, 113.6038
2714.014, 104.2656
2715.943, 100.3226
2717.871, 93.12087
2719.800, 83.48087
2721.728, 68.81271
2723.657, 66.47109
2725.585, 104.9711
2727.514, 109.8774
2729.442, 104.3706
2731.371, 103.4070
2733.299, 88.24421
2735.228, 80.07845
2737.156, 90.34193
2739.084, 91.15831
2741.013, 92.64995
2742.941, 93.20043
2744.870, 94.53277
2746.798, 97.52475
2748.727, 97.94221
2750.655, 94.81725
2752.584, 96.42396
2754.512, 103.6041
2756.441, 91.14711
2758.369, 92.08718
2760.298, 94.94804
2762.226, 89.59859
2764.155, 92.46310
2766.083, 87.59255
2768.011, 74.15558
2769.940, 75.40088
2771.868, 80.15038
2773.797, 76.33753
2775.725, 74.77116
2777.654, 80.81092
2779.582, 93.67265
2781.511, 81.53977
2783.439, 70.25163
2785.368, 71.54466
2787.296, 77.86309
2789.225, 83.41892
2791.153, 80.18427
2793.082, 75.84428
2795.010, 68.50100
2796.938, 71.14979
2798.867, 86.93089
2800.795, 74.04741
2802.724, 66.56277
2804.652, 76.47541
2806.581, 70.77017
2808.509, 78.03783
2810.438, 89.30153
2812.366, 74.94084
2814.295, 73.28108
2816.223, 75.24471
2818.152, 61.50470
2820.080, 64.86274
2822.009, 63.57904
2823.937, 48.76665
2825.865, 55.00203
2827.794, 61.02432
2829.722, 56.32096
2831.651, 45.83379
2833.579, 42.62330
2835.508, 50.89851
2837.436, 63.53177
2839.365, 60.30417
2841.293, 50.06992
2843.222, 63.25764
2845.150, 64.98766
2847.079, 59.42828
2849.007, 60.05202
2850.936, 62.28246
2852.864, 50.58673
2854.792, 48.50240
2856.721, 55.30648
2858.649, 59.42181
2860.578, 54.71952
2862.506, 50.15693
2864.435, 57.16903
2866.363, 55.95377
2868.292, 49.22787
2870.220, 60.35287
2872.149, 56.76809
2874.077, 44.08062
2876.006, 69.67001
2877.934, 66.93093
2879.863, 54.30090
2881.791, 50.96436
2883.719, 45.32256
2885.648, 43.49442
2887.576, 51.46836
2889.505, 45.43713
2891.433, 41.17157
2893.362, 50.08653
2895.290, 58.71244
2897.219, 55.00948
2899.147, 52.26144
2901.076, 42.15249
2903.004, 40.34951
2904.933, 38.89603
2906.861, 33.62896
2908.790, 46.11705
2910.718, 56.97506
2912.646, 47.92152
2914.575, 29.34695
2916.503, 37.20293
2918.432, 51.31375
2920.360, 42.91727
2922.289, 41.04399
2924.217, 40.17602
2926.146, 39.29142
2928.074, 43.02696
2930.002, 47.88936
2931.931, 40.87403
2933.859, 14.59513
2935.788, 30.46597
2937.716, 45.51290
2939.645, 32.60784
2941.573, 27.92565
2943.502, 43.82873
2945.430, 59.73991
2947.359, 50.65517
2949.287, 52.02370
2951.216, 43.62371
2953.144, 29.60831
2955.073, 46.60627
2957.001, 37.06256
2958.929, 28.02159
2960.858, 43.21457
2962.786, 26.68230
2964.715, 26.79420
2966.643, 55.82587
2968.572, 52.20879
2970.500, 35.36801
2972.429, 16.63684
2974.357, 27.84095
2976.286, 32.69163
2978.214, 27.05762
2980.143, 27.29490
2982.071, 8.096717
2984.000, 23.05379
2985.928, 45.45385
2987.856, 39.61666
2989.785, 19.31750
2991.713, 16.78883
2993.642, 32.19257
2995.570, 30.88915
2997.499, 29.96069
2999.427, 29.32228
3001.356, 15.84191
3003.284, 0.2912308
3005.213, 12.10428
3007.141, 34.84524
3009.070, 23.63005
3010.998, 22.99914
3012.927, 27.51283
3014.855, 16.85149
3016.783, 3.423985
3018.712, 3.393159
3020.640, 6.080187
3022.569, -1.554182
3024.497, 8.958789
3026.426, 17.25494
3028.354, 17.69297
3030.283, 8.218566
3032.211, 15.87525
3034.140, 23.13530
3036.068, 9.880365
3037.997, 10.72003
3039.925, 18.98106
3041.854, 18.84830
3043.782, 10.54889
3045.710, 0.2285554
3047.639, 1.899100
3049.567, 10.84391
3051.496, 19.90817
3053.424, 15.68868
3055.353, 14.60494
3057.281, 36.71623
3059.210, 24.35293
3061.138, 13.83992
3063.067, 21.76351
3064.995, 31.92282
3066.924, 11.23197
3068.852, 3.875921
3070.781, 8.648838
3072.709, 1.005880
3074.637, 14.07237
3076.566, 20.35788
3078.494, 5.303942
3080.423, 20.85458
3082.351, 34.79079
3084.280, 34.01492
3086.208, 20.39230
3088.137, 8.338531
3090.065, -1.361667
3091.994, 0.8642879
3093.922, 28.22147
3095.851, 26.92748
3097.779, 13.62141
3099.708, 8.873579
3101.636, 7.561457
3103.564, 6.450629
3105.493, 2.653404
3107.421, 2.688766
3109.350, 23.75060
3111.278, 15.58845
3113.207, -2.528440
3115.135, -13.38370
3117.064, 7.234958
3118.992, 17.71167
3120.921, 14.32133
3122.849, -7.238873
3124.778, 2.064723
3126.706, 11.85193
3128.635, 16.00630
3130.563, 16.57435
3132.491, -8.0796450E-02
3134.420, -2.125540
3136.348, 17.14659
3138.277, 35.10482
3140.205, 12.28666
3142.134, -12.24625
3144.062, -19.44413
3145.991, -0.6891050
3147.919, 18.89346
3149.848, 10.24453
3151.776, -27.38416
3153.705, -4.693985
3155.633, 13.51063
3157.562, 16.62198
3159.490, 10.89690
3161.418, 6.151129
3163.347, -0.6996406
3165.275, -0.9727458
3167.204, 4.833026
3169.132, 19.40524
3171.061, 14.36007
3172.989, 1.032607
3174.918, 3.2017820E-02
3176.846, -7.321438
3178.775, -6.116122
3180.703, 7.810804
3182.632, 19.78214
3184.560, -13.51963
3186.489, -44.39547
3188.417, -45.06301
3190.345, -3.249071
3192.274, -6.405418
3194.202, 2.943243
3196.131, 16.72163
3198.059, 3.803296
3199.988, -0.9645377
3201.916, -17.54558
3203.845, -27.22007
3205.773, -15.05097
3207.702, -8.950332
3209.630, -14.21704
3211.559, -20.64324
3213.487, -13.78172
3215.416, -13.28219
3217.344, -13.30268
3219.272, -12.92008
3221.201, -14.75347
3223.129, -18.35799
3225.058, -14.67821
3226.986, -11.83737
3228.915, -16.82788
3230.843, 1.687317
3232.772, -14.33682
3234.700, -24.48641
3236.629, 1.374339
3238.557, 14.75108
3240.486, -0.8577305
3242.414, -1.581236
3244.343, 22.94188
3246.271, 4.090293
3248.199, -6.273288
3250.128, -6.151897
3252.056, -1.528814
3253.985, -8.144837
3255.913, -3.575522
3257.842, 8.104215
3259.770, 13.84337
3261.699, -13.63589
3263.627, -25.28173
3265.556, -20.22543
3267.484, -9.572518
3269.413, -10.35588
3271.341, 19.36753
3273.270, 23.05932
3275.198, 17.57206
3277.126, 30.43347
3279.055, 12.64785
3280.983, -28.34089
3282.912, -40.21808
3284.840, -2.113534
3286.769, -7.640769
3288.697, -0.7289844
3290.626, 10.14563
3292.554, 11.67177
3294.483, -16.36419
3296.411, -6.454576
3298.340, 6.002965
3300.268, 4.459822
3302.197, -7.851272
3304.125, -11.62746
3306.053, -20.56229
3307.982, -21.59997
3309.910, -2.855261
3311.839, -14.69498
3313.767, -29.02992
3315.696, -29.13426
3317.624, -11.18230
3319.553, 14.58083
3321.481, -7.747579
3323.410, -18.55102
3325.338, -5.634968
3327.267, 8.413417
3329.195, -0.8545247
3331.124, 9.553865
3333.052, 15.29970
3334.980, -4.874951
3336.909, -6.736749
3338.837, -4.710224
3340.766, -14.04476
3342.694, -27.03724
3344.623, -10.52414
3346.551, -4.307456
3348.480, -4.409424
3350.408, -9.615151
3352.337, -19.96394
3354.265, -27.65748
3356.194, -13.92940
3358.122, 0.9957293
3360.051, 2.987793
3361.979, -11.44389
3363.907, -15.99849
3365.836, -16.76132
3367.764, -7.147840
3369.693, 21.49040
3371.621, -1.377467
3373.550, -7.257998
3375.478, -0.9628313
3377.407, 0.8084596
3379.335, -15.07746
3381.264, 8.215231
3383.192, 9.181122
3385.121, -7.647796
3387.049, -14.56168
3388.978, -2.267436
3390.906, 0.1757838
3392.834, -6.081910
3394.763, -7.636575
3396.691, 13.59224
3398.620, -2.149908
3400.548, -22.06709
3402.477, -20.90487
3404.405, 0.6548958
3406.334, -11.74312
3408.262, 0.7444391
3410.191, 3.085923
3412.119, 0.6824816
3414.048, 14.03728
3415.976, -3.025562
3417.905, -2.415024
3419.833, -3.348581
3421.761, -12.68771
3423.690, -9.029234
3425.618, -27.01839
3427.547, -30.87152
3429.475, -29.33275
3431.404, -28.87387
3433.332, 4.136477
3435.261, 2.232002
3437.189, -10.13100
3439.118, -11.06190
3441.046, 5.959775
3442.975, -11.47932
3444.903, -2.625690
3446.832, 0.4084591
3448.760, -1.647334
3450.688, 16.15538
3452.617, -14.86561
3454.545, 3.362411
3456.474, 25.12962
3458.402, 17.69052
3460.331, -12.03876
3462.259, 2.615420
3464.188, 8.309612
3466.116, 4.683086
3468.045, -2.774910
3469.973, -18.75865
3471.902, 4.655749
3473.830, -7.216679
3475.759, -17.19685
3477.687, 2.091048
3479.615, 17.62404
3481.544, 13.38319
3483.472, 12.59353
3485.401, 3.840864
3487.329, -12.25004
3489.258, 15.61235
3491.186, -10.35093
3493.115, 9.993922
3495.043, 34.30228
3496.972, 16.98005
3498.900, -0.8835089
3500.829, -28.07833
3502.757, -23.53931
3504.686, -12.94987
3506.614, -18.61000
3508.542, -19.94038
3510.471, -19.32538
3512.399, -19.48777
3514.328, -18.13515
3516.256, -15.36407
3518.185, -16.74550
3520.113, -6.780067
3522.042, -15.41488
3523.970, -36.99634
3525.899, -43.82598
3527.827, -2.376682
3529.756, -9.859829
3531.684, -6.751602
3533.613, 3.803973
3535.541, 10.41232
3537.469, 10.71724
3539.398, 12.10925
3541.326, 1.205821
3543.255, -21.02301
3545.183, -31.79474
3547.112, -11.02524
3549.040, -1.052801
3550.969, -2.402210
3552.897, -16.52349
3554.826, -18.90305
3556.754, 2.308587
3558.683, -10.68997
3560.611, -17.80625
3562.540, -43.94890
3564.468, -38.37162
3566.396, 9.235481
3568.325, 11.94167
3570.253, 0.7820420
3572.182, 2.683396
3574.110, 0.7030010
3576.039, -6.978452
3577.967, -7.706317
3579.896, -35.24173
3581.824, -15.82122
3583.753, 0.4775258
3585.681, 0.1265692
3587.610, -5.058671
3589.538, -7.425896
3591.467, -18.23950
3593.395, -11.97996
3595.323, -5.504881
3597.252, -13.41474
3599.180, -31.21661
3601.109, -15.51145
3603.037, -5.473037
3604.966, -3.267447
3606.894, -9.330927
3608.823, -18.90376
3610.751, -12.02651
3612.680, 0.5451659
3614.608, 2.216068
3616.537, 0.4339333
3618.465, -2.553260
3620.394, -12.32285
3622.322, -31.86366
3624.250, -8.611435
3626.179, -13.19522
3628.107, -18.75691
3630.036, -4.053713
3631.964, -17.89470
3633.893, -18.48805
3635.821, -25.59132
3637.750, -5.433077
3639.678, -6.190413
3641.607, -54.50913
3643.535, -3.681603
3645.464, 0.6586581
3647.392, -3.305990
3649.321, -14.92550
3651.249, -22.38786
3653.177, -9.896756
3655.106, -11.20951
3657.034, -19.59259
3658.963, -12.52087
3660.891, -11.03977
3662.820, -14.57617
3664.748, -1.557619
3666.677, 10.83754
3668.605, -11.40500
3670.534, -31.12316
3672.462, -20.85838
3674.391, 1.185386
3676.319, -5.334993
3678.248, 0.9528680
3680.176, -23.35210
3682.104, -19.64488
3684.033, -2.187475
3685.961, -0.9577892
3687.890, -25.46066
3689.818, -14.82968
3691.747, -11.63554
3693.675, -12.96185
3695.604, -13.71188
3697.532, -14.15645
3699.461, -17.84843
3701.389, -26.66413
3703.318, -39.33746
3705.246, -35.27927
3707.175, -17.79042
3709.103, -9.910074
3711.031, -26.44444
3712.960, -29.19180
3714.888, 1.459261
3716.817, 0.8703108
3718.745, 8.374772
3720.674, 10.50595
3722.602, -18.27871
3724.531, -31.30276
3726.459, -20.22981
3728.388, 16.74914
3730.316, 13.24649
3732.245, -17.57035
3734.173, -34.24175
3736.102, -20.40505
3738.030, 0.8414763
3739.958, -15.59131
3741.887, -14.55067
3743.815, -15.69179
3745.744, -29.00514
3747.672, -35.60292
3749.601, -22.15743
3751.529, 5.798723
3753.458, 10.19553
3755.386, 1.612469
3757.315, -2.319068
3759.243, -7.421306
3761.172, -29.68390
3763.100, 39.81102
3765.029, -7.591448
3766.957, -18.50723
3768.885, -6.473379
3770.814, -13.43479
3772.742, -28.89630
3774.671, -6.323418
3776.599, -18.63117
3778.528, -36.30217
3780.456, -31.56022
3782.385, -35.44954
3784.313, -52.91667
3786.242, -53.24625
3788.170, -36.82626
3790.099, -37.56087
3792.027, -20.37930
3793.956, -31.87239
3795.884, -28.52879
3797.813, 1.448943
3799.741, 1.595011
3801.669, -3.219269
3803.598, -32.41485
3805.526, -37.40532
3807.455, -42.93688
3809.383, -56.48921
3811.312, -50.53951
3813.240, -3.067786
3815.169, 5.603925
3817.097, -14.90095
3819.026, -2.645191
3820.954, -10.30603
3822.883, -18.46479
3824.811, -12.64088
3826.740, -13.96915
3828.668, -13.06656
3830.596, -29.98671
3832.525, -19.70249
3834.453, -10.56315
3836.382, -3.339602
3838.310, -4.096640
3840.239, -15.32841
3842.167, 4.951481
3844.096, -36.32561
3846.024, -19.54176
3847.953, -24.50145
3849.881, -20.13128
3851.810, -7.471792
3853.738, -16.17611
3855.667, -44.61311
3857.595, -48.32505
3859.523, -52.89134
3861.452, -57.42423
3863.380, -16.51119
3865.309, -12.08599
3867.237, -35.72897
3869.166, -17.62808
3871.094, -37.32374
3873.023, -4.437585
3874.951, -11.55004
3876.880, -60.64528
3878.808, -35.09529
3880.737, 8.248898
3882.665, -3.128631
3884.594, -32.54979
3886.522, -31.40485
3888.450, -22.39602
3890.379, -4.812783
3892.307, -31.63639
3894.236, -42.63351
3896.164, -39.19474
3898.093, -28.32175
3900.021, 8.299608
3901.950, -34.07147
3903.878, -19.88239
3905.807, -41.18727
3907.735, -29.27790
3909.664, -32.88294
3911.592, -30.80514
3913.521, -11.58028
3915.449, -15.30221
3917.377, -0.3279215
3919.306, -36.63741
3921.234, -41.06915
3923.163, -58.75778
3925.091, -26.92436
3927.020, -11.68303
3928.948, -37.24182
3930.877, -44.92402
3932.805, -21.49950
3934.734, -4.051507
3936.662, -23.04855
3938.591, -20.25403
3940.519, -0.2014527
3942.448, -25.05653
3944.376, -33.87464
3946.304, -22.52968
3948.233, -67.31022
3950.161, -20.82672
3952.090, -40.24331
3954.018, 0.2727933
3955.947, 10.27352
3957.875, 9.727319
3959.804, -11.33223
3961.732, -22.89098
3963.661, -16.67833
3965.589, -28.89978
3967.518, -1.709759
3969.446, -34.92281
3971.375, -21.17579
3973.303, -15.26658
3975.231, -5.769733
3977.160, -35.04876
3979.088, -49.41509
3981.017, -15.70404
3982.945, -25.60175
3984.874, -45.41681
3986.802, -20.83046
3988.731, -51.52192
3990.659, -47.55314
3992.588, -10.78568
3994.516, -29.40129
3996.445, -50.72083
3998.373, -33.30939
4000.302, -23.49094
4002.230, -25.35445
4004.158, -20.73754
4006.087, -48.90303
4008.015, -18.49397
4009.944, -14.01026
4011.872, -52.82969
4013.801, -27.71547
4015.729, -12.91616
4017.658, -32.89856
4019.586, -28.99365
4021.515, -8.439646
4023.443, -27.80017
4025.372, -23.88929
4027.300, -55.99845
4029.229, -24.04064
4031.157, -26.61581
4033.085, 4.978076
4035.014, -28.68235
4036.942, -39.86845
4038.871, -29.44394
4040.799, -43.67393
4042.728, -35.06982
4044.656, -62.18737
4046.585, -19.30806
4048.513, -23.87500
4050.442, -44.19669
4052.370, -42.00819
4054.299, -21.90519
4056.227, -39.90459
4058.156, -29.87925
4060.084, 12.76326
4062.012, -17.36404
4063.941, -50.67521
4065.869, 25.81336
4067.798, -2.393558
4069.726, -57.05289
4071.655, -21.04569
4073.583, -27.08839
4075.512, -41.06093
4077.440, -18.09549
4079.369, -32.87836
4081.297, -69.27281
4083.226, 3.881141
4085.154, -14.13120
4087.083, -28.94625
4089.011, -40.03405
4090.939, -54.02966
4092.868, -52.15128
4094.796, -44.67611
4096.725, -38.65339
4098.653, -33.59708
4100.582, -32.95872
4102.510, -37.29604
4104.438, -26.82971
4106.367, 17.46811
4108.295, -22.61810
4110.224, -19.95105
4112.152, 2.543927
4114.081, -48.06207
4116.009, -50.71976
4117.938, 8.648468
4119.866, -11.83063
4121.795, -45.55039
4123.723, -40.63971
4125.652, -47.15949
4127.580, -32.97595
4129.509, -34.28483
4131.437, -21.91863
4133.366, -29.91574
4135.294, -6.103188
4137.223, -30.51445
4139.151, -70.33999
4141.080, -61.11628
4143.008, -51.91708
4144.937, -23.05914
4146.865, -5.467031
4148.793, -36.39412
4150.722, -53.01739
4152.650, -39.91294
4154.579, -28.25267
4156.507, -39.26479
4158.436, -13.61698
4160.364, -22.55923
4162.292, -20.62774
4164.221, -46.31013
4166.149, -13.48275
4168.078, 7.401584
4170.006, -5.203803
4171.935, -19.97885
4173.863, -37.65372
4175.792, -46.56388
4177.720, -28.94782
4179.649, -67.80584
4181.577, -17.33232
4183.506, -41.37964
4185.434, -23.50179
4187.363, -8.877320
4189.291, -28.00826
4191.220, -38.02750
4193.148, -16.14406
4195.077, -30.59668
4197.005, -14.51818
4198.934, -22.67100
4200.862, -32.69432
4202.791, -17.28750
4204.719, -51.69603
4206.647, 8.062184
4208.576, -1.058644
4210.504, 17.10127
4212.433, -20.02217
4214.361, -37.30502
4216.290, -50.29235
4218.218, -45.61160
4220.146, -22.61521
4222.075, -45.30095
4224.003, -40.63085
4225.932, -36.18278
4227.860, -38.17480
4229.789, -19.27399
4231.717, -19.71196
4233.646, -48.73313
4235.574, -42.06870
4237.503, -19.89446
4239.431, -24.51201
4241.360, -14.20184
4243.288, -52.05326
4245.217, -36.43134
4247.145, -35.06714
4249.074, -37.73562
4251.002, -28.39618
4252.931, -18.36621
4254.859, -25.41362
4256.788, -30.34933
4258.716, -39.24210
4260.645, -43.20554
4262.573, -26.14001
4264.501, -32.77787
4266.430, -58.08066
4268.358, -55.83551
4270.287, -50.77874
4272.215, -40.90753
4274.144, -8.822995
4276.072, -43.72034
4278.000, -23.52279
4279.929, -28.39898
4281.857, -25.62172
4283.786, -34.38729
4285.714, -45.72031
4287.643, -63.86013
4289.571, -46.49297
4291.500, -47.26568
4293.428, 14.73495
4295.357, -1.907391
4297.285, -35.15598
4299.214, -8.354813
4301.142, 3.178766
4303.071, -34.07213
4304.999, -37.82974
4306.928, -23.85423
4308.856, -13.61633
4310.785, -5.752341
4312.713, -66.44019
4314.642, -20.20940
4316.570, -6.885911
4318.499, -34.12949
4320.427, -45.08590
4322.355, -53.57809
4324.284, -50.82865
4326.212, -91.18834
4328.141, -22.29406
4330.069, -21.80025
4331.998, -12.16717
4333.926, -12.73160
4335.854, 18.87420
4337.783, -31.37629
##END=



