##NAMES=Prehnite
##RRUFFID=R130046
##IDEAL CHEMISTRY=Ca_2_Al(Si_3_Al)O_10_(OH)_2_
##LOCALITY=Eagle Head (Deep Cove), Cape Breton County, Nova Scotia, Canada
##OWNER=RRUFF
##SOURCE=Don Doell
##DESCRIPTION=Colorless bladed crystals
##STATUS=The identification of this mineral has been confirmed by single-crystal X-ray diffraction
##URL=https://www.rruff.net/odr/rruff_sample/R130046
##DIFFRACTION SAMPLE DESCRIPTION=Single crystal, powder profile is calculated
##CELL PARAMETERS=a: 4.6311 b: 5.4878 c: 18.502 alpha: 90 beta: 90 gamma: 90 volume: 470.2 crystal system: orthorhombic
##FILETYPE=Raman Processed
##RAMAN WAVELENGTH=532

184.6803, 1049.747
186.6087, 1204.696
188.5372, 1375.888
190.4657, 1593.383
192.3941, 1863.558
194.3226, 2133.131
196.2511, 2365.133
198.1795, 2479.443
200.1080, 2553.199
202.0365, 2590.658
203.9649, 2605.670
205.8934, 2604.364
207.8219, 2579.518
209.7503, 2569.010
211.6788, 2585.178
213.6073, 2618.687
215.5357, 2641.910
217.4642, 2653.451
219.3927, 2655.830
221.3211, 2650.313
223.2496, 2629.730
225.1781, 2610.390
227.1065, 2592.397
229.0350, 2576.556
230.9635, 2564.105
232.8919, 2554.243
234.8204, 2549.437
236.7489, 2551.615
238.6773, 2562.108
240.6058, 2570.237
242.5343, 2573.429
244.4627, 2573.073
246.3912, 2570.803
248.3197, 2560.980
250.2481, 2552.858
252.1766, 2553.003
254.1051, 2561.369
256.0335, 2566.726
257.9620, 2561.480
259.8905, 2554.303
261.8189, 2557.685
263.7474, 2576.997
265.6759, 2595.142
267.6043, 2608.223
269.5328, 2617.186
271.4613, 2628.247
273.3897, 2637.757
275.3182, 2646.833
277.2467, 2658.129
279.1751, 2674.112
281.1036, 2689.847
283.0321, 2701.907
284.9605, 2709.685
286.8890, 2717.715
288.8175, 2727.664
290.7459, 2738.907
292.6744, 2750.779
294.6029, 2763.114
296.5313, 2774.067
298.4598, 2784.311
300.3883, 2795.691
302.3167, 2811.231
304.2452, 2825.945
306.1737, 2844.586
308.1021, 2870.680
310.0306, 2909.862
311.9591, 2950.868
313.8875, 2998.113
315.8160, 3039.222
317.7445, 3059.500
319.6729, 3050.373
321.6014, 3028.040
323.5299, 2997.314
325.4583, 2958.418
327.3868, 2928.962
329.3153, 2918.365
331.2437, 2915.801
333.1722, 2912.009
335.1007, 2904.424
337.0291, 2897.869
338.9576, 2893.745
340.8861, 2891.306
342.8145, 2887.072
344.7430, 2873.014
346.6715, 2864.775
348.5999, 2870.332
350.5284, 2900.914
352.4569, 2926.406
354.3853, 2939.494
356.3138, 2947.478
358.2423, 2961.416
360.1707, 2983.885
362.0992, 3006.543
364.0277, 3028.131
365.9561, 3050.115
367.8846, 3069.732
369.8131, 3083.862
371.7415, 3097.541
373.6700, 3113.437
375.5985, 3130.715
377.5269, 3152.091
379.4554, 3181.192
381.3839, 3215.256
383.3123, 3248.987
385.2408, 3282.645
387.1693, 3303.421
389.0977, 3307.093
391.0262, 3289.127
392.9547, 3267.045
394.8831, 3244.196
396.8116, 3221.862
398.7401, 3198.967
400.6685, 3171.753
402.5970, 3147.665
404.5255, 3128.792
406.4539, 3117.665
408.3824, 3114.099
410.3109, 3121.307
412.2393, 3127.472
414.1678, 3125.397
416.0963, 3111.688
418.0247, 3105.990
419.9532, 3114.518
421.8817, 3127.158
423.8102, 3132.396
425.7386, 3130.967
427.6671, 3131.824
429.5956, 3136.563
431.5240, 3142.910
433.4525, 3149.788
435.3810, 3162.610
437.3094, 3176.495
439.2379, 3189.416
441.1664, 3201.213
443.0948, 3215.260
445.0233, 3229.041
446.9518, 3238.182
448.8802, 3238.625
450.8087, 3234.872
452.7372, 3237.996
454.6656, 3253.707
456.5941, 3274.934
458.5226, 3294.163
460.4510, 3310.609
462.3795, 3324.434
464.3080, 3334.339
466.2364, 3340.712
468.1649, 3348.464
470.0934, 3357.804
472.0218, 3371.886
473.9503, 3391.474
475.8788, 3417.137
477.8072, 3445.019
479.7357, 3474.786
481.6642, 3503.841
483.5926, 3532.452
485.5211, 3560.530
487.4496, 3589.325
489.3780, 3615.273
491.3065, 3640.977
493.2350, 3682.321
495.1634, 3746.385
497.0919, 3818.323
499.0204, 3892.164
500.9488, 3972.891
502.8773, 4050.869
504.8058, 4112.028
506.7342, 4178.245
508.6627, 4273.426
510.5912, 4396.849
512.5197, 4529.142
514.4481, 4697.352
516.3766, 4862.281
518.3051, 4976.594
520.2335, 5016.647
522.1620, 5005.091
524.0905, 4924.428
526.0189, 4801.447
527.9474, 4677.570
529.8759, 4548.027
531.8043, 4432.563
533.7328, 4336.176
535.6613, 4264.300
537.5897, 4203.573
539.5182, 4160.506
541.4467, 4119.490
543.3751, 4071.491
545.3036, 4015.722
547.2321, 3960.665
549.1605, 3905.864
551.0890, 3852.252
553.0175, 3804.786
554.9459, 3763.140
556.8744, 3730.858
558.8029, 3713.752
560.7313, 3705.372
562.6598, 3698.058
564.5883, 3688.469
566.5167, 3682.885
568.4452, 3685.439
570.3737, 3696.543
572.3021, 3703.876
574.2306, 3700.849
576.1591, 3698.234
578.0875, 3702.951
580.0160, 3719.538
581.9445, 3734.688
583.8729, 3747.724
585.8014, 3758.249
587.7299, 3766.776
589.6583, 3773.708
591.5868, 3784.941
593.5153, 3807.198
595.4437, 3831.245
597.3722, 3847.307
599.3007, 3848.935
601.2291, 3852.338
603.1576, 3862.719
605.0861, 3877.035
607.0145, 3887.032
608.9430, 3889.657
610.8715, 3890.438
612.7999, 3890.823
614.7284, 3891.928
616.6569, 3893.606
618.5853, 3895.304
620.5138, 3896.904
622.4423, 3898.694
624.3707, 3900.109
626.2992, 3902.305
628.2277, 3904.195
630.1561, 3906.148
632.0846, 3909.563
634.0131, 3915.472
635.9415, 3919.724
637.8700, 3921.120
639.7985, 3920.425
641.7269, 3919.732
643.6554, 3920.709
645.5839, 3918.998
647.5123, 3910.613
649.4408, 3900.305
651.3693, 3896.648
653.2977, 3901.915
655.2262, 3907.451
657.1547, 3908.048
659.0831, 3906.848
661.0116, 3911.902
662.9401, 3932.059
664.8685, 3948.447
666.7970, 3953.513
668.7255, 3951.118
670.6539, 3955.034
672.5824, 3970.434
674.5109, 3984.961
676.4393, 3993.252
678.3678, 3995.391
680.2963, 3999.439
682.2247, 4007.052
684.1532, 4014.576
686.0817, 4020.467
688.0101, 4025.368
689.9386, 4030.801
691.8671, 4035.808
693.7955, 4042.602
695.7240, 4054.375
697.6525, 4074.723
699.5809, 4084.510
701.5094, 4071.057
703.4379, 4056.551
705.3663, 4058.470
707.2948, 4077.931
709.2233, 4094.679
711.1517, 4103.559
713.0802, 4109.444
715.0087, 4114.661
716.9371, 4118.111
718.8656, 4122.340
720.7941, 4129.643
722.7225, 4136.431
724.6510, 4139.852
726.5795, 4138.953
728.5079, 4140.712
730.4364, 4145.397
732.3649, 4151.809
734.2933, 4163.193
736.2218, 4183.595
738.1503, 4202.004
740.0787, 4214.762
742.0072, 4224.472
743.9357, 4233.794
745.8641, 4240.839
747.7926, 4251.073
749.7211, 4268.866
751.6495, 4291.573
753.5780, 4307.137
755.5065, 4310.669
757.4349, 4314.011
759.3634, 4324.093
761.2919, 4337.760
763.2203, 4345.311
765.1488, 4338.935
767.0773, 4338.735
769.0057, 4353.948
770.9342, 4380.276
772.8627, 4398.740
774.7911, 4405.218
776.7196, 4411.978
778.6481, 4429.106
780.5765, 4452.758
782.5050, 4467.841
784.4335, 4465.655
786.3619, 4462.031
788.2904, 4463.454
790.2189, 4468.886
792.1473, 4472.614
794.0758, 4475.571
796.0043, 4479.172
797.9327, 4482.484
799.8612, 4482.781
801.7897, 4483.697
803.7181, 4487.235
805.6466, 4491.889
807.5751, 4494.963
809.5035, 4498.479
811.4320, 4506.507
813.3605, 4519.628
815.2889, 4531.745
817.2174, 4540.374
819.1459, 4548.110
821.0743, 4554.719
823.0028, 4560.192
824.9313, 4565.806
826.8597, 4570.042
828.7882, 4568.318
830.7167, 4571.931
832.6451, 4585.617
834.5736, 4604.544
836.5021, 4623.464
838.4305, 4636.358
840.3590, 4647.783
842.2875, 4659.378
844.2159, 4671.712
846.1444, 4682.459
848.0729, 4689.710
850.0013, 4693.260
851.9298, 4692.427
853.8583, 4692.735
855.7867, 4697.715
857.7152, 4708.162
859.6437, 4718.488
861.5721, 4727.006
863.5006, 4735.731
865.4291, 4748.135
867.3575, 4762.733
869.2860, 4774.567
871.2145, 4782.867
873.1429, 4789.855
875.0714, 4795.455
876.9999, 4798.276
878.9283, 4804.329
880.8568, 4817.684
882.7853, 4831.564
884.7137, 4840.215
886.6422, 4842.019
888.5707, 4845.845
890.4991, 4856.087
892.4276, 4871.228
894.3561, 4889.443
896.2845, 4911.642
898.2130, 4933.904
900.1415, 4953.245
902.0699, 4970.114
903.9984, 4982.978
905.9269, 5000.448
907.8553, 5024.507
909.7838, 5048.999
911.7123, 5073.227
913.6407, 5099.079
915.5692, 5127.394
917.4977, 5154.377
919.4261, 5184.515
921.3546, 5221.488
923.2831, 5266.610
925.2115, 5312.579
927.1400, 5361.677
929.0685, 5415.503
930.9969, 5457.898
932.9254, 5480.351
934.8539, 5486.739
936.7823, 5484.334
938.7108, 5476.353
940.6393, 5467.333
942.5677, 5456.913
944.4962, 5449.991
946.4247, 5455.579
948.3531, 5471.328
950.2816, 5481.229
952.2101, 5485.792
954.1385, 5492.884
956.0670, 5506.112
957.9955, 5518.975
959.9240, 5523.797
961.8524, 5518.558
963.7809, 5510.981
965.7094, 5505.999
967.6378, 5503.318
969.5663, 5505.509
971.4948, 5511.209
973.4232, 5524.882
975.3517, 5553.868
977.2802, 5600.060
979.2086, 5650.690
981.1371, 5695.360
983.0656, 5731.387
984.9940, 5758.348
986.9225, 5774.006
988.8510, 5780.905
990.7794, 5783.448
992.7079, 5778.641
994.6364, 5768.384
996.5648, 5761.809
998.4933, 5769.598
1000.422, 5779.640
1002.350, 5780.625
1004.279, 5771.917
1006.207, 5755.243
1008.136, 5731.206
1010.064, 5702.383
1011.993, 5672.431
1013.921, 5636.906
1015.849, 5597.132
1017.778, 5558.222
1019.706, 5530.548
1021.635, 5514.728
1023.563, 5508.980
1025.492, 5510.729
1027.420, 5513.767
1029.349, 5512.659
1031.277, 5509.048
1033.206, 5511.510
1035.134, 5518.505
1037.063, 5527.228
1038.991, 5537.609
1040.920, 5548.645
1042.848, 5561.392
1044.776, 5575.792
1046.705, 5589.456
1048.633, 5607.642
1050.562, 5622.835
1052.490, 5627.983
1054.419, 5635.976
1056.347, 5659.507
1058.276, 5690.750
1060.204, 5715.600
1062.133, 5727.388
1064.061, 5731.899
1065.990, 5739.313
1067.918, 5751.306
1069.847, 5764.645
1071.775, 5776.891
1073.703, 5790.127
1075.632, 5810.651
1077.560, 5833.172
1079.489, 5847.892
1081.417, 5850.016
1083.346, 5844.333
1085.274, 5837.406
1087.203, 5833.744
1089.131, 5824.833
1091.060, 5809.956
1092.988, 5797.522
1094.917, 5794.002
1096.845, 5797.799
1098.774, 5802.705
1100.702, 5811.507
1102.630, 5824.753
1104.559, 5841.032
1106.487, 5854.609
1108.416, 5865.808
1110.344, 5876.260
1112.273, 5883.498
1114.201, 5888.381
1116.130, 5895.960
1118.058, 5909.015
1119.987, 5926.242
1121.915, 5946.354
1123.844, 5966.124
1125.772, 5984.491
1127.701, 6001.115
1129.629, 6019.193
1131.557, 6036.049
1133.486, 6060.460
1135.414, 6095.686
1137.343, 6141.721
1139.271, 6193.044
1141.200, 6245.159
1143.128, 6303.808
1145.057, 6379.532
1146.985, 6469.593
1148.914, 6571.321
1150.842, 6691.855
1152.771, 6809.323
1154.699, 6923.237
1156.628, 7006.648
1158.556, 7018.763
1160.484, 6944.881
1162.413, 6844.389
1164.341, 6716.793
1166.270, 6597.794
1168.198, 6505.788
1170.127, 6440.682
1172.055, 6394.753
1173.984, 6368.636
1175.912, 6355.456
1177.841, 6346.783
1179.769, 6347.892
1181.698, 6367.748
1183.626, 6408.435
1185.555, 6440.081
1187.483, 6450.619
1189.411, 6455.946
1191.340, 6462.753
1193.268, 6466.172
1195.197, 6463.547
1197.125, 6453.083
1199.054, 6444.447
1200.982, 6433.808
1202.911, 6423.019
1204.839, 6417.825
1206.768, 6418.593
1208.696, 6419.150
1210.625, 6419.024
1212.553, 6417.354
1214.482, 6414.273
1216.410, 6411.956
1218.339, 6407.298
1220.267, 6396.302
1222.195, 6389.237
1224.124, 6395.624
1226.052, 6403.401
1227.981, 6403.189
1229.909, 6394.424
1231.838, 6390.599
1233.766, 6392.312
1235.695, 6401.361
1237.623, 6416.428
1239.552, 6430.718
1241.480, 6447.342
1243.409, 6468.215
1245.337, 6488.517
1247.266, 6505.335
1249.194, 6520.599
1251.122, 6534.172
1253.051, 6546.214
1254.979, 6561.831
1256.908, 6583.525
1258.836, 6605.653
1260.765, 6628.593
1262.693, 6649.002
1264.622, 6662.129
1266.550, 6666.589
1268.479, 6674.030
1270.407, 6687.341
1272.336, 6696.652
1274.264, 6701.888
1276.193, 6707.595
1278.121, 6717.796
1280.049, 6735.059
1281.978, 6755.359
1283.906, 6781.811
1285.835, 6804.343
1287.763, 6817.274
1289.692, 6822.732
1291.620, 6827.078
1293.549, 6828.640
1295.477, 6832.053
1297.406, 6839.515
1299.334, 6848.224
1301.263, 6856.568
1303.191, 6864.319
1305.120, 6877.084
1307.048, 6903.410
1308.976, 6925.387
1310.905, 6937.011
1312.833, 6941.646
1314.762, 6944.802
1316.690, 6944.023
1318.619, 6948.553
1320.547, 6962.560
1322.476, 6978.312
1324.404, 6990.118
1326.333, 6999.598
1328.261, 7014.108
1330.190, 7036.678
1332.118, 7054.082
1334.047, 7057.393
1335.975, 7059.431
1337.903, 7067.748
1339.832, 7082.905
1341.760, 7106.896
1343.689, 7146.010
1345.617, 7179.498
1347.546, 7202.269
1349.474, 7217.352
1351.403, 7225.236
1353.331, 7225.025
1355.260, 7230.763
1357.188, 7248.205
1359.117, 7265.474
1361.045, 7279.751
1362.974, 7292.720
1364.902, 7306.413
1366.830, 7320.333
1368.759, 7331.148
1370.687, 7334.374
1372.616, 7337.842
1374.544, 7343.858
1376.473, 7352.909
1378.401, 7366.836
1380.330, 7386.897
1382.258, 7403.734
1384.187, 7415.084
1386.115, 7426.263
1388.044, 7440.311
1389.972, 7455.792
1391.901, 7467.794
1393.829, 7473.833
1395.757, 7483.006
1397.686, 7505.638
1399.614, 7521.713
1401.543, 7515.870
1403.471, 7497.768
1405.400, 7493.497
1407.328, 7510.798
1409.257, 7525.875
1411.185, 7537.574
1413.114, 7548.433
1415.042, 7559.043
1416.971, 7568.042
1418.899, 7575.166
1420.828, 7577.392
1422.756, 7590.673
1424.684, 7624.945
1426.613, 7660.296
1428.541, 7685.710
1430.470, 7705.220
1432.398, 7728.151
1434.327, 7756.044
1436.255, 7777.946
1438.184, 7786.636
1440.112, 7794.936
1442.041, 7808.905
1443.969, 7827.726
1445.898, 7850.112
1447.826, 7875.645
1449.755, 7899.176
1451.683, 7924.919
1453.611, 7942.177
1455.540, 7941.975
1457.468, 7929.095
1459.397, 7919.975
1461.325, 7917.040
1463.254, 7917.205
1465.182, 7917.073
1467.111, 7924.482
1469.039, 7944.608
1470.968, 7973.901
1472.896, 8005.461
1474.825, 8043.491
1476.753, 8071.044
1478.682, 8078.716
1480.610, 8088.570
1482.538, 8109.739
1484.467, 8138.603
1486.395, 8168.188
1488.324, 8195.520
1490.252, 8230.318
1492.181, 8275.665
1494.109, 8325.352
1496.038, 8374.587
1497.966, 8424.396
1499.895, 8480.148
1501.823, 8543.787
1503.752, 8611.951
1505.680, 8682.223
1507.609, 8767.110
1509.537, 8882.606
1511.465, 9007.946
1513.394, 9130.142
1515.322, 9246.002
1517.251, 9346.086
1519.179, 9434.640
1521.108, 9485.926
1523.036, 9487.377
1524.965, 9445.240
1526.893, 9358.359
1528.822, 9237.008
1530.750, 9099.552
1532.679, 8941.494
1534.607, 8797.866
1536.536, 8674.368
1538.464, 8575.565
1540.392, 8509.490
1542.321, 8471.377
1544.249, 8444.865
1546.178, 8426.462
1548.106, 8419.939
1550.035, 8428.139
1551.963, 8442.279
1553.892, 8461.839
1555.820, 8480.156
1557.749, 8488.480
1559.677, 8484.849
1561.606, 8486.246
1563.534, 8503.640
1565.463, 8513.664
1567.391, 8506.404
1569.319, 8496.541
1571.248, 8497.328
1573.176, 8507.376
1575.105, 8513.779
1577.033, 8516.228
1578.962, 8512.712
1580.890, 8502.189
1582.819, 8489.616
1584.747, 8471.635
1586.676, 8455.396
1588.604, 8460.856
1590.533, 8500.259
1592.461, 8527.152
1594.390, 8529.781
1596.318, 8532.365
1598.246, 8538.727
1600.175, 8548.058
1602.103, 8559.979
1604.032, 8573.178
1605.960, 8584.268
1607.889, 8593.716
1609.817, 8598.946
1611.746, 8601.913
1613.674, 8599.490
1615.603, 8584.615
1617.531, 8566.209
1619.460, 8563.396
1621.388, 8577.287
1623.317, 8592.193
1625.245, 8608.896
1627.173, 8622.609
1629.102, 8630.359
1631.030, 8633.872
1632.959, 8631.620
1634.887, 8625.380
1636.816, 8627.308
1638.744, 8641.475
1640.673, 8649.744
1642.601, 8643.600
1644.530, 8637.413
1646.458, 8640.893
1648.387, 8649.837
1650.315, 8658.104
1652.244, 8665.553
1654.172, 8668.881
1656.100, 8665.139
1658.029, 8661.221
1659.957, 8655.314
1661.886, 8652.227
1663.814, 8657.520
1665.743, 8668.193
1667.671, 8679.597
1669.600, 8693.354
1671.528, 8697.916
1673.457, 8684.225
1675.385, 8676.873
1677.314, 8690.462
1679.242, 8711.935
1681.171, 8730.821
1683.099, 8745.929
1685.027, 8753.906
1686.956, 8751.933
1688.884, 8751.498
1690.813, 8757.951
1692.741, 8761.459
1694.670, 8754.896
1696.598, 8744.464
1698.527, 8738.634
1700.455, 8736.542
1702.384, 8728.827
1704.312, 8712.506
1706.241, 8701.330
1708.169, 8703.446
1710.098, 8706.561
1712.026, 8703.629
1713.954, 8698.600
1715.883, 8697.832
1717.811, 8700.822
1719.740, 8695.965
1721.668, 8673.884
1723.597, 8669.018
1725.525, 8705.814
1727.454, 8742.147
1729.382, 8752.898
1731.311, 8744.754
1733.239, 8722.104
1735.168, 8686.939
1737.096, 8669.863
1739.025, 8681.096
1740.953, 8691.568
1742.881, 8695.966
1744.810, 8694.873
1746.738, 8683.088
1748.667, 8668.773
1750.595, 8665.463
1752.524, 8672.394
1754.452, 8677.765
1756.381, 8678.514
1758.309, 8684.317
1760.238, 8700.756
1762.166, 8719.314
1764.095, 8737.784
1766.023, 8752.423
1767.952, 8755.652
1769.880, 8747.968
1771.808, 8742.813
1773.737, 8742.155
1775.665, 8739.717
1777.594, 8734.933
1779.522, 8728.617
1781.451, 8723.162
1783.379, 8716.750
1785.308, 8704.823
1787.236, 8688.581
1789.165, 8676.555
1791.093, 8668.545
1793.022, 8665.217
1794.950, 8670.200
1796.879, 8675.213
1798.807, 8676.366
1800.735, 8676.870
1802.664, 8681.821
1804.592, 8689.735
1806.521, 8690.665
1808.449, 8680.383
1810.378, 8677.210
1812.306, 8683.403
1814.235, 8693.420
1816.163, 8714.714
1818.092, 8729.615
1820.020, 8719.927
1821.949, 8694.421
1823.877, 8675.436
1825.806, 8664.864
1827.734, 8655.327
1829.662, 8648.221
1831.591, 8642.408
1833.519, 8637.793
1835.448, 8635.028
1837.376, 8632.313
1839.305, 8631.970
1841.233, 8639.546
1843.162, 8653.716
1845.090, 8658.984
1847.019, 8651.104
1848.947, 8643.524
1850.876, 8640.399
1852.804, 8634.604
1854.733, 8619.459
1856.661, 8606.945
1858.589, 8609.180
1860.518, 8621.303
1862.446, 8629.562
1864.375, 8633.495
1866.303, 8637.092
1868.232, 8640.782
1870.160, 8641.895
1872.089, 8633.373
1874.017, 8630.595
1875.946, 8650.662
1877.874, 8673.496
1879.803, 8673.848
1881.731, 8657.823
1883.660, 8648.663
1885.588, 8647.361
1887.516, 8647.564
1889.445, 8649.807
1891.373, 8649.691
1893.302, 8646.418
1895.230, 8639.963
1897.159, 8627.507
1899.087, 8614.120
1901.016, 8609.000
1902.944, 8610.758
1904.873, 8607.532
1906.801, 8597.688
1908.730, 8588.653
1910.658, 8578.844
1912.587, 8572.966
1914.515, 8573.143
1916.443, 8576.657
1918.372, 8584.870
1920.300, 8593.921
1922.229, 8595.372
1924.157, 8589.196
1926.086, 8586.862
1928.014, 8592.335
1929.943, 8592.048
1931.871, 8573.751
1933.800, 8564.813
1935.728, 8583.386
1937.657, 8601.537
1939.585, 8600.348
1941.514, 8587.173
1943.442, 8571.929
1945.371, 8555.661
1947.299, 8547.874
1949.228, 8550.193
1951.156, 8553.434
1953.084, 8555.575
1955.013, 8558.974
1956.941, 8565.721
1958.870, 8572.410
1960.798, 8577.602
1962.727, 8581.451
1964.655, 8583.783
1966.584, 8584.656
1968.512, 8583.127
1970.441, 8577.592
1972.369, 8577.850
1974.298, 8589.518
1976.226, 8595.771
1978.155, 8585.637
1980.083, 8577.815
1982.011, 8587.896
1983.940, 8601.864
1985.868, 8602.564
1987.797, 8594.103
1989.725, 8590.870
1991.654, 8594.502
1993.582, 8591.577
1995.511, 8577.455
1997.439, 8563.653
1999.368, 8543.506
2001.296, 8533.857
2003.225, 8554.274
2005.153, 8572.981
2007.082, 8561.424
2009.010, 8536.725
2010.938, 8528.936
2012.867, 8535.699
2014.795, 8540.568
2016.724, 8542.647
2018.652, 8544.502
2020.581, 8545.302
2022.509, 8547.087
2024.438, 8551.053
2026.366, 8554.080
2028.295, 8553.002
2030.223, 8551.208
2032.152, 8554.252
2034.080, 8558.859
2036.009, 8555.100
2037.937, 8556.158
2039.865, 8556.645
2041.794, 8549.989
2043.722, 8554.770
2045.651, 8547.444
2047.579, 8541.768
2049.508, 8538.142
2051.436, 8539.154
2053.365, 8553.424
2055.293, 8566.420
2057.222, 8558.038
2059.150, 8537.772
2061.079, 8532.283
2063.007, 8540.319
2064.936, 8545.422
2066.864, 8546.617
2068.792, 8548.563
2070.721, 8553.376
2072.649, 8556.428
2074.578, 8552.442
2076.506, 8550.115
2078.435, 8551.715
2080.363, 8557.199
2082.292, 8570.479
2084.220, 8585.866
2086.149, 8591.206
2088.077, 8587.148
2090.006, 8581.445
2091.934, 8574.999
2093.863, 8567.244
2095.791, 8555.248
2097.719, 8549.353
2099.648, 8555.838
2101.576, 8560.385
2103.505, 8551.756
2105.433, 8544.362
2107.362, 8554.262
2109.290, 8569.381
2111.219, 8571.518
2113.147, 8566.096
2115.076, 8570.002
2117.004, 8583.614
2118.933, 8596.204
2120.861, 8604.707
2122.790, 8612.001
2124.718, 8617.799
2126.646, 8618.384
2128.575, 8609.021
2130.503, 8599.439
2132.432, 8602.047
2134.360, 8602.994
2136.289, 8587.339
2138.217, 8564.732
2140.146, 8550.037
2142.074, 8543.112
2144.003, 8540.802
2145.931, 8542.132
2147.860, 8557.817
2149.788, 8592.373
2151.717, 8619.720
2153.645, 8632.747
2155.573, 8641.140
2157.502, 8651.248
2159.430, 8654.453
2161.359, 8640.688
2163.287, 8624.498
2165.216, 8617.167
2167.144, 8617.425
2169.073, 8626.120
2171.001, 8640.496
2172.930, 8644.761
2174.858, 8638.195
2176.787, 8634.396
2178.715, 8634.384
2180.644, 8632.873
2182.572, 8629.857
2184.500, 8623.216
2186.429, 8606.519
2188.357, 8596.284
2190.286, 8606.172
2192.214, 8618.844
2194.143, 8622.637
2196.071, 8621.639
2198.000, 8619.664
2199.928, 8616.754
2201.857, 8612.236
2203.785, 8606.288
2205.714, 8607.443
2207.642, 8616.547
2209.571, 8625.497
2211.499, 8634.953
2213.427, 8639.884
2215.356, 8638.264
2217.284, 8634.622
2219.213, 8623.272
2221.141, 8618.427
2223.070, 8631.042
2224.998, 8646.059
2226.927, 8655.144
2228.855, 8657.835
2230.784, 8647.605
2232.712, 8633.251
2234.641, 8639.948
2236.569, 8665.304
2238.498, 8682.916
2240.426, 8692.510
2242.354, 8686.193
2244.283, 8657.910
2246.211, 8647.720
2248.140, 8674.347
2250.068, 8687.439
2251.997, 8654.304
2253.925, 8634.637
2255.854, 8667.053
2257.782, 8697.452
2259.711, 8688.421
2261.639, 8667.289
2263.568, 8651.063
2265.496, 8644.564
2267.425, 8666.694
2269.353, 8702.951
2271.281, 8706.892
2273.210, 8684.202
2275.138, 8669.513
2277.067, 8664.872
2278.995, 8669.549
2280.924, 8688.183
2282.852, 8700.686
2284.781, 8700.146
2286.709, 8699.253
2288.638, 8699.029
2290.566, 8698.371
2292.495, 8694.296
2294.423, 8693.831
2296.352, 8701.511
2298.280, 8714.276
2300.208, 8737.168
2302.137, 8758.052
2304.065, 8759.087
2305.994, 8748.136
2307.922, 8738.232
2309.851, 8730.438
2311.779, 8735.171
2313.708, 8753.228
2315.636, 8764.371
2317.565, 8769.717
2319.493, 8760.027
2321.422, 8727.631
2323.350, 8717.428
2325.279, 8748.671
2327.207, 8768.600
2329.135, 8757.619
2331.064, 8742.789
2332.992, 8726.129
2334.921, 8718.135
2336.849, 8725.043
2338.778, 8739.916
2340.706, 8770.221
2342.635, 8793.450
2344.563, 8775.046
2346.492, 8738.967
2348.420, 8724.896
2350.349, 8728.542
2352.277, 8739.291
2354.206, 8756.679
2356.134, 8779.818
2358.063, 8808.943
2359.991, 8827.525
2361.919, 8834.064
2363.848, 8829.223
2365.776, 8806.356
2367.705, 8788.453
2369.633, 8778.007
2371.562, 8774.959
2373.490, 8789.103
2375.419, 8791.080
2377.347, 8754.064
2379.276, 8727.588
2381.204, 8743.543
2383.133, 8766.019
2385.061, 8776.218
2386.990, 8778.347
2388.918, 8768.740
2390.846, 8759.961
2392.775, 8774.393
2394.703, 8796.521
2396.632, 8796.558
2398.560, 8780.700
2400.489, 8761.379
2402.417, 8740.943
2404.346, 8733.722
2406.274, 8740.529
2408.203, 8755.306
2410.131, 8783.574
2412.060, 8800.207
2413.988, 8801.334
2415.917, 8811.916
2417.845, 8838.346
2419.773, 8849.713
2421.702, 8831.244
2423.630, 8819.777
2425.559, 8831.396
2427.487, 8841.566
2429.416, 8836.314
2431.344, 8839.507
2433.273, 8872.584
2435.201, 8901.193
2437.130, 8906.631
2439.058, 8900.699
2440.987, 8883.841
2442.915, 8867.239
2444.844, 8864.113
2446.772, 8855.059
2448.700, 8860.197
2450.629, 8853.672
2452.557, 8855.743
2454.486, 8865.458
2456.414, 8880.373
2458.343, 8899.053
2460.271, 8916.857
2462.200, 8932.845
2464.128, 8946.056
2466.057, 8955.915
2467.985, 8968.032
2469.914, 8967.747
2471.842, 8987.224
2473.771, 8965.183
2475.699, 8953.162
2477.627, 8953.444
2479.556, 8961.038
2481.484, 8978.596
2483.413, 8989.726
2485.341, 8989.548
2487.270, 8984.313
2489.198, 8964.138
2491.127, 8957.079
2493.055, 8981.737
2494.984, 9004.883
2496.912, 9017.693
2498.841, 9025.132
2500.769, 9024.724
2502.698, 9024.908
2504.626, 9029.487
2506.554, 9035.433
2508.483, 9043.928
2510.411, 9048.768
2512.340, 9039.748
2514.268, 9031.312
2516.197, 9041.805
2518.125, 9059.836
2520.054, 9073.002
2521.982, 9081.683
2523.911, 9083.654
2525.839, 9082.031
2527.768, 9085.127
2529.696, 9088.993
2531.625, 9081.915
2533.553, 9068.353
2535.481, 9064.275
2537.410, 9068.900
2539.338, 9071.824
2541.267, 9074.408
2543.195, 9087.715
2545.124, 9110.600
2547.052, 9128.924
2548.981, 9141.523
2550.909, 9143.398
2552.838, 9132.193
2554.766, 9124.892
2556.695, 9122.846
2558.623, 9128.226
2560.552, 9124.771
2562.480, 9122.393
2564.408, 9128.928
2566.337, 9119.416
2568.265, 9125.803
2570.194, 9136.600
2572.122, 9156.647
2574.051, 9162.544
2575.979, 9141.384
2577.908, 9136.867
2579.836, 9168.238
2581.765, 9195.267
2583.693, 9204.177
2585.622, 9211.593
2587.550, 9215.260
2589.479, 9226.995
2591.407, 9254.501
2593.335, 9279.667
2595.264, 9301.055
2597.192, 9309.371
2599.121, 9292.619
2601.049, 9274.357
2602.978, 9258.386
2604.906, 9254.375
2606.835, 9278.670
2608.763, 9301.721
2610.692, 9306.283
2612.620, 9310.336
2614.549, 9329.441
2616.477, 9344.427
2618.406, 9331.069
2620.334, 9322.302
2622.262, 9352.941
2624.191, 9385.450
2626.119, 9385.472
2628.048, 9382.797
2629.976, 9401.572
2631.905, 9426.290
2633.833, 9444.478
2635.762, 9458.093
2637.690, 9463.932
2639.619, 9469.958
2641.547, 9485.459
2643.476, 9505.897
2645.404, 9533.859
2647.333, 9559.252
2649.261, 9565.469
2651.189, 9568.720
2653.118, 9593.244
2655.046, 9622.325
2656.975, 9629.809
2658.903, 9628.854
2660.832, 9636.064
2662.760, 9647.660
2664.689, 9660.670
2666.617, 9674.189
2668.546, 9689.369
2670.474, 9703.229
2672.403, 9713.520
2674.331, 9717.488
2676.260, 9702.119
2678.188, 9683.551
2680.116, 9689.529
2682.045, 9706.477
2683.973, 9709.577
2685.902, 9707.421
2687.830, 9716.208
2689.759, 9730.536
2691.687, 9746.588
2693.616, 9756.995
2695.544, 9741.720
2697.473, 9756.094
2699.401, 9731.702
2701.330, 9758.079
2703.258, 9757.213
2705.187, 9747.127
2707.115, 9767.286
2709.043, 9797.179
2710.972, 9800.526
2712.900, 9791.018
2714.829, 9790.627
2716.757, 9796.516
2718.686, 9804.458
2720.614, 9814.892
2722.543, 9825.257
2724.471, 9840.881
2726.400, 9874.613
2728.328, 9913.714
2730.257, 9936.271
2732.185, 9950.993
2734.114, 9977.185
2736.042, 10001.62
2737.970, 9998.734
2739.899, 10015.73
2741.827, 10002.10
2743.756, 10020.77
2745.684, 10011.53
2747.613, 10000.61
2749.541, 10030.59
2751.470, 10069.48
2753.398, 10082.85
2755.327, 10083.53
2757.255, 10082.54
2759.184, 10081.00
2761.112, 10079.50
2763.041, 10080.09
2764.969, 10080.81
2766.897, 10090.03
2768.826, 10121.89
2770.754, 10155.81
2772.683, 10169.08
2774.611, 10180.54
2776.540, 10206.76
2778.468, 10234.03
2780.397, 10254.88
2782.325, 10268.77
2784.254, 10272.57
2786.182, 10273.48
2788.111, 10275.66
2790.039, 10279.11
2791.968, 10286.87
2793.896, 10294.25
2795.824, 10295.89
2797.753, 10304.58
2799.681, 10338.82
2801.610, 10362.13
2803.538, 10341.93
2805.467, 10335.01
2807.395, 10364.64
2809.324, 10390.60
2811.252, 10394.64
2813.181, 10400.36
2815.109, 10418.43
2817.038, 10433.45
2818.966, 10443.03
2820.895, 10453.55
2822.823, 10460.17
2824.751, 10477.56
2826.680, 10468.01
2828.608, 10464.34
2830.537, 10463.88
2832.465, 10485.44
2834.394, 10535.89
2836.322, 10561.29
2838.251, 10550.33
2840.179, 10551.43
2842.108, 10569.68
2844.036, 10602.99
2845.965, 10654.42
2847.893, 10678.07
2849.822, 10674.19
2851.750, 10679.29
2853.678, 10694.06
2855.607, 10708.93
2857.535, 10723.19
2859.464, 10729.27
2861.392, 10730.86
2863.321, 10743.69
2865.249, 10765.03
2867.178, 10783.39
2869.106, 10800.90
2871.035, 10819.80
2872.963, 10841.32
2874.892, 10871.70
2876.820, 10902.60
2878.749, 10921.23
2880.677, 10935.47
2882.605, 10956.62
2884.534, 10978.78
2886.462, 10998.32
2888.391, 11013.55
2890.319, 11021.07
2892.248, 11026.23
2894.176, 11027.98
2896.105, 11034.95
2898.033, 11054.46
2899.962, 11076.59
2901.890, 11101.22
2903.819, 11120.89
2905.747, 11125.35
2907.676, 11137.29
2909.604, 11168.13
2911.532, 11187.41
2913.461, 11184.17
2915.389, 11196.58
2917.318, 11246.23
2919.246, 11268.97
2921.175, 11253.29
2923.103, 11247.42
2925.032, 11252.79
2926.960, 11279.60
2928.889, 11328.47
2930.817, 11361.63
2932.746, 11378.95
2934.674, 11375.85
2936.603, 11359.37
2938.531, 11354.19
2940.459, 11364.05
2942.388, 11406.77
2944.316, 11463.11
2946.245, 11492.38
2948.173, 11510.36
2950.102, 11540.84
2952.030, 11570.80
2953.959, 11581.16
2955.887, 11591.82
2957.816, 11626.33
2959.744, 11655.94
2961.673, 11660.87
2963.601, 11663.84
2965.530, 11676.43
2967.458, 11689.01
2969.386, 11694.72
2971.315, 11711.20
2973.243, 11730.16
2975.172, 11747.26
2977.100, 11778.79
2979.029, 11795.32
2980.957, 11827.60
2982.886, 11862.56
2984.814, 11898.65
2986.743, 11906.63
2988.671, 11887.54
2990.600, 11892.50
2992.528, 11917.82
2994.457, 11951.44
2996.385, 11982.96
2998.313, 11971.11
3000.242, 11950.89
3002.170, 11984.26
3004.099, 12037.56
3006.027, 12074.06
3007.956, 12103.68
3009.884, 12131.60
3011.813, 12158.41
3013.741, 12182.67
3015.670, 12207.41
3017.598, 12233.39
3019.527, 12257.63
3021.455, 12274.17
3023.384, 12300.76
3025.312, 12322.01
3027.240, 12341.42
3029.169, 12374.89
3031.097, 12387.01
3033.026, 12427.20
3034.954, 12464.22
3036.883, 12496.57
3038.811, 12496.03
3040.740, 12478.26
3042.668, 12502.16
3044.597, 12550.11
3046.525, 12602.20
3048.454, 12643.26
3050.382, 12638.01
3052.311, 12629.72
3054.239, 12661.38
3056.167, 12691.73
3058.096, 12679.16
3060.024, 12688.56
3061.953, 12761.47
3063.881, 12808.79
3065.810, 12795.17
3067.738, 12796.06
3069.667, 12833.88
3071.595, 12860.49
3073.524, 12875.05
3075.452, 12895.08
3077.381, 12921.61
3079.309, 12952.09
3081.238, 12986.39
3083.166, 13034.02
3085.094, 13079.89
3087.023, 13091.62
3088.951, 13090.66
3090.880, 13096.70
3092.808, 13113.01
3094.737, 13165.19
3096.665, 13193.01
3098.594, 13121.18
3100.522, 13097.78
3102.451, 13214.25
3104.379, 13293.98
3106.308, 13310.61
3108.236, 13325.85
3110.165, 13347.79
3112.093, 13361.10
3114.021, 13380.97
3115.950, 13386.97
3117.878, 13418.18
3119.807, 13439.88
3121.735, 13458.55
3123.664, 13488.29
3125.592, 13519.83
3127.521, 13537.16
3129.449, 13557.51
3131.378, 13594.98
3133.306, 13633.18
3135.235, 13659.90
3137.163, 13696.05
3139.092, 13749.97
3141.020, 13797.43
3142.948, 13837.87
3144.877, 13853.24
3146.805, 13890.22
3148.734, 13913.43
3150.662, 13934.56
3152.591, 13961.61
3154.519, 13981.38
3156.448, 13996.14
3158.376, 14024.07
3160.305, 14042.22
3162.233, 14064.34
3164.162, 14094.82
3166.090, 14140.28
3168.019, 14209.80
3169.947, 14266.01
3171.875, 14284.57
3173.804, 14320.58
3175.732, 14380.20
3177.661, 14410.26
3179.589, 14413.26
3181.518, 14425.41
3183.446, 14448.05
3185.375, 14491.09
3187.303, 14533.92
3189.232, 14529.02
3191.160, 14530.41
3193.089, 14596.29
3195.017, 14666.31
3196.946, 14718.62
3198.874, 14755.36
3200.802, 14772.41
3202.731, 14785.53
3204.659, 14792.32
3206.588, 14827.86
3208.516, 14889.15
3210.445, 14931.74
3212.373, 14961.35
3214.302, 15005.06
3216.230, 15051.05
3218.159, 15081.29
3220.087, 15107.01
3222.016, 15137.86
3223.944, 15166.49
3225.873, 15184.92
3227.801, 15215.47
3229.729, 15273.22
3231.658, 15317.70
3233.586, 15345.19
3235.515, 15379.92
3237.443, 15421.99
3239.372, 15458.32
3241.300, 15509.88
3243.229, 15552.66
3245.157, 15617.48
3247.086, 15676.79
3249.014, 15734.17
3250.943, 15798.15
3252.871, 15846.15
3254.800, 15871.39
3256.728, 15890.79
3258.656, 15907.14
3260.585, 15938.97
3262.513, 15987.03
3264.442, 16016.44
3266.370, 16069.26
3268.299, 16100.61
3270.227, 16176.78
3272.156, 16253.57
3274.084, 16317.22
3276.013, 16354.42
3277.941, 16383.32
3279.870, 16404.70
3281.798, 16441.35
3283.727, 16499.87
3285.655, 16550.93
3287.583, 16593.41
3289.512, 16644.44
3291.440, 16699.43
3293.369, 16747.10
3295.297, 16788.84
3297.226, 16820.43
3299.154, 16855.65
3301.083, 16905.84
3303.011, 16952.80
3304.940, 16985.37
3306.868, 17027.76
3308.797, 17083.97
3310.725, 17119.13
3312.654, 17168.48
3314.582, 17190.46
3316.510, 17261.04
3318.439, 17322.14
3320.367, 17373.91
3322.296, 17402.15
3324.224, 17445.23
3326.153, 17531.28
3328.081, 17612.49
3330.010, 17682.08
3331.938, 17733.25
3333.867, 17765.06
3335.795, 17798.73
3337.724, 17837.15
3339.652, 17893.06
3341.581, 17955.16
3343.509, 18013.46
3345.438, 18066.01
3347.366, 18113.34
3349.294, 18156.51
3351.223, 18196.64
3353.151, 18239.61
3355.080, 18286.99
3357.008, 18337.27
3358.937, 18392.03
3360.865, 18459.40
3362.794, 18536.92
3364.722, 18630.96
3366.651, 18715.08
3368.579, 18758.46
3370.508, 18803.48
3372.436, 18857.69
3374.365, 18928.90
3376.293, 19024.36
3378.221, 19080.82
3380.150, 19171.58
3382.078, 19212.59
3384.007, 19326.47
3385.935, 19394.33
3387.864, 19443.11
3389.792, 19479.76
3391.721, 19526.29
3393.649, 19590.21
3395.578, 19669.53
3397.506, 19763.89
3399.435, 19842.36
3401.363, 19910.31
3403.292, 19984.05
3405.220, 20064.97
3407.148, 20153.54
3409.077, 20246.18
3411.005, 20347.61
3412.934, 20432.17
3414.862, 20491.70
3416.791, 20555.59
3418.719, 20627.52
3420.648, 20698.70
3422.576, 20768.01
3424.505, 20828.75
3426.433, 20888.62
3428.362, 20939.92
3430.290, 21020.21
3432.219, 21148.68
3434.147, 21283.59
3436.075, 21415.83
3438.004, 21551.08
3439.932, 21681.29
3441.861, 21776.75
3443.789, 21855.53
3445.718, 21945.79
3447.646, 22036.98
3449.575, 22131.48
3451.503, 22216.75
3453.432, 22334.73
3455.360, 22450.08
3457.289, 22563.36
3459.217, 22710.82
3461.146, 22883.00
3463.074, 23070.87
3465.002, 23260.09
3466.931, 23424.24
3468.859, 23621.15
3470.788, 23867.35
3472.716, 24154.79
3474.645, 24489.69
3476.573, 24700.26
3478.502, 24795.93
3480.430, 24789.23
3482.359, 24724.62
3484.287, 24610.85
3486.216, 24521.64
3488.144, 24487.29
3490.073, 24469.77
3492.001, 24461.72
3493.929, 24455.86
3495.858, 24447.51
3497.786, 24423.43
3499.715, 24400.30
3501.643, 24396.83
3503.572, 24414.48
3505.500, 24446.23
3507.429, 24495.15
3509.357, 24562.93
3511.286, 24635.99
3513.214, 24729.46
3515.143, 24824.82
3517.071, 24914.89
3519.000, 25011.83
3520.928, 25109.16
3522.856, 25193.30
3524.785, 25299.04
3526.713, 25368.87
3528.642, 25443.82
3530.570, 25532.61
3532.499, 25679.86
3534.427, 25826.95
3536.356, 25894.19
3538.284, 25976.27
3540.213, 26126.54
3542.141, 26250.43
3544.070, 26339.16
3545.998, 26437.04
3547.927, 26541.02
3549.855, 26628.07
3551.783, 26717.76
3553.712, 26825.91
3555.640, 26937.99
3557.569, 27046.11
3559.497, 27162.03
3561.426, 27266.77
3563.354, 27387.36
3565.283, 27477.81
3567.211, 27572.00
3569.140, 27674.95
3571.068, 27797.71
3572.997, 27917.32
3574.925, 28029.30
3576.854, 28145.90
3578.782, 28264.05
3580.710, 28338.27
3582.639, 28409.25
3584.567, 28524.20
3586.496, 28665.43
3588.424, 28832.97
3590.353, 28984.63
3592.281, 29113.30
3594.210, 29225.42
3596.138, 29328.91
3598.067, 29439.38
3599.995, 29557.77
3601.924, 29689.86
3603.852, 29815.23
3605.781, 29916.14
3607.709, 30046.25
3609.637, 30203.22
3611.566, 30378.89
3613.494, 30545.91
3615.423, 30645.77
3617.351, 30752.54
3619.280, 30903.06
3621.208, 31061.88
3623.137, 31224.72
3625.065, 31342.21
3626.994, 31440.12
3628.922, 31574.33
3630.851, 31732.32
3632.779, 31863.62
3634.708, 32079.00
3636.636, 32181.76
3638.564, 32339.04
3640.493, 32529.47
3642.421, 32653.29
3644.350, 32751.68
3646.278, 32855.15
3648.207, 32984.30
3650.135, 33160.12
3652.064, 33340.30
3653.992, 33521.65
3655.921, 33693.62
3657.849, 33854.88
3659.778, 33994.52
3661.706, 34141.57
3663.635, 34321.15
3665.563, 34483.91
3667.491, 34628.09
3669.420, 34838.07
3671.348, 34983.29
3673.277, 35187.99
3675.205, 35310.07
3677.134, 35518.48
3679.062, 35685.13
3680.991, 35795.96
3682.919, 35942.47
3684.848, 36120.99
3686.776, 36320.00
3688.705, 36524.35
3690.633, 36721.52
3692.562, 36918.77
3694.490, 37114.52
3696.418, 37328.25
3698.347, 37545.75
3700.275, 37717.70
3702.204, 37885.20
3704.132, 38100.93
3706.061, 38273.85
3707.989, 38373.68
3709.918, 38530.51
3711.846, 38727.62
3713.775, 38894.45
3715.703, 39046.03
3717.632, 39168.74
3719.560, 39355.20
3721.489, 39645.13
3723.417, 39904.21
3725.345, 40130.53
3727.274, 40317.15
3729.202, 40513.91
3731.131, 40774.98
3733.059, 41010.98
3734.988, 41183.70
3736.916, 41407.38
3738.845, 41667.18
3740.773, 41927.22
3742.702, 42159.82
3744.630, 42405.59
3746.559, 42623.39
3748.487, 42846.91
3750.416, 43058.27
3752.344, 43220.31
3754.272, 43458.29
3756.201, 43730.39
3758.129, 44026.38
3760.058, 44274.36
3761.986, 44455.58
3763.915, 44661.04
3765.843, 44883.75
3767.772, 45089.47
3769.700, 45328.12
3771.629, 45570.27
3773.557, 45815.50
3775.486, 46084.46
3777.414, 46329.48
3779.343, 46602.07
3781.271, 46854.49
3783.199, 47091.80
3785.128, 47313.52
3787.056, 47546.38
3788.985, 47792.75
3790.913, 48048.05
3792.842, 48328.21
3794.770, 48673.04
3796.699, 48998.21
3798.627, 49274.45
3800.556, 49565.08
3802.484, 49861.87
3804.413, 50088.98
3806.341, 50308.79
3808.270, 50572.04
3810.198, 50851.95
3812.126, 51144.19
3814.055, 51488.77
3815.983, 51857.16
3817.912, 52195.29
3819.840, 52503.55
3821.769, 52752.61
3823.697, 53063.67
3825.626, 53444.19
3827.554, 53821.70
3829.483, 54159.84
3831.411, 54368.98
3833.340, 54623.75
3835.268, 54991.14
3837.197, 55318.10
3839.125, 55612.93
3841.053, 55938.97
3842.982, 56254.38
3844.910, 56580.06
3846.839, 56897.83
3848.767, 57227.43
3850.696, 57551.65
3852.624, 57838.43
3854.553, 58199.31
3856.481, 58555.66
3858.410, 58846.92
3860.338, 59276.51
3862.267, 59797.76
3864.195, 60135.95
3866.124, 60426.75
3868.052, 60790.95
3869.980, 61092.51
3871.909, 61419.90
3873.837, 61779.98
3875.766, 62131.48
3877.694, 62505.60
3879.623, 62901.46
3881.551, 63295.99
3883.480, 63724.12
3885.408, 64137.20
3887.337, 64586.13
3889.265, 64995.10
3891.194, 65420.80
3893.122, 65856.03
3895.051, 66289.81
3896.979, 66703.83
3898.907, 67114.38
3900.836, 67539.65
3902.764, 67979.05
3904.693, 68425.30
3906.621, 68980.09
3908.550, 69397.93
3910.478, 69954.66
3912.407, 70308.66
3914.335, 70780.45
3916.264, 71231.29
3918.192, 71658.66
3920.121, 72042.95
3922.049, 72435.52
3923.978, 72938.38
3925.906, 73437.73
3927.834, 73902.23
3929.763, 74315.74
3931.691, 74735.45
3933.620, 75246.02
3935.548, 75812.75
3937.477, 76430.73
3939.405, 76974.39
3941.334, 77431.77
3943.262, 77923.52
3945.191, 78423.20
3947.119, 78835.38
3949.048, 79287.17
3950.976, 79823.63
3952.905, 80424.09
3954.833, 81004.55
3956.761, 81499.67
3958.690, 82059.48
3960.618, 82675.73
3962.547, 83172.94
3964.475, 83602.80
3966.404, 84076.04
3968.332, 84673.03
3970.261, 85340.14
3972.189, 85870.71
3974.118, 86367.33
3976.046, 86859.10
3977.975, 87389.45
3979.903, 87934.98
3981.832, 88528.30
3983.760, 89156.52
3985.688, 89720.02
3987.617, 90274.62
3989.545, 90800.70
3991.474, 91405.80
3993.402, 92067.23
3995.331, 92671.49
3997.259, 93275.04
3999.188, 93793.73
4001.116, 94329.61
4003.045, 94976.27
4004.973, 95607.16
4006.902, 96179.57
4008.830, 96637.08
4010.759, 97198.66
4012.687, 97900.92
4014.615, 98573.27
4016.544, 99211.71
4018.472, 99792.85
4020.401, 100348.9
4022.329, 100893.8
4024.258, 101545.1
4026.186, 102321.5
4028.115, 103098.5
4030.043, 103791.0
4031.972, 104502.2
4033.900, 105109.7
4035.829, 105802.4
4037.757, 106380.4
4039.686, 106929.4
4041.614, 107478.6
4043.542, 108119.6
4045.471, 108817.1
4047.399, 109503.9
4049.328, 110172.6
4051.256, 110826.9
4053.185, 111427.7
4055.113, 112021.2
4057.042, 112719.5
4058.970, 113459.8
4060.899, 114154.9
4062.827, 114763.4
4064.756, 115391.1
4066.684, 116032.4
4068.613, 116650.5
4070.541, 117265.7
4072.469, 117932.2
4074.398, 118610.9
4076.326, 119270.3
4078.255, 119854.1
4080.183, 120548.2
4082.112, 121207.1
4084.040, 121857.3
4085.969, 122537.1
4087.897, 123152.0
4089.826, 123729.3
4091.754, 124351.0
4093.683, 125010.8
4095.611, 125646.2
4097.540, 126277.7
4099.468, 126908.3
4101.396, 127492.0
4103.325, 128059.6
4105.253, 128769.9
4107.182, 129461.4
4109.110, 130076.1
4111.039, 130646.7
4112.967, 131181.1
4114.896, 131783.4
4116.824, 132375.7
4118.753, 132970.4
4120.681, 133608.3
4122.610, 134209.3
4124.538, 134883.2
4126.467, 135536.4
4128.395, 136158.7
4130.324, 136778.2
4132.252, 137380.0
4134.181, 137914.6
4136.109, 138440.6
4138.038, 139008.7
4139.966, 139668.0
4141.895, 140362.8
4143.823, 140774.6
4145.751, 141174.1
4147.680, 141764.7
4149.608, 142347.0
4151.537, 142886.8
4153.465, 143371.7
4155.394, 143868.4
4157.322, 144446.3
4159.250, 144902.3
4161.179, 145285.1
4163.107, 145812.4
4165.036, 146325.5
4166.964, 146651.2
4168.893, 147105.8
4170.821, 147629.9
4172.750, 147946.8
4174.678, 148244.1
4176.607, 148692.7
4178.535, 149016.5
4180.464, 149254.4
4182.392, 149694.4
4184.321, 150125.1
4186.249, 150368.7
4188.178, 150818.3
4190.106, 151378.4
4192.035, 151644.7
4193.963, 151806.8
4195.892, 151968.0
4197.820, 152256.1
4199.749, 152509.2
4201.677, 152291.0
4203.605, 152190.9
4205.534, 152428.1
4207.462, 152774.5
4209.391, 153087.4
4211.319, 152985.2
4213.248, 153014.1
4215.176, 153324.3
4217.104, 153519.6
4219.033, 153617.3
4220.961, 153698.5
4222.890, 153721.0
4224.818, 153663.4
4226.747, 153611.5
4228.675, 153628.3
4230.604, 153769.9
4232.532, 153875.2
4234.461, 153915.1
4236.389, 153879.6
4238.318, 153745.2
4240.246, 153734.2
4242.175, 153630.5
4244.103, 153514.8
4246.032, 153456.8
4247.960, 153176.1
4249.889, 153074.1
4251.817, 152769.9
4253.746, 152480.9
4255.674, 152110.2
4257.603, 151658.9
4259.531, 151254.8
4261.459, 150966.7
4263.388, 150711.3
4265.316, 150202.8
4267.245, 149784.9
4269.173, 149543.2
4271.102, 149317.2
4273.030, 149078.9
4274.958, 148847.0
4276.887, 148528.6
4278.815, 148122.6
4280.744, 147473.7
4282.672, 146873.3
4284.601, 146557.5
4286.529, 146297.6
4288.458, 146032.3
4290.386, 145702.7
4292.315, 145307.9
4294.243, 144858.1
4296.172, 144340.3
4298.100, 143769.4
4300.029, 143334.5
4301.957, 142865.5
4303.886, 142368.5
4305.814, 141867.0
4307.743, 141326.0
4309.671, 140801.6
4311.600, 140215.9
4313.528, 139655.2
4315.457, 139110.8
4317.385, 138620.2
4319.313, 138012.8
4321.242, 137433.6
4323.170, 136837.4
4325.099, 136210.3
4327.027, 135629.2
4328.956, 135037.4
4330.884, 134608.9
4332.813, 134204.1
4334.741, 133633.2
4336.669, 133086.9
4338.598, 132580.3
4340.526, 131956.2
4342.455, 131309.7
4344.383, 130708.0
4346.312, 130083.3
4348.240, 129432.2
4350.169, 128767.9
4352.097, 128067.6
4354.026, 127487.7
4355.954, 126802.2
4357.883, 126345.7
4359.811, 125706.6
4361.740, 125199.0
4363.668, 124803.1
4365.597, 124138.0
4367.525, 123481.6
4369.454, 123034.8
4371.382, 122440.0
4373.311, 121775.9
4375.239, 121218.3
4377.167, 120657.9
4379.096, 120080.3
4381.024, 119376.4
4382.953, 118679.3
4384.881, 118065.8
4386.810, 117601.1
4388.738, 117198.4
4390.667, 116605.0
4392.595, 116037.5
4394.523, 115560.6
4396.452, 115010.5
4398.380, 114411.8
4400.309, 113760.5
4402.237, 113189.1
4404.166, 112666.6
4406.094, 112088.5
4408.023, 111425.5
4409.951, 110676.3
4411.880, 109992.0
4413.808, 109368.4
4415.737, 108758.4
4417.665, 108329.4
4419.594, 108028.4
4421.522, 107473.2
4423.451, 106887.6
4425.379, 106370.0
4427.308, 105892.5
4429.236, 105424.4
4431.165, 104926.1
4433.093, 104438.0
4435.021, 103954.6
4436.950, 103338.1
4438.878, 102750.1
4440.807, 102269.0
4442.735, 101790.8
4444.664, 101331.5
4446.592, 100925.1
4448.521, 100494.2
4450.449, 100029.0
4452.377, 99565.47
4454.306, 99101.64
4456.234, 98644.16
4458.163, 98135.21
4460.091, 97638.30
4462.020, 97227.41
4463.948, 96910.09
4465.877, 96627.80
4467.805, 96098.58
4469.734, 95542.22
4471.662, 95033.34
4473.591, 94639.66
4475.519, 94294.91
4477.448, 93952.58
4479.376, 93542.70
4481.305, 93105.23
4483.233, 92807.84
4485.162, 92455.14
4487.090, 91999.84
4489.019, 91599.41
4490.947, 91211.02
4492.875, 90805.09
4494.804, 90376.55
4496.732, 89960.80
4498.661, 89583.69
4500.589, 89282.88
4502.518, 88841.99
4504.446, 88507.36
4506.375, 88150.66
4508.303, 87707.34
4510.231, 87350.84
4512.160, 87016.15
4514.088, 86582.56
4516.017, 86231.33
4517.945, 85963.13
4519.874, 85699.60
4521.802, 85453.66
4523.731, 85223.48
4525.659, 84847.91
4527.588, 84423.80
4529.516, 84012.57
4531.445, 83752.92
4533.373, 83511.16
4535.302, 82953.70
4537.230, 82582.36
4539.159, 82417.64
4541.087, 82000.78
4543.016, 81611.48
4544.944, 81364.68
4546.873, 81053.36
4548.801, 80746.58
4550.729, 80542.55
4552.658, 80327.89
4554.586, 80071.37
4556.515, 79839.64
4558.443, 79559.89
4560.372, 79284.74
4562.300, 78955.86
4564.229, 78566.67
4566.157, 78193.52
4568.085, 77876.98
4570.014, 77597.40
4571.942, 77339.20
4573.871, 77057.40
4575.799, 76785.72
4577.728, 76646.09
4579.656, 76433.86
4581.585, 76116.58
4583.513, 75738.75
4585.442, 75440.06
4587.370, 75272.62
4589.299, 75011.68
4591.227, 74709.83
4593.156, 74382.84
4595.084, 74211.90
4597.013, 74086.77
4598.941, 73741.24
4600.870, 73539.80
4602.798, 73448.71
4604.727, 73036.52
4606.655, 72698.91
4608.583, 72540.73
4610.512, 72325.67
4612.440, 72126.72
4614.369, 71997.86
4616.297, 71870.80
4618.226, 71728.22
4620.154, 71545.30
4622.083, 71342.33
4624.011, 71112.42
4625.939, 70841.11
4627.868, 70564.56
4629.796, 70304.59
4631.725, 70079.18
4633.653, 69885.36
4635.582, 69717.66
4637.510, 69722.40
4639.439, 69689.45
4641.367, 69466.90
4643.296, 69130.06
4645.224, 68837.72
4647.153, 68806.83
4649.081, 68713.34
4651.010, 68523.59
4652.938, 68170.49
4654.867, 67940.20
4656.795, 67844.02
4658.724, 67739.00
4660.652, 67579.06
4662.581, 67362.80
4664.509, 67237.48
4666.438, 67130.21
4668.366, 67008.48
4670.294, 66749.56
4672.223, 66472.08
4674.151, 66278.14
4676.080, 66211.11
4678.008, 66153.64
4679.937, 65918.94
4681.865, 65722.15
4683.793, 65577.92
4685.722, 65456.51
4687.650, 65359.67
4689.579, 65275.49
4691.507, 65171.34
4693.436, 64987.15
4695.364, 64912.79
4697.293, 64690.36
4699.221, 64652.46
4701.150, 64512.21
4703.078, 64279.27
4705.007, 64060.95
4706.935, 63964.09
4708.864, 63807.55
4710.792, 63615.80
4712.721, 63401.70
4714.649, 63262.26
4716.578, 63184.40
4718.506, 63163.21
4720.435, 63047.20
4722.363, 62939.73
4724.292, 62765.83
4726.220, 62641.33
4728.148, 62477.55
4730.077, 62344.05
4732.005, 62126.29
4733.934, 62091.93
4735.862, 61965.26
4737.791, 61868.02
4739.719, 61843.60
4741.647, 61710.07
4743.576, 61554.51
4745.504, 61423.63
4747.433, 61283.39
4749.361, 61162.47
4751.290, 61095.63
4753.218, 61031.20
4755.147, 60964.05
4757.075, 60891.61
4759.004, 60785.14
4760.932, 60682.89
4762.861, 60656.38
4764.789, 60579.54
4766.718, 60458.85
4768.646, 60337.01
4770.575, 60198.88
4772.503, 60052.88
4774.432, 60007.66
4776.360, 59846.27
4778.289, 59924.39
4780.217, 59921.68
4782.146, 59883.95
4784.074, 59829.13
4786.002, 59846.79
4787.931, 59755.59
4789.859, 59528.64
4791.788, 59448.12
4793.716, 59418.49
4795.645, 59398.89
4797.573, 59332.66
4799.501, 59244.97
4801.430, 59143.49
4803.358, 59091.82
4805.287, 59000.83
4807.215, 58828.27
4809.144, 58757.91
4811.072, 58714.52
4813.001, 58639.40
4814.929, 58658.19
4816.858, 58706.76
4818.786, 58736.31
4820.715, 58621.71
4822.643, 58497.77
4824.572, 58503.15
4826.500, 58411.15
4828.429, 58273.89
4830.357, 58149.00
4832.286, 58089.53
4834.214, 58050.50
4836.143, 57966.21
4838.071, 57913.01
4840.000, 57880.04
4841.928, 57866.70
4843.856, 57723.44
4845.785, 57554.31
4847.713, 57523.17
4849.642, 57484.43
4851.570, 57443.26
4853.499, 57431.88
4855.427, 57340.63
4857.355, 57251.23
4859.284, 57314.68
4861.212, 57353.08
4863.141, 57321.80
4865.069, 57162.02
4866.998, 57101.20
4868.926, 57087.70
4870.855, 56977.55
4872.783, 56940.36
4874.712, 56967.88
4876.640, 57024.94
4878.569, 57020.52
4880.497, 56966.66
4882.426, 56906.95
4884.354, 56841.21
4886.283, 56762.47
4888.211, 56627.54
4890.140, 56681.51
4892.068, 56804.95
4893.997, 56759.30
4895.925, 56719.40
4897.854, 56682.46
4899.782, 56614.20
4901.710, 56576.80
4903.639, 56571.13
4905.567, 56616.33
4907.496, 56542.38
4909.424, 56444.83
4911.353, 56481.20
4913.281, 56441.96
4915.209, 56378.98
4917.138, 56385.72
4919.066, 56389.88
4920.995, 56367.03
4922.923, 56284.18
4924.852, 56271.20
4926.780, 56276.56
4928.709, 56235.41
4930.637, 56269.99
4932.566, 56266.84
4934.494, 56068.32
4936.423, 56113.29
4938.351, 56221.43
4940.280, 56247.67
4942.208, 56271.40
4944.137, 56254.39
4946.065, 56136.35
4947.994, 56154.36
4949.922, 56177.11
4951.851, 56134.99
4953.779, 56005.11
4955.708, 55931.85
4957.636, 55988.74
4959.564, 55946.41
4961.493, 55936.38
4963.421, 55993.12
4965.350, 55975.27
4967.278, 55893.99
4969.207, 55778.07
4971.135, 55762.67
4973.063, 55754.75
4974.992, 55736.70
4976.920, 55761.49
4978.849, 55758.64
4980.777, 55726.80
4982.706, 55699.08
4984.634, 55712.04
4986.563, 55745.90
4988.491, 55746.21
4990.420, 55732.21
4992.348, 55701.29
4994.277, 55641.75
4996.205, 55540.05
4998.134, 55462.01
5000.062, 55504.62
5001.991, 55529.32
5003.919, 55531.73
5005.848, 55512.63
5007.776, 55577.46
5009.705, 55585.74
5011.633, 55398.47
5013.562, 55444.02
5015.490, 55483.18
5017.418, 55417.37
5019.347, 55421.81
5021.275, 55362.63
5023.204, 55220.68
5025.132, 55120.86
5027.061, 55151.57
5028.989, 55277.54
5030.917, 55313.51
5032.846, 55318.92
5034.774, 55318.09
5036.703, 55349.84
5038.631, 55397.77
5040.560, 55438.32
5042.488, 55438.14
5044.417, 55396.39
5046.345, 55378.36
5048.274, 55443.62
5050.202, 55435.84
5052.131, 55384.99
5054.059, 55318.02
5055.988, 55198.74
5057.916, 55132.75
5059.845, 55153.73
5061.773, 55157.02
5063.702, 55170.76
5065.630, 55200.34
5067.559, 55230.75
5069.487, 55241.82
5071.416, 55238.39
5073.344, 55236.68
5075.272, 55289.35
5077.201, 55366.04
5079.129, 55449.36
5081.058, 55335.89
5082.986, 55223.20
5084.915, 55270.68
5086.843, 55328.18
5088.771, 55377.24
5090.700, 55408.87
5092.628, 55418.34
5094.557, 55346.13
5096.485, 55224.28
5098.414, 55308.65
5100.342, 55294.67
5102.271, 55224.43
5104.199, 55317.02
5106.128, 55355.90
5108.056, 55378.69
5109.985, 55500.16
5111.913, 55390.07
5113.842, 55320.01
5115.770, 55457.16
5117.699, 55442.13
5119.627, 55440.20
5121.556, 55498.12
5123.484, 55476.46
5125.413, 55508.28
5127.341, 55569.63
5129.270, 55515.00
5131.198, 55453.83
5133.126, 55409.35
5135.055, 55388.43
5136.983, 55457.23
5138.912, 55491.93
5140.840, 55386.72
5142.769, 55404.77
5144.697, 55521.52
5146.625, 55681.48
5148.554, 55630.23
5150.482, 55616.65
5152.411, 55645.97
5154.339, 55625.68
5156.268, 55569.39
5158.196, 55531.66
5160.125, 55573.75
5162.053, 55568.73
5163.982, 55563.34
5165.910, 55583.76
5167.839, 55605.26
5169.767, 55584.47
5171.696, 55559.56
5173.624, 55777.74
5175.553, 55807.65
5177.481, 55719.98
5179.410, 55708.72
5181.338, 55613.51
5183.267, 55579.89
5185.195, 55716.05
5187.124, 55589.51
5189.052, 55496.09
5190.980, 55518.16
5192.909, 55500.55
5194.837, 55542.43
5196.766, 55606.12
5198.694, 55596.55
5200.623, 55540.66
5202.551, 55514.32
5204.479, 55581.14
5206.408, 55607.72
5208.336, 55602.49
5210.265, 55579.11
5212.193, 55573.24
5214.122, 55498.40
5216.050, 55440.46
5217.979, 55580.28
5219.907, 55696.52
5221.836, 55675.96
5223.764, 55463.28
5225.693, 55501.42
5227.621, 55569.41
5229.550, 55582.33
5231.478, 55505.16
5233.407, 55410.54
5235.335, 55364.26
5237.264, 55475.32
5239.192, 55450.96
5241.121, 55397.31
5243.049, 55376.40
5244.978, 55373.93
5246.906, 55348.94
5248.834, 55317.82
5250.763, 55352.95
5252.691, 55355.18
5254.620, 55311.91
5256.548, 55214.61
5258.477, 55225.24
5260.405, 55223.87
5262.333, 55189.41
5264.262, 55257.05
5266.190, 55243.90
5268.119, 55173.89
5270.047, 55111.48
5271.976, 55073.34
5273.904, 55061.78
5275.833, 55072.99
5277.761, 55078.91
5279.690, 55102.87
5281.618, 55131.08
5283.547, 55111.08
5285.475, 55189.32
5287.404, 55184.30
5289.332, 54946.20
5291.261, 54920.29
5293.189, 54927.48
5295.118, 54889.78
5297.046, 54709.57
5298.975, 54735.86
5300.903, 54786.82
5302.832, 54640.99
5304.760, 54579.92
5306.688, 54583.43
5308.617, 54615.65
5310.545, 54567.99
5312.474, 54613.33
5314.402, 54641.20
5316.331, 54506.05
5318.259, 54424.59
5320.188, 54363.26
5322.116, 54306.72
5324.044, 54266.09
5325.973, 54213.52
5327.901, 54156.65
5329.830, 54103.22
5331.758, 54180.24
5333.687, 54192.87
5335.615, 54086.51
5337.544, 54015.27
5339.472, 53886.47
5341.401, 53764.36
5343.329, 53757.11
5345.258, 53665.36
5347.186, 53622.20
5349.115, 53650.68
5351.043, 53637.96
5352.972, 53547.40
5354.900, 53433.62
5356.829, 53354.20
5358.757, 53387.57
5360.686, 53359.68
5362.614, 53242.40
5364.542, 53214.23
5366.471, 53125.22
5368.399, 53038.15
5370.328, 53024.64
5372.256, 52953.26
5374.185, 52878.11
5376.113, 52803.77
5378.042, 52672.79
5379.970, 52614.01
5381.898, 52599.62
5383.827, 52595.66
5385.755, 52573.29
5387.684, 52451.70
5389.612, 52301.77
5391.541, 52299.25
5393.469, 52196.71
5395.398, 52119.20
5397.326, 52127.20
5399.255, 51994.21
5401.183, 51913.51
5403.112, 51869.79
5405.040, 51799.21
5406.969, 51651.87
5408.897, 51559.94
5410.826, 51526.61
5412.754, 51370.19
5414.683, 51280.65
5416.611, 51228.67
5418.540, 51172.55
5420.468, 51149.66
5422.396, 51063.13
5424.325, 50954.80
5426.253, 50945.46
5428.182, 51002.73
5430.110, 50943.22
5432.039, 50727.88
5433.967, 50572.34
5435.896, 50469.03
5437.824, 50417.98
5439.752, 50434.13
5441.681, 50305.16
5443.609, 50253.83
5445.538, 50278.29
5447.466, 50226.73
5449.395, 50081.82
5451.323, 49928.57
5453.252, 49807.13
5455.180, 49670.74
5457.109, 49536.20
5459.037, 49451.82
5460.966, 49477.13
5462.894, 49284.79
5464.823, 49189.46
5466.751, 49191.90
5468.680, 49091.89
5470.608, 49011.61
5472.537, 48966.26
5474.465, 48918.95
5476.394, 48673.19
5478.322, 48542.53
5480.250, 48498.90
5482.179, 48480.19
5484.107, 48385.14
5486.036, 48259.33
5487.964, 48134.92
5489.893, 48040.68
5491.821, 47887.12
5493.750, 47793.29
5495.678, 47746.52
5497.606, 47574.10
5499.535, 47466.45
##END=



