##NAMES=Pseudoboleite
##RRUFFID=R130548
##IDEAL CHEMISTRY=Pb_31_Cu_24_Cl_62_(OH)_48_
##LOCALITY=Sierra Gorda, Antofagasta, Chile
##OWNER=RRUFF
##SOURCE=Bob Jenkins
##DESCRIPTION=Indigo blue cubic or short prismatic crystals, associated with colorless quartz
##STATUS=The identification of this mineral has been confirmed by single-crystal X-ray diffraction
##URL=https://www.rruff.net/odr/rruff_sample/R130548
##DIFFRACTION SAMPLE DESCRIPTION=Single crystal, powder profile is calculated
##CELL PARAMETERS=a: 15.2453 b: 15.2453 c: 30.836 alpha: 90 beta: 90 gamma: 90 volume: 7166.9 crystal system: tetragonal
##FILETYPE=Raman Processed
##RAMAN WAVELENGTH=532

192.3950, 314.1733
194.3235, 346.1312
196.2519, 365.6359
198.1804, 380.5617
200.1089, 395.3482
202.0373, 414.3217
203.9658, 443.2679
205.8943, 470.2830
207.8227, 491.2704
209.7512, 506.5758
211.6797, 516.3043
213.6081, 516.7523
215.5366, 511.7606
217.4651, 509.0786
219.3935, 510.0656
221.3220, 512.2787
223.2505, 515.5944
225.1789, 520.9412
227.1074, 523.4066
229.0359, 521.7900
230.9643, 516.6861
232.8928, 508.8107
234.8213, 495.6245
236.7497, 481.8825
238.6782, 469.9710
240.6067, 459.7122
242.5351, 450.8621
244.4636, 443.5800
246.3921, 437.6009
248.3205, 431.2847
250.2490, 424.7996
252.1775, 417.7626
254.1059, 409.9818
256.0344, 401.1420
257.9629, 392.3208
259.8913, 383.6989
261.8198, 375.3131
263.7483, 367.0615
265.6767, 358.5991
267.6052, 350.7007
269.5337, 343.7277
271.4621, 338.2484
273.3906, 333.0302
275.3191, 327.7500
277.2475, 322.6778
279.1760, 318.4086
281.1045, 314.8817
283.0329, 312.3105
284.9614, 310.8560
286.8899, 310.9662
288.8183, 311.4789
290.7468, 312.2430
292.6753, 313.3700
294.6037, 315.1188
296.5322, 318.6923
298.4607, 321.9921
300.3891, 324.4487
302.3176, 326.3400
304.2461, 326.3901
306.1745, 323.5214
308.1030, 318.6841
310.0315, 313.4063
311.9599, 306.7020
313.8884, 300.4434
315.8169, 295.4047
317.7453, 291.5111
319.6738, 288.2942
321.6023, 285.6886
323.5307, 283.6489
325.4592, 282.2858
327.3877, 281.7900
329.3161, 281.6376
331.2446, 281.8223
333.1731, 282.2899
335.1015, 282.7299
337.0300, 283.0417
338.9585, 283.3646
340.8869, 283.8879
342.8154, 284.7669
344.7439, 285.7130
346.6723, 286.4928
348.6008, 287.1815
350.5292, 288.6024
352.4577, 291.3185
354.3862, 294.4312
356.3146, 297.4631
358.2431, 300.7079
360.1716, 303.0041
362.1000, 303.8781
364.0285, 303.5025
365.9570, 302.2496
367.8854, 299.6727
369.8139, 296.5970
371.7424, 293.2242
373.6708, 289.5296
375.5993, 285.9365
377.5278, 282.2988
379.4562, 278.8513
381.3847, 276.1318
383.3132, 274.8459
385.2416, 273.5920
387.1701, 271.9206
389.0986, 269.9119
391.0270, 268.1596
392.9555, 266.8835
394.8840, 265.8463
396.8124, 264.8483
398.7409, 263.7814
400.6694, 262.8653
402.5978, 262.1582
404.5263, 261.6054
406.4548, 261.1492
408.3832, 260.7126
410.3117, 260.4122
412.2402, 260.4154
414.1686, 260.8156
416.0971, 261.0226
418.0256, 260.5095
419.9540, 259.8160
421.8825, 259.8015
423.8110, 261.3722
425.7394, 262.7334
427.6679, 263.2102
429.5964, 262.9267
431.5248, 263.0957
433.4533, 264.1159
435.3818, 265.5367
437.3102, 267.0636
439.2387, 268.3667
441.1672, 270.2363
443.0956, 272.6586
445.0241, 275.7125
446.9526, 279.4316
448.8810, 283.8292
450.8095, 288.9176
452.7380, 295.0961
454.6664, 303.0521
456.5949, 309.2417
458.5234, 314.4244
460.4518, 317.2127
462.3803, 316.6842
464.3088, 311.1903
466.2372, 305.5508
468.1657, 300.6958
470.0942, 296.5735
472.0226, 292.6816
473.9511, 288.5242
475.8796, 285.1854
477.8080, 283.2902
479.7365, 283.0585
481.6650, 282.8763
483.5934, 282.6316
485.5219, 282.3517
487.4504, 282.0049
489.3788, 281.4333
491.3073, 281.1580
493.2358, 281.6141
495.1642, 282.5680
497.0927, 282.9161
499.0212, 282.2977
500.9496, 281.3717
502.8781, 280.1998
504.8066, 278.7710
506.7350, 277.6989
508.6635, 277.4717
510.5920, 277.4688
512.5204, 277.1831
514.4489, 276.6161
516.3774, 275.7343
518.3058, 274.2195
520.2343, 272.3867
522.1628, 270.9613
524.0912, 270.2992
526.0197, 269.6399
527.9482, 268.6439
529.8766, 267.2149
531.8051, 266.0889
533.7336, 265.4066
535.6620, 264.9329
537.5905, 264.4865
539.5190, 264.0416
541.4474, 263.6465
543.3759, 263.1072
545.3044, 262.6005
547.2328, 262.5613
549.1613, 263.4994
551.0898, 264.1684
553.0182, 264.1342
554.9467, 263.5544
556.8752, 262.8437
558.8036, 261.8014
560.7321, 260.8922
562.6606, 260.3857
564.5891, 260.4557
566.5175, 260.3931
568.4460, 259.9000
570.3745, 259.4223
572.3029, 259.3238
574.2314, 259.7329
576.1599, 260.2211
578.0883, 260.7944
580.0168, 261.3401
581.9453, 261.6084
583.8737, 261.6229
585.8022, 261.3213
587.7307, 260.4603
589.6591, 259.1332
591.5876, 258.2868
593.5161, 258.3190
595.4445, 258.6000
597.3729, 258.9560
599.3014, 259.4415
601.2299, 259.6815
603.1583, 259.3880
605.0868, 258.9692
607.0153, 258.7522
608.9437, 258.7169
610.8722, 258.9506
612.8007, 259.5467
614.7291, 260.4089
616.6576, 261.3455
618.5861, 262.4310
620.5145, 263.4354
622.4430, 264.3568
624.3715, 265.1668
626.2999, 265.5598
628.2284, 264.7302
630.1569, 264.1644
632.0853, 264.5477
634.0138, 265.8087
635.9423, 267.0844
637.8707, 268.6466
639.7992, 269.8316
641.7277, 270.1977
643.6561, 269.2741
645.5846, 268.6154
647.5131, 268.4955
649.4415, 268.6304
651.3700, 268.6573
653.2985, 268.5038
655.2269, 268.6833
657.1554, 269.4780
659.0839, 270.6865
661.0123, 271.9521
662.9408, 273.2285
664.8693, 274.5681
666.7977, 275.9628
668.7262, 277.3795
670.6547, 278.7785
672.5831, 280.1435
674.5116, 281.4560
676.4401, 282.6886
678.3685, 283.8242
680.2970, 285.0263
682.2255, 286.3777
684.1539, 287.7061
686.0824, 288.9681
688.0109, 290.1703
689.9393, 291.1024
691.8678, 291.3583
693.7963, 291.6135
695.7247, 292.3970
697.6532, 294.5700
699.5817, 295.6876
701.5101, 295.0706
703.4386, 293.8144
705.3671, 293.1218
707.2955, 293.1534
709.2240, 293.0224
711.1525, 292.2057
713.0809, 291.1656
715.0094, 290.5657
716.9379, 290.8748
718.8663, 291.0697
720.7948, 290.9814
722.7233, 290.7072
724.6517, 290.4480
726.5802, 290.0921
728.5087, 289.9613
730.4371, 290.1538
732.3656, 290.6337
734.2941, 291.2795
736.2225, 292.4991
738.1510, 293.4397
740.0795, 293.6315
742.0079, 293.2851
743.9364, 293.3268
745.8649, 294.2068
747.7933, 295.0081
749.7218, 295.2766
751.6503, 294.9443
753.5787, 294.8901
755.5072, 295.2886
757.4357, 295.7393
759.3641, 296.1626
761.2926, 296.5093
763.2211, 296.3136
765.1495, 294.9965
767.0780, 293.5907
769.0065, 292.7237
770.9349, 292.6314
772.8634, 292.3289
774.7919, 291.7069
776.7203, 291.0547
778.6488, 290.4796
780.5773, 289.9638
782.5057, 289.9714
784.4342, 290.9980
786.3627, 292.2133
788.2911, 292.9586
790.2196, 292.8950
792.1481, 293.1196
794.0765, 293.9414
796.0050, 294.8321
797.9335, 295.1377
799.8619, 294.7149
801.7904, 295.0017
803.7189, 297.5340
805.6473, 300.1204
807.5758, 300.8104
809.5043, 298.7443
811.4327, 297.0472
813.3612, 295.9601
815.2897, 295.3083
817.2181, 295.0104
819.1466, 295.1344
821.0751, 295.1271
823.0035, 294.7579
824.9320, 294.3057
826.8605, 294.1000
828.7889, 294.3828
830.7174, 294.3145
832.6459, 293.5010
834.5743, 292.5131
836.5028, 291.9702
838.4313, 291.9366
840.3597, 291.9999
842.2882, 292.3795
844.2167, 292.5845
846.1451, 292.1180
848.0736, 290.7283
850.0021, 289.5101
851.9305, 288.6944
853.8590, 288.0947
855.7875, 287.5910
857.7159, 287.3317
859.6444, 286.8729
861.5729, 285.9492
863.5013, 285.0133
865.4298, 284.4789
867.3583, 284.4104
869.2867, 284.3398
871.2152, 283.9588
873.1437, 283.6888
875.0721, 283.9726
877.0006, 285.4208
878.9291, 285.9302
880.8575, 284.4559
882.7860, 282.7879
884.7145, 282.4703
886.6429, 283.4962
888.5714, 284.2906
890.4999, 284.3225
892.4283, 284.1955
894.3568, 284.2475
896.2853, 284.5192
898.2137, 284.7630
900.1422, 285.0126
902.0707, 285.1896
903.9991, 285.2104
905.9276, 285.0986
907.8561, 285.0692
909.7845, 285.3568
911.7130, 285.5229
913.6415, 285.2523
915.5699, 284.5232
917.4984, 284.2107
919.4269, 284.6547
921.3553, 285.1501
923.2838, 285.4565
925.2123, 285.5630
927.1407, 285.6342
929.0692, 285.8654
930.9976, 285.7369
932.9261, 284.7277
934.8546, 283.1990
936.7830, 282.1731
938.7115, 282.1997
940.6400, 282.0407
942.5684, 281.1943
944.4969, 279.9995
946.4254, 279.3039
948.3538, 279.1661
950.2823, 279.3634
952.2108, 280.0828
954.1392, 281.0184
956.0677, 281.8080
957.9962, 282.4592
959.9246, 282.8483
961.8531, 282.6342
963.7816, 282.3066
965.7100, 282.3415
967.6385, 282.9419
969.5670, 283.4808
971.4954, 284.0063
973.4239, 284.4096
975.3524, 284.5043
977.2808, 284.3051
979.2093, 284.2818
981.1378, 284.7513
983.0662, 285.1646
984.9947, 285.1873
986.9232, 284.8194
988.8516, 284.7412
990.7801, 285.2747
992.7086, 285.8138
994.6370, 286.0682
996.5655, 286.1245
998.4940, 286.4656
1000.422, 287.3023
1002.351, 287.9009
1004.279, 287.7486
1006.208, 287.1952
1008.136, 286.8539
1010.065, 286.8820
1011.993, 286.7706
1013.922, 286.4828
1015.850, 286.0729
1017.779, 285.5835
1019.707, 284.9746
1021.636, 284.5479
1023.564, 284.4453
1025.493, 284.4617
1027.421, 284.3286
1029.349, 284.0563
1031.278, 284.1756
1033.206, 284.7965
1035.135, 285.7097
1037.063, 286.8994
1038.992, 288.3218
1040.920, 289.5199
1042.849, 290.7541
1044.777, 291.4373
1046.706, 291.2734
1048.634, 290.4972
1050.563, 289.4828
1052.491, 287.8516
1054.420, 287.0778
1056.348, 288.4337
1058.276, 290.2719
1060.205, 291.1432
1062.133, 291.0011
1064.062, 290.2463
1065.990, 288.1292
1067.919, 286.1697
1069.847, 285.1997
1071.776, 285.2729
1073.704, 285.5580
1075.633, 286.4409
1077.561, 287.0170
1079.490, 286.5648
1081.418, 285.5691
1083.347, 285.3584
1085.275, 286.3397
1087.203, 287.0356
1089.132, 286.7192
1091.060, 286.0949
1092.989, 285.9077
1094.917, 286.3650
1096.846, 286.7861
1098.774, 286.7899
1100.703, 287.0326
1102.631, 288.1403
1104.560, 290.1022
1106.488, 291.2255
1108.417, 291.0205
1110.345, 290.5114
1112.273, 290.0306
1114.202, 289.5135
1116.130, 288.7961
1118.059, 287.7696
1119.987, 287.0369
1121.916, 287.0751
1123.844, 287.3585
1125.773, 287.3735
1127.701, 286.9091
1129.630, 286.8729
1131.558, 287.6081
1133.487, 288.3521
1135.415, 288.5514
1137.344, 288.3262
1139.272, 288.5836
1141.200, 289.5080
1143.129, 290.4712
1145.057, 291.2274
1146.986, 291.8709
1148.914, 292.5415
1150.843, 293.2535
1152.771, 293.8925
1154.700, 294.6609
1156.628, 295.1626
1158.557, 295.1430
1160.485, 294.6021
1162.414, 293.8788
1164.342, 292.5518
1166.271, 291.6300
1168.199, 291.5717
1170.127, 292.0858
1172.056, 292.6171
1173.984, 293.1888
1175.913, 293.7387
1177.841, 294.2281
1179.770, 294.7182
1181.698, 295.2094
1183.627, 295.6902
1185.555, 296.2870
1187.484, 297.1942
1189.412, 297.9021
1191.341, 298.0710
1193.269, 297.9278
1195.198, 298.0176
1197.126, 298.5174
1199.054, 298.9650
1200.983, 299.4112
1202.911, 299.7864
1204.840, 299.9915
1206.768, 300.0677
1208.697, 300.2698
1210.625, 300.7135
1212.554, 301.1269
1214.482, 301.3394
1216.411, 301.4459
1218.339, 301.6317
1220.268, 301.9573
1222.196, 302.1183
1224.125, 301.7328
1226.053, 301.4897
1227.981, 302.0834
1229.910, 303.5238
1231.838, 304.0323
1233.767, 302.7859
1235.695, 301.7867
1237.624, 301.3310
1239.552, 301.3980
1241.481, 302.1198
1243.409, 303.5531
1245.338, 304.7308
1247.266, 305.3692
1249.195, 305.8706
1251.123, 306.6124
1253.052, 307.4218
1254.980, 307.6145
1256.908, 306.7697
1258.837, 306.2459
1260.765, 306.5209
1262.694, 307.0739
1264.622, 307.4256
1266.551, 307.4852
1268.479, 307.7835
1270.408, 308.8235
1272.336, 309.5072
1274.265, 309.1932
1276.193, 308.4297
1278.122, 308.3430
1280.050, 309.0812
1281.979, 309.7568
1283.907, 310.0476
1285.835, 310.3824
1287.764, 311.0466
1289.692, 311.9123
1291.621, 312.6821
1293.549, 313.3680
1295.478, 313.7894
1297.406, 313.7072
1299.335, 313.4806
1301.263, 313.3696
1303.192, 313.3774
1305.120, 313.6412
1307.049, 314.6066
1308.977, 315.3331
1310.906, 315.3872
1312.834, 315.1543
1314.762, 315.2742
1316.691, 315.8899
1318.619, 316.4095
1320.548, 316.7257
1322.476, 317.0121
1324.405, 317.2943
1326.333, 317.6029
1328.262, 318.0083
1330.190, 318.5015
1332.119, 319.1478
1334.047, 320.3282
1335.976, 321.3196
1337.904, 321.5812
1339.833, 321.2384
1341.761, 320.9737
1343.689, 320.7870
1345.618, 320.6866
1347.546, 320.6012
1349.475, 320.6176
1351.403, 320.9014
1353.332, 321.5196
1355.260, 321.8716
1357.189, 321.5722
1359.117, 321.5865
1361.046, 322.3510
1362.974, 323.4187
1364.903, 324.1909
1366.831, 324.5640
1368.760, 324.9623
1370.688, 325.6362
1372.616, 325.9207
1374.545, 325.3414
1376.473, 324.3377
1378.402, 323.6395
1380.330, 323.3222
1382.259, 322.8940
1384.187, 322.1978
1386.116, 321.6045
1388.044, 321.2723
1389.973, 321.1595
1391.901, 321.2107
1393.830, 321.4208
1395.758, 321.6439
1397.687, 321.7557
1399.615, 321.9297
1401.543, 322.4358
1403.472, 323.0504
1405.400, 323.0901
1407.329, 322.0565
1409.257, 321.5107
1411.186, 322.0057
1413.114, 322.4995
1415.043, 322.2862
1416.971, 321.6510
1418.900, 321.6245
1420.828, 322.7248
1422.757, 323.0536
1424.685, 321.3133
1426.614, 319.8384
1428.542, 320.2358
1430.470, 321.9391
1432.399, 323.2694
1434.327, 324.2286
1436.256, 324.9043
1438.184, 325.3218
1440.113, 325.4668
1442.041, 324.9680
1443.970, 324.2011
1445.898, 324.2376
1447.827, 325.3428
1449.755, 325.8553
1451.684, 324.7122
1453.612, 323.7104
1455.541, 323.9626
1457.469, 325.0982
1459.397, 326.0353
1461.326, 326.8922
1463.254, 327.3795
1465.183, 327.2752
1467.111, 327.0593
1469.040, 326.8155
1470.968, 326.6019
1472.897, 326.5954
1474.825, 326.9559
1476.754, 327.1214
1478.682, 326.9948
1480.611, 326.7865
1482.539, 326.3082
1484.468, 325.8994
1486.396, 326.2914
1488.324, 327.7718
1490.253, 328.8849
1492.181, 329.3384
1494.110, 329.6307
1496.038, 329.7853
1497.967, 329.9020
1499.895, 330.2672
1501.824, 330.9038
1503.752, 331.0414
1505.681, 330.1910
1507.609, 329.7941
1509.538, 331.1940
1511.466, 332.7963
1513.395, 332.6025
1515.323, 330.9901
1517.251, 330.5656
1519.180, 331.8910
1521.108, 333.2670
1523.037, 334.0546
1524.965, 334.6573
1526.894, 335.3567
1528.822, 336.0789
1530.751, 336.6390
1532.679, 337.0334
1534.608, 337.3976
1536.536, 338.0554
1538.465, 338.5681
1540.393, 338.5231
1542.322, 338.2965
1544.250, 338.8207
1546.178, 340.2663
1548.107, 341.6873
1550.035, 342.7892
1551.964, 343.8401
1553.892, 344.8771
1555.821, 345.7857
1557.749, 346.4344
1559.678, 346.7813
1561.606, 347.1184
1563.535, 347.3900
1565.463, 347.8749
1567.392, 349.1036
1569.320, 350.2350
1571.249, 350.3531
1573.177, 349.5767
1575.105, 349.1758
1577.034, 349.4281
1578.962, 349.5721
1580.891, 349.9291
1582.819, 349.8633
1584.748, 348.7043
1586.676, 347.0579
1588.605, 346.2225
1590.533, 346.4934
1592.462, 346.7230
1594.390, 346.8557
1596.319, 346.9583
1598.247, 347.0534
1600.176, 347.0043
1602.104, 346.5432
1604.032, 345.6646
1605.961, 345.0877
1607.889, 345.2017
1609.818, 344.6538
1611.746, 342.8639
1613.675, 340.7641
1615.603, 338.7343
1617.532, 336.8882
1619.460, 335.4676
1621.389, 334.5209
1623.317, 333.6698
1625.246, 333.0576
1627.174, 332.2190
1629.103, 330.7795
1631.031, 329.1352
1632.959, 327.5758
1634.888, 326.1164
1636.816, 324.9244
1638.745, 324.0011
1640.673, 323.3781
1642.602, 323.3457
1644.530, 323.3225
1646.459, 323.0775
1648.387, 322.6415
1650.316, 321.9850
1652.244, 321.1181
1654.173, 320.3562
1656.101, 319.6717
1658.030, 319.1533
1659.958, 318.9399
1661.886, 318.7343
1663.815, 318.2592
1665.743, 317.6489
1667.672, 317.2700
1669.600, 317.1952
1671.529, 316.9965
1673.457, 316.4976
1675.386, 316.1545
1677.314, 316.2174
1679.243, 316.4816
1681.171, 316.7336
1683.100, 316.9695
1685.028, 317.2856
1686.957, 317.6890
1688.885, 317.9746
1690.813, 318.1314
1692.742, 318.0933
1694.670, 317.8826
1696.599, 317.4337
1698.527, 316.4391
1700.456, 315.0560
1702.384, 314.4384
1704.313, 314.8842
1706.241, 315.3354
1708.170, 315.7184
1710.098, 315.8260
1712.027, 315.4681
1713.955, 314.8379
1715.884, 314.0591
1717.812, 313.1761
1719.740, 312.6732
1721.669, 312.5991
1723.597, 312.8043
1725.526, 313.3598
1727.454, 313.9564
1729.383, 314.4165
1731.311, 314.7440
1733.240, 315.0932
1735.168, 315.4444
1737.097, 315.0820
1739.025, 313.6117
1740.954, 312.5684
1742.882, 312.5922
1744.811, 312.9951
1746.739, 313.5772
1748.667, 314.1534
1750.596, 314.3493
1752.524, 314.1874
1754.453, 314.2671
1756.381, 314.7871
1758.310, 315.1058
1760.238, 314.8394
1762.167, 314.5544
1764.095, 314.6190
1766.024, 314.4145
1767.952, 314.3336
1769.880, 314.3723
1771.809, 314.2374
1773.737, 314.4254
1775.666, 314.5458
1777.594, 314.7356
1779.523, 314.6212
1781.451, 313.6147
1783.380, 312.4952
1785.308, 312.4718
1787.237, 313.3863
1789.165, 313.8974
1791.094, 313.9212
1793.022, 313.7063
1794.951, 312.9091
1796.879, 312.3594
1798.807, 312.6942
1800.736, 313.2076
1802.664, 313.0309
1804.593, 312.3462
1806.521, 312.1070
1808.450, 312.4339
1810.378, 312.6737
1812.307, 312.6226
1814.235, 312.6447
1816.164, 312.8742
1818.092, 313.1356
1820.021, 313.3760
1821.949, 313.5328
1823.878, 313.4109
1825.806, 312.9647
1827.734, 312.6600
1829.663, 312.5595
1831.591, 312.5878
1833.520, 312.9532
1835.448, 313.2176
1837.377, 313.0305
1839.305, 312.6434
1841.234, 312.3869
1843.162, 312.2326
1845.091, 312.1210
1847.019, 312.1664
1848.948, 311.9213
1850.876, 310.8618
1852.805, 310.2074
1854.733, 310.4084
1856.661, 311.0774
1858.590, 312.2618
1860.518, 313.6115
1862.447, 314.0405
1864.375, 313.4759
1866.304, 312.9532
1868.232, 312.4857
1870.161, 312.1580
1872.089, 312.0707
1874.018, 312.0085
1875.946, 311.7745
1877.875, 311.5829
1879.803, 311.7787
1881.732, 312.2159
1883.660, 312.2093
1885.589, 311.6450
1887.517, 311.7961
1889.445, 313.3377
1891.374, 314.3902
1893.302, 313.9008
1895.231, 313.2098
1897.159, 313.3623
1899.088, 313.7509
1901.016, 313.3403
1902.945, 312.2793
1904.873, 311.5588
1906.802, 311.1961
1908.730, 311.1927
1910.659, 311.8133
1912.587, 312.3979
1914.516, 312.9339
1916.444, 313.1974
1918.372, 312.7447
1920.301, 312.0555
1922.229, 312.1753
1924.158, 311.8251
1926.086, 311.5172
1928.015, 311.9107
1929.943, 311.2523
1931.872, 311.8013
1933.800, 312.3106
1935.729, 312.6720
1937.657, 312.6664
1939.586, 311.7503
1941.514, 310.6103
1943.443, 310.6444
1945.371, 311.7752
1947.299, 312.2578
1949.228, 311.9053
1951.156, 311.7153
1953.085, 311.9657
1955.013, 312.0521
1956.942, 311.5933
1958.870, 311.1114
1960.799, 311.0371
1962.727, 310.6909
1964.656, 310.8780
1966.584, 310.4660
1968.513, 310.3705
1970.441, 310.5800
1972.370, 311.1855
1974.298, 312.7318
1976.226, 313.4951
1978.155, 312.4481
1980.083, 311.2545
1982.012, 310.6698
1983.940, 310.5189
1985.869, 310.8324
1987.797, 311.4121
1989.726, 311.4629
1991.654, 310.8434
1993.583, 310.4478
1995.511, 310.3337
1997.440, 310.2537
1999.368, 310.5453
2001.297, 310.3553
2003.225, 308.7168
2005.153, 307.2714
2007.082, 307.6916
2009.010, 308.8846
2010.939, 308.7398
2012.867, 307.5709
2014.796, 307.2024
2016.724, 307.7736
2018.653, 308.3263
2020.581, 308.7682
2022.510, 308.9981
2024.438, 308.9420
2026.367, 308.6772
2028.295, 308.0244
2030.224, 307.3573
2032.152, 306.9453
2034.080, 306.8441
2036.009, 307.3838
2037.937, 308.6093
2039.866, 309.0644
2041.794, 308.2252
2043.723, 307.6744
2045.651, 307.5641
2047.580, 307.5156
2049.508, 307.3846
2051.437, 307.3799
2053.365, 308.0042
2055.294, 308.4560
2057.222, 307.4562
2059.151, 307.7549
2061.079, 307.4231
2063.008, 306.7476
2064.936, 306.8886
2066.865, 305.6169
2068.793, 305.1916
2070.721, 306.4177
2072.650, 307.5228
2074.578, 307.8728
2076.507, 308.0175
2078.435, 308.1701
2080.364, 308.2398
2082.292, 308.1389
2084.220, 307.8778
2086.149, 307.4715
2088.077, 306.9417
2090.006, 306.4936
2091.934, 306.1298
2093.863, 305.9327
2095.791, 305.6237
2097.720, 306.1828
2099.648, 308.9793
2101.577, 310.7691
2103.505, 309.4111
2105.434, 307.4367
2107.362, 306.2491
2109.291, 305.9052
2111.219, 307.1974
2113.147, 309.3878
2115.076, 309.5795
2117.004, 307.6271
2118.933, 306.4450
2120.861, 306.2470
2122.790, 306.3680
2124.718, 307.0118
2126.647, 307.3993
2128.575, 307.3667
2130.504, 307.0370
2132.432, 306.3966
2134.361, 305.6981
2136.289, 305.1740
2138.218, 304.8359
2140.146, 304.6235
2142.074, 304.5645
2144.003, 304.8094
2145.931, 305.3307
2147.860, 305.7146
2149.788, 305.9297
2151.717, 305.7418
2153.645, 304.7817
2155.574, 303.9839
2157.502, 303.4613
2159.431, 303.4257
2161.359, 304.4884
2163.288, 305.6266
2165.216, 305.8348
2167.145, 305.5018
2169.073, 305.1859
2171.001, 304.9116
2172.930, 304.9728
2174.858, 305.3576
2176.787, 305.2682
2178.715, 304.4987
2180.644, 304.2368
2182.572, 304.9894
2184.501, 305.3698
2186.429, 304.5171
2188.358, 303.9345
2190.286, 304.5257
2192.215, 305.3667
2194.143, 305.7612
2196.072, 306.0627
2198.000, 307.1190
2199.928, 308.2903
2201.857, 307.5401
2203.785, 304.9978
2205.714, 303.8207
2207.642, 304.1371
2209.571, 304.3127
2211.499, 304.1913
2213.428, 304.1836
2215.356, 304.5548
2217.285, 304.5843
2219.213, 303.5004
2221.142, 302.6913
2223.070, 303.0065
2224.999, 303.5301
2226.927, 303.5924
2228.855, 303.4521
2230.784, 303.5443
2232.712, 303.6818
2234.641, 303.1621
2236.569, 302.1337
2238.498, 302.0885
2240.426, 303.0509
2242.355, 303.8194
2244.283, 304.2972
2246.212, 304.5251
2248.140, 304.5894
2250.069, 304.1823
2251.997, 302.5690
2253.926, 301.4533
2255.854, 301.7713
2257.782, 302.3553
2259.711, 302.6836
2261.639, 302.7718
2263.568, 302.5342
2265.496, 302.1080
2267.425, 301.6230
2269.353, 301.1707
2271.282, 301.2530
2273.210, 301.7146
2275.139, 301.1176
2277.067, 299.3175
2278.996, 298.6628
2280.924, 299.8093
2282.853, 300.6172
2284.781, 300.8931
2286.709, 300.7104
2288.638, 299.5883
2290.566, 298.6756
2292.495, 298.2913
2294.423, 298.2594
2296.352, 298.6393
2298.280, 299.2207
2300.209, 300.2811
2302.137, 301.1034
2304.066, 300.3836
2305.994, 298.9557
2307.923, 298.5732
2309.851, 299.0741
2311.780, 299.8063
2313.708, 300.7983
2315.636, 301.2151
2317.565, 300.9575
2319.493, 300.6566
2321.422, 300.3755
2323.350, 299.9945
2325.279, 299.3658
2327.207, 299.1549
2329.136, 299.9600
2331.064, 300.4872
2332.993, 299.7518
2334.921, 299.2236
2336.850, 299.9462
2338.778, 300.7878
2340.707, 301.0122
2342.635, 300.7509
2344.563, 299.8426
2346.492, 298.7774
2348.420, 298.3936
2350.349, 298.5780
2352.277, 299.2577
2354.206, 300.2462
2356.134, 300.1977
2358.063, 298.9119
2359.991, 298.9524
2361.920, 301.2144
2363.848, 301.8459
2365.777, 299.9660
2367.705, 298.7209
2369.634, 298.6393
2371.562, 298.6237
2373.490, 298.6343
2375.419, 298.3335
2377.347, 297.3232
2379.276, 296.4033
2381.204, 296.0201
2383.133, 295.7311
2385.061, 294.8532
2386.990, 294.3692
2388.918, 295.8701
2390.847, 295.2535
2392.775, 297.3029
2394.704, 295.9596
2396.632, 296.1101
2398.561, 296.9723
2400.489, 296.2627
2402.417, 294.3374
2404.346, 293.5680
2406.274, 294.0146
2408.203, 294.0993
2410.131, 293.7623
2412.060, 293.5147
2413.988, 293.3646
2415.917, 293.3213
2417.845, 293.3517
2419.774, 293.4951
2421.702, 293.7849
2423.631, 293.9779
2425.559, 293.7844
2427.488, 293.8384
2429.416, 294.6212
2431.344, 295.2885
2433.273, 295.7373
2435.201, 295.6822
2437.130, 294.2735
2439.058, 293.1044
2440.987, 293.7186
2442.915, 294.5201
2444.844, 293.9063
2446.772, 292.8361
2448.701, 292.4328
2450.629, 292.4948
2452.558, 292.7829
2454.486, 293.1859
2456.415, 293.2625
2458.343, 293.1280
2460.271, 293.5157
2462.200, 294.2574
2464.128, 294.5249
2466.057, 294.2821
2467.985, 293.9131
2469.914, 293.3959
2471.842, 293.0503
2473.771, 293.0172
2475.699, 292.9194
2477.628, 292.8731
2479.556, 292.2906
2481.485, 290.7549
2483.413, 290.1536
2485.342, 291.2964
2487.270, 292.1587
2489.198, 291.9652
2491.127, 291.7780
2493.055, 292.0074
2494.984, 292.1216
2496.912, 291.8673
2498.841, 291.6200
2500.769, 291.5133
2502.698, 291.4312
2504.626, 291.1258
2506.555, 290.9809
2508.483, 291.6617
2510.412, 292.1461
2512.340, 291.3040
2514.269, 290.1390
2516.197, 289.6487
2518.125, 289.5335
2520.054, 289.4442
2521.982, 289.4292
2523.911, 289.6037
2525.839, 289.8336
2527.768, 289.9079
2529.696, 289.8434
2531.625, 289.7049
2533.553, 289.5256
2535.482, 289.2703
2537.410, 289.0412
2539.339, 289.4758
2541.267, 290.3837
2543.196, 290.4506
2545.124, 289.6272
2547.052, 288.9215
2548.981, 288.1834
2550.909, 288.9649
2552.838, 291.7335
2554.766, 292.8283
2556.695, 292.0876
2558.623, 290.7904
2560.552, 288.9278
2562.480, 287.8961
2564.409, 288.1862
2566.337, 288.3895
2568.266, 288.4097
2570.194, 288.2614
2572.123, 287.8460
2574.051, 287.5044
2575.979, 287.2726
2577.908, 287.1163
2579.836, 286.9805
2581.765, 287.0019
2583.693, 287.2601
2585.622, 287.5818
2587.550, 287.9412
2589.479, 288.3160
2591.407, 288.8617
2593.336, 289.0585
2595.264, 288.5900
2597.193, 287.9744
2599.121, 287.1441
2601.050, 286.6801
2602.978, 287.3739
2604.906, 287.7915
2606.835, 286.7984
2608.763, 286.0179
2610.692, 286.6062
2612.620, 287.0789
2614.549, 286.0924
2616.477, 285.2334
2618.406, 285.6618
2620.334, 286.4444
2622.263, 287.3473
2624.191, 287.8109
2626.120, 287.0253
2628.048, 286.0875
2629.977, 285.6264
2631.905, 285.6331
2633.833, 286.3555
2635.762, 287.1975
2637.690, 287.8326
2639.619, 287.9633
2641.547, 286.8456
2643.476, 285.5223
2645.404, 285.0176
2647.333, 285.0569
2649.261, 285.7378
2651.190, 286.4442
2653.118, 286.0520
2655.047, 285.4653
2656.975, 285.9373
2658.904, 286.9194
2660.832, 288.0822
2662.760, 288.8911
2664.689, 288.5084
2666.617, 287.4393
2668.546, 285.8763
2670.474, 284.6160
2672.403, 285.5892
2674.331, 284.8987
2676.260, 286.8995
2678.188, 285.7724
2680.117, 286.0778
2682.045, 287.0612
2683.974, 287.5704
2685.902, 287.7068
2687.831, 287.4819
2689.759, 287.1244
2691.688, 287.1335
2693.616, 286.9574
2695.544, 287.1322
2697.473, 286.8788
2699.401, 286.8654
2701.330, 286.9253
2703.258, 286.7162
2705.187, 286.3551
2707.115, 285.9694
2709.044, 285.6304
2710.972, 285.5091
2712.901, 285.4546
2714.829, 285.0197
2716.758, 284.6111
2718.686, 285.1060
2720.615, 286.0615
2722.543, 287.0302
2724.471, 287.6584
2726.400, 286.8195
2728.328, 285.7459
2730.257, 287.0690
2732.185, 286.0871
2734.114, 287.9438
2736.042, 285.8773
2737.971, 285.3324
2739.899, 285.4375
2741.828, 284.9367
2743.756, 284.5502
2745.685, 285.6252
2747.613, 287.0289
2749.542, 287.2763
2751.470, 286.9449
2753.398, 286.6551
2755.327, 286.2284
2757.255, 285.2584
2759.184, 284.3216
2761.112, 284.2306
2763.041, 284.3398
2764.969, 283.6990
2766.898, 283.3140
2768.826, 284.7314
2770.755, 285.9233
2772.683, 284.1181
2774.612, 282.5302
2776.540, 284.6592
2778.469, 286.9254
2780.397, 286.7317
2782.325, 285.8721
2784.254, 285.2550
2786.182, 284.7734
2788.111, 284.3950
2790.039, 284.1441
2791.968, 284.1539
2793.896, 284.2057
2795.825, 284.2677
2797.753, 284.2995
2799.682, 284.3645
2801.610, 284.2593
2803.539, 283.4513
2805.467, 283.1529
2807.396, 283.9732
2809.324, 284.6598
2811.252, 284.8243
2813.181, 284.6555
2815.109, 284.0214
2817.038, 283.3930
2818.966, 282.6806
2820.895, 282.6470
2822.823, 282.1132
2824.752, 281.5666
2826.680, 281.9485
2828.609, 280.8068
2830.537, 281.5328
2832.466, 282.0770
2834.394, 282.3357
2836.323, 282.0946
2838.251, 281.1810
2840.179, 280.9215
2842.108, 281.6371
2844.036, 282.2021
2845.965, 282.6362
2847.893, 282.6577
2849.822, 283.0154
2851.750, 282.4081
2853.679, 282.9754
2855.607, 282.8010
2857.536, 282.0174
2859.464, 282.5140
2861.393, 282.2355
2863.321, 282.3754
2865.250, 282.6967
2867.178, 282.9590
2869.106, 283.9540
2871.035, 284.5542
2872.963, 284.6987
2874.892, 283.8054
2876.820, 282.7600
2878.749, 282.9303
2880.677, 283.5922
2882.606, 284.0766
2884.534, 284.3444
2886.463, 284.1006
2888.391, 283.9616
2890.320, 284.7220
2892.248, 285.3019
2894.177, 284.6368
2896.105, 284.0201
2898.033, 284.5320
2899.962, 284.6061
2901.890, 283.0970
2903.819, 282.1142
2905.747, 283.0386
2907.676, 283.5735
2909.604, 282.9736
2911.533, 282.5438
2913.461, 282.5367
2915.390, 282.5646
2917.318, 282.4829
2919.247, 282.7826
2921.175, 283.7840
2923.104, 283.6561
2925.032, 283.6207
2926.960, 283.5500
2928.889, 282.8090
2930.817, 282.9091
2932.746, 282.3044
2934.674, 282.3317
2936.603, 282.7842
2938.531, 282.5963
2940.460, 282.1440
2942.388, 282.7427
2944.317, 283.5989
2946.245, 282.7109
2948.174, 281.3608
2950.102, 281.3995
2952.031, 281.9632
2953.959, 282.4748
2955.887, 282.7364
2957.816, 282.1754
2959.744, 281.8818
2961.673, 282.9296
2963.601, 283.5034
2965.530, 282.0958
2967.458, 281.0869
2969.387, 281.6060
2971.315, 282.0667
2973.244, 282.4123
2975.172, 281.9200
2977.101, 279.8890
2979.029, 278.8471
2980.958, 279.0777
2982.886, 279.7110
2984.814, 280.6873
2986.743, 281.2497
2988.671, 281.3429
2990.600, 281.1362
2992.528, 280.6723
2994.457, 279.9655
2996.385, 279.2959
2998.314, 279.4596
3000.242, 280.0485
3002.171, 280.7289
3004.099, 281.0812
3006.028, 280.0706
3007.956, 279.1143
3009.885, 279.4550
3011.813, 280.0282
3013.741, 280.3251
3015.670, 280.3806
3017.598, 279.9524
3019.527, 279.8586
3021.455, 280.5425
3023.384, 280.9591
3025.312, 280.7345
3027.241, 280.5417
3029.169, 280.4595
3031.098, 279.7771
3033.026, 279.8925
3034.955, 279.7052
3036.883, 279.6330
3038.812, 279.7907
3040.740, 279.8661
3042.668, 279.6275
3044.597, 280.3611
3046.525, 281.0291
3048.454, 281.4419
3050.382, 281.2160
3052.311, 280.7612
3054.239, 280.1633
3056.168, 279.8615
3058.096, 280.2518
3060.025, 280.8357
3061.953, 281.6775
3063.882, 282.0175
3065.810, 281.3438
3067.739, 281.1971
3069.667, 282.1601
3071.595, 282.9034
3073.524, 283.4276
3075.452, 282.9394
3077.381, 281.4914
3079.309, 280.3079
3081.238, 279.4370
3083.166, 279.2042
3085.095, 279.4035
3087.023, 279.7002
3088.952, 280.1254
3090.880, 281.1089
3092.809, 281.7802
3094.737, 281.4107
3096.666, 280.6418
3098.594, 279.0981
3100.522, 278.4355
3102.451, 279.9655
3104.379, 280.7957
3106.308, 280.4749
3108.236, 280.0532
3110.165, 279.5796
3112.093, 279.6390
3114.022, 280.2286
3115.950, 280.5714
3117.879, 280.6685
3119.807, 280.4071
3121.736, 280.0227
3123.664, 279.9094
3125.593, 279.9757
3127.521, 280.1788
3129.449, 280.3760
3131.378, 280.3009
3133.306, 280.4384
3135.235, 280.5139
3137.163, 280.4339
3139.092, 280.8290
3141.020, 280.4696
3142.949, 280.9104
3144.877, 281.3012
3146.806, 281.6210
3148.734, 281.2624
3150.663, 281.2474
3152.591, 280.3352
3154.520, 280.5309
3156.448, 279.8155
3158.376, 279.3117
3160.305, 280.6332
3162.233, 282.0877
3164.162, 282.3279
3166.090, 282.4731
3168.019, 282.9704
3169.947, 283.1444
3171.876, 282.5143
3173.804, 282.1724
3175.733, 282.1956
3177.661, 282.1452
3179.590, 282.0644
3181.518, 282.4853
3183.447, 283.1480
3185.375, 283.0669
3187.303, 282.6254
3189.232, 281.9676
3191.160, 281.7912
3193.089, 283.4413
3195.017, 284.5420
3196.946, 283.6959
3198.874, 283.0324
3200.803, 283.4252
3202.731, 283.4384
3204.660, 282.7229
3206.588, 283.5004
3208.517, 283.6613
3210.445, 285.8051
3212.374, 284.8036
3214.302, 285.0479
3216.230, 285.5460
3218.159, 283.8462
3220.087, 282.9874
3222.016, 287.2628
3223.944, 290.3371
3225.873, 289.0391
3227.801, 287.7380
3229.730, 287.6502
3231.658, 287.6634
3233.587, 287.6979
3235.515, 287.8645
3237.444, 288.1943
3239.372, 288.7457
3241.301, 289.4776
3243.229, 290.4276
3245.157, 291.2890
3247.086, 291.4551
3249.014, 291.7627
3250.943, 292.9795
3252.871, 294.0866
3254.800, 294.9113
3256.728, 295.2969
3258.657, 295.0548
3260.585, 295.3512
3262.514, 296.2133
3264.442, 297.0438
3266.371, 298.0436
3268.299, 300.2479
3270.228, 302.3956
3272.156, 302.1671
3274.084, 301.7129
3276.013, 302.5367
3277.941, 303.4068
3279.870, 303.7878
3281.798, 304.5257
3283.727, 305.7876
3285.655, 307.1033
3287.584, 308.4446
3289.512, 309.6387
3291.441, 310.9012
3293.369, 312.0054
3295.298, 313.2846
3297.226, 314.4701
3299.155, 315.5959
3301.083, 316.5641
3303.011, 317.7426
3304.940, 319.2063
3306.868, 321.2550
3308.797, 322.3916
3310.725, 325.3546
3312.654, 325.4271
3314.582, 326.4969
3316.511, 328.4619
3318.439, 331.5783
3320.368, 334.8293
3322.296, 337.2527
3324.225, 339.4679
3326.153, 341.6083
3328.082, 344.0346
3330.010, 346.8138
3331.938, 350.1675
3333.867, 354.1402
3335.795, 357.4581
3337.724, 360.6349
3339.652, 365.8376
3341.581, 371.0607
3343.509, 372.8745
3345.438, 374.6127
3347.366, 378.5961
3349.295, 382.3610
3351.223, 385.0063
3353.152, 388.1743
3355.080, 391.9987
3357.009, 395.3163
3358.937, 398.2255
3360.865, 400.7630
3362.794, 403.9075
3364.722, 409.2756
3366.651, 415.3489
3368.579, 421.1346
3370.508, 427.0925
3372.436, 433.3506
3374.365, 439.6003
3376.293, 445.7256
3378.222, 452.3125
3380.150, 459.4009
3382.079, 467.5129
3384.007, 475.7483
3385.936, 481.9038
3387.864, 488.9325
3389.792, 499.4913
3391.721, 509.4369
3393.649, 516.5759
3395.578, 524.8870
3397.506, 534.5266
3399.435, 545.0626
3401.363, 555.3817
3403.292, 561.3116
3405.220, 564.8912
3407.148, 569.1389
3409.077, 571.6364
3411.005, 569.6163
3412.934, 567.9766
3414.862, 567.8393
3416.791, 566.2292
3418.719, 562.9384
3420.648, 557.2409
3422.576, 550.2968
3424.505, 544.1732
3426.433, 539.0461
3428.362, 535.3732
3430.290, 532.3694
3432.219, 529.7519
3434.147, 527.5948
3436.075, 526.0544
3438.004, 523.3568
3439.932, 519.6807
3441.861, 515.9134
3443.789, 512.3436
3445.718, 509.9634
3447.646, 507.2873
3449.575, 503.3127
3451.503, 499.2443
3453.432, 495.4798
3455.360, 490.9033
3457.289, 485.5208
3459.217, 480.9154
3461.146, 476.7594
3463.074, 473.3586
3465.002, 468.5524
3466.931, 459.2727
3468.859, 450.4830
3470.788, 443.5956
3472.716, 437.5970
3474.645, 432.4622
3476.573, 425.6288
3478.502, 419.6283
3480.430, 412.1081
3482.359, 406.7554
3484.287, 400.1094
3486.216, 393.7171
3488.144, 388.1512
3490.073, 382.9291
3492.001, 377.7932
3493.929, 374.3878
3495.858, 369.4463
3497.786, 366.8365
3499.715, 361.4741
3501.643, 358.7618
3503.572, 356.0257
3505.500, 351.9154
3507.429, 348.1905
3509.357, 345.0702
3511.286, 342.0109
3513.214, 339.1230
3515.143, 337.2266
3517.071, 335.3685
3519.000, 332.3083
3520.928, 329.0453
3522.856, 325.6089
3524.785, 323.4544
3526.713, 320.9079
3528.642, 318.5390
3530.570, 317.1007
3532.499, 314.8910
3534.427, 313.4568
3536.356, 312.9298
3538.284, 311.8260
3540.213, 310.3624
3542.141, 307.3659
3544.070, 307.1949
3545.998, 305.8317
3547.927, 303.8704
3549.855, 303.3003
3551.783, 303.1732
3553.712, 303.1877
3555.640, 302.1500
3557.569, 299.3912
3559.497, 297.6168
3561.426, 297.1176
3563.354, 297.8324
3565.283, 298.5305
3567.211, 296.4753
3569.140, 294.1612
3571.068, 293.4211
3572.997, 292.8581
3574.925, 292.1609
3576.854, 291.9260
3578.782, 292.0605
3580.710, 291.8010
3582.639, 291.2370
3584.567, 290.0752
3586.496, 289.3227
3588.424, 289.4899
3590.353, 289.7063
3592.281, 289.8720
3594.210, 289.4159
3596.138, 288.6977
3598.067, 288.6175
3599.995, 288.7686
3601.924, 289.0348
3603.852, 288.8431
3605.781, 287.5982
3607.709, 287.0433
3609.637, 287.2309
3611.566, 288.9113
3613.494, 290.5602
3615.423, 289.3809
3617.351, 288.2412
3619.280, 288.5535
3621.208, 288.9573
3623.137, 289.2999
3625.065, 288.8836
3626.994, 288.1784
3628.922, 288.3842
3630.851, 288.7433
3632.779, 288.5721
3634.708, 288.7909
3636.636, 289.7657
3638.564, 290.3777
3640.493, 290.5927
3642.421, 290.6657
3644.350, 290.2817
3646.278, 288.5264
3648.207, 287.4921
3650.135, 288.7096
3652.064, 289.0790
3653.992, 288.6724
3655.921, 288.9431
3657.849, 289.2383
3659.778, 287.8550
3661.706, 287.1146
3663.635, 288.7966
3665.563, 289.8604
3667.491, 290.0940
3669.420, 290.3008
3671.348, 290.5421
3673.277, 290.9814
3675.205, 291.3651
3677.134, 291.5422
3679.062, 291.5668
3680.991, 291.4493
3682.919, 292.3892
3684.848, 294.0487
3686.776, 296.2549
3688.705, 297.3382
3690.633, 295.5664
3692.562, 293.5641
3694.490, 291.6702
3696.418, 291.7011
3698.347, 292.9226
3700.275, 292.9662
3702.204, 292.7333
3704.132, 293.1407
3706.061, 292.9587
3707.989, 293.2009
3709.918, 293.5023
3711.846, 293.4470
3713.775, 293.7442
3715.703, 293.4728
3717.632, 293.8013
3719.560, 292.6952
3721.489, 294.1381
3723.417, 294.7881
3725.345, 294.6862
3727.274, 293.7324
3729.202, 293.3205
3731.131, 295.0619
3733.059, 296.2344
3734.988, 296.0387
3736.916, 295.2945
3738.845, 294.4645
3740.773, 295.2460
3742.702, 296.0717
3744.630, 295.7216
3746.559, 295.2020
3748.487, 294.5992
3750.416, 295.3682
3752.344, 296.8642
3754.272, 297.4518
3756.201, 297.5038
3758.129, 296.9965
3760.058, 297.0708
3761.986, 298.1026
3763.915, 298.3052
3765.843, 298.0835
3767.772, 298.3746
3769.700, 298.5121
3771.629, 298.0808
3773.557, 297.6792
3775.486, 297.3909
3777.414, 297.2169
3779.343, 297.2582
3781.271, 297.8765
3783.199, 298.3997
3785.128, 298.5343
3787.056, 298.8127
3788.985, 299.1883
3790.913, 297.4754
3792.842, 296.0207
3794.770, 298.2278
3796.699, 300.6208
3798.627, 302.3537
3800.556, 302.3545
3802.484, 301.1154
3804.413, 300.5294
3806.341, 300.4940
3808.270, 301.5009
3810.198, 301.8291
3812.126, 301.1395
3814.055, 300.5725
3815.983, 300.3300
3817.912, 300.8238
3819.840, 301.7367
3821.769, 303.1349
3823.697, 304.2651
3825.626, 305.0435
3827.554, 305.7652
3829.483, 306.0421
3831.411, 305.1860
3833.340, 304.1548
3835.268, 303.1110
3837.197, 303.1333
3839.125, 303.9893
3841.053, 305.0477
3842.982, 305.4611
3844.910, 303.9911
3846.839, 303.2503
3848.767, 303.5305
3850.696, 304.6459
3852.624, 305.9168
3854.553, 306.2383
3856.481, 306.2770
3858.410, 306.4779
3860.338, 305.6364
3862.267, 304.3463
3864.195, 305.6820
3866.124, 307.2441
3868.052, 306.6774
3869.980, 306.3255
3871.909, 306.7222
3873.837, 306.8203
3875.766, 306.8153
3877.694, 306.9657
3879.623, 307.5396
3881.551, 307.7171
3883.480, 308.0378
3885.408, 308.4351
3887.337, 308.6266
3889.265, 308.8371
3891.194, 309.1729
3893.122, 308.0649
3895.051, 310.1974
3896.979, 311.0899
3898.907, 311.0567
3900.836, 310.4713
3902.764, 309.9138
3904.693, 309.5665
3906.621, 309.5733
3908.550, 309.8126
3910.478, 309.7128
3912.407, 309.8448
3914.335, 310.8901
3916.264, 311.5428
3918.192, 311.6959
3920.121, 311.0375
3922.049, 310.5394
3923.978, 311.7348
3925.906, 312.3765
3927.834, 311.6111
3929.763, 311.2204
3931.691, 311.2076
3933.620, 311.6317
3935.548, 312.2165
3937.477, 312.7668
3939.405, 314.4104
3941.334, 316.4626
3943.262, 314.6003
3945.191, 312.8746
3947.119, 314.9769
3949.048, 315.7188
3950.976, 314.6552
3952.905, 314.6611
3954.833, 315.0883
3956.761, 315.2398
3958.690, 315.4154
3960.618, 315.6598
3962.547, 316.2028
3964.475, 316.9750
3966.404, 318.1384
3968.332, 318.9515
3970.261, 319.2422
3972.189, 318.2619
3974.118, 316.7080
3976.046, 316.0065
3977.975, 316.3368
3979.903, 317.6833
3981.832, 321.2119
3983.760, 320.0182
3985.688, 323.0419
3987.617, 319.4463
3989.545, 318.6757
3991.474, 318.7111
3993.402, 319.2210
3995.331, 319.2834
3997.259, 319.6570
3999.188, 321.7992
4001.116, 322.2504
4003.045, 320.8477
4004.973, 323.1979
4006.902, 325.5832
4008.830, 322.0574
4010.759, 320.6230
4012.687, 323.3258
4014.615, 323.7127
4016.544, 322.7881
4018.472, 321.5637
4020.401, 321.5287
4022.329, 323.6245
4024.258, 324.5693
4026.186, 324.7739
4028.115, 325.0501
4030.043, 325.1126
4031.972, 324.8201
4033.900, 324.9745
4035.829, 325.4232
4037.757, 325.5089
4039.686, 326.1104
4041.614, 327.8482
4043.542, 328.6536
4045.471, 328.6666
4047.399, 328.4286
4049.328, 328.2096
4051.256, 327.9721
4053.185, 328.6867
4055.113, 329.8997
4057.042, 330.2538
4058.970, 330.0335
4060.899, 330.8715
4062.827, 331.1022
4064.756, 331.4502
4066.684, 332.1187
4068.613, 331.9550
4070.541, 332.4948
4072.469, 330.9302
4074.398, 332.1523
4076.326, 331.3901
4078.255, 330.9596
4080.183, 332.9971
4082.112, 333.3110
4084.040, 332.5019
4085.969, 333.5331
4087.897, 334.5523
4089.826, 334.4297
4091.754, 334.5139
4093.683, 334.8484
4095.611, 335.2915
4097.540, 335.8775
4099.468, 336.7841
4101.396, 336.7827
4103.325, 336.0497
4105.253, 334.6436
4107.182, 334.0990
4109.110, 335.3736
4111.039, 336.7739
4112.967, 337.9693
4114.896, 338.3629
4116.824, 338.4023
4118.752, 338.2586
4120.681, 337.7310
4122.609, 337.3197
4124.538, 338.1734
4126.466, 339.1563
4128.395, 339.8693
4130.323, 340.3986
4132.252, 340.8709
4134.180, 341.8495
4136.109, 341.8548
4138.037, 342.2669
4139.966, 342.7558
4141.894, 342.6424
4143.823, 343.4017
4145.751, 343.8061
4147.680, 343.9027
4149.608, 344.6473
4151.537, 346.1876
4153.465, 346.3553
4155.394, 350.5875
4157.322, 347.3902
4159.250, 345.6488
4161.179, 345.5917
4163.107, 348.7625
4165.036, 349.9571
4166.964, 349.2418
4168.893, 349.7131
4170.821, 350.0614
4172.750, 349.0573
4174.678, 349.3017
4176.606, 350.5179
4178.535, 351.4832
4180.463, 352.6577
4182.392, 354.2303
4184.320, 355.7336
4186.249, 356.9265
4188.177, 357.5358
4190.106, 357.3341
4192.034, 358.8479
4193.963, 358.2621
4195.891, 360.6553
4197.820, 360.6183
4199.748, 360.4375
4201.677, 360.5560
4203.605, 360.7213
4205.534, 361.4002
4207.462, 363.1887
4209.391, 364.4389
4211.319, 364.9904
4213.248, 364.6095
4215.176, 364.4900
4217.104, 365.3065
4219.033, 366.1038
4220.961, 367.0434
4222.890, 369.0037
4224.818, 370.3198
4226.747, 370.4200
4228.675, 370.2238
4230.604, 370.4547
4232.532, 372.3921
4234.460, 374.0437
4236.389, 375.1249
4238.317, 375.5063
4240.246, 376.1182
4242.174, 377.7802
4244.103, 378.9673
##END=



