##NAMES=Pseudoboleite
##RRUFFID=R050162
##IDEAL CHEMISTRY=Pb_31_Cu_24_Cl_62_(OH)_48_
##LOCALITY=Margarita mine, Sierra Gorda, Antofagasta, Chile
##OWNER=RRUFF
##SOURCE=Jim McGlasson
##DESCRIPTION=Blue crust, associated with yellow penfieldite, R050163
##STATUS=The identification of this mineral has been confirmed by single-crystal X-ray diffraction
##URL=https://www.rruff.net/odr/rruff_sample/R050162
##DIFFRACTION SAMPLE DESCRIPTION=Single crystal, powder profile is calculated
##CELL PARAMETERS=a: 15.241 b: 15.241 c: 30.828 alpha: 90 beta: 90 gamma: 90 volume: 7161 crystal system: tetragonal
##FILETYPE=Raman Processed
##RAMAN WAVELENGTH=780

122.5981, 54.00081
124.5266, 52.89089
126.4550, 51.89711
128.3835, 50.95300
130.3120, 50.13012
132.2404, 49.53651
134.1689, 49.07439
136.0974, 48.55418
138.0258, 47.94553
139.9543, 47.29238
141.8828, 46.55173
143.8112, 45.80639
145.7397, 45.14936
147.6682, 44.49682
149.5966, 43.70544
151.5251, 42.75096
153.4536, 41.69708
155.3820, 40.43657
157.3105, 39.22573
159.2390, 38.26632
161.1674, 37.34766
163.0959, 36.21502
165.0244, 34.83904
166.9529, 33.35749
168.8813, 31.65281
170.8098, 30.06912
172.7383, 28.77832
174.6667, 27.59533
176.5952, 26.34098
178.5237, 25.02538
180.4521, 23.94240
182.3806, 23.14660
184.3091, 22.35530
186.2375, 21.50565
188.1660, 20.64929
190.0945, 19.76815
192.0229, 18.90858
193.9514, 18.22686
195.8799, 17.73499
197.8083, 17.24025
199.7368, 16.67407
201.6653, 16.19179
203.5937, 15.90308
205.5222, 15.68935
207.4506, 15.39379
209.3791, 15.02315
211.3076, 14.67992
213.2360, 14.35801
215.1645, 14.09943
217.0930, 14.02851
219.0214, 13.90802
220.9499, 13.50108
222.8784, 12.93976
224.8068, 12.60820
226.7353, 12.52499
228.6638, 12.37221
230.5922, 12.04264
232.5207, 11.68383
234.4492, 11.31391
236.3776, 10.94974
238.3061, 10.59200
240.2346, 10.25328
242.1630, 10.00580
244.0915, 9.916194
246.0200, 9.777239
247.9484, 9.546295
249.8769, 9.276227
251.8054, 8.950151
253.7338, 8.625095
255.6623, 8.395211
257.5908, 8.273198
259.5193, 8.124834
261.4477, 7.916029
263.3762, 7.716959
265.3047, 7.582829
267.2331, 7.422431
269.1616, 7.144920
271.0900, 6.794289
273.0185, 6.495028
274.9470, 6.236632
276.8754, 6.075550
278.8039, 6.085349
280.7324, 6.068959
282.6608, 5.921482
284.5893, 5.750932
286.5178, 5.658159
288.4462, 5.627802
290.3747, 5.552997
292.3032, 5.417292
294.2316, 5.289085
296.1601, 5.157115
298.0886, 5.063200
300.0170, 5.047534
301.9455, 5.062309
303.8740, 5.092463
305.8024, 5.124987
307.7309, 5.018064
309.6594, 4.741671
311.5878, 4.547743
313.5163, 4.510986
315.4448, 4.518613
317.3732, 4.551991
319.3017, 4.578312
321.2302, 4.541720
323.1586, 4.459599
325.0871, 4.446121
327.0156, 4.512383
328.9440, 4.551106
330.8725, 4.515828
332.8010, 4.483460
334.7294, 4.476784
336.6579, 4.488389
338.5864, 4.526208
340.5148, 4.575955
342.4433, 4.590937
344.3718, 4.567507
346.3002, 4.536273
348.2287, 4.476386
350.1572, 4.446160
352.0856, 4.494978
354.0141, 4.545508
355.9426, 4.518439
357.8710, 4.448428
359.7995, 4.415992
361.7280, 4.430871
363.6564, 4.382329
365.5849, 4.138403
367.5134, 4.007970
369.4418, 4.154924
371.3703, 4.299853
373.2988, 4.251779
375.2272, 4.097538
377.1557, 3.940617
379.0842, 3.781447
381.0126, 3.659645
382.9411, 3.597036
384.8696, 3.540034
386.7980, 3.495156
388.7265, 3.445221
390.6550, 3.370845
392.5834, 3.297887
394.5119, 3.239452
396.4404, 3.200901
398.3688, 3.218466
400.2973, 3.319519
402.2258, 3.395904
404.1542, 3.457384
406.0827, 3.467808
408.0112, 3.376656
409.9396, 3.281221
411.8681, 3.236187
413.7966, 3.225029
415.7250, 3.231280
417.6535, 3.253767
419.5820, 3.240777
421.5104, 3.177599
423.4389, 3.183052
425.3674, 3.329264
427.2958, 3.440459
429.2243, 3.394452
431.1528, 3.342233
433.0812, 3.427304
435.0097, 3.580260
436.9382, 3.618418
438.8666, 3.556487
440.7951, 3.547687
442.7236, 3.614942
444.6520, 3.673182
446.5805, 3.689285
448.5090, 3.708630
450.4374, 3.769180
452.3659, 3.817313
454.2944, 3.774185
456.2228, 3.691716
458.1513, 3.701708
460.0798, 3.790911
462.0082, 3.834783
463.9367, 3.817061
465.8652, 3.768455
467.7936, 3.680000
469.7221, 3.580410
471.6506, 3.462572
473.5790, 3.356568
475.5075, 3.276390
477.4360, 3.227660
479.3644, 3.244630
481.2929, 3.318271
483.2214, 3.307128
485.1498, 3.127749
487.0783, 3.048458
489.0068, 3.172002
490.9352, 3.254306
492.8637, 3.212830
494.7922, 3.134045
496.7206, 3.064095
498.6491, 2.999531
500.5776, 2.919617
502.5060, 2.833867
504.4345, 2.822204
506.3630, 2.923482
508.2914, 2.961126
510.2199, 2.912919
512.1484, 2.853639
514.0768, 2.807402
516.0053, 2.744703
517.9338, 2.601147
519.8622, 2.475236
521.7907, 2.481456
523.7192, 2.566043
525.6476, 2.589214
527.5761, 2.547866
529.5046, 2.493196
531.4330, 2.416383
533.3615, 2.406504
535.2900, 2.521085
537.2184, 2.575428
539.1469, 2.398057
541.0754, 2.282272
543.0038, 2.458638
544.9323, 2.689139
546.8608, 2.689452
548.7892, 2.535158
550.7177, 2.454006
552.6462, 2.439810
554.5746, 2.430397
556.5031, 2.421640
558.4316, 2.439740
560.3600, 2.503219
562.2885, 2.557223
564.2170, 2.622996
566.1454, 2.643212
568.0739, 2.523656
570.0024, 2.391509
571.9308, 2.415363
573.8593, 2.516754
575.7878, 2.526783
577.7162, 2.467090
579.6447, 2.451289
581.5732, 2.498303
583.5016, 2.491558
585.4301, 2.340032
587.3586, 2.275969
589.2870, 2.428978
591.2155, 2.521697
593.1440, 2.374365
595.0724, 2.219173
597.0009, 2.248118
598.9294, 2.350308
600.8578, 2.391662
602.7863, 2.390127
604.7148, 2.424366
606.6432, 2.502595
608.5717, 2.533612
610.5002, 2.491338
612.4286, 2.455277
614.3571, 2.414677
616.2856, 2.412126
618.2141, 2.481305
620.1425, 2.541741
622.0710, 2.544092
623.9995, 2.535327
625.9279, 2.537791
627.8564, 2.569037
629.7849, 2.671103
631.7133, 2.800880
633.6418, 2.820644
635.5703, 2.730911
637.4987, 2.657329
639.4271, 2.589566
641.3556, 2.606977
643.2841, 2.756193
645.2125, 2.854672
647.1410, 2.816243
649.0695, 2.785279
650.9979, 2.855713
652.9264, 2.913455
654.8549, 2.865458
656.7833, 2.795671
658.7118, 2.783380
660.6403, 2.812670
662.5687, 2.867829
664.4972, 2.939491
666.4257, 2.997882
668.3541, 3.043038
670.2826, 3.084231
672.2111, 3.127675
674.1395, 3.133019
676.0680, 3.050384
677.9965, 3.026827
679.9249, 3.176202
681.8534, 3.255601
683.7819, 3.130934
685.7103, 3.009057
687.6388, 3.009840
689.5673, 3.041326
691.4957, 3.021544
693.4242, 3.004599
695.3527, 3.074631
697.2811, 3.190990
699.2096, 3.238742
701.1381, 3.216406
703.0665, 3.183839
704.9950, 3.144713
706.9235, 3.105002
708.8519, 3.029828
710.7804, 3.006486
712.7089, 3.059138
714.6373, 3.141547
716.5658, 3.301745
718.4943, 3.376456
720.4227, 3.224302
722.3512, 3.082354
724.2797, 3.134306
726.2081, 3.230603
728.1366, 3.218670
730.0651, 3.173887
731.9935, 3.274451
733.9220, 3.447187
735.8505, 3.425648
737.7789, 3.228765
739.7074, 3.088147
741.6359, 3.012479
743.5643, 3.023103
745.4928, 3.126730
747.4213, 3.204350
749.3497, 3.243114
751.2782, 3.258854
753.2067, 3.264759
755.1351, 3.240939
757.0636, 3.113261
758.9921, 3.044740
760.9205, 3.190081
762.8490, 3.322172
764.7775, 3.277946
766.7059, 3.191416
768.6344, 3.165658
770.5629, 3.177691
772.4913, 3.230466
774.4198, 3.277894
776.3483, 3.209434
778.2767, 3.086797
780.2052, 3.057743
782.1337, 3.102682
784.0621, 3.173550
785.9906, 3.267318
787.9191, 3.325629
789.8475, 3.345774
791.7760, 3.330495
793.7045, 3.245518
795.6329, 3.204907
797.5614, 3.292382
799.4899, 3.335693
801.4183, 3.252710
803.3468, 3.198660
805.2753, 3.237454
807.2037, 3.275351
809.1322, 3.251369
811.0607, 3.238951
812.9891, 3.348536
814.9176, 3.454281
816.8461, 3.410876
818.7745, 3.313599
820.7030, 3.242538
822.6315, 3.192747
824.5599, 3.165417
826.4884, 3.156545
828.4169, 3.165738
830.3453, 3.184451
832.2738, 3.174601
834.2023, 3.151193
836.1307, 3.216427
838.0592, 3.371358
839.9877, 3.449403
841.9161, 3.440770
843.8446, 3.351083
845.7731, 3.173429
847.7015, 3.063733
849.6300, 3.026227
851.5585, 2.999653
853.4869, 2.984025
855.4154, 3.002954
857.3439, 3.084127
859.2723, 3.114356
861.2008, 3.012573
863.1293, 2.946382
865.0577, 3.049195
866.9862, 3.101182
868.9147, 2.952167
870.8431, 2.813748
872.7716, 2.805745
874.7001, 2.804773
876.6285, 2.720917
878.5570, 2.654114
880.4855, 2.683408
882.4139, 2.733375
884.3424, 2.770458
886.2709, 2.782826
888.1993, 2.731355
890.1278, 2.642917
892.0563, 2.523134
893.9847, 2.428644
895.9132, 2.537840
897.8417, 2.732844
899.7701, 2.681754
901.6986, 2.472836
903.6271, 2.414166
905.5555, 2.461826
907.4840, 2.395131
909.4125, 2.239637
911.3409, 2.208787
913.2694, 2.305040
915.1979, 2.400301
917.1263, 2.494587
919.0548, 2.528537
920.9833, 2.490864
922.9117, 2.429613
924.8402, 2.347494
926.7687, 2.275840
928.6971, 2.184325
930.6256, 2.147557
932.5541, 2.191959
934.4825, 2.256120
936.4110, 2.342662
938.3395, 2.378237
940.2679, 2.359586
942.1964, 2.339043
944.1249, 2.295152
946.0533, 2.268840
947.9818, 2.315455
949.9103, 2.292087
951.8387, 2.111017
953.7672, 1.999696
955.6957, 2.034891
957.6241, 2.101659
959.5526, 2.198270
961.4811, 2.254834
963.4095, 2.228138
965.3380, 2.180957
967.2665, 2.128750
969.1949, 2.090684
971.1234, 2.070857
973.0519, 2.042423
974.9803, 1.989767
976.9088, 1.981946
978.8373, 2.059516
980.7657, 2.127909
982.6942, 2.162561
984.6227, 2.173777
986.5511, 2.147347
988.4796, 2.094286
990.4081, 2.012714
992.3365, 1.977587
994.2650, 2.040677
996.1935, 2.094074
998.1219, 2.083897
1000.050, 2.071395
1001.979, 2.062501
1003.907, 2.056059
1005.836, 2.085527
1007.764, 2.120320
1009.693, 2.127878
1011.621, 2.117867
1013.550, 2.101409
1015.478, 2.085292
1017.407, 2.074622
1019.335, 2.056485
1021.264, 2.005471
1023.192, 1.968476
1025.120, 1.987303
1027.049, 2.005407
1028.977, 1.990763
1030.906, 1.985324
1032.834, 1.988592
1034.763, 1.971718
1036.691, 1.958313
1038.620, 1.963387
1040.548, 1.983140
1042.477, 2.001960
1044.405, 2.012850
1046.334, 1.986862
1048.262, 1.871860
1050.191, 1.790836
1052.119, 1.844043
1054.047, 1.897220
1055.976, 1.850837
1057.904, 1.821161
1059.833, 1.930819
1061.761, 2.038009
1063.690, 2.020092
1065.618, 1.951141
1067.547, 1.881802
1069.475, 1.822392
1071.404, 1.752764
1073.332, 1.718558
1075.261, 1.770881
1077.189, 1.821708
1079.118, 1.804417
1081.046, 1.792680
1082.974, 1.866321
1084.903, 1.902711
1086.831, 1.808918
1088.760, 1.750226
1090.688, 1.789728
1092.617, 1.838613
1094.545, 1.907665
1096.474, 1.942378
1098.402, 1.873969
1100.331, 1.813320
1102.259, 1.836952
1104.188, 1.828072
1106.116, 1.696058
1108.045, 1.665058
1109.973, 1.844934
1111.901, 1.937202
1113.830, 1.859647
1115.758, 1.813883
1117.687, 1.839602
1119.615, 1.865324
1121.544, 1.874775
1123.472, 1.870280
1125.401, 1.855215
1127.329, 1.865991
1129.258, 1.915599
1131.186, 1.928877
1133.115, 1.885992
1135.043, 1.820883
1136.972, 1.745803
1138.900, 1.762938
1140.828, 1.866125
1142.757, 1.918913
1144.685, 1.916276
1146.614, 1.910454
1148.542, 1.904720
1150.471, 1.811002
1152.399, 1.667622
1154.328, 1.673368
1156.256, 1.775032
1158.185, 1.839333
1160.113, 1.865938
1162.042, 1.811345
1163.970, 1.741903
1165.899, 1.796898
1167.827, 1.872640
1169.755, 1.860305
1171.684, 1.826241
1173.612, 1.754892
1175.541, 1.690972
1177.469, 1.748812
1179.398, 1.821078
1181.326, 1.837751
1183.255, 1.830943
1185.183, 1.750395
1187.112, 1.678799
1189.040, 1.712589
1190.969, 1.761203
1192.897, 1.784263
1194.826, 1.772384
1196.754, 1.682435
1198.682, 1.633197
1200.611, 1.690240
1202.539, 1.734862
1204.468, 1.724158
1206.396, 1.733773
1208.325, 1.790946
1210.253, 1.807547
1212.182, 1.775294
1214.110, 1.726173
1216.039, 1.644255
1217.967, 1.691851
1219.896, 1.882768
1221.824, 1.919732
1223.753, 1.801109
1225.681, 1.768318
1227.609, 1.808320
1229.538, 1.785885
1231.466, 1.747545
1233.395, 1.799327
1235.323, 1.862600
1237.252, 1.867446
1239.180, 1.822121
1241.109, 1.664578
1243.037, 1.560195
1244.966, 1.670947
1246.894, 1.809536
1248.823, 1.855156
1250.751, 1.845135
1252.680, 1.824907
1254.608, 1.831806
1256.536, 1.838417
1258.465, 1.828061
1260.393, 1.837540
1262.322, 1.850882
1264.250, 1.816054
1266.179, 1.781094
1268.107, 1.793024
1270.036, 1.849077
1271.964, 1.932279
1273.893, 1.944129
1275.821, 1.886902
1277.750, 1.831235
1279.678, 1.790584
1281.607, 1.743657
1283.535, 1.715405
1285.464, 1.780611
1287.392, 1.846676
1289.320, 1.814674
1291.249, 1.778269
1293.177, 1.805367
1295.106, 1.830290
1297.034, 1.796959
1298.963, 1.783897
1300.891, 1.859532
1302.820, 1.904195
1304.748, 1.849003
1306.677, 1.837870
1308.605, 1.900365
1310.534, 1.928380
1312.462, 1.920571
1314.391, 1.885385
1316.319, 1.847481
1318.247, 1.867442
1320.176, 1.903510
1322.104, 1.901690
1324.033, 1.905683
1325.961, 1.991535
1327.890, 2.058117
1329.818, 1.979777
1331.747, 1.904224
1333.675, 1.906261
1335.604, 1.920926
1337.532, 1.991409
1339.461, 2.025200
1341.389, 1.929535
1343.318, 1.879132
1345.246, 1.923131
1347.174, 1.916256
1349.103, 1.874204
1351.031, 1.920991
1352.960, 1.994998
1354.888, 1.968681
1356.817, 1.928592
1358.745, 1.972920
1360.674, 2.006558
1362.602, 1.908651
1364.531, 1.816747
1366.459, 1.859762
1368.388, 1.898260
1370.316, 1.863871
1372.245, 1.864856
1374.173, 1.924650
1376.101, 1.962653
1378.030, 1.984081
1379.958, 2.002035
1381.887, 1.999046
1383.815, 1.943365
1385.744, 1.851951
1387.672, 1.843013
1389.601, 1.897957
1391.529, 1.936826
1393.458, 1.957850
1395.386, 1.952822
1397.314, 1.933247
1399.243, 1.926443
1401.171, 1.939907
1403.100, 1.970963
1405.028, 2.031426
1406.957, 2.108668
1408.885, 2.111033
1410.814, 2.055786
1412.742, 2.005689
1414.671, 1.954076
1416.599, 1.929196
1418.528, 1.948388
1420.456, 1.989783
1422.385, 1.993207
1424.313, 1.962562
1426.241, 1.968923
1428.170, 2.012154
1430.098, 2.035232
1432.027, 2.018612
1433.955, 2.008862
1435.884, 2.022953
1437.812, 2.012527
1439.741, 1.959791
1441.669, 1.953128
1443.598, 2.004240
1445.526, 2.022072
1447.455, 2.035783
1449.383, 2.097553
1451.312, 2.078444
1453.240, 1.938440
1455.168, 1.884676
1457.097, 1.979828
1459.025, 2.039921
1460.954, 2.013843
1462.882, 1.982900
1464.811, 1.955484
1466.739, 1.934225
1468.668, 1.921628
1470.596, 1.946989
1472.525, 1.994556
1474.453, 1.991195
1476.382, 1.948428
1478.310, 1.875986
1480.239, 1.842812
1482.167, 1.864157
1484.095, 1.880275
1486.024, 1.899336
1487.952, 1.941721
1489.881, 1.983096
1491.809, 1.904071
1493.738, 1.824319
1495.666, 1.930162
1497.595, 1.993521
1499.523, 1.897750
1501.452, 1.855291
1503.380, 1.917630
1505.309, 1.930791
1507.237, 1.871555
1509.166, 1.871393
1511.094, 1.925494
1513.022, 1.906905
1514.951, 1.871739
1516.879, 1.961777
1518.808, 2.037067
1520.736, 1.967064
1522.665, 1.912135
1524.593, 1.927548
1526.522, 1.947039
1528.450, 2.016987
1530.379, 2.026351
1532.307, 1.937071
1534.236, 1.861346
1536.164, 1.830137
1538.093, 1.854782
1540.021, 1.899912
1541.949, 1.945158
1543.878, 1.959112
1545.806, 1.936078
1547.735, 1.893189
1549.663, 1.846300
1551.592, 1.829690
1553.520, 1.842779
1555.449, 1.890034
1557.377, 1.912873
1559.306, 1.876066
1561.234, 1.867874
1563.163, 1.949667
1565.091, 1.972294
1567.020, 1.878792
1568.948, 1.841289
1570.876, 1.876344
1572.805, 1.902179
1574.733, 1.912634
1576.662, 1.873103
1578.590, 1.828503
1580.519, 1.856121
1582.447, 1.894536
1584.376, 1.892664
1586.304, 1.881971
1588.233, 1.872992
1590.161, 1.845360
1592.090, 1.803274
1594.018, 1.836337
1595.947, 1.898369
1597.875, 1.904987
1599.803, 1.893238
1601.732, 1.888255
1603.660, 1.880482
1605.589, 1.869293
1607.517, 1.844644
1609.446, 1.791591
1611.374, 1.778492
1613.303, 1.816066
1615.231, 1.865434
1617.160, 1.888272
1619.088, 1.907435
1621.017, 1.908723
1622.945, 1.853295
1624.874, 1.792197
1626.802, 1.741625
1628.730, 1.738439
1630.659, 1.754845
1632.587, 1.693890
1634.516, 1.646273
1636.444, 1.729390
1638.373, 1.768422
1640.301, 1.688467
1642.230, 1.654297
1644.158, 1.700975
1646.087, 1.777342
1648.015, 1.837029
1649.944, 1.839065
1651.872, 1.823117
1653.801, 1.808325
1655.729, 1.788940
1657.657, 1.750513
1659.586, 1.760270
1661.514, 1.850870
1663.443, 1.905669
1665.371, 1.889309
1667.300, 1.877814
1669.228, 1.866117
1671.157, 1.806459
1673.085, 1.808288
1675.014, 1.869089
1676.942, 1.842753
1678.871, 1.785101
1680.799, 1.842668
1682.728, 1.882054
1684.656, 1.788869
1686.584, 1.713805
1688.513, 1.745820
1690.441, 1.734833
1692.370, 1.675616
1694.298, 1.705684
1696.227, 1.743302
1698.155, 1.761582
1700.084, 1.786970
1702.012, 1.772569
1703.941, 1.793680
1705.869, 1.854616
1707.798, 1.809555
1709.726, 1.700447
1711.655, 1.704724
1713.583, 1.760885
1715.511, 1.659893
1717.440, 1.583376
1719.368, 1.704617
1721.297, 1.785398
1723.225, 1.761139
1725.154, 1.692752
1727.082, 1.607796
1729.011, 1.702541
1730.939, 1.815683
1732.868, 1.745501
1734.796, 1.686622
1736.725, 1.689655
1738.653, 1.664717
1740.582, 1.673378
1742.510, 1.715749
1744.438, 1.688593
1746.367, 1.643036
1748.295, 1.690029
1750.224, 1.760244
1752.152, 1.739874
1754.081, 1.681905
1756.009, 1.673420
1757.938, 1.698790
1759.866, 1.791747
1761.795, 1.826831
1763.723, 1.726101
1765.652, 1.670283
1767.580, 1.665131
1769.509, 1.672216
1771.437, 1.659318
1773.365, 1.576420
1775.294, 1.542051
1777.222, 1.663894
1779.151, 1.749914
1781.079, 1.713226
1783.008, 1.661041
1784.936, 1.653901
1786.865, 1.646542
1788.793, 1.608850
1790.722, 1.599013
1792.650, 1.623155
1794.579, 1.621389
1796.507, 1.644582
1798.436, 1.671891
1800.364, 1.608338
1802.292, 1.563782
1804.221, 1.583362
1806.149, 1.628398
1808.078, 1.695429
1810.006, 1.676237
1811.935, 1.604662
1813.863, 1.590567
1815.792, 1.603129
1817.720, 1.563292
1819.649, 1.562343
1821.577, 1.608678
1823.506, 1.623980
1825.434, 1.605273
1827.363, 1.582199
1829.291, 1.610047
1831.219, 1.616638
1833.148, 1.588045
1835.076, 1.550942
1837.005, 1.495508
1838.933, 1.486399
1840.862, 1.476742
1842.790, 1.509361
1844.719, 1.591418
1846.647, 1.558934
1848.576, 1.513554
1850.504, 1.560724
1852.433, 1.564792
1854.361, 1.522514
1856.290, 1.587074
1858.218, 1.640496
1860.146, 1.582286
1862.075, 1.553549
1864.003, 1.523029
1865.932, 1.464932
1867.860, 1.476090
1869.789, 1.496401
1871.717, 1.475311
1873.646, 1.452143
1875.574, 1.449475
1877.503, 1.428200
1879.431, 1.445199
1881.360, 1.476422
1883.288, 1.460370
1885.217, 1.461977
1887.145, 1.422768
1889.073, 1.398976
1891.002, 1.458569
1892.930, 1.524641
1894.859, 1.536693
1896.787, 1.488283
1898.716, 1.462441
1900.644, 1.478329
1902.573, 1.507090
1904.501, 1.524094
1906.430, 1.519662
1908.358, 1.519550
1910.287, 1.509539
1912.215, 1.475595
1914.144, 1.402223
1916.072, 1.388042
1918.000, 1.456071
1919.929, 1.481738
1921.857, 1.464235
1923.786, 1.453020
1925.714, 1.467866
1927.643, 1.497130
1929.571, 1.561005
1931.500, 1.606502
1933.428, 1.537889
1935.357, 1.421051
1937.285, 1.360054
1939.214, 1.385208
1941.142, 1.400525
1943.071, 1.362943
1944.999, 1.371901
1946.927, 1.379099
1948.856, 1.401725
1950.784, 1.471992
1952.713, 1.462685
1954.641, 1.397015
1956.570, 1.309095
1958.498, 1.308697
1960.427, 1.394001
1962.355, 1.515293
1964.284, 1.582797
1966.212, 1.474543
1968.141, 1.405432
1970.069, 1.425071
1971.998, 1.384180
1973.926, 1.330175
1975.854, 1.388516
1977.783, 1.424835
1979.711, 1.404804
1981.640, 1.331667
1983.568, 1.276712
1985.497, 1.347656
1987.425, 1.406228
1989.354, 1.391755
1991.282, 1.374649
1993.211, 1.385380
1995.139, 1.444072
1997.068, 1.464404
1998.996, 1.433928
2000.925, 1.389380
2002.853, 1.308549
2004.781, 1.260601
2006.710, 1.243947
2008.638, 1.264551
2010.567, 1.292050
2012.495, 1.265210
2014.424, 1.190518
2016.352, 1.195676
2018.281, 1.311392
2020.209, 1.369940
2022.138, 1.356202
2024.066, 1.328561
2025.995, 1.306573
2027.923, 1.292780
2029.852, 1.270851
2031.780, 1.262986
2033.708, 1.232178
2035.637, 1.213081
2037.565, 1.231746
2039.494, 1.247774
2041.422, 1.282099
2043.351, 1.289800
2045.279, 1.268850
2047.208, 1.263615
2049.136, 1.265526
2051.065, 1.236729
2052.993, 1.251414
2054.922, 1.288178
2056.850, 1.349943
2058.779, 1.351810
2060.707, 1.266731
2062.635, 1.237165
2064.564, 1.249507
2066.492, 1.199804
2068.421, 1.162667
2070.349, 1.191222
2072.278, 1.231812
2074.206, 1.248148
2076.135, 1.178883
2078.063, 1.184143
2079.992, 1.311015
2081.920, 1.299560
2083.849, 1.198894
2085.777, 1.117951
2087.706, 1.137262
2089.634, 1.236938
2091.563, 1.215825
2093.491, 1.160977
2095.419, 1.191989
2097.348, 1.216709
2099.276, 1.202726
2101.205, 1.182204
2103.133, 1.189149
2105.062, 1.231595
2106.990, 1.177196
2108.919, 1.067106
2110.847, 1.124163
2112.776, 1.174639
2114.704, 1.107547
2116.633, 1.132273
2118.561, 1.238598
2120.490, 1.197265
2122.418, 1.124112
2124.346, 1.148471
2126.275, 1.147088
2128.203, 1.094431
2130.132, 1.098014
2132.060, 1.092373
2133.989, 1.007263
2135.917, 1.020495
2137.846, 1.108120
2139.774, 1.114587
2141.703, 1.089170
2143.631, 1.089216
2145.560, 1.062089
2147.488, 1.029273
2149.417, 1.069300
2151.345, 1.126900
2153.273, 1.142434
2155.202, 1.112227
2157.130, 1.045211
2159.059, 0.9105695
2160.987, 0.9765310
2162.916, 1.124395
2164.844, 1.130776
2166.773, 1.108505
2168.701, 1.093259
2170.630, 1.125960
2172.558, 1.143012
2174.487, 1.012851
2176.415, 0.9886035
2178.344, 1.232359
2180.272, 1.233784
2182.200, 1.031819
2184.129, 1.100243
2186.057, 1.168287
2187.986, 1.088025
2189.914, 1.077297
2191.843, 1.074522
2193.771, 0.9904774
2195.700, 1.004524
2197.628, 1.063970
2199.557, 1.016567
2201.485, 1.003594
2203.414, 1.058098
2205.342, 1.069946
2207.271, 1.061351
2209.199, 1.053851
2211.127, 1.029251
2213.056, 0.9975203
2214.984, 0.9827999
2216.913, 0.9934005
2218.841, 1.023452
2220.770, 1.048067
2222.698, 1.047682
2224.627, 0.9849833
2226.555, 0.9760643
2228.484, 0.9864023
2230.412, 0.9894462
2232.341, 1.014909
2234.269, 1.003630
2236.198, 1.042200
2238.126, 1.092008
2240.054, 1.043457
2241.983, 1.036083
2243.911, 1.068008
2245.840, 0.9190594
2247.768, 0.8362753
2249.697, 0.9613161
2251.625, 1.009830
2253.554, 1.008849
2255.482, 0.9490826
2257.411, 0.9017822
2259.339, 0.9217080
2261.268, 0.9540713
2263.196, 0.9701826
2265.125, 0.9131248
2267.053, 0.8829137
2268.981, 0.9121925
2270.910, 0.9038990
2272.838, 0.8931135
2274.767, 0.9605170
2276.695, 0.9753224
2278.624, 0.9531686
2280.552, 0.9769791
2282.481, 0.9789452
2284.409, 0.9521334
2286.338, 0.8919598
2288.266, 0.8480482
2290.195, 0.8528775
2292.123, 0.9349763
2294.052, 1.001731
2295.980, 0.9446685
2297.908, 0.9613879
2299.837, 1.023989
2301.765, 0.9051124
2303.694, 0.8438423
2305.622, 0.8708653
2307.551, 0.9006858
2309.479, 0.9433736
2311.408, 0.9686867
2313.336, 0.9973965
2315.265, 1.016522
2317.193, 0.9076464
2319.122, 0.8796409
2321.050, 0.9396721
2322.979, 0.9481258
2324.907, 0.9210015
2326.835, 0.8533227
2328.764, 0.8506203
2330.692, 0.8884892
2332.621, 0.8619831
2334.549, 0.8241552
2336.478, 0.8263648
2338.406, 0.7999208
2340.335, 0.7859827
2342.263, 0.8419064
2344.192, 0.8277076
2346.120, 0.7924458
2348.049, 0.7762899
2349.977, 0.8174353
2351.906, 0.8783385
2353.834, 0.7378268
2355.762, 0.7101349
2357.691, 0.8471335
2359.619, 0.8524341
2361.548, 0.7909731
2363.476, 0.7540053
2365.405, 0.7423844
2367.333, 0.7690592
2369.262, 0.8252332
2371.190, 0.8241060
2373.119, 0.7922966
2375.047, 0.8159182
2376.976, 0.8157457
2378.904, 0.7952648
2380.833, 0.7619376
2382.761, 0.7112074
2384.689, 0.7245843
2386.618, 0.7287083
2388.546, 0.7144235
2390.475, 0.7332772
2392.403, 0.7176461
2394.332, 0.6843393
2396.260, 0.7608480
2398.189, 0.8008296
2400.117, 0.7913495
2402.046, 0.8510164
2403.974, 0.8582358
2405.903, 0.7753854
2407.831, 0.7355951
2409.760, 0.7832262
2411.688, 0.7846821
2413.616, 0.7604404
2415.545, 0.7703333
2417.473, 0.7659966
2419.402, 0.7828038
2421.330, 0.8299010
2423.259, 0.7566375
2425.187, 0.7216775
2427.116, 0.7333530
2429.044, 0.6898372
2430.973, 0.6571669
2432.901, 0.6779850
2434.830, 0.6774216
2436.758, 0.7021089
2438.687, 0.7849334
2440.615, 0.7531621
2442.543, 0.7020568
2444.472, 0.7104871
2446.400, 0.7094986
2448.329, 0.7091399
2450.257, 0.6422195
2452.186, 0.6680626
2454.114, 0.7409770
2456.043, 0.6235107
2457.971, 0.6028730
2459.900, 0.7436165
2461.828, 0.7732723
2463.757, 0.7593929
2465.685, 0.6567546
2467.614, 0.6575863
2469.542, 0.6775317
2471.470, 0.7267715
2473.399, 0.7643821
2475.327, 0.7522801
2477.256, 0.7351447
2479.184, 0.6911043
2481.113, 0.7049478
2483.041, 0.7234176
2484.970, 0.7238875
2486.898, 0.6607266
2488.827, 0.5977640
2490.755, 0.6345362
2492.684, 0.6838523
2494.612, 0.6498293
2496.541, 0.6136420
2498.469, 0.7157767
2500.397, 0.7247602
2502.326, 0.6404776
2504.254, 0.5691742
2506.183, 0.6092369
2508.111, 0.6816717
2510.040, 0.6383574
2511.968, 0.5453047
2513.897, 0.5158535
2515.825, 0.6536020
2517.754, 0.6769882
2519.682, 0.5949198
2521.611, 0.5320000
2523.539, 0.5284183
2525.468, 0.5998905
2527.396, 0.5969789
2529.324, 0.5926132
2531.253, 0.5985206
2533.181, 0.5803047
2535.110, 0.5856535
2537.038, 0.6608283
2538.967, 0.7151585
2540.895, 0.6846052
2542.824, 0.6040625
2544.752, 0.5807633
2546.681, 0.5878602
2548.609, 0.6448073
2550.538, 0.6735062
2552.466, 0.6141169
2554.395, 0.4894427
2556.323, 0.4752573
2558.251, 0.5133120
2560.180, 0.5717262
2562.108, 0.5841123
2564.037, 0.5946314
2565.965, 0.5958757
2567.894, 0.5539914
2569.822, 0.5487506
2571.751, 0.6068890
2573.679, 0.6244412
2575.608, 0.6205450
2577.536, 0.6492044
2579.465, 0.6501220
2581.393, 0.6609640
2583.322, 0.5536134
2585.250, 0.5114629
2587.178, 0.5966473
2589.107, 0.5419674
2591.035, 0.5171131
2592.964, 0.5594476
2594.892, 0.5543122
2596.821, 0.5094975
2598.749, 0.4989950
2600.678, 0.6005154
2602.606, 0.6181622
2604.535, 0.5588261
2606.463, 0.5697026
2608.392, 0.5577350
2610.320, 0.5086836
2612.249, 0.5184004
2614.177, 0.5725836
2616.105, 0.5785811
2618.034, 0.5281463
2619.962, 0.5279383
2621.891, 0.5479426
2623.819, 0.5469231
2625.748, 0.5321887
2627.676, 0.5597898
2629.605, 0.5928975
2631.533, 0.5543211
2633.462, 0.5096295
2635.390, 0.5114015
2637.319, 0.4794639
2639.247, 0.4346631
2641.176, 0.5448455
2643.104, 0.5791786
2645.032, 0.5237499
2646.961, 0.5425881
2648.889, 0.5172154
2650.818, 0.5204732
2652.746, 0.5414389
2654.675, 0.4655441
2656.603, 0.3737256
2658.532, 0.4942394
2660.460, 0.5080535
2662.389, 0.4478510
2664.317, 0.4582812
2666.246, 0.4164697
2668.174, 0.3622211
2670.103, 0.3550067
2672.031, 0.4717439
2673.959, 0.5272276
2675.888, 0.4444323
2677.816, 0.4157626
2679.745, 0.4349318
2681.673, 0.4924656
2683.602, 0.4902474
2685.530, 0.4581742
2687.459, 0.4373300
2689.387, 0.4932714
2691.316, 0.4986785
2693.244, 0.4309452
2695.173, 0.3734795
2697.101, 0.3932387
2699.030, 0.4339103
2700.958, 0.4430343
2702.886, 0.4803403
2704.815, 0.4767064
2706.743, 0.4216413
2708.672, 0.3936619
2710.600, 0.4331160
2712.529, 0.4167308
2714.457, 0.3784070
2716.386, 0.3491894
2718.314, 0.3093331
2720.243, 0.3299672
2722.171, 0.4321366
2724.100, 0.3931094
2726.028, 0.4219350
2727.957, 0.4738997
2729.885, 0.3885144
2731.813, 0.3782256
2733.742, 0.4026576
2735.670, 0.4405144
2737.599, 0.4243695
2739.527, 0.3721012
2741.456, 0.3537318
2743.384, 0.4040416
2745.313, 0.4201211
2747.241, 0.3813762
2749.170, 0.4226894
2751.098, 0.3983349
2753.027, 0.3098387
2754.955, 0.3766902
2756.884, 0.4345666
2758.812, 0.4318140
2760.740, 0.4228081
2762.669, 0.3860838
2764.597, 0.3418699
2766.526, 0.3205649
2768.454, 0.3653905
2770.383, 0.4060489
2772.311, 0.3606076
2774.240, 0.4026342
2776.168, 0.4448437
2778.097, 0.4455897
2780.025, 0.3868545
2781.954, 0.3165013
2783.882, 0.2670116
2785.811, 0.3535301
2787.739, 0.3715204
2789.667, 0.3318524
2791.596, 0.3314952
2793.524, 0.3767174
2795.453, 0.4220784
2797.381, 0.3941884
2799.310, 0.3536243
2801.238, 0.3239115
2803.167, 0.3146729
2805.095, 0.3429109
2807.024, 0.3331151
2808.952, 0.2781710
2810.881, 0.3128120
2812.809, 0.3227021
2814.738, 0.3157783
2816.666, 0.3380928
2818.594, 0.3492008
2820.523, 0.3482584
2822.451, 0.2969582
2824.380, 0.3402752
2826.308, 0.3549525
2828.237, 0.2630315
2830.165, 0.2314525
2832.094, 0.2589686
2834.022, 0.3184840
2835.951, 0.2879757
2837.879, 0.2580426
2839.808, 0.2561834
2841.736, 0.3139625
2843.665, 0.3231629
2845.593, 0.2781223
2847.521, 0.1995332
2849.450, 0.1771973
2851.378, 0.2120136
2853.307, 0.2872029
2855.235, 0.2703542
2857.164, 0.2594980
2859.092, 0.2446553
2861.021, 0.2149730
2862.949, 0.1729301
2864.877, 0.2063133
2866.806, 0.3383217
2868.734, 0.2545761
2870.663, 0.2244265
2872.591, 0.2858124
2874.520, 0.2799188
2876.448, 0.2346717
2878.377, 0.1966601
2880.305, 0.2617348
2882.234, 0.2157786
2884.162, 0.1658776
2886.091, 0.1857372
2888.019, 0.2790765
2889.948, 0.2551621
2891.876, 0.1665155
2893.804, 0.2884504
2895.733, 0.2265449
2897.661, 0.1139340
2899.590, 0.1504690
2901.518, 0.1988526
2903.447, 0.2281395
2905.375, 0.2101652
2907.304, 0.2392508
2909.232, 0.1893822
2911.161, 0.1102470
2913.089, 0.1361997
2915.018, 0.1992008
2916.946, 0.2560032
2918.875, 0.2862633
2920.803, 0.3250919
2922.731, 0.2153579
2924.660, 5.1293381E-02
2926.588, 0.2558859
2928.517, 0.2711083
2930.445, 0.2125633
2932.374, 0.2522529
2934.302, 0.2107142
2936.231, 0.1802926
2938.159, 0.2362228
2940.088, 0.1992106
2942.016, 0.1528555
2943.945, 0.1324331
2945.873, 0.2188040
2947.802, 0.2379283
2949.730, 0.1783531
2951.658, 8.3120704E-02
2953.587, 0.1414638
2955.515, 0.1528437
2957.444, 0.1125051
2959.372, 9.1919526E-02
2961.301, 9.9543057E-02
2963.229, 0.1426342
2965.158, 0.2228404
2967.086, 0.1750093
2969.015, 0.1503856
2970.943, 0.1511153
2972.872, 0.1965261
2974.800, 0.1525970
2976.729, 0.1203926
2978.657, 0.1462561
2980.585, 0.1963835
2982.514, 0.1530750
2984.442, 0.1052342
2986.371, 0.2075255
2988.299, 0.1418190
2990.228, 0.1347960
2992.156, 0.2392061
2994.085, 0.2049218
2996.013, 0.2247727
2997.942, 0.2673104
2999.870, 0.3195957
3001.799, 0.2155447
3003.727, 0.1523489
3005.656, 0.1471103
3007.584, 5.8440261E-02
3009.512, 4.4217721E-02
3011.441, 0.1101258
3013.369, 0.1784053
3015.298, 0.1432663
3017.226, 0.1754978
3019.155, 0.2157288
3021.083, 0.1223087
3023.012, 0.1511988
3024.940, 0.1804313
3026.869, 0.1728676
3028.797, 0.1325368
3030.726, 9.5945977E-02
3032.654, 8.0939338E-02
3034.583, 0.1068491
3036.511, 9.3131833E-02
3038.439, 8.2585149E-02
3040.368, 0.1288956
3042.296, 0.1956231
3044.225, 0.1883574
3046.153, 0.1278979
3048.082, 5.5002540E-02
3050.010, 0.1389202
3051.939, 0.1769522
3053.867, 0.1040436
3055.796, -5.8862362E-03
3057.724, 2.6150580E-02
3059.653, 0.1363845
3061.581, 0.1898050
3063.510, 0.1684709
3065.438, 0.1771084
3067.366, 9.8551370E-02
3069.295, 2.9960090E-02
3071.223, 3.2752711E-02
3073.152, 1.8239381E-02
3075.080, 5.7496600E-02
3077.009, 0.2169620
3078.937, 0.1932560
3080.866, 8.8027187E-02
3082.794, 7.8156874E-02
3084.723, 0.1240447
3086.651, 3.2400340E-02
3088.580, 7.1432993E-02
3090.508, 0.1836054
3092.437, 0.1103144
3094.365, 8.7566286E-02
3096.293, 0.1096168
3098.222, 0.1639544
3100.150, 0.1033659
3102.079, 0.1488739
3104.007, 0.1894444
3105.936, 0.1516353
3107.864, -1.5513820E-02
3109.793, 5.3815311E-03
3111.721, 9.2653289E-02
3113.650, 3.4491859E-02
3115.578, 9.8689280E-02
3117.507, 9.9645346E-02
3119.435, 5.4111850E-02
3121.364, 6.7549333E-02
3123.292, 0.1414069
3125.220, 0.1215703
3127.149, 4.0766768E-02
3129.077, 2.5396300E-02
3131.006, 1.5156840E-02
3132.934, 5.0405338E-02
3134.863, 0.1311814
3136.791, 0.1027850
3138.720, 0.1008696
3140.648, 0.1542738
3142.577, 0.1935314
3144.505, 6.0475171E-02
3146.434, 8.0097318E-02
3148.362, 0.1558277
3150.291, 0.1421558
3152.219, 7.2730429E-02
3154.147, 6.4948767E-02
3156.076, 7.9011656E-02
3158.004, 3.1422000E-02
3159.933, 4.9999788E-02
3161.861, 2.1205651E-02
3163.790, 1.4147180E-02
3165.718, 0.1691570
3167.647, 0.2039162
3169.575, 0.1294026
3171.504, 1.6769340E-02
3173.432, 2.1783970E-02
3175.361, 4.3420039E-02
3177.289, 3.0498199E-02
3179.218, 4.8025630E-02
3181.146, 0.1270683
3183.074, 0.1542217
3185.003, 9.9078767E-02
3186.931, 5.6910999E-02
3188.860, 0.1849993
3190.788, 0.1906584
3192.717, 0.1150050
3194.645, 5.7240892E-03
3196.574, -4.2098001E-02
3198.502, 8.7334968E-02
3200.431, 0.1718709
3202.359, 0.1495328
3204.288, 3.3147221E-03
3206.216, 5.0510131E-02
3208.145, 5.2116510E-02
3210.073, -2.1701001E-02
3212.001, 5.7829119E-02
3213.930, 0.1333616
3215.858, 6.8310536E-02
3217.787, 1.3938970E-02
3219.715, 0.2668854
3221.644, 6.4208902E-02
3223.572, 4.5109689E-02
3225.501, 0.1456762
3227.429, -6.8411261E-02
3229.358, 6.6253399E-03
3231.286, 8.3887689E-02
3233.215, 0.1052850
3235.143, 0.1203836
3237.072, 0.1073163
3239.000, 0.1420412
3240.928, 0.1690484
3242.857, 7.9767711E-02
3244.785, 7.6614112E-02
3246.714, 0.1744535
3248.642, 0.2047429
3250.571, 6.3320510E-02
3252.499, 7.8207813E-02
3254.428, 6.6369921E-02
3256.356, 4.1380100E-02
3258.285, 3.4075320E-02
3260.213, 4.5702871E-02
3262.142, 1.5985580E-02
3264.070, 1.4757950E-02
3265.999, 8.9892067E-02
3267.927, 0.1390164
3269.855, 0.1038222
3271.784, 7.4795023E-02
3273.712, 8.7706260E-02
3275.641, 0.1122061
3277.569, 4.0201381E-02
3279.498, 5.4621842E-02
3281.426, 9.3178131E-02
3283.355, -9.3972431E-03
3285.283, -3.8249969E-02
3287.212, -3.9824940E-02
3289.140, 7.9737036E-03
3291.069, 0.1317772
3292.997, 0.1787448
3294.926, 0.1277694
3296.854, 7.4233018E-02
3298.782, 7.1006998E-02
3300.711, 7.6364167E-02
3302.639, 6.5537103E-02
3304.568, 2.5296560E-02
3306.496, -3.1818461E-02
3308.425, -7.4023157E-02
3310.353, -4.7670439E-02
3312.282, 5.7951901E-02
3314.210, 0.1492202
3316.139, 9.1981053E-02
3318.067, 0.1075452
3319.996, 0.1076936
3321.924, 6.8701521E-02
3323.853, 7.4796001E-03
3325.781, 7.1411967E-02
3327.709, 1.1196710E-02
3329.638, -3.3072089E-03
3331.566, 7.6096542E-02
3333.495, 0.1022706
3335.423, 0.1171663
3337.352, 0.2112812
3339.280, 0.2023798
3341.209, -8.7787420E-02
3343.137, 0.1716358
3345.066, 0.1489735
3346.994, 6.7915812E-02
3348.923, 0.1100190
3350.851, -5.6292050E-02
3352.780, 9.8417729E-02
3354.708, 0.2314641
3356.636, 0.2075715
3358.565, 8.9916632E-02
3360.493, 0.1263608
3362.422, 0.1500396
3364.350, 0.2134822
3366.279, 0.3238476
3368.207, 0.2336443
3370.136, 9.0321019E-02
3372.064, 0.1246391
3373.993, 0.2079911
3375.921, -3.7127081E-02
3377.850, -4.4967841E-02
3379.778, 0.1140844
3381.707, 0.1850475
3383.635, 5.2694779E-02
3385.563, 0.1304879
3387.492, 0.1346929
3389.420, 7.5931408E-02
3391.349, 4.5407299E-02
3393.277, 0.1788655
3395.206, 8.5975379E-02
3397.134, 3.5624050E-02
3399.063, 5.7108872E-02
3400.991, 0.1040839
3402.920, 4.7416341E-02
3404.848, 8.3410271E-02
3406.777, 0.1147224
3408.705, 0.1140005
3410.634, 0.1125618
3412.562, 0.1196372
3414.490, 6.7521647E-02
3416.419, 0.1549749
3418.347, 0.2879058
3420.276, 0.1222601
3422.204, -1.2347640E-02
3424.133, 6.1872290E-03
3426.061, 0.1031872
3427.990, 0.1549734
3429.918, -1.6599679E-02
3431.847, 8.8547103E-02
3433.775, 0.1264698
3435.704, 0.1443835
3437.632, 0.2686477
3439.561, 0.1646378
3441.489, 6.0134381E-02
3443.417, 8.4532388E-02
3445.346, 0.1520744
3447.274, 8.8838503E-02
3449.203, 7.4498557E-02
3451.131, 0.1266480
3453.060, 5.5482149E-02
3454.988, -0.1151351
3456.917, -0.1188705
3458.845, 0.2307705
3460.774, 0.1366334
3462.702, -1.0235820E-02
3464.631, 0.1113157
3466.559, 0.1643494
3468.488, 2.0572880E-02
3470.416, 0.1401730
3472.344, 0.2335425
3474.273, 5.4922149E-02
3476.201, 4.5816582E-02
3478.130, -2.2930760E-02
3480.058, 7.6343631E-03
3481.987, 7.3553443E-02
3483.915, 7.6813862E-02
3485.844, 0.1602804
3487.772, 5.8124159E-03
3489.701, -4.4213161E-02
3491.629, -7.5792768E-03
3493.558, -3.7525289E-02
3495.486, -8.3764195E-03
3497.415, 4.5121931E-03
3499.343, -2.4838500E-02
3501.271, -2.1957820E-02
3503.200, 6.8876758E-02
3505.128, 8.1711553E-02
3507.057, 6.8604223E-02
3508.985, -1.9075239E-02
3510.914, -5.6738850E-02
3512.842, 6.6076539E-02
3514.771, 0.1192981
3516.699, 6.1354078E-02
3518.628, 8.1659511E-02
3520.556, 9.5805600E-02
3522.485, 2.8541661E-03
3524.413, 0.1037429
3526.342, 7.9527117E-02
3528.270, -1.2692580E-02
3530.198, 3.7786311E-03
3532.127, 0.1581741
3534.055, -8.8744707E-02
3535.984, 2.0104939E-02
3537.912, 4.0388629E-02
3539.841, 9.7388364E-03
3541.769, 3.6544710E-02
3543.698, -7.8433921E-04
3545.626, 6.8183787E-02
3547.555, 4.6436698E-03
3549.483, 6.7337211E-03
3551.412, 0.1055170
3553.340, 5.8672111E-03
3555.269, 9.0818197E-02
3557.197, 8.9268632E-02
3559.125, 0.1129439
3561.054, 0.1395394
3562.982, 3.8016789E-02
3564.911, 0.2087202
3566.839, 0.1506339
3568.768, 6.5066539E-02
3570.696, 4.0575609E-02
3572.625, 4.0071741E-02
3574.553, 2.8779380E-02
3576.482, 0.1427221
3578.410, 5.5152249E-02
3580.339, 1.4239070E-03
3582.267, 0.1143850
3584.196, 3.9613251E-02
3586.124, 0.1800154
3588.052, 9.7006433E-02
3589.981, 7.0004361E-03
3591.909, -7.7427169E-03
3593.838, -7.6768093E-02
3595.766, -4.9806301E-02
3597.695, -5.0590631E-02
3599.623, -1.5605060E-02
3601.552, 5.7869449E-02
3603.480, 0.1192804
3605.409, 6.6870973E-02
3607.337, -0.1087108
3609.266, 5.6135520E-02
3611.194, 0.1716805
3613.123, 7.3892727E-02
3615.051, 2.9009711E-03
3616.979, 0.1094147
3618.908, 7.5896760E-03
3620.836, 6.4200251E-03
3622.765, 8.8829070E-02
3624.693, 0.1162970
3626.622, 8.7484278E-02
3628.550, 5.0337661E-02
3630.479, 4.3906432E-02
3632.407, -5.1234779E-04
3634.336, 4.7046550E-02
3636.264, 0.3047888
3638.193, 0.2098214
3640.121, 1.9163860E-02
3642.050, 2.8373799E-03
3643.978, 2.6948551E-02
3645.906, 6.5665818E-03
3647.835, 4.1784309E-02
3649.763, -1.8279260E-02
3651.692, -9.1155618E-02
3653.620, 1.6841359E-02
3655.549, 8.8679582E-02
3657.477, 4.9880459E-03
3659.406, 0.1180495
3661.334, 2.3410879E-02
3663.263, 3.8060971E-02
3665.191, 9.8820433E-02
3667.120, 0.2033034
3669.048, 0.3306561
3670.977, 0.1640509
3672.905, 2.5931399E-02
3674.833, 4.0836088E-02
3676.762, 9.7430430E-02
3678.690, 0.1291619
3680.619, 0.1229130
3682.547, -1.9461980E-02
3684.476, -2.3991070E-03
3686.404, -5.6883369E-02
3688.333, -3.0821649E-02
3690.261, 2.3329049E-02
3692.190, -3.3146851E-02
3694.118, 0.1053989
3696.047, 1.9993030E-02
3697.975, 8.3433248E-02
3699.904, 6.6600353E-02
3701.832, -4.6618681E-02
3703.760, -7.7669822E-02
3705.689, -5.1792100E-02
3707.617, 3.1598579E-02
3709.546, -8.4821600E-03
3711.474, -0.1663345
3713.403, -0.1801372
3715.331, 2.8007910E-02
3717.260, -9.6906103E-02
3719.188, -0.1607807
3721.117, -0.1244058
3723.045, -4.8317060E-02
3724.974, -3.1074060E-03
3726.902, 5.0030282E-04
3728.831, 3.4554690E-02
3730.759, 6.9434270E-02
3732.688, 0.1338873
3734.616, 2.4340849E-02
3736.544, -7.9576947E-02
3738.473, -3.3283290E-02
3740.401, 7.3774442E-02
3742.330, 5.5707090E-02
3744.258, -1.4951100E-02
3746.187, -5.9112199E-02
3748.115, 2.3067830E-02
3750.044, 0.1127906
3751.972, 4.4583719E-02
3753.901, 5.2817422E-03
3755.829, 1.7707961E-02
3757.758, -0.1293696
3759.686, -2.5284760E-02
3761.615, 9.9742837E-02
3763.543, -9.3164574E-03
3765.471, -0.1166913
3767.400, -3.4544960E-02
3769.328, 8.1919134E-02
3771.257, 0.1212357
3773.185, 0.1258646
3775.114, 0.1188980
3777.042, 8.5110031E-02
3778.971, 5.0197091E-02
3780.899, 9.8116007E-03
3782.828, -1.5007830E-02
3784.756, 5.9964441E-02
3786.685, 0.1294276
3788.613, 0.1286857
3790.542, 0.1296492
3792.470, 0.1766750
3794.398, 0.1171232
3796.327, 5.6622151E-02
3798.255, 7.6237813E-02
3800.184, 6.1073780E-02
3802.112, -5.0160270E-02
3804.041, -0.1309407
3805.969, -4.2297971E-02
3807.898, 0.1733358
3809.826, 0.1323653
3811.755, -1.4120350E-02
3813.683, -7.2428226E-02
3815.612, -4.4057559E-02
3817.540, -7.9409197E-02
3819.469, -7.8552201E-02
3821.397, -0.1243586
3823.325, -5.6929041E-02
3825.254, 2.0637250E-02
3827.182, 3.0478509E-02
3829.111, -1.5025770E-03
3831.039, -1.8668410E-03
3832.968, 7.4447773E-02
3834.896, 2.7164210E-02
3836.825, -9.5691234E-03
3838.753, -0.1026775
3840.682, -0.1446721
3842.610, -7.7110387E-02
3844.539, -4.2810269E-02
3846.467, -8.9547507E-02
3848.396, 8.0002040E-02
3850.324, -0.1410747
3852.252, -0.2111723
3854.181, -9.7041838E-02
3856.109, 1.2091760E-02
3858.038, 8.6478516E-02
3859.966, 9.4587073E-02
3861.895, 2.3004301E-02
3863.823, -4.0822919E-02
3865.752, -1.7614340E-02
3867.680, 0.1212616
3869.609, 0.2337665
3871.537, 0.1755350
3873.466, -3.3469170E-02
3875.394, 3.2394119E-02
3877.323, 5.1080272E-02
3879.251, 1.1921310E-02
3881.179, 2.1825889E-02
3883.108, 5.7116281E-02
3885.036, 2.3117380E-02
3886.965, -8.1675157E-02
3888.893, -4.6060361E-02
3890.822, -8.6460538E-02
3892.750, -9.4540510E-03
3894.679, -0.1088517
3896.607, 5.1816180E-02
3898.536, 2.1349991E-02
3900.464, -0.2011184
3902.393, 0.1125594
3904.321, 0.1774825
3906.250, -4.5177669E-05
3908.178, -6.1646398E-02
3910.106, 7.4466862E-02
3912.035, 5.9171021E-02
3913.963, -6.1976969E-02
3915.892, -8.0034867E-02
3917.820, -3.2460440E-03
3919.749, 0.1174505
3921.677, 0.1491692
3923.606, -1.3265950E-03
3925.534, 1.3229120E-02
3927.463, 2.4234910E-02
3929.391, 1.1455930E-02
3931.320, -2.7599540E-02
3933.248, -0.1344237
3935.177, 3.6612079E-02
3937.105, -7.3476262E-02
3939.033, -7.3885150E-02
3940.962, 5.2226901E-02
3942.890, 6.2118091E-02
3944.819, -6.7771547E-02
3946.747, -9.5414057E-02
3948.676, 4.0802300E-02
3950.604, -4.2839881E-02
3952.533, -0.1503514
3954.461, 0.1517982
3956.390, -0.1179035
3958.318, -0.1244907
3960.247, -2.8831530E-02
3962.175, 1.4430060E-02
3964.104, 1.4602860E-02
3966.032, -5.7247631E-02
3967.960, -0.1396551
3969.889, 1.5625920E-02
3971.817, -1.6129401E-02
3973.746, 7.8191519E-02
3975.674, -1.8291229E-02
3977.603, -0.1080504
3979.531, -5.2194349E-02
3981.460, -8.1677185E-03
3983.388, 2.5636040E-02
3985.317, 7.5296909E-02
3987.245, 7.6344339E-03
3989.174, -1.7440399E-02
3991.102, -3.8569570E-02
3993.031, 6.3342839E-02
3994.959, -2.3716651E-02
3996.887, -4.9590819E-02
3998.816, -2.0225501E-02
4000.744, 1.7774349E-02
4002.673, -4.6519540E-02
4004.601, -0.1710894
4006.530, -0.1275412
4008.458, -1.2202700E-02
4010.387, 5.0998628E-02
4012.315, -0.1008712
4014.244, -4.8614640E-02
4016.172, 3.3703770E-02
4018.101, 1.4466550E-02
4020.029, -7.2885372E-02
4021.958, -0.1239493
4023.886, -8.8079557E-02
4025.814, -4.6366449E-02
4027.743, 8.0090158E-02
4029.671, -2.1955591E-02
4031.600, -2.2100050E-02
4033.528, 6.8642713E-02
4035.457, 8.7456061E-03
4037.385, -2.1578809E-02
4039.314, 9.1549627E-02
4041.242, 0.1437866
4043.171, 8.2494225E-03
4045.099, 5.6267972E-03
4047.028, -0.1225426
4048.956, -3.0205380E-02
4050.885, 6.5116711E-02
4052.813, -0.1813221
4054.741, -0.1029202
4056.670, 6.4800657E-02
4058.598, -3.7620220E-02
4060.527, -0.1464488
4062.455, 5.4760288E-02
4064.384, 0.2610595
4066.312, -5.4093339E-02
4068.241, 1.7919519E-03
4070.169, -0.1622019
4072.098, 3.7403490E-02
4074.026, 8.6805768E-02
4075.955, 3.2912619E-02
4077.883, -4.3214232E-02
4079.812, -5.4830998E-02
4081.740, 4.0450260E-02
4083.668, -4.0778640E-04
4085.597, -4.1442320E-02
4087.525, -5.2830940E-03
4089.454, 0.0000000E+00
4091.382, -1.4771430E-02
4093.311, 9.5663123E-02
4095.239, 9.8055653E-02
4097.167, -2.6404349E-02
4099.096, -5.3056061E-02
4101.024, -1.3204070E-02
4102.953, -3.9846320E-02
4104.881, 3.3349080E-03
4106.810, 4.1535810E-02
4108.738, -4.0430609E-02
4110.667, 4.0361460E-02
4112.595, -7.5907223E-02
4114.524, 5.2532729E-02
4116.452, -2.7415199E-02
4118.381, -3.7564661E-02
4120.309, -2.6899710E-02
4122.238, -1.3343560E-02
4124.166, 3.4592271E-02
4126.095, -6.2273382E-03
4128.023, 7.7619250E-03
4129.952, 0.1734488
4131.880, 3.0006681E-02
4133.809, -0.1300619
4135.737, 4.0230859E-02
4137.666, 6.3213222E-02
4139.594, 2.2558371E-02
4141.522, -2.3281921E-02
4143.451, -5.3387679E-02
4145.379, -9.8953936E-03
4147.308, 3.3272710E-02
4149.236, 2.0142680E-04
4151.165, 0.0000000E+00
4153.093, 0.0000000E+00
4155.021, -6.5207449E-03
4156.950, 0.1332057
4158.878, -4.6182409E-02
4160.807, -9.8535880E-02
4162.735, -5.5172309E-02
4164.664, 0.1450998
4166.592, 0.2162827
4168.521, -7.1878113E-02
4170.449, -5.2289620E-02
4172.378, 0.2068562
4174.306, 4.1741729E-02
4176.235, -0.1747723
4178.163, -8.2664482E-02
4180.092, 0.1207303
4182.020, 1.6675791E-02
4183.949, -4.1456431E-02
4185.877, -1.3961870E-02
4187.806, 4.8423510E-02
4189.734, -5.5301260E-02
4191.663, -4.1410320E-02
4193.591, 2.3603130E-02
4195.520, 5.4574311E-02
4197.448, 1.6072540E-02
4199.376, -7.1146481E-02
4201.305, -4.8173230E-02
4203.233, 7.6642632E-02
4205.162, -1.3730760E-03
4207.090, -4.2627022E-02
4209.019, 1.1584290E-03
4210.947, -7.9146817E-02
4212.875, -9.7947598E-02
4214.804, -1.8835960E-02
4216.732, -5.0156331E-03
4218.661, 2.5022540E-02
4220.589, 9.4497003E-02
4222.518, -2.5162390E-02
4224.446, -1.5817070E-02
4226.375, 4.0208371E-03
4228.303, -2.1797670E-02
4230.232, -2.3510439E-02
4232.160, -9.2384823E-02
4234.089, -8.3881408E-02
4236.017, -4.5851640E-02
4237.946, -0.1320641
4239.874, -0.1811694
4241.803, -0.1035340
4243.731, -6.7577280E-02
4245.660, 0.1190538
4247.588, 7.2306269E-03
4249.517, -0.1310560
4251.445, -9.2335809E-03
4253.374, 1.5919800E-03
4255.302, 7.4869163E-02
4257.230, 0.1465683
4259.159, 0.1069292
4261.087, 2.0839971E-02
4263.016, -7.5882033E-02
4264.944, -0.1348082
4266.873, -5.8435529E-02
4268.801, 7.6076761E-03
4270.729, -0.1586013
4272.658, 8.3475918E-02
4274.586, 0.1819238
4276.515, 2.1028459E-02
4278.443, -8.6670272E-02
4280.372, -2.2401679E-02
4282.300, 9.1436662E-02
4284.229, -5.9474051E-02
4286.157, -3.0601570E-02
4288.086, 4.1542571E-02
4290.014, -1.1957180E-02
4291.943, -5.6842972E-02
4293.871, 3.7168991E-03
4295.800, 4.5879170E-02
4297.728, 5.5288501E-02
4299.657, 2.6927399E-03
4301.585, -2.8098371E-02
4303.514, 9.7515561E-02
4305.442, 0.1464544
4307.371, -3.8887041E-03
4309.299, -5.8369271E-02
4311.228, -7.9519957E-02
4313.156, 0.1818383
4315.084, 5.3907949E-02
4317.013, -4.1638661E-02
4318.941, -7.0600961E-03
4320.870, 2.8427791E-02
4322.798, 0.2252820
4324.727, 4.8951931E-02
4326.655, -8.2334049E-02
4328.583, -4.1726511E-02
4330.512, 0.1397795
4332.440, 0.1638674
4334.369, 7.1943872E-02
4336.297, 6.9610037E-02
4338.226, 0.1413463
4340.154, 4.8667789E-02
4342.083, -8.8253647E-02
4344.011, -0.1925196
4345.940, -6.0523279E-02
4347.868, 7.0423961E-02
4349.797, 6.6489413E-02
4351.725, 9.3618743E-02
4353.654, -1.4825780E-02
4355.582, -8.4364302E-02
4357.511, 6.5124850E-03
4359.439, -0.2088396
4361.368, -0.1828772
4363.296, 0.1246298
4365.225, 4.3225519E-02
4367.153, -4.1451141E-02
4369.082, -1.2187540E-04
4371.010, -3.7085541E-02
4372.938, -0.2357508
4374.867, 7.6669566E-02
4376.795, -0.1205107
4378.724, -7.2427258E-02
4380.652, 0.1168576
##END=



