##NAMES=Pucherite
##RRUFFID=R080137
##IDEAL CHEMISTRY=Bi(VO_4_)
##LOCALITY=Fazenda da Posse, Sao Jose do Brejauba, Minas Gerais, Brazil
##OWNER=RRUFF
##SOURCE=Luiz Menezes
##DESCRIPTION=Reddish brown tabular crystals associated with greenish yellow bismutite
##STATUS=The identification of this mineral has been confirmed by single-crystal X-ray diffraction
##URL=https://www.rruff.net/odr/rruff_sample/R080137
##DIFFRACTION SAMPLE DESCRIPTION=Single crystal, powder profile is calculated
##CELL PARAMETERS=a: 5.305 b: 5.034 c: 11.947 alpha: 90 beta: 90 gamma: 90 volume: 319.06 crystal system: orthorhombic
##FILETYPE=Raman Processed
##RAMAN WAVELENGTH=532

135.1292, 9192.199
137.0576, 9629.838
138.9861, 10036.93
140.9146, 10415.57
142.8430, 10769.76
144.7715, 11091.40
146.7000, 11381.55
148.6284, 11643.45
150.5569, 11878.53
152.4854, 12115.92
154.4138, 12285.76
156.3423, 12346.65
158.2708, 12322.29
160.1992, 12303.34
162.1277, 12217.34
164.0562, 12181.53
165.9846, 12302.84
167.9131, 12585.79
169.8416, 12951.35
171.7700, 13401.99
173.6985, 13948.82
175.6270, 14432.06
177.5554, 14930.80
179.4839, 15324.74
181.4124, 15549.71
183.3408, 15584.04
185.2693, 15464.78
187.1978, 15185.91
189.1262, 14724.27
191.0547, 14174.69
192.9832, 13474.97
194.9116, 12709.20
196.8401, 11958.80
198.7686, 11179.21
200.6970, 10469.44
202.6255, 9883.413
204.5540, 9396.876
206.4824, 8906.905
208.4109, 8394.472
210.3394, 7878.260
212.2678, 7364.435
214.1963, 6832.448
216.1248, 6339.076
218.0532, 5891.324
219.9817, 5482.721
221.9102, 5140.587
223.8386, 4876.313
225.7671, 4660.742
227.6956, 4477.951
229.6240, 4330.254
231.5525, 4199.266
233.4810, 4081.091
235.4094, 3976.076
237.3379, 3881.984
239.2664, 3794.746
241.1948, 3723.431
243.1233, 3668.469
245.0518, 3635.318
246.9802, 3606.010
248.9087, 3582.017
250.8372, 3561.424
252.7656, 3537.368
254.6941, 3504.179
256.6226, 3474.782
258.5510, 3453.690
260.4795, 3443.383
262.4080, 3438.476
264.3364, 3439.977
266.2649, 3447.722
268.1934, 3459.602
270.1218, 3472.193
272.0503, 3491.371
273.9788, 3523.131
275.9072, 3569.658
277.8357, 3617.710
279.7642, 3661.495
281.6926, 3708.116
283.6211, 3762.548
285.5496, 3828.201
287.4780, 3898.221
289.4065, 3966.038
291.3350, 4037.304
293.2634, 4135.381
295.1919, 4276.385
297.1204, 4436.647
299.0488, 4606.839
300.9773, 4789.220
302.9058, 4976.024
304.8342, 5171.090
306.7627, 5372.985
308.6912, 5576.816
310.6196, 5747.281
312.5481, 5944.646
314.4766, 6211.001
316.4050, 6547.957
318.3335, 6889.016
320.2620, 7227.405
322.1904, 7569.074
324.1189, 7915.384
326.0474, 8276.658
327.9758, 8632.896
329.9043, 8971.441
331.8328, 9293.836
333.7612, 9589.360
335.6897, 9846.485
337.6182, 10075.47
339.5467, 10301.79
341.4751, 10543.02
343.4036, 10763.21
345.3321, 10939.35
347.2605, 11078.58
349.1890, 11202.59
351.1175, 11314.44
353.0459, 11406.43
354.9744, 11483.27
356.9029, 11550.76
358.8313, 11603.86
360.7598, 11627.22
362.6883, 11640.54
364.6167, 11659.31
366.5452, 11703.28
368.4737, 11726.05
370.4021, 11688.01
372.3306, 11595.25
374.2591, 11481.97
376.1875, 11350.88
378.1160, 11210.71
380.0445, 11077.89
381.9729, 10958.16
383.9014, 10826.36
385.8299, 10705.41
387.7583, 10587.82
389.6868, 10456.09
391.6153, 10253.80
393.5437, 10106.92
395.4722, 10043.61
397.4007, 10057.36
399.3291, 10141.49
401.2576, 10361.25
403.1861, 10621.17
405.1145, 10862.34
407.0430, 11101.13
408.9715, 11285.29
410.8999, 11367.12
412.8284, 11335.52
414.7569, 11185.42
416.6853, 10831.40
418.6138, 10361.83
420.5423, 9820.155
422.4707, 9225.387
424.3992, 8624.320
426.3277, 8040.708
428.2561, 7498.499
430.1846, 7011.425
432.1131, 6604.433
434.0415, 6242.427
435.9700, 5920.884
437.8985, 5620.886
439.8269, 5315.543
441.7554, 4991.086
443.6839, 4691.165
445.6123, 4416.059
447.5408, 4159.633
449.4693, 3932.547
451.3977, 3740.899
453.3262, 3579.209
455.2547, 3443.762
457.1831, 3339.735
459.1116, 3248.749
461.0401, 3160.315
462.9685, 3077.923
464.8970, 3010.540
466.8255, 2964.033
468.7539, 2917.276
470.6824, 2858.490
472.6109, 2789.504
474.5393, 2735.820
476.4678, 2711.877
478.3963, 2690.811
480.3247, 2659.220
482.2532, 2618.774
484.1817, 2582.226
486.1101, 2550.453
488.0386, 2521.851
489.9671, 2496.124
491.8955, 2469.966
493.8240, 2446.234
495.7525, 2430.150
497.6809, 2415.385
499.6094, 2390.709
501.5379, 2355.643
503.4663, 2324.052
505.3948, 2297.109
507.3233, 2270.226
509.2517, 2246.119
511.1802, 2230.271
513.1086, 2216.565
515.0371, 2201.466
516.9656, 2184.217
518.8940, 2163.820
520.8225, 2138.771
522.7510, 2115.653
524.6794, 2102.917
526.6079, 2094.573
528.5364, 2084.834
530.4648, 2075.921
532.3933, 2068.075
534.3218, 2054.829
536.2502, 2027.633
538.1787, 2011.144
540.1072, 2019.893
542.0356, 2042.706
543.9641, 2053.802
545.8926, 2036.684
547.8210, 2017.511
549.7495, 2006.951
551.6780, 2010.740
553.6064, 2016.543
555.5349, 2028.240
557.4634, 2042.794
559.3918, 2059.826
561.3203, 2070.681
563.2488, 2073.905
565.1772, 2068.189
567.1057, 2064.696
569.0342, 2073.848
570.9626, 2094.836
572.8911, 2113.201
574.8196, 2121.563
576.7480, 2126.905
578.6765, 2143.611
580.6050, 2176.886
582.5335, 2206.806
584.4620, 2226.277
586.3904, 2240.151
588.3189, 2254.630
590.2474, 2266.457
592.1758, 2285.055
594.1043, 2316.508
596.0328, 2363.374
597.9612, 2405.031
599.8897, 2436.200
601.8182, 2464.205
603.7466, 2494.056
605.6751, 2528.485
607.6036, 2567.741
609.5320, 2613.377
611.4605, 2660.423
613.3890, 2703.661
615.3174, 2746.751
617.2459, 2792.647
619.1744, 2840.722
621.1028, 2887.567
623.0313, 2937.058
624.9598, 2996.964
626.8882, 3059.138
628.8167, 3121.500
630.7452, 3180.936
632.6736, 3240.723
634.6021, 3302.381
636.5306, 3365.711
638.4590, 3433.492
640.3875, 3502.189
642.3160, 3563.006
644.2444, 3615.884
646.1729, 3657.737
648.1014, 3688.159
650.0298, 3702.687
651.9583, 3706.454
653.8868, 3691.092
655.8152, 3679.316
657.7437, 3671.770
659.6722, 3686.948
661.6006, 3712.081
663.5291, 3739.224
665.4576, 3766.659
667.3860, 3800.292
669.3145, 3841.930
671.2430, 3895.271
673.1714, 3962.027
675.0999, 4043.430
677.0284, 4136.164
678.9568, 4240.411
680.8853, 4344.694
682.8138, 4440.787
684.7422, 4545.479
686.6707, 4672.560
688.5992, 4820.633
690.5276, 4976.340
692.4561, 5138.369
694.3846, 5312.029
696.3130, 5490.649
698.2415, 5668.769
700.1700, 5832.507
702.0984, 5983.217
704.0269, 6117.477
705.9554, 6232.718
707.8839, 6332.631
709.8123, 6392.697
711.7408, 6401.551
713.6693, 6383.487
715.5977, 6355.362
717.5262, 6311.306
719.4547, 6268.369
721.3831, 6224.132
723.3116, 6188.415
725.2401, 6170.832
727.1685, 6182.716
729.0970, 6197.076
731.0255, 6210.225
732.9539, 6223.623
734.8824, 6238.698
736.8109, 6248.958
738.7393, 6271.998
740.6678, 6315.652
742.5963, 6378.282
744.5247, 6450.106
746.4532, 6540.028
748.3817, 6629.419
750.3101, 6711.893
752.2386, 6793.645
754.1671, 6887.652
756.0955, 6996.867
758.0240, 7114.503
759.9525, 7241.298
761.8809, 7373.969
763.8094, 7506.572
765.7379, 7637.727
767.6663, 7769.890
769.5948, 7910.858
771.5233, 8052.526
773.4517, 8171.961
775.3802, 8264.254
777.3087, 8337.261
779.2371, 8387.551
781.1656, 8418.854
783.0941, 8457.892
785.0225, 8514.451
786.9510, 8569.698
788.8795, 8614.406
790.8079, 8653.455
792.7364, 8708.047
794.6649, 8785.191
796.5933, 8869.738
798.5218, 8939.811
800.4503, 9002.219
802.3787, 9123.335
804.3072, 9302.845
806.2357, 9538.842
808.1641, 9837.754
810.0926, 10195.31
812.0211, 10600.46
813.9495, 11039.00
815.8780, 11562.79
817.8065, 12172.97
819.7349, 12877.19
821.6634, 13683.48
823.5919, 14597.03
825.5203, 15609.83
827.4488, 16700.18
829.3773, 17895.79
831.3057, 19172.25
833.2342, 20508.43
835.1627, 21933.31
837.0911, 23481.53
839.0196, 25113.63
840.9481, 26823.59
842.8765, 28596.22
844.8050, 30484.63
846.7335, 32485.88
848.6619, 34653.48
850.5904, 37009.86
852.5189, 39567.21
854.4473, 42274.63
856.3758, 45228.34
858.3043, 48285.01
860.2327, 51246.02
862.1612, 54300.94
864.0897, 56881.57
866.0181, 58992.57
867.9466, 60550.56
869.8751, 61236.98
871.8035, 61056.03
873.7320, 60231.91
875.6605, 58618.64
877.5889, 56431.56
879.5174, 53950.96
881.4459, 51091.43
883.3743, 48128.46
885.3028, 45062.53
887.2313, 41955.74
889.1597, 38947.53
891.0882, 36031.53
893.0167, 33160.07
894.9451, 30281.98
896.8736, 27512.75
898.8021, 24886.68
900.7305, 22409.76
902.6590, 20145.19
904.5875, 18102.66
906.5159, 16290.14
908.4444, 14678.67
910.3729, 13280.70
912.3013, 12044.46
914.2298, 10992.43
916.1583, 10078.90
918.0867, 9264.782
920.0152, 8546.885
921.9437, 7895.118
923.8721, 7313.168
925.8006, 6784.376
927.7291, 6324.849
929.6575, 5936.790
931.5860, 5579.124
933.5145, 5240.655
935.4429, 4921.060
937.3714, 4633.344
939.2999, 4377.757
941.2283, 4146.069
943.1568, 3939.099
945.0853, 3747.722
947.0137, 3566.155
948.9422, 3402.542
950.8707, 3263.290
952.7991, 3143.985
954.7276, 3036.825
956.6561, 2945.999
958.5845, 2872.273
960.5130, 2798.917
962.4415, 2725.611
964.3699, 2656.106
966.2984, 2590.458
968.2269, 2529.584
970.1553, 2477.057
972.0838, 2433.080
974.0123, 2396.507
975.9407, 2369.018
977.8692, 2345.759
979.7977, 2316.922
981.7261, 2276.552
983.6546, 2241.404
985.5831, 2216.135
987.5115, 2196.031
989.4400, 2175.439
991.3685, 2150.325
993.2969, 2120.991
995.2254, 2094.329
997.1539, 2079.365
999.0823, 2078.734
1001.011, 2068.473
1002.939, 2039.586
1004.868, 2001.371
1006.796, 1972.722
1008.725, 1961.311
1010.653, 1959.408
1012.582, 1948.418
1014.510, 1928.882
1016.439, 1912.590
1018.367, 1902.986
1020.295, 1888.896
1022.224, 1867.026
1024.152, 1852.534
1026.081, 1841.540
1028.009, 1827.881
1029.938, 1808.849
1031.866, 1790.680
1033.795, 1767.417
1035.723, 1743.699
1037.652, 1725.024
1039.580, 1715.002
1041.509, 1715.827
1043.437, 1716.648
1045.365, 1702.158
1047.294, 1677.497
1049.222, 1656.260
1051.151, 1640.261
1053.079, 1622.195
1055.008, 1607.784
1056.936, 1602.814
1058.865, 1598.574
1060.793, 1592.095
1062.722, 1585.393
1064.650, 1585.066
1066.579, 1587.328
1068.507, 1582.616
1070.436, 1571.367
1072.364, 1558.906
1074.292, 1547.806
1076.221, 1535.323
1078.150, 1523.883
1080.078, 1521.287
1082.006, 1521.083
1083.935, 1515.695
1085.863, 1499.345
1087.792, 1499.664
1089.720, 1514.925
1091.649, 1517.453
1093.577, 1499.336
1095.506, 1470.977
1097.434, 1453.162
1099.363, 1446.365
1101.291, 1445.164
1103.220, 1442.624
1105.148, 1435.718
1107.077, 1426.198
1109.005, 1420.236
1110.933, 1417.614
1112.862, 1416.895
1114.790, 1415.004
1116.719, 1406.696
1118.647, 1386.746
1120.576, 1368.815
1122.504, 1365.452
1124.433, 1370.895
1126.361, 1374.950
1128.290, 1373.265
1130.218, 1367.061
1132.147, 1358.360
1134.075, 1350.043
1136.004, 1346.462
1137.932, 1346.153
1139.860, 1344.565
1141.789, 1338.983
1143.717, 1333.323
1145.646, 1328.843
1147.574, 1322.722
1149.503, 1314.860
1151.431, 1306.333
1153.360, 1300.921
1155.288, 1298.995
1157.217, 1297.093
1159.145, 1295.657
1161.074, 1296.842
1163.002, 1301.331
1164.931, 1309.209
1166.859, 1310.991
1168.787, 1296.820
1170.716, 1277.807
1172.644, 1267.425
1174.573, 1267.430
1176.501, 1266.025
1178.430, 1258.771
1180.358, 1259.198
1182.287, 1267.777
1184.215, 1277.089
1186.144, 1277.339
1188.072, 1267.651
1190.001, 1257.786
1191.929, 1245.105
1193.858, 1237.394
1195.786, 1241.447
1197.714, 1254.463
1199.643, 1261.558
1201.571, 1259.002
1203.500, 1256.448
1205.428, 1258.052
1207.357, 1260.351
1209.285, 1258.965
1211.214, 1254.394
1213.142, 1246.711
1215.071, 1230.580
1216.999, 1216.026
1218.928, 1207.989
1220.856, 1205.833
1222.785, 1206.297
1224.713, 1213.997
1226.641, 1219.999
1228.570, 1221.740
1230.498, 1219.067
1232.427, 1211.976
1234.355, 1200.914
1236.284, 1192.887
1238.212, 1185.592
1240.141, 1177.497
1242.069, 1179.459
1243.998, 1191.548
1245.926, 1197.954
1247.855, 1190.976
1249.783, 1186.520
1251.712, 1191.503
1253.640, 1198.721
1255.568, 1197.846
1257.497, 1185.128
1259.425, 1177.171
1261.354, 1178.667
1263.282, 1180.705
1265.211, 1181.803
1267.139, 1181.402
1269.068, 1176.946
1270.996, 1166.815
1272.925, 1160.977
1274.853, 1165.698
1276.782, 1171.532
1278.710, 1170.141
1280.639, 1161.714
1282.567, 1158.567
1284.495, 1165.926
1286.424, 1174.080
1288.352, 1178.732
1290.281, 1176.667
1292.209, 1171.405
1294.138, 1164.000
1296.066, 1159.370
1297.995, 1155.352
1299.923, 1151.059
1301.852, 1150.191
1303.780, 1150.600
1305.709, 1150.349
1307.637, 1150.735
1309.566, 1150.139
1311.494, 1144.497
1313.422, 1138.523
1315.351, 1136.659
1317.279, 1137.200
1319.208, 1137.281
1321.136, 1137.811
1323.065, 1135.463
1324.993, 1127.674
1326.922, 1117.875
1328.850, 1108.916
1330.779, 1101.906
1332.707, 1096.392
1334.636, 1091.169
1336.564, 1085.455
1338.493, 1080.439
1340.421, 1078.641
1342.349, 1080.981
1344.278, 1090.593
1346.206, 1093.865
1348.135, 1082.590
1350.063, 1073.317
1351.992, 1076.160
1353.920, 1087.699
1355.849, 1097.418
1357.777, 1105.592
1359.706, 1105.026
1361.634, 1083.557
1363.563, 1066.622
1365.491, 1074.515
1367.420, 1096.199
1369.348, 1106.167
1371.276, 1100.616
1373.205, 1096.852
1375.133, 1097.970
1377.062, 1101.813
1378.990, 1111.420
1380.919, 1125.291
1382.847, 1130.763
1384.776, 1121.316
1386.704, 1114.522
1388.633, 1111.811
1390.561, 1112.965
1392.490, 1118.844
1394.418, 1128.968
1396.347, 1138.747
1398.275, 1150.896
1400.203, 1158.577
1402.132, 1157.568
1404.060, 1154.347
1405.989, 1154.183
1407.917, 1156.862
1409.846, 1159.527
1411.774, 1160.764
1413.703, 1165.193
1415.631, 1178.500
1417.560, 1192.050
1419.488, 1199.111
1421.417, 1200.675
1423.345, 1199.925
1425.274, 1195.354
1427.202, 1191.867
1429.130, 1188.859
1431.059, 1189.424
1432.987, 1197.717
1434.916, 1213.356
1436.844, 1227.512
1438.773, 1242.520
1440.701, 1251.576
1442.630, 1245.592
1444.558, 1238.904
1446.487, 1248.328
1448.415, 1274.521
1450.344, 1287.724
1452.272, 1271.867
1454.201, 1265.039
1456.129, 1278.948
1458.057, 1297.972
1459.986, 1307.752
1461.914, 1309.628
1463.843, 1316.661
1465.771, 1333.159
1467.700, 1343.808
1469.628, 1342.167
1471.557, 1337.597
1473.485, 1333.825
1475.414, 1332.752
1477.342, 1342.944
1479.271, 1369.666
1481.199, 1388.430
1483.128, 1389.667
1485.056, 1385.840
1486.984, 1380.326
1488.913, 1375.327
1490.841, 1381.470
1492.770, 1403.115
1494.698, 1417.200
1496.627, 1411.363
1498.555, 1405.750
1500.484, 1410.503
1502.412, 1421.949
1504.341, 1436.436
1506.269, 1455.727
1508.198, 1467.214
1510.126, 1461.109
1512.055, 1457.959
1513.983, 1467.137
1515.911, 1484.087
1517.840, 1498.891
1519.768, 1507.261
1521.697, 1518.730
1523.625, 1541.611
1525.554, 1559.257
1527.482, 1565.523
1529.411, 1566.232
1531.339, 1565.831
1533.268, 1561.192
1535.196, 1561.837
1537.125, 1575.529
1539.053, 1587.652
1540.982, 1593.157
1542.910, 1598.320
1544.839, 1611.983
1546.767, 1630.557
1548.695, 1634.266
1550.624, 1612.753
1552.552, 1600.080
1554.481, 1610.199
1556.409, 1620.692
1558.338, 1616.872
1560.266, 1604.249
1562.195, 1597.699
1564.123, 1598.744
1566.052, 1600.187
1567.980, 1605.589
1569.909, 1603.653
1571.837, 1581.629
1573.766, 1555.816
1575.694, 1546.787
1577.622, 1551.157
1579.551, 1552.550
1581.479, 1550.153
1583.408, 1549.070
1585.336, 1551.227
1587.265, 1554.263
1589.193, 1558.422
1591.122, 1561.929
1593.050, 1560.393
1594.979, 1553.374
1596.907, 1545.782
1598.836, 1535.195
1600.764, 1528.058
1602.693, 1528.557
1604.621, 1533.887
1606.549, 1541.324
1608.478, 1551.244
1610.406, 1563.459
1612.335, 1582.546
1614.263, 1590.495
1616.192, 1570.560
1618.120, 1550.130
1620.049, 1552.303
1621.977, 1567.832
1623.906, 1564.782
1625.834, 1537.234
1627.763, 1524.807
1629.691, 1542.428
1631.620, 1561.739
1633.548, 1574.303
1635.476, 1580.792
1637.405, 1579.832
1639.333, 1571.638
1641.262, 1567.058
1643.190, 1568.788
1645.119, 1569.286
1647.047, 1563.709
1648.976, 1559.865
1650.904, 1564.295
1652.833, 1572.687
1654.761, 1574.009
1656.690, 1566.315
1658.618, 1563.885
1660.547, 1569.711
1662.475, 1578.168
1664.403, 1594.515
1666.332, 1607.219
1668.260, 1604.427
1670.189, 1588.941
1672.117, 1575.924
1674.046, 1564.131
1675.974, 1558.221
1677.903, 1563.999
1679.831, 1568.575
1681.760, 1564.159
1683.688, 1558.499
1685.617, 1563.187
1687.545, 1578.125
1689.474, 1582.521
1691.402, 1573.651
1693.330, 1561.384
1695.259, 1536.498
1697.187, 1521.486
1699.116, 1533.888
1701.044, 1558.258
1702.973, 1571.297
1704.901, 1572.036
1706.830, 1570.168
1708.758, 1561.848
1710.687, 1557.971
1712.615, 1565.222
1714.544, 1571.537
1716.472, 1568.822
1718.401, 1561.685
1720.329, 1559.332
1722.257, 1562.826
1724.186, 1563.151
1726.114, 1557.730
1728.043, 1553.872
1729.971, 1555.772
1731.900, 1556.426
1733.828, 1551.869
1735.757, 1543.161
1737.685, 1530.860
1739.614, 1513.868
1741.542, 1505.766
1743.471, 1517.283
1745.399, 1517.788
1747.328, 1488.707
1749.256, 1459.991
1751.184, 1450.643
1753.113, 1451.902
1755.041, 1445.779
1756.970, 1431.404
1758.898, 1421.307
1760.827, 1418.807
1762.755, 1413.774
1764.684, 1399.542
1766.612, 1387.231
1768.541, 1387.289
1770.469, 1391.050
1772.398, 1382.942
1774.326, 1363.482
1776.255, 1346.268
1778.183, 1333.250
1780.111, 1318.164
1782.040, 1294.225
1783.968, 1274.720
1785.897, 1267.302
1787.825, 1267.117
1789.754, 1272.901
1791.682, 1282.007
1793.611, 1274.112
1795.539, 1243.243
1797.468, 1221.271
1799.396, 1222.296
1801.325, 1220.633
1803.253, 1198.113
1805.182, 1172.792
1807.110, 1160.718
1809.038, 1159.553
1810.967, 1163.484
1812.895, 1173.166
1814.824, 1178.345
1816.752, 1177.304
1818.681, 1172.010
1820.609, 1158.257
1822.538, 1145.312
1824.466, 1141.331
1826.395, 1142.611
1828.323, 1141.557
1830.252, 1138.207
1832.180, 1135.527
1834.109, 1132.887
1836.037, 1132.967
1837.965, 1140.644
1839.894, 1146.002
1841.822, 1144.030
1843.751, 1137.107
1845.679, 1124.816
1847.608, 1108.928
1849.536, 1104.655
1851.465, 1115.666
1853.393, 1126.402
1855.322, 1141.884
1857.250, 1148.762
1859.179, 1136.325
1861.107, 1120.872
1863.036, 1116.414
1864.964, 1117.431
1866.892, 1110.203
1868.821, 1092.972
1870.749, 1083.588
1872.678, 1086.351
1874.606, 1090.010
1876.535, 1091.287
1878.463, 1096.709
1880.392, 1118.363
1882.320, 1137.402
1884.249, 1128.140
1886.177, 1099.197
1888.106, 1089.763
1890.034, 1103.218
1891.963, 1109.548
1893.891, 1102.812
1895.819, 1098.045
1897.748, 1102.008
1899.676, 1105.340
1901.605, 1102.318
1903.533, 1097.087
1905.462, 1094.609
1907.390, 1094.105
1909.319, 1090.723
1911.247, 1083.341
1913.176, 1085.707
1915.104, 1105.064
1917.033, 1120.706
1918.961, 1126.424
1920.890, 1125.604
1922.818, 1115.806
1924.746, 1103.494
1926.675, 1098.514
1928.603, 1099.262
1930.532, 1094.989
1932.460, 1083.478
1934.389, 1077.379
1936.317, 1081.246
1938.246, 1085.308
1940.174, 1084.870
1942.103, 1087.495
1944.031, 1104.665
1945.960, 1122.579
1947.888, 1119.389
1949.817, 1098.857
1951.745, 1085.871
1953.673, 1080.489
1955.602, 1082.572
1957.530, 1098.241
1959.459, 1110.138
1961.387, 1115.568
1963.316, 1116.019
1965.244, 1104.733
1967.173, 1095.050
1969.101, 1106.899
1971.030, 1131.093
1972.958, 1137.320
1974.887, 1125.356
1976.815, 1114.036
1978.744, 1104.200
1980.672, 1098.274
1982.600, 1098.519
1984.529, 1099.663
1986.457, 1102.313
1988.386, 1101.876
1990.314, 1088.869
1992.243, 1072.572
1994.171, 1073.609
1996.100, 1091.243
1998.028, 1100.543
1999.957, 1097.769
2001.885, 1097.367
2003.814, 1104.606
2005.742, 1107.290
2007.671, 1097.473
2009.599, 1088.955
2011.527, 1090.029
2013.456, 1095.929
2015.384, 1101.870
2017.313, 1107.739
2019.241, 1112.281
2021.170, 1115.180
2023.098, 1123.885
2025.027, 1142.309
2026.955, 1152.557
2028.884, 1148.665
2030.812, 1141.181
2032.741, 1131.779
2034.669, 1123.294
2036.598, 1114.311
2038.526, 1109.697
2040.454, 1122.530
2042.383, 1146.444
2044.311, 1149.532
2046.240, 1127.700
2048.168, 1115.422
2050.097, 1119.072
2052.025, 1122.784
2053.954, 1128.233
2055.882, 1128.876
2057.811, 1116.515
2059.739, 1105.319
2061.667, 1108.482
2063.596, 1117.384
2065.525, 1118.557
2067.453, 1113.564
2069.382, 1111.643
2071.310, 1112.860
2073.239, 1113.171
2075.167, 1111.626
2077.095, 1111.032
2079.024, 1113.596
2080.952, 1113.602
2082.881, 1102.145
2084.809, 1095.177
2086.738, 1111.630
2088.666, 1132.023
2090.595, 1128.312
2092.523, 1109.016
2094.452, 1102.218
2096.380, 1109.084
2098.309, 1111.952
2100.237, 1105.832
2102.166, 1105.688
2104.094, 1118.244
2106.022, 1126.217
2107.951, 1122.959
2109.879, 1119.028
2111.808, 1119.136
2113.736, 1120.572
2115.665, 1122.054
2117.593, 1122.762
2119.522, 1118.593
2121.450, 1112.062
2123.379, 1117.030
2125.307, 1134.883
2127.236, 1142.598
2129.164, 1133.774
2131.093, 1127.602
2133.021, 1128.435
2134.949, 1130.370
2136.878, 1134.126
2138.806, 1135.755
2140.735, 1128.628
2142.663, 1122.069
2144.592, 1129.298
2146.520, 1142.487
2148.449, 1143.600
2150.377, 1134.694
2152.306, 1128.947
2154.234, 1126.809
2156.163, 1127.385
2158.091, 1131.553
2160.020, 1134.396
2161.948, 1134.259
2163.876, 1133.580
2165.805, 1131.751
2167.733, 1131.127
2169.662, 1134.080
2171.590, 1137.817
2173.519, 1141.913
2175.447, 1143.923
2177.376, 1133.480
2179.304, 1115.700
2181.233, 1127.638
2183.161, 1170.595
2185.090, 1181.948
2187.018, 1151.445
2188.947, 1134.902
2190.875, 1146.116
2192.803, 1156.098
2194.732, 1155.120
2196.660, 1153.826
2198.589, 1154.842
2200.517, 1159.453
2202.446, 1172.828
2204.374, 1186.653
2206.303, 1191.924
2208.231, 1189.833
2210.160, 1180.347
2212.088, 1164.756
2214.017, 1159.806
2215.945, 1166.269
2217.874, 1167.402
2219.802, 1160.846
2221.730, 1156.996
2223.659, 1159.562
2225.587, 1159.207
2227.516, 1145.783
2229.444, 1139.588
2231.373, 1155.427
2233.301, 1173.311
2235.230, 1180.894
2237.158, 1182.970
2239.087, 1183.587
2241.015, 1183.166
2242.944, 1183.145
2244.872, 1182.862
2246.801, 1175.383
2248.729, 1161.583
2250.657, 1163.992
2252.586, 1186.230
2254.514, 1198.556
2256.443, 1192.233
2258.371, 1191.203
2260.300, 1209.776
2262.228, 1220.130
2264.157, 1208.671
2266.085, 1195.921
2268.014, 1186.077
2269.942, 1184.550
2271.871, 1204.096
2273.799, 1226.910
2275.728, 1228.877
2277.656, 1220.134
2279.584, 1220.520
2281.513, 1227.987
2283.441, 1236.313
2285.370, 1245.073
2287.298, 1246.211
2289.227, 1235.910
2291.155, 1231.483
2293.084, 1237.649
2295.012, 1242.440
2296.941, 1241.464
2298.869, 1246.175
2300.798, 1266.871
2302.726, 1280.480
2304.655, 1274.016
2306.583, 1263.816
2308.511, 1257.402
2310.440, 1254.335
2312.368, 1259.383
2314.297, 1263.743
2316.225, 1248.124
2318.154, 1224.419
2320.082, 1225.166
2322.011, 1246.913
2323.939, 1263.771
2325.868, 1275.693
2327.796, 1283.163
2329.725, 1286.017
2331.653, 1285.419
2333.582, 1280.370
2335.510, 1276.826
2337.438, 1276.184
2339.367, 1276.302
2341.295, 1277.033
2343.224, 1277.916
2345.152, 1278.026
2347.081, 1279.481
2349.009, 1281.244
2350.938, 1287.297
2352.866, 1312.191
2354.795, 1331.700
2356.723, 1308.819
2358.652, 1274.273
2360.580, 1274.660
2362.509, 1296.932
2364.437, 1311.855
2366.365, 1319.619
2368.294, 1321.334
2370.222, 1316.868
2372.151, 1306.330
2374.079, 1287.367
2376.008, 1281.283
2377.936, 1291.646
2379.865, 1299.276
2381.793, 1300.199
2383.722, 1304.076
2385.650, 1318.301
2387.579, 1325.582
2389.507, 1314.291
2391.436, 1305.630
2393.364, 1308.210
2395.292, 1313.432
2397.221, 1319.099
2399.149, 1323.161
2401.078, 1321.765
2403.006, 1320.473
2404.935, 1326.170
2406.863, 1333.397
2408.792, 1334.933
2410.720, 1333.150
2412.649, 1333.008
2414.577, 1333.454
2416.506, 1329.130
2418.434, 1321.008
2420.363, 1319.003
2422.291, 1323.037
2424.219, 1337.386
2426.148, 1362.649
2428.076, 1364.928
2430.005, 1335.902
2431.933, 1315.903
2433.862, 1314.000
2435.790, 1311.954
2437.719, 1307.176
2439.647, 1304.634
2441.576, 1304.637
2443.504, 1307.264
2445.433, 1314.285
2447.361, 1320.209
2449.290, 1324.263
2451.218, 1324.346
2453.146, 1311.965
2455.075, 1304.752
2457.003, 1322.439
2458.932, 1340.644
2460.860, 1335.588
2462.789, 1324.115
2464.717, 1325.537
2466.646, 1330.036
2468.574, 1321.843
2470.503, 1309.478
2472.431, 1306.596
2474.360, 1311.281
2476.288, 1322.284
2478.217, 1336.348
2480.145, 1335.061
2482.073, 1320.171
2484.002, 1319.417
2485.930, 1331.176
2487.859, 1333.814
2489.787, 1326.297
2491.716, 1316.301
2493.644, 1302.322
2495.573, 1297.272
2497.501, 1304.482
2499.430, 1315.898
2501.358, 1337.522
2503.287, 1343.968
2505.215, 1326.401
2507.144, 1315.518
2509.072, 1321.154
2511.000, 1324.196
2512.929, 1314.721
2514.857, 1308.667
2516.786, 1314.788
2518.714, 1318.033
2520.643, 1309.629
2522.571, 1303.415
2524.500, 1304.534
2526.428, 1309.260
2528.357, 1320.574
2530.285, 1328.280
2532.214, 1320.117
2534.142, 1312.513
2536.071, 1319.921
2537.999, 1331.560
2539.927, 1342.759
2541.856, 1348.181
2543.784, 1335.884
2545.713, 1320.426
2547.641, 1320.486
2549.570, 1326.574
2551.498, 1324.483
2553.427, 1318.486
2555.355, 1316.279
2557.284, 1316.704
2559.212, 1316.857
2561.141, 1317.586
2563.069, 1322.446
2564.998, 1329.717
2566.926, 1333.791
2568.854, 1334.869
2570.783, 1334.251
2572.711, 1331.698
2574.640, 1322.171
2576.568, 1306.440
2578.497, 1311.265
2580.425, 1333.910
2582.354, 1329.361
2584.282, 1295.522
2586.211, 1285.571
2588.139, 1308.246
2590.068, 1311.352
2591.996, 1287.455
2593.925, 1282.344
2595.853, 1299.795
2597.781, 1307.744
2599.710, 1301.984
2601.638, 1297.967
2603.567, 1296.524
2605.495, 1300.725
2607.424, 1319.150
2609.352, 1323.754
2611.281, 1308.984
2613.209, 1297.133
2615.138, 1291.148
2617.066, 1288.425
2618.995, 1289.985
2620.923, 1290.714
2622.852, 1293.200
2624.780, 1287.327
2626.708, 1259.524
2628.637, 1251.086
2630.565, 1277.359
2632.494, 1298.451
2634.422, 1302.425
2636.351, 1303.642
2638.279, 1304.712
2640.208, 1306.422
2642.136, 1312.979
2644.065, 1312.406
2645.993, 1291.172
2647.922, 1287.491
2649.850, 1330.682
2651.779, 1356.922
2653.707, 1320.897
2655.635, 1297.657
2657.564, 1333.248
2659.492, 1352.351
2661.421, 1316.171
2663.349, 1288.871
2665.278, 1298.345
2667.206, 1311.278
2669.135, 1311.661
2671.063, 1314.525
2672.992, 1338.136
2674.920, 1346.862
2676.849, 1309.419
2678.777, 1282.063
2680.706, 1294.433
2682.634, 1306.543
2684.563, 1295.852
2686.491, 1285.656
2688.419, 1283.864
2690.348, 1289.031
2692.276, 1306.969
2694.205, 1322.161
2696.133, 1330.692
2698.062, 1331.146
2699.990, 1317.177
2701.919, 1303.222
2703.847, 1291.845
2705.776, 1288.268
2707.704, 1303.982
2709.633, 1313.919
2711.561, 1303.054
2713.490, 1293.858
2715.418, 1298.312
2717.346, 1305.089
2719.275, 1307.401
2721.203, 1313.540
2723.132, 1334.323
2725.060, 1346.096
2726.989, 1334.708
2728.917, 1322.659
2730.846, 1316.553
2732.774, 1317.424
2734.703, 1332.615
2736.631, 1344.186
2738.560, 1346.984
2740.488, 1344.886
2742.417, 1340.175
2744.345, 1328.480
2746.273, 1292.042
2748.202, 1274.508
2750.130, 1308.892
2752.059, 1330.126
2753.987, 1318.836
2755.916, 1304.831
2757.844, 1290.785
2759.773, 1289.612
2761.701, 1313.928
2763.630, 1336.529
2765.558, 1356.970
2767.487, 1364.392
2769.415, 1352.913
2771.344, 1340.765
2773.272, 1329.251
2775.200, 1325.417
2777.129, 1339.030
2779.057, 1343.937
2780.986, 1335.140
2782.914, 1330.178
2784.843, 1333.491
2786.771, 1330.077
2788.700, 1314.098
2790.628, 1300.798
2792.557, 1287.215
2794.485, 1291.724
2796.414, 1318.964
2798.342, 1326.007
2800.271, 1305.294
2802.199, 1303.244
2804.127, 1331.153
2806.056, 1338.358
2807.984, 1322.232
2809.913, 1319.488
2811.841, 1330.172
2813.770, 1327.827
2815.698, 1311.905
2817.627, 1321.098
2819.555, 1353.734
2821.484, 1359.392
2823.412, 1343.334
2825.341, 1343.469
2827.269, 1355.190
2829.198, 1354.694
2831.126, 1346.643
2833.054, 1353.267
2834.983, 1365.571
2836.911, 1352.482
2838.840, 1325.875
2840.768, 1302.738
2842.697, 1290.566
2844.625, 1315.483
2846.554, 1349.435
2848.482, 1344.969
2850.411, 1326.002
2852.339, 1314.491
2854.268, 1313.531
2856.196, 1337.845
2858.125, 1360.801
2860.053, 1349.674
2861.981, 1337.005
2863.910, 1351.929
2865.838, 1365.833
2867.767, 1355.794
2869.695, 1347.109
2871.624, 1358.211
2873.552, 1366.376
2875.481, 1359.796
2877.409, 1354.565
2879.338, 1359.656
2881.266, 1358.931
2883.195, 1338.956
2885.123, 1327.979
2887.052, 1332.055
2888.980, 1341.202
2890.908, 1355.470
2892.837, 1368.336
2894.765, 1381.622
2896.694, 1381.386
2898.622, 1362.500
2900.551, 1350.514
2902.479, 1346.062
2904.408, 1355.404
2906.336, 1378.315
2908.265, 1376.808
2910.193, 1353.008
2912.122, 1350.017
2914.050, 1363.861
2915.979, 1381.450
2917.907, 1396.317
2919.835, 1386.960
2921.764, 1365.109
2923.692, 1351.907
2925.621, 1348.409
2927.549, 1363.497
2929.478, 1382.024
2931.406, 1386.991
2933.335, 1387.088
2935.263, 1391.676
2937.192, 1393.453
2939.120, 1382.750
2941.049, 1375.448
2942.977, 1383.550
2944.906, 1392.273
2946.834, 1398.439
2948.762, 1397.678
2950.691, 1384.148
2952.619, 1377.879
2954.548, 1388.182
2956.476, 1392.553
2958.405, 1383.547
2960.333, 1375.101
2962.262, 1366.424
2964.190, 1373.754
2966.119, 1398.984
2968.047, 1407.351
2969.976, 1398.029
2971.904, 1388.732
2973.833, 1381.422
2975.761, 1396.659
2977.689, 1421.499
2979.618, 1415.997
2981.546, 1396.585
2983.475, 1396.335
2985.403, 1403.231
2987.332, 1401.908
2989.260, 1397.392
2991.189, 1383.282
2993.117, 1382.553
2995.046, 1434.018
2996.974, 1469.898
2998.903, 1451.432
3000.831, 1429.103
3002.760, 1421.020
3004.688, 1417.093
3006.616, 1418.798
3008.545, 1414.459
3010.473, 1401.037
3012.402, 1392.964
3014.330, 1391.619
3016.259, 1404.123
3018.187, 1432.138
3020.116, 1439.976
3022.044, 1431.447
3023.973, 1431.903
3025.901, 1437.705
3027.830, 1437.517
3029.758, 1432.065
3031.687, 1415.509
3033.615, 1402.534
3035.543, 1413.393
3037.472, 1432.093
3039.400, 1451.303
3041.329, 1462.578
3043.257, 1456.219
3045.186, 1451.775
3047.114, 1461.246
3049.043, 1467.958
3050.971, 1467.322
3052.900, 1463.419
3054.828, 1455.414
3056.757, 1450.144
3058.685, 1448.124
3060.614, 1454.521
3062.542, 1469.882
3064.470, 1454.616
3066.399, 1423.265
3068.327, 1443.751
3070.256, 1488.632
3072.184, 1496.003
3074.113, 1483.915
3076.041, 1469.739
3077.970, 1461.197
3079.898, 1467.232
3081.827, 1478.125
3083.755, 1493.292
3085.684, 1501.621
3087.612, 1496.117
3089.541, 1493.027
3091.469, 1502.623
3093.397, 1502.038
3095.326, 1487.474
3097.254, 1477.413
3099.183, 1473.073
3101.111, 1478.806
3103.040, 1492.161
3104.968, 1493.136
3106.897, 1487.894
3108.825, 1498.491
3110.754, 1512.249
3112.682, 1510.737
3114.611, 1503.592
3116.539, 1499.746
3118.468, 1494.828
3120.396, 1483.369
3122.324, 1476.187
3124.253, 1479.631
3126.181, 1484.882
3128.110, 1492.271
3130.038, 1490.205
3131.967, 1473.680
3133.895, 1484.245
3135.824, 1522.841
3137.752, 1542.029
3139.681, 1544.123
3141.609, 1531.051
3143.538, 1513.831
3145.466, 1514.880
3147.395, 1520.211
3149.323, 1513.449
3151.251, 1506.722
3153.180, 1507.165
3155.108, 1511.161
3157.037, 1521.748
3158.965, 1524.120
3160.894, 1512.567
3162.822, 1507.557
3164.751, 1511.561
3166.679, 1529.279
3168.608, 1557.514
3170.536, 1557.329
3172.465, 1541.031
3174.393, 1551.840
3176.322, 1567.625
3178.250, 1540.830
3180.178, 1515.972
3182.107, 1537.859
3184.035, 1561.860
3185.964, 1566.374
3187.892, 1561.845
3189.821, 1546.707
3191.749, 1539.836
3193.678, 1548.931
3195.606, 1550.879
3197.535, 1545.715
3199.463, 1539.267
3201.392, 1535.711
3203.320, 1553.347
3205.249, 1577.660
3207.177, 1585.642
3209.105, 1582.757
3211.034, 1566.450
3212.962, 1553.916
3214.891, 1554.087
3216.819, 1563.242
3218.748, 1584.852
3220.676, 1595.137
3222.605, 1584.699
3224.533, 1585.869
3226.462, 1597.633
3228.390, 1604.785
3230.319, 1605.373
3232.247, 1590.611
3234.176, 1573.130
3236.104, 1569.565
3238.032, 1575.419
3239.961, 1597.341
3241.889, 1610.872
3243.818, 1604.004
3245.746, 1584.483
3247.675, 1546.605
3249.603, 1543.384
3251.532, 1583.914
3253.460, 1618.191
3255.389, 1643.672
3257.317, 1641.154
3259.246, 1626.678
3261.174, 1623.777
3263.103, 1626.388
3265.031, 1630.912
3266.959, 1635.130
3268.888, 1636.550
3270.816, 1640.973
3272.745, 1653.964
3274.673, 1647.259
3276.602, 1618.890
3278.530, 1618.566
3280.459, 1641.090
3282.387, 1653.498
3284.316, 1659.840
3286.244, 1671.194
3288.173, 1675.322
3290.101, 1650.669
3292.030, 1633.176
3293.958, 1642.305
3295.886, 1644.823
3297.815, 1623.309
3299.743, 1617.071
3301.672, 1625.944
3303.600, 1629.425
3305.529, 1629.804
3307.457, 1641.561
3309.386, 1653.283
3311.314, 1641.195
3313.243, 1630.113
3315.171, 1647.221
3317.100, 1650.228
3319.028, 1616.698
3320.957, 1605.295
3322.885, 1628.349
3324.813, 1652.818
3326.742, 1676.170
3328.670, 1682.468
3330.599, 1677.727
3332.527, 1672.968
3334.456, 1667.405
3336.384, 1656.594
3338.313, 1650.983
3340.241, 1657.271
3342.170, 1665.444
3344.098, 1676.140
3346.027, 1678.037
3347.955, 1671.063
3349.884, 1654.785
3351.812, 1637.958
3353.740, 1651.019
3355.669, 1673.081
3357.597, 1682.745
3359.526, 1688.678
3361.454, 1700.159
3363.383, 1697.855
3365.311, 1673.166
3367.240, 1667.863
3369.168, 1687.238
3371.097, 1693.192
3373.025, 1689.771
3374.954, 1686.665
3376.882, 1685.592
3378.811, 1693.032
3380.739, 1696.121
3382.667, 1684.048
3384.596, 1678.777
3386.524, 1696.722
3388.453, 1684.620
3390.381, 1645.687
3392.310, 1656.807
3394.238, 1696.725
3396.167, 1703.983
3398.095, 1703.076
3400.024, 1726.650
3401.952, 1739.712
3403.881, 1704.993
3405.809, 1698.679
3407.738, 1735.352
3409.666, 1755.918
3411.594, 1757.197
3413.523, 1747.188
3415.451, 1734.651
3417.380, 1738.331
3419.308, 1745.212
3421.237, 1744.280
3423.165, 1741.054
3425.094, 1733.979
3427.022, 1737.631
3428.951, 1757.498
3430.879, 1759.305
3432.808, 1748.215
3434.736, 1739.666
3436.665, 1737.761
3438.593, 1761.002
3440.521, 1772.722
3442.450, 1740.478
3444.378, 1719.542
3446.307, 1724.248
3448.235, 1715.149
3450.164, 1693.885
3452.092, 1700.962
3454.021, 1720.586
3455.949, 1720.408
3457.878, 1711.833
3459.806, 1695.728
3461.735, 1689.338
3463.663, 1698.388
3465.592, 1712.082
3467.520, 1729.490
3469.448, 1741.895
3471.377, 1747.885
3473.305, 1738.736
3475.234, 1726.143
3477.162, 1719.348
3479.091, 1717.077
3481.019, 1719.343
3482.948, 1723.843
3484.876, 1731.366
3486.805, 1731.067
3488.733, 1726.903
3490.662, 1736.302
3492.590, 1745.011
3494.519, 1727.878
3496.447, 1717.376
3498.375, 1734.506
3500.304, 1737.931
3502.232, 1718.579
3504.161, 1710.426
3506.089, 1712.834
3508.018, 1722.275
3509.946, 1731.644
3511.875, 1730.600
3513.803, 1728.641
3515.732, 1732.427
3517.660, 1732.041
3519.589, 1726.551
3521.517, 1713.903
3523.446, 1699.840
3525.374, 1711.751
3527.302, 1730.098
3529.231, 1732.568
3531.159, 1733.610
3533.088, 1749.023
3535.016, 1733.755
3536.945, 1683.026
3538.873, 1685.106
3540.802, 1722.208
3542.730, 1728.537
3544.659, 1724.895
3546.587, 1731.327
3548.516, 1733.789
3550.444, 1727.176
3552.373, 1719.019
3554.301, 1710.410
3556.229, 1719.652
3558.158, 1738.279
3560.086, 1754.124
3562.015, 1756.834
3563.943, 1719.531
3565.872, 1703.450
3567.800, 1727.432
3569.729, 1744.590
3571.657, 1751.923
3573.586, 1753.236
3575.514, 1748.097
3577.443, 1726.928
3579.371, 1715.970
3581.300, 1734.391
3583.228, 1741.478
3585.156, 1723.258
3587.085, 1724.049
3589.013, 1737.385
3590.942, 1744.217
3592.870, 1747.434
3594.799, 1747.236
3596.727, 1750.234
3598.656, 1760.368
3600.584, 1767.839
3602.513, 1772.451
3604.441, 1782.481
3606.370, 1790.689
3608.298, 1777.613
3610.227, 1768.675
3612.155, 1786.973
3614.083, 1780.349
3616.012, 1729.852
3617.940, 1745.952
3619.869, 1801.340
3621.797, 1802.665
3623.726, 1784.895
3625.654, 1776.530
3627.583, 1770.445
3629.511, 1766.609
3631.440, 1752.053
3633.368, 1732.840
3635.297, 1752.052
3637.225, 1787.007
3639.154, 1812.473
3641.082, 1824.064
3643.010, 1815.084
3644.939, 1797.472
3646.867, 1773.217
3648.796, 1767.099
3650.724, 1771.416
3652.653, 1771.274
3654.581, 1771.556
3656.510, 1774.649
3658.438, 1780.691
3660.367, 1789.641
3662.295, 1801.353
3664.224, 1810.311
3666.152, 1788.435
3668.081, 1774.635
3670.009, 1817.063
3671.938, 1829.670
3673.866, 1782.027
3675.794, 1758.775
3677.723, 1762.270
3679.651, 1796.337
3681.580, 1826.390
3683.508, 1808.598
3685.437, 1799.477
3687.365, 1827.289
3689.294, 1830.317
3691.222, 1810.621
3693.151, 1791.978
3695.079, 1775.903
3697.008, 1756.776
3698.936, 1756.652
3700.865, 1805.525
3702.793, 1813.387
3704.721, 1784.971
3706.650, 1759.387
3708.578, 1749.815
3710.507, 1790.169
3712.435, 1816.505
3714.364, 1788.229
3716.292, 1773.141
3718.221, 1772.674
3720.149, 1785.165
3722.078, 1798.104
3724.006, 1792.028
3725.935, 1786.206
3727.863, 1786.670
3729.792, 1799.988
3731.720, 1820.732
3733.648, 1808.030
3735.577, 1788.307
3737.505, 1802.130
3739.434, 1808.184
3741.362, 1778.321
3743.291, 1774.469
3745.219, 1790.581
3747.148, 1786.871
3749.076, 1778.304
3751.005, 1781.091
3752.933, 1788.484
3754.862, 1801.533
3756.790, 1808.437
3758.719, 1809.729
3760.647, 1806.792
3762.575, 1804.092
3764.504, 1804.346
3766.432, 1810.630
3768.361, 1828.671
3770.289, 1828.964
3772.218, 1820.353
3774.146, 1833.171
3776.075, 1843.339
3778.003, 1827.734
3779.932, 1821.339
3781.860, 1831.404
3783.789, 1872.297
3785.717, 1913.925
3787.646, 1887.778
3789.574, 1854.011
3791.502, 1842.969
3793.431, 1838.882
3795.359, 1839.556
3797.288, 1852.511
3799.216, 1864.573
3801.145, 1859.027
3803.073, 1839.542
3805.002, 1801.261
3806.930, 1809.216
3808.859, 1854.337
3810.787, 1851.245
3812.716, 1839.119
3814.644, 1858.441
3816.573, 1876.011
3818.501, 1885.580
3820.429, 1875.943
3822.358, 1859.879
3824.286, 1880.438
3826.215, 1898.611
3828.143, 1882.657
3830.072, 1875.026
3832.000, 1879.277
3833.929, 1892.550
3835.857, 1903.965
3837.786, 1894.229
3839.714, 1886.696
3841.643, 1890.184
3843.571, 1898.676
3845.500, 1911.518
3847.428, 1937.710
3849.356, 1946.768
3851.285, 1904.414
3853.213, 1880.641
3855.142, 1887.234
3857.070, 1897.299
3858.999, 1907.466
3860.927, 1913.875
3862.856, 1916.607
3864.784, 1914.561
3866.713, 1914.049
3868.641, 1915.252
3870.570, 1919.615
3872.498, 1920.566
3874.427, 1908.390
3876.355, 1900.801
3878.283, 1901.294
3880.212, 1912.635
3882.140, 1926.763
3884.069, 1938.920
3885.997, 1931.948
3887.926, 1895.503
3889.854, 1877.966
3891.783, 1877.173
3893.711, 1868.268
3895.640, 1877.063
3897.568, 1937.155
3899.497, 1954.861
3901.425, 1929.942
3903.354, 1926.617
3905.282, 1930.611
3907.210, 1927.325
3909.139, 1919.556
3911.067, 1901.926
3912.996, 1901.342
3914.924, 1912.278
3916.853, 1911.068
3918.781, 1909.675
3920.710, 1915.035
3922.638, 1932.102
3924.567, 1955.257
3926.495, 1934.926
3928.424, 1915.532
3930.352, 1932.265
3932.281, 1935.534
3934.209, 1927.176
3936.137, 1922.637
3938.066, 1917.481
3939.994, 1900.830
3941.923, 1899.286
3943.851, 1929.721
3945.780, 1953.071
3947.708, 1949.464
3949.637, 1928.697
3951.565, 1927.407
3953.494, 1964.157
3955.422, 1964.238
3957.351, 1927.758
3959.279, 1935.246
3961.208, 1959.679
3963.136, 1952.676
3965.064, 1938.969
3966.993, 1937.868
3968.921, 1938.783
3970.850, 1933.894
3972.778, 1949.647
3974.707, 1959.631
3976.635, 1948.101
3978.564, 1921.618
3980.492, 1903.855
3982.421, 1951.777
3984.349, 1978.100
3986.278, 1962.254
3988.206, 1950.317
3990.135, 1938.149
3992.063, 1949.292
3993.991, 1950.571
3995.920, 1933.831
3997.848, 1945.772
3999.777, 1963.074
4001.705, 1950.190
4003.634, 1941.955
4005.562, 1964.276
4007.491, 1967.598
4009.419, 1955.474
4011.348, 1962.712
4013.276, 1963.919
4015.205, 1945.711
4017.133, 1947.093
4019.062, 1963.799
4020.990, 1964.463
4022.918, 1961.934
4024.847, 1956.303
4026.775, 1961.760
4028.704, 1975.002
4030.632, 1969.226
4032.561, 1970.718
4034.489, 1980.538
4036.418, 1978.493
4038.346, 1976.771
4040.275, 1980.735
4042.203, 1980.851
4044.132, 1983.499
4046.060, 1988.692
4047.989, 1992.137
4049.917, 2003.955
4051.845, 2015.734
4053.774, 2011.117
4055.702, 2009.795
4057.631, 2007.821
4059.559, 1996.091
4061.488, 1987.487
4063.416, 1996.067
4065.345, 1995.251
4067.273, 1981.334
4069.202, 1999.093
4071.130, 2024.780
4073.059, 2024.466
4074.987, 2016.416
4076.916, 2005.173
4078.844, 1991.297
4080.772, 1983.298
4082.701, 2003.575
4084.629, 2015.171
4086.558, 2005.361
4088.486, 1999.765
4090.415, 1995.580
4092.343, 1991.279
4094.272, 1992.309
4096.200, 2006.579
4098.129, 2000.666
4100.057, 1988.666
4101.986, 2002.959
4103.914, 2015.520
4105.843, 2014.878
4107.771, 2012.147
4109.700, 2007.656
4111.628, 1988.207
4113.557, 1984.614
4115.485, 2014.842
4117.414, 2037.769
4119.342, 2048.191
4121.271, 2040.382
4123.199, 2034.560
4125.127, 2041.579
4127.056, 2041.852
4128.984, 2037.166
4130.913, 2037.235
4132.841, 2037.393
4134.770, 2024.565
4136.698, 2018.644
4138.626, 2024.748
4140.555, 2027.718
4142.483, 2029.893
4144.412, 2042.719
4146.340, 2039.643
4148.269, 2029.180
4150.197, 2041.138
4152.126, 2051.740
4154.054, 2061.613
4155.983, 2061.213
4157.911, 2043.643
4159.840, 2037.077
4161.768, 2044.869
4163.697, 2061.456
4165.625, 2058.403
4167.554, 2039.741
4169.482, 2029.568
4171.411, 2027.957
4173.339, 2036.083
4175.268, 2031.336
4177.196, 2018.233
4179.125, 2019.302
4181.053, 2033.291
4182.981, 2052.609
4184.910, 2063.510
4186.838, 2074.452
4188.767, 2053.237
4190.695, 2040.571
4192.624, 2061.842
4194.552, 2085.258
4196.480, 2103.881
4198.409, 2102.483
4200.337, 2088.287
4202.266, 2059.923
4204.194, 2038.051
4206.123, 2026.961
4208.051, 2046.249
4209.980, 2062.502
4211.908, 2059.840
4213.837, 2052.467
4215.765, 2045.666
4217.694, 2048.121
4219.622, 2052.958
4221.551, 2063.853
4223.479, 2069.875
4225.408, 2072.394
4227.336, 2087.914
4229.265, 2086.203
4231.193, 2058.141
4233.122, 2051.225
4235.050, 2059.916
4236.979, 2083.386
4238.907, 2096.732
4240.835, 2096.609
4242.764, 2087.848
4244.692, 2077.066
4246.621, 2066.789
4248.549, 2066.059
4250.478, 2073.943
4252.406, 2091.829
4254.334, 2094.118
4256.263, 2053.170
4258.191, 2074.814
4260.120, 2127.016
4262.048, 2119.517
4263.977, 2097.101
4265.905, 2074.665
4267.834, 2073.821
4269.762, 2087.436
4271.691, 2110.879
4273.619, 2122.889
4275.548, 2118.741
4277.476, 2086.499
4279.405, 2061.977
4281.333, 2087.287
4283.262, 2110.834
4285.190, 2124.667
4287.119, 2124.619
4289.047, 2119.838
4290.976, 2117.092
4292.904, 2105.369
4294.833, 2093.787
4296.761, 2115.211
4298.689, 2120.558
4300.618, 2088.538
4302.546, 2072.587
4304.475, 2075.283
4306.403, 2108.336
4308.332, 2127.262
4310.260, 2124.429
4312.188, 2120.606
4314.117, 2122.493
4316.045, 2151.148
4317.974, 2127.473
4319.902, 2073.724
4321.831, 2098.142
4323.759, 2119.186
4325.688, 2085.591
4327.616, 2083.768
4329.545, 2102.237
4331.473, 2132.215
4333.402, 2146.531
4335.330, 2139.582
4337.259, 2133.082
4339.187, 2128.914
4341.116, 2128.366
4343.044, 2135.821
4344.973, 2145.984
4346.901, 2132.174
4348.830, 2125.312
4350.758, 2138.607
4352.687, 2159.031
4354.615, 2174.823
4356.543, 2164.085
4358.472, 2165.049
4360.400, 2181.692
4362.329, 2167.128
4364.257, 2160.409
4366.186, 2191.360
4368.114, 2189.478
4370.042, 2163.886
4371.971, 2129.463
4373.899, 2133.094
4375.828, 2180.862
4377.756, 2193.068
4379.685, 2183.769
4381.613, 2162.540
4383.542, 2151.515
4385.470, 2154.974
4387.399, 2193.572
4389.327, 2205.162
4391.256, 2159.261
4393.184, 2163.078
4395.113, 2184.302
4397.041, 2172.001
4398.970, 2174.481
4400.898, 2194.133
4402.827, 2200.736
4404.755, 2203.455
4406.684, 2207.927
4408.612, 2205.504
4410.541, 2199.053
4412.469, 2185.355
4414.397, 2200.208
4416.326, 2244.022
4418.254, 2234.118
4420.183, 2220.698
4422.111, 2234.434
4424.040, 2218.093
4425.968, 2187.769
4427.896, 2173.598
4429.825, 2170.403
4431.753, 2177.849
4433.682, 2225.233
4435.610, 2242.271
4437.539, 2166.197
4439.467, 2184.144
4441.396, 2246.299
4443.324, 2246.246
4445.253, 2237.078
4447.181, 2230.903
4449.110, 2236.478
4451.038, 2240.164
4452.967, 2232.474
4454.895, 2214.311
4456.824, 2206.847
4458.752, 2264.587
4460.681, 2278.657
4462.609, 2239.719
4464.538, 2234.848
4466.466, 2227.109
4468.395, 2195.223
4470.323, 2230.712
4472.251, 2283.894
4474.180, 2284.840
4476.108, 2258.290
4478.037, 2218.365
4479.965, 2202.859
4481.894, 2208.433
4483.822, 2241.598
4485.750, 2243.745
4487.679, 2238.323
4489.607, 2253.853
4491.536, 2250.475
4493.464, 2235.185
4495.393, 2240.999
4497.321, 2260.213
4499.250, 2287.369
4501.178, 2276.801
4503.107, 2269.662
4505.035, 2302.818
4506.964, 2301.621
4508.892, 2285.631
4510.821, 2307.918
4512.749, 2308.069
4514.678, 2280.473
4516.606, 2275.526
4518.535, 2267.702
4520.463, 2242.944
4522.392, 2228.275
4524.320, 2234.478
4526.249, 2284.163
4528.177, 2295.981
4530.105, 2277.698
4532.034, 2272.818
4533.962, 2268.353
4535.891, 2260.306
4537.819, 2238.755
4539.748, 2231.414
4541.676, 2266.868
4543.604, 2282.061
4545.533, 2282.692
4547.461, 2271.465
4549.390, 2282.442
4551.318, 2309.934
4553.247, 2324.803
4555.175, 2315.075
4557.104, 2283.711
4559.032, 2313.212
4560.961, 2336.005
4562.889, 2274.441
4564.818, 2310.391
4566.746, 2362.687
4568.675, 2275.944
4570.603, 2276.679
4572.532, 2348.347
4574.460, 2310.492
4576.389, 2285.431
4578.317, 2303.154
4580.246, 2317.630
4582.174, 2319.759
4584.103, 2297.821
4586.031, 2310.098
4587.959, 2330.531
4589.888, 2320.350
4591.816, 2318.654
4593.745, 2320.449
4595.673, 2288.364
4597.602, 2286.837
4599.530, 2320.401
4601.458, 2338.064
4603.387, 2338.367
4605.315, 2317.328
4607.244, 2342.387
4609.172, 2370.120
4611.101, 2356.673
4613.029, 2334.447
4614.958, 2321.049
4616.886, 2354.687
4618.815, 2355.152
4620.743, 2324.167
4622.672, 2295.148
4624.600, 2302.130
4626.529, 2350.841
4628.457, 2321.020
4630.386, 2307.140
4632.314, 2369.782
4634.243, 2350.344
4636.171, 2312.501
4638.100, 2315.304
4640.028, 2348.318
4641.957, 2385.361
4643.885, 2386.498
4645.813, 2375.403
4647.742, 2360.408
4649.670, 2360.725
4651.599, 2352.298
4653.527, 2333.743
4655.456, 2362.332
4657.384, 2383.246
4659.313, 2372.050
4661.241, 2327.146
4663.169, 2295.248
4665.098, 2325.999
4667.026, 2339.543
4668.955, 2338.112
4670.883, 2322.983
4672.812, 2323.665
4674.740, 2337.789
4676.669, 2359.350
4678.597, 2366.217
4680.526, 2359.656
4682.454, 2370.280
4684.383, 2358.740
4686.311, 2317.673
4688.240, 2314.879
4690.168, 2335.839
4692.097, 2372.584
4694.025, 2392.842
4695.954, 2395.071
4697.882, 2372.200
4699.811, 2365.789
4701.739, 2359.968
4703.667, 2329.692
4705.596, 2346.311
4707.524, 2387.491
4709.453, 2418.324
4711.381, 2397.305
4713.310, 2348.898
4715.238, 2356.599
4717.167, 2383.345
4719.095, 2412.854
4721.023, 2397.993
4722.952, 2380.558
4724.880, 2374.762
4726.809, 2384.734
4728.737, 2398.068
4730.666, 2409.588
4732.594, 2404.297
4734.523, 2415.215
4736.451, 2463.302
4738.380, 2437.733
4740.308, 2385.643
4742.237, 2343.749
4744.165, 2358.413
4746.094, 2388.732
4748.022, 2383.525
4749.951, 2392.798
4751.879, 2408.428
4753.808, 2406.070
4755.736, 2411.844
4757.665, 2422.080
4759.593, 2419.599
4761.521, 2416.208
4763.450, 2414.208
4765.378, 2415.416
4767.307, 2410.751
4769.235, 2403.491
4771.164, 2426.459
4773.092, 2447.165
4775.021, 2452.759
4776.949, 2391.385
4778.877, 2378.950
4780.806, 2446.949
4782.734, 2390.126
4784.663, 2350.907
4786.591, 2400.657
4788.520, 2411.469
4790.448, 2404.862
4792.377, 2394.318
4794.305, 2396.131
4796.234, 2401.840
4798.162, 2403.923
4800.091, 2418.794
4802.019, 2425.987
4803.948, 2404.948
4805.876, 2422.053
4807.805, 2453.481
4809.733, 2477.767
4811.662, 2454.595
4813.590, 2421.254
4815.519, 2421.032
4817.447, 2438.826
4819.375, 2456.002
4821.304, 2450.848
4823.232, 2422.752
4825.161, 2394.401
4827.089, 2404.295
4829.018, 2399.820
4830.946, 2395.083
4832.875, 2437.174
4834.803, 2450.733
4836.731, 2448.547
4838.660, 2485.117
4840.588, 2464.220
4842.517, 2415.579
4844.445, 2433.351
4846.374, 2462.311
4848.302, 2482.120
4850.231, 2453.752
4852.159, 2455.539
4854.088, 2474.174
4856.016, 2428.479
4857.945, 2431.201
4859.873, 2471.684
4861.802, 2467.101
4863.730, 2446.964
4865.659, 2426.717
4867.587, 2438.628
4869.516, 2430.725
4871.444, 2413.250
4873.373, 2461.392
4875.301, 2469.837
4877.229, 2442.203
4879.158, 2451.732
4881.086, 2438.875
4883.015, 2414.820
4884.943, 2456.077
4886.872, 2482.269
4888.800, 2479.809
4890.729, 2438.698
4892.657, 2440.981
4894.585, 2471.317
4896.514, 2442.968
4898.442, 2442.363
4900.371, 2462.672
4902.299, 2436.518
4904.228, 2465.657
4906.156, 2517.754
4908.085, 2464.732
4910.013, 2478.076
4911.942, 2529.174
4913.870, 2495.417
4915.799, 2496.769
4917.727, 2513.771
4919.656, 2461.708
4921.584, 2473.227
4923.513, 2513.012
4925.441, 2493.752
4927.370, 2491.762
4929.298, 2502.773
4931.227, 2506.495
4933.155, 2513.700
4935.083, 2513.334
4937.012, 2485.720
4938.940, 2475.395
4940.869, 2482.747
4942.797, 2511.093
4944.726, 2483.656
4946.654, 2452.532
4948.583, 2471.292
4950.511, 2501.074
4952.439, 2515.178
4954.368, 2493.983
4956.296, 2497.611
4958.225, 2505.465
4960.153, 2502.172
4962.082, 2464.292
4964.010, 2465.136
4965.939, 2532.923
4967.867, 2527.750
4969.796, 2516.034
4971.724, 2530.212
4973.653, 2549.003
4975.581, 2555.661
4977.510, 2546.785
4979.438, 2538.541
4981.367, 2534.220
4983.295, 2531.895
4985.224, 2518.684
4987.152, 2507.984
4989.081, 2500.921
4991.009, 2485.393
4992.938, 2500.911
4994.866, 2528.948
4996.794, 2507.031
4998.723, 2540.859
5000.651, 2590.707
5002.580, 2581.554
5004.508, 2534.291
5006.437, 2504.671
5008.365, 2558.477
5010.293, 2559.908
5012.222, 2535.425
5014.150, 2509.524
5016.079, 2507.157
5018.007, 2507.926
5019.936, 2501.396
5021.864, 2511.755
5023.793, 2515.575
5025.721, 2504.733
5027.650, 2523.988
5029.578, 2540.300
5031.507, 2542.123
5033.435, 2510.053
5035.364, 2531.294
5037.292, 2576.367
5039.221, 2505.429
5041.149, 2498.391
5043.078, 2538.191
5045.006, 2563.244
5046.935, 2531.760
5048.863, 2497.390
5050.792, 2524.522
5052.720, 2552.249
5054.648, 2558.670
5056.577, 2528.149
5058.505, 2542.924
5060.434, 2551.133
5062.362, 2537.667
5064.291, 2591.961
5066.219, 2602.512
5068.147, 2555.294
5070.076, 2554.700
5072.004, 2568.010
5073.933, 2572.505
5075.861, 2518.754
5077.790, 2542.785
5079.718, 2599.124
5081.647, 2616.749
5083.575, 2566.309
5085.504, 2527.441
5087.432, 2562.145
5089.361, 2629.585
5091.289, 2651.565
5093.218, 2600.208
5095.146, 2575.418
5097.075, 2546.466
5099.003, 2514.665
5100.932, 2534.455
5102.860, 2561.525
5104.789, 2580.868
5106.717, 2587.668
5108.646, 2540.045
5110.574, 2492.011
5112.502, 2506.742
5114.431, 2560.261
5116.359, 2580.133
5118.288, 2531.983
5120.216, 2563.751
5122.145, 2574.283
5124.073, 2539.462
5126.001, 2554.743
5127.930, 2581.215
5129.858, 2598.712
5131.787, 2581.063
5133.715, 2557.907
5135.644, 2560.022
5137.572, 2627.256
5139.501, 2619.239
5141.429, 2586.921
5143.358, 2565.954
5145.286, 2555.651
5147.215, 2575.341
5149.143, 2612.696
5151.072, 2593.996
5153.000, 2574.508
5154.929, 2571.623
5156.857, 2616.589
5158.786, 2573.448
5160.714, 2528.568
5162.643, 2566.557
5164.571, 2590.719
5166.500, 2612.398
5168.428, 2635.420
5170.356, 2620.810
5172.285, 2610.112
5174.213, 2615.307
5176.142, 2645.161
5178.070, 2638.168
5179.999, 2622.755
5181.927, 2641.975
5183.855, 2603.747
5185.784, 2594.685
5187.712, 2664.637
5189.641, 2670.548
5191.569, 2657.722
5193.498, 2644.609
5195.426, 2647.444
5197.355, 2623.218
5199.283, 2592.121
5201.212, 2586.917
5203.140, 2579.966
5205.069, 2590.983
5206.997, 2628.990
5208.926, 2605.088
5210.854, 2607.911
5212.783, 2634.050
5214.711, 2591.677
5216.640, 2615.988
5218.568, 2655.008
5220.497, 2613.755
5222.425, 2648.656
5224.354, 2675.483
5226.282, 2656.967
5228.210, 2656.071
5230.139, 2641.207
5232.067, 2623.998
5233.996, 2659.143
5235.924, 2650.711
5237.853, 2628.522
5239.781, 2627.138
5241.709, 2621.218
5243.638, 2625.823
5245.566, 2640.858
5247.495, 2634.300
5249.423, 2657.636
5251.352, 2678.211
5253.280, 2614.466
5255.209, 2617.090
5257.137, 2632.073
5259.066, 2624.933
5260.994, 2633.025
5262.923, 2648.275
5264.851, 2664.634
5266.780, 2679.195
5268.708, 2660.179
5270.637, 2648.136
5272.565, 2686.391
5274.494, 2670.884
5276.422, 2640.226
5278.351, 2623.762
5280.279, 2684.203
5282.208, 2719.213
5284.136, 2728.098
5286.064, 2734.366
5287.993, 2668.877
5289.921, 2651.182
5291.850, 2714.754
5293.778, 2687.745
5295.707, 2685.424
5297.635, 2706.484
5299.563, 2714.646
5301.492, 2702.400
5303.420, 2706.168
5305.349, 2743.159
5307.277, 2748.934
5309.206, 2733.620
5311.134, 2711.721
5313.063, 2701.684
5314.991, 2722.588
5316.920, 2744.209
5318.848, 2744.344
5320.777, 2698.772
5322.705, 2690.058
5324.634, 2711.272
5326.562, 2702.895
5328.491, 2689.809
5330.419, 2690.671
5332.348, 2709.751
5334.276, 2685.029
5336.205, 2668.039
5338.133, 2676.425
5340.062, 2734.433
5341.990, 2719.156
5343.918, 2688.604
5345.847, 2685.316
5347.775, 2694.447
5349.704, 2708.163
5351.632, 2719.725
5353.561, 2719.565
5355.489, 2736.146
5357.417, 2746.040
5359.346, 2736.279
5361.274, 2739.667
5363.203, 2735.754
5365.131, 2726.428
5367.060, 2722.045
5368.988, 2696.866
5370.917, 2695.860
5372.845, 2730.209
5374.774, 2746.150
5376.702, 2741.404
5378.631, 2718.052
5380.559, 2665.215
5382.488, 2700.567
5384.416, 2733.139
5386.345, 2738.131
5388.273, 2759.793
5390.202, 2747.659
5392.130, 2714.238
5394.059, 2677.439
5395.987, 2658.104
5397.916, 2674.502
5399.844, 2703.296
5401.772, 2681.145
5403.701, 2654.022
5405.629, 2638.329
5407.558, 2642.001
5409.486, 2679.599
5411.415, 2690.187
5413.343, 2683.123
5415.271, 2683.058
5417.200, 2711.844
5419.128, 2728.590
5421.057, 2721.297
5422.985, 2706.849
5424.914, 2681.945
5426.842, 2665.978
5428.771, 2674.844
5430.699, 2733.699
5432.628, 2727.284
5434.556, 2681.248
5436.485, 2678.442
5438.413, 2728.803
5440.342, 2745.900
5442.270, 2709.744
5444.199, 2708.470
5446.127, 2697.825
5448.056, 2684.676
5449.984, 2682.588
5451.913, 2730.154
5453.841, 2730.889
5455.770, 2696.404
5457.698, 2680.739
5459.626, 2731.672
5461.555, 2736.735
5463.483, 2678.416
5465.412, 2691.405
5467.340, 2718.548
5469.269, 2734.993
5471.197, 2730.710
5473.125, 2729.496
5475.054, 2711.953
5476.982, 2702.612
5478.911, 2745.482
5480.839, 2706.770
5482.768, 2705.894
5484.696, 2751.931
5486.625, 2736.606
5488.553, 2725.790
5490.482, 2740.181
5492.410, 2773.834
5494.339, 2741.154
5496.267, 2763.067
5498.196, 2777.632
5500.124, 2716.066
5502.053, 2729.018
5503.981, 2753.582
5505.910, 2767.609
5507.838, 2767.028
5509.767, 2752.486
5511.695, 2740.769
5513.624, 2741.847
5515.552, 2767.323
5517.480, 2766.532
5519.409, 2736.983
5521.337, 2701.955
5523.266, 2769.744
5525.194, 2784.527
5527.123, 2778.787
5529.051, 2795.902
5530.979, 2812.647
5532.908, 2824.343
5534.836, 2811.244
5536.765, 2754.507
5538.693, 2774.823
5540.622, 2787.702
5542.550, 2792.428
5544.479, 2834.901
5546.407, 2781.442
5548.336, 2790.261
5550.264, 2863.530
5552.193, 2807.860
5554.121, 2833.917
5556.050, 2824.258
5557.978, 2750.764
5559.907, 2767.791
5561.835, 2843.390
5563.764, 2880.625
5565.692, 2837.216
5567.621, 2799.716
5569.549, 2804.790
5571.478, 2831.827
5573.406, 2855.099
5575.334, 2821.402
5577.263, 2777.563
5579.191, 2752.400
5581.120, 2766.287
5583.048, 2751.418
5584.977, 2762.297
5586.905, 2783.950
5588.833, 2780.911
5590.762, 2748.026
5592.690, 2745.142
5594.619, 2757.581
5596.547, 2739.914
5598.476, 2725.750
5600.404, 2712.574
5602.333, 2704.740
5604.261, 2711.192
5606.190, 2755.771
5608.118, 2767.683
5610.047, 2745.006
5611.975, 2739.736
5613.904, 2720.906
5615.832, 2714.340
5617.761, 2708.243
5619.689, 2646.060
5621.618, 2713.516
5623.546, 2722.787
5625.475, 2648.298
5627.403, 2658.270
5629.332, 2733.821
5631.260, 2735.956
5633.188, 2665.138
5635.117, 2721.934
5637.045, 2698.710
5638.974, 2675.957
5640.902, 2683.391
5642.831, 2678.721
5644.759, 2657.973
5646.688, 2655.173
5648.616, 2679.848
5650.544, 2721.059
5652.473, 2688.900
5654.401, 2664.254
5656.330, 2680.453
5658.258, 2722.724
5660.187, 2704.530
5662.115, 2692.473
5664.044, 2705.550
5665.972, 2707.254
5667.901, 2738.068
5669.829, 2711.391
5671.758, 2644.926
5673.686, 2649.212
5675.615, 2702.858
5677.543, 2696.909
5679.472, 2642.914
5681.400, 2633.556
5683.329, 2672.232
5685.257, 2684.078
5687.186, 2663.942
5689.114, 2645.102
5691.042, 2658.693
5692.971, 2639.390
5694.899, 2610.178
5696.828, 2636.500
5698.756, 2641.774
5700.685, 2625.376
5702.613, 2610.581
5704.542, 2620.229
5706.470, 2601.608
5708.398, 2611.637
5710.327, 2625.491
5712.255, 2613.472
5714.184, 2614.876
5716.112, 2617.689
5718.041, 2609.719
5719.969, 2588.066
5721.898, 2575.486
5723.826, 2573.797
5725.755, 2583.122
5727.683, 2596.760
5729.612, 2588.060
5731.540, 2572.982
5733.469, 2572.842
5735.397, 2585.168
5737.326, 2583.960
5739.254, 2587.241
5741.183, 2563.770
5743.111, 2545.292
5745.040, 2593.313
5746.968, 2580.535
5748.896, 2560.257
5750.825, 2547.685
5752.753, 2541.169
5754.682, 2571.483
5756.610, 2568.112
5758.539, 2566.825
5760.467, 2594.592
5762.396, 2535.111
5764.324, 2530.798
5766.252, 2557.175
5768.181, 2573.107
5770.109, 2522.293
5772.038, 2556.983
5773.966, 2548.197
5775.895, 2502.302
5777.823, 2525.471
5779.752, 2568.549
5781.680, 2570.059
5783.609, 2557.731
5785.537, 2570.118
5787.466, 2529.191
5789.394, 2507.726
5791.323, 2509.375
5793.251, 2524.032
5795.180, 2546.320
5797.108, 2544.797
5799.037, 2528.942
5800.965, 2517.243
5802.894, 2546.366
5804.822, 2520.292
5806.750, 2508.473
5808.679, 2504.422
5810.607, 2474.865
5812.536, 2492.452
5814.464, 2495.779
5816.393, 2498.553
5818.321, 2507.723
5820.250, 2475.589
5822.178, 2468.911
5824.106, 2491.538
5826.035, 2519.442
5827.963, 2517.799
5829.892, 2489.975
5831.820, 2471.255
5833.749, 2459.622
5835.677, 2448.504
5837.606, 2477.009
5839.534, 2464.363
5841.463, 2461.325
5843.391, 2483.685
5845.320, 2473.877
5847.248, 2516.583
5849.177, 2512.966
5851.105, 2480.745
5853.034, 2481.859
5854.962, 2482.588
5856.891, 2489.238
5858.819, 2480.257
5860.748, 2454.544
5862.676, 2449.727
5864.604, 2452.036
5866.533, 2458.198
5868.461, 2455.411
5870.390, 2434.362
5872.318, 2454.773
5874.247, 2497.374
5876.175, 2476.776
5878.104, 2399.715
5880.032, 2435.554
5881.960, 2461.987
5883.889, 2453.720
5885.817, 2439.975
5887.746, 2456.529
5889.674, 2467.530
5891.603, 2419.432
5893.531, 2410.749
5895.460, 2463.302
5897.388, 2464.141
5899.317, 2436.993
5901.245, 2389.917
5903.174, 2368.887
5905.102, 2407.678
5907.031, 2396.744
5908.959, 2381.084
5910.888, 2380.049
5912.816, 2386.649
5914.745, 2376.482
5916.673, 2389.001
5918.602, 2382.929
5920.530, 2379.789
5922.458, 2403.986
5924.387, 2454.288
5926.315, 2399.029
5928.244, 2367.676
5930.172, 2387.712
5932.101, 2421.733
5934.029, 2424.640
5935.958, 2378.505
5937.886, 2367.623
5939.814, 2391.356
5941.743, 2357.156
5943.671, 2392.042
5945.600, 2401.448
5947.528, 2373.007
5949.457, 2334.217
5951.385, 2355.913
5953.314, 2366.368
5955.242, 2364.918
5957.171, 2357.879
5959.099, 2351.088
5961.028, 2348.533
5962.956, 2386.471
5964.885, 2363.649
5966.813, 2305.735
5968.742, 2338.382
5970.670, 2358.738
5972.599, 2367.180
5974.527, 2384.976
5976.456, 2411.002
5978.384, 2412.511
5980.313, 2412.786
5982.241, 2386.447
5984.169, 2360.311
5986.098, 2351.524
5988.026, 2332.259
5989.955, 2318.332
5991.883, 2327.015
5993.812, 2331.941
5995.740, 2315.027
5997.668, 2331.341
5999.597, 2374.254
6001.525, 2377.987
6003.454, 2359.280
6005.382, 2355.926
6007.311, 2326.776
6009.239, 2339.357
6011.168, 2309.914
6013.096, 2284.310
6015.025, 2345.563
6016.953, 2342.837
6018.882, 2306.499
6020.810, 2293.217
6022.739, 2321.476
6024.667, 2370.660
6026.596, 2327.484
6028.524, 2301.001
6030.453, 2317.080
6032.381, 2321.978
6034.310, 2250.691
6036.238, 2301.501
6038.167, 2286.545
6040.095, 2266.432
6042.023, 2276.683
6043.952, 2294.759
6045.880, 2306.097
6047.809, 2330.169
6049.737, 2328.933
6051.666, 2308.317
6053.594, 2308.476
6055.522, 2303.649
6057.451, 2339.868
6059.379, 2317.433
6061.308, 2262.687
6063.236, 2285.846
6065.165, 2319.122
6067.093, 2299.326
6069.022, 2260.156
6070.950, 2253.165
6072.879, 2307.363
6074.807, 2284.368
6076.736, 2295.766
6078.664, 2282.156
6080.593, 2264.547
6082.521, 2295.473
6084.450, 2302.333
6086.378, 2240.358
6088.307, 2262.906
6090.235, 2303.297
6092.164, 2259.174
6094.092, 2260.948
6096.021, 2239.023
6097.949, 2221.676
6099.877, 2243.303
6101.806, 2295.725
6103.734, 2286.000
6105.663, 2246.984
6107.591, 2265.460
6109.520, 2285.264
6111.448, 2274.789
6113.376, 2287.080
6115.305, 2301.953
6117.233, 2293.214
6119.162, 2277.125
6121.090, 2262.631
6123.019, 2245.181
6124.947, 2264.770
6126.876, 2248.451
6128.804, 2276.934
6130.733, 2295.519
6132.661, 2229.564
6134.590, 2288.190
6136.518, 2286.438
6138.447, 2281.952
6140.375, 2297.972
6142.304, 2317.718
6144.232, 2284.643
6146.161, 2307.688
6148.089, 2313.585
6150.018, 2315.955
6151.946, 2309.321
6153.875, 2253.710
6155.803, 2335.310
6157.731, 2311.792
6159.660, 2300.013
6161.588, 2320.750
6163.517, 2331.377
6165.445, 2322.261
6167.374, 2303.707
6169.302, 2324.694
6171.230, 2336.487
6173.159, 2309.890
6175.087, 2265.228
6177.016, 2314.991
6178.944, 2322.151
6180.873, 2326.591
6182.801, 2340.787
6184.730, 2338.708
6186.658, 2241.740
6188.587, 2225.301
6190.515, 2285.973
6192.444, 2305.621
6194.372, 2274.816
6196.301, 2319.716
6198.229, 2355.291
6200.158, 2310.217
6202.086, 2279.866
6204.015, 2285.916
6205.943, 2300.709
6207.872, 2308.330
6209.800, 2292.626
6211.729, 2302.902
6213.657, 2306.570
6215.585, 2299.306
6217.514, 2312.373
6219.442, 2364.958
6221.371, 2345.063
6223.299, 2323.383
6225.228, 2324.571
6227.156, 2343.822
6229.084, 2372.549
6231.013, 2352.864
6232.941, 2363.327
6234.870, 2359.455
6236.798, 2358.193
6238.727, 2398.214
6240.655, 2469.352
6242.584, 2388.419
6244.512, 2439.386
6246.441, 2429.617
6248.369, 2364.009
6250.298, 2387.094
6252.226, 2369.502
6254.155, 2395.424
6256.083, 2407.082
6258.012, 2418.531
6259.940, 2434.104
6261.869, 2434.173
6263.797, 2436.469
6265.726, 2458.053
6267.654, 2492.935
6269.583, 2535.607
6271.511, 2569.168
6273.439, 2574.905
6275.368, 2620.865
6277.296, 2627.193
6279.225, 2669.855
6281.153, 2712.604
6283.082, 2736.531
6285.010, 2795.425
6286.938, 2850.351
6288.867, 2908.912
6290.795, 2914.331
6292.724, 2942.558
6294.652, 3041.614
6296.581, 3173.756
6298.509, 3241.199
6300.438, 3287.080
6302.366, 3309.854
6304.295, 3367.831
6306.223, 3455.414
6308.152, 3484.229
6310.080, 3534.551
6312.009, 3487.289
6313.937, 3511.508
6315.866, 3513.898
6317.794, 3459.178
6319.723, 3455.699
6321.651, 3517.928
6323.580, 3519.032
6325.508, 3439.080
6327.437, 3397.775
6329.365, 3388.884
6331.293, 3333.329
6333.222, 3354.981
6335.150, 3343.677
6337.079, 3331.686
6339.007, 3359.604
6340.936, 3383.304
6342.864, 3360.055
6344.792, 3370.603
6346.721, 3409.672
6348.649, 3488.261
6350.578, 3487.654
6352.506, 3445.168
6354.435, 3460.077
6356.363, 3572.080
6358.292, 3516.675
6360.220, 3582.689
6362.149, 3601.004
6364.077, 3586.219
6366.006, 3597.722
6367.934, 3634.778
6369.863, 3622.411
6371.791, 3665.749
6373.720, 3632.826
6375.648, 3610.461
6377.577, 3620.683
6379.505, 3607.965
6381.434, 3528.759
6383.362, 3606.666
6385.291, 3649.788
6387.219, 3624.671
6389.147, 3635.816
6391.076, 3697.173
6393.004, 3722.162
6394.933, 3769.894
6396.861, 3792.361
6398.790, 3851.584
6400.718, 3919.436
6402.646, 3967.315
6404.575, 4009.376
6406.503, 4092.867
6408.432, 4120.769
6410.360, 4211.867
6412.289, 4273.878
6414.217, 4296.146
6416.146, 4359.191
6418.074, 4498.706
6420.003, 4482.715
6421.931, 4438.577
6423.860, 4438.086
6425.788, 4459.227
6427.717, 4509.997
6429.645, 4531.888
6431.574, 4446.591
6433.502, 4430.383
6435.431, 4350.943
6437.359, 4271.605
6439.288, 4169.890
6441.216, 4109.778
6443.145, 4067.354
6445.073, 3923.001
6447.001, 3914.448
6448.930, 3841.113
6450.858, 3779.267
6452.787, 3723.997
6454.715, 3670.354
6456.644, 3634.688
6458.572, 3632.783
6460.500, 3563.596
6462.429, 3520.315
6464.357, 3522.442
6466.286, 3513.277
6468.214, 3506.072
6470.143, 3510.245
6472.071, 3483.092
6474.000, 3455.603
6475.928, 3517.917
6477.857, 3539.538
6479.785, 3526.396
6481.714, 3578.727
6483.642, 3651.761
6485.571, 3608.864
6487.499, 3693.332
6489.428, 3734.899
6491.356, 3727.890
6493.285, 3720.308
6495.213, 3714.814
6497.142, 3722.316
6499.070, 3756.767
6500.999, 3733.357
6502.927, 3752.713
6504.855, 3688.392
6506.784, 3678.201
6508.712, 3717.250
6510.641, 3723.494
6512.569, 3673.964
6514.498, 3636.145
6516.426, 3554.468
6518.354, 3533.402
6520.283, 3537.085
6522.211, 3507.188
6524.140, 3453.095
6526.068, 3428.979
6527.997, 3465.080
6529.925, 3437.626
6531.854, 3389.042
6533.782, 3361.315
6535.711, 3355.097
6537.639, 3319.987
6539.568, 3290.740
6541.496, 3321.713
6543.425, 3371.467
6545.353, 3319.559
6547.282, 3308.381
6549.210, 3308.974
6551.139, 3321.281
6553.067, 3355.740
6554.996, 3383.259
6556.924, 3363.800
6558.853, 3329.687
6560.781, 3364.790
6562.709, 3390.844
6564.638, 3356.558
6566.566, 3344.160
6568.495, 3409.759
6570.423, 3452.830
6572.352, 3377.042
6574.280, 3449.007
6576.208, 3450.246
6578.137, 3442.516
6580.065, 3468.380
6581.994, 3421.008
6583.922, 3435.037
6585.851, 3511.965
6587.779, 3455.956
6589.708, 3462.543
6591.636, 3571.426
6593.565, 3509.682
6595.493, 3475.407
6597.422, 3585.743
6599.350, 3598.630
6601.279, 3535.893
6603.207, 3618.333
6605.136, 3570.863
6607.064, 3702.873
6608.993, 3719.522
6610.921, 3672.102
6612.850, 3695.046
6614.778, 3755.760
6616.707, 3803.308
6618.635, 3836.719
6620.563, 3847.615
6622.492, 3789.138
6624.420, 3830.464
6626.349, 3882.621
6628.277, 3894.641
6630.206, 3874.908
##END=



