##NAMES=Pyrochlore
##RRUFFID=R060151
##IDEAL CHEMISTRY=Ca_2_Nb_2_O_7_
##LOCALITY=Oka, Quebec, Canada
##OWNER=RRUFF
##SOURCE=Marcus Origlieri
##DESCRIPTION=Reddish-brown octahedral crystals associated with calcite
##STATUS=The identification of this mineral has been confirmed by X-ray diffraction and chemical analysis
##URL=https://www.rruff.net/odr/rruff_sample/R060151
##MEASURED CHEMISTRY=(Ca_1.41_Na_0.59_)(Nb_1.49_Ti_0.26_Ce_0.15_Fe^3+^_0.05_La_0.02_Nd_0.02_Mn_0.02_)(O_5.40_(OH)_1.10_F_0.50_)
##DIFFRACTION SAMPLE DESCRIPTION=Powder
##CELL PARAMETERS=a: 10.3914 b: 10.3914 c: 10.3914 alpha: 90 beta: 90 gamma: 90 volume: 1122.08 crystal system: cubic
##FILETYPE=Raman RAW
##RAMAN WAVELENGTH=780

83.37718, 881.2978
85.30565, 953.9619
87.23412, 1028.989
89.16258, 1109.914
91.09105, 1188.504
93.01952, 1197.002
94.94798, 1163.601
96.87645, 1132.018
98.80492, 1103.344
100.7334, 1075.825
102.6618, 1049.671
104.5903, 1024.557
106.5188, 997.3786
108.4473, 971.1221
110.3757, 951.9095
112.3042, 938.1531
114.2327, 925.7794
116.1611, 912.5295
118.0896, 901.0406
120.0180, 891.8008
121.9465, 884.2337
123.8750, 877.6731
125.8034, 871.7817
127.7319, 866.7374
129.6604, 863.0690
131.5889, 859.1284
133.5173, 853.7596
135.4458, 847.9161
137.3743, 843.3627
139.3027, 839.9237
141.2312, 835.6190
143.1597, 828.7606
145.0881, 822.8182
147.0166, 819.1698
148.9450, 816.6882
150.8735, 814.0158
152.8020, 811.1795
154.7304, 808.5886
156.6589, 806.8573
158.5874, 804.5049
160.5158, 800.6938
162.4443, 796.5684
164.3728, 793.0635
166.3012, 790.0826
168.2297, 787.5439
170.1582, 786.2875
172.0866, 783.8417
174.0151, 779.2362
175.9436, 773.9709
177.8720, 769.3438
179.8005, 764.8463
181.7290, 759.1780
183.6574, 751.9631
185.5859, 744.2512
187.5144, 735.3159
189.4428, 726.8441
191.3713, 720.3082
193.2998, 714.5628
195.2282, 707.8132
197.1567, 699.6915
199.0852, 691.8448
201.0136, 683.7001
202.9421, 676.6077
204.8706, 671.6863
206.7990, 667.4897
208.7275, 662.7028
210.6560, 657.3039
212.5844, 652.0291
214.5129, 645.7778
216.4414, 641.3271
218.3698, 639.4347
220.2983, 639.1859
222.2268, 639.9056
224.1552, 641.6348
226.0837, 644.6796
228.0122, 649.5837
229.9406, 654.6686
231.8691, 659.2552
233.7976, 665.0632
235.7260, 673.1323
237.6545, 682.7264
239.5830, 693.2704
241.5114, 704.8394
243.4399, 716.7595
245.3684, 729.0890
247.2968, 741.5053
249.2253, 753.5068
251.1538, 766.1017
253.0822, 780.4370
255.0107, 795.7549
256.9392, 809.7658
258.8676, 822.4778
260.7961, 833.7448
262.7246, 842.9559
264.6530, 851.9047
266.5815, 861.2101
268.5100, 870.7944
270.4384, 881.2303
272.3669, 892.1848
274.2954, 900.4151
276.2238, 905.7000
278.1523, 909.7692
280.0808, 913.5406
282.0092, 915.4609
283.9377, 914.4833
285.8662, 911.3980
287.7946, 907.8188
289.7231, 903.5722
291.6516, 896.3072
293.5800, 885.2996
295.5085, 873.0695
297.4370, 860.1808
299.3654, 846.4713
301.2939, 831.7894
303.2224, 816.0674
305.1508, 799.2776
307.0793, 781.5166
309.0078, 763.3350
310.9362, 743.7684
312.8647, 726.3419
314.7932, 712.5693
316.7216, 700.4141
318.6501, 688.6730
320.5786, 677.5658
322.5070, 667.5993
324.4355, 658.7969
326.3640, 650.1102
328.2924, 640.4407
330.2209, 632.4235
332.1494, 626.9967
334.0778, 623.0999
336.0063, 620.0155
337.9348, 617.8270
339.8632, 616.9139
341.7917, 617.3721
343.7202, 618.4385
345.6486, 618.8830
347.5771, 621.6687
349.5056, 629.0420
351.4340, 637.2668
353.3625, 643.9484
355.2910, 649.4443
357.2194, 654.0287
359.1479, 657.5618
361.0764, 661.3783
363.0048, 666.2726
364.9333, 670.5695
366.8618, 674.5358
368.7902, 677.1947
370.7187, 678.1443
372.6472, 677.3318
374.5756, 674.4473
376.5041, 669.4667
378.4326, 663.4742
380.3610, 655.8366
382.2895, 648.0074
384.2180, 640.9426
386.1464, 632.8214
388.0749, 621.1600
390.0034, 608.9649
391.9318, 599.6756
393.8603, 592.9387
395.7888, 585.6004
397.7172, 576.3863
399.6457, 569.9704
401.5742, 567.2750
403.5026, 565.5182
405.4311, 563.6508
407.3596, 562.7038
409.2880, 563.1327
411.2165, 564.9000
413.1450, 567.9870
415.0734, 572.4035
417.0019, 578.6854
418.9304, 587.6182
420.8588, 595.9868
422.7873, 602.2698
424.7158, 609.2237
426.6442, 618.7672
428.5727, 629.3943
430.5012, 639.4492
432.4296, 649.0585
434.3581, 658.8994
436.2866, 668.8918
438.2150, 679.6555
440.1435, 691.9133
442.0720, 703.1127
444.0004, 711.9032
445.9289, 719.6044
447.8574, 726.9610
449.7858, 733.5952
451.7143, 738.9794
453.6428, 743.0453
455.5712, 745.7677
457.4997, 747.0932
459.4282, 748.2177
461.3566, 749.2358
463.2851, 750.2877
465.2136, 751.7752
467.1420, 753.1738
469.0705, 753.9483
470.9990, 754.3038
472.9274, 754.3314
474.8559, 754.1230
476.7844, 754.7711
478.7128, 756.3025
480.6413, 758.4307
482.5698, 760.6928
484.4982, 764.3839
486.4267, 770.8903
488.3552, 777.7335
490.2836, 782.6738
492.2121, 787.0466
494.1406, 793.5739
496.0690, 801.6786
497.9975, 809.1190
499.9260, 815.6500
501.8544, 823.3016
503.7829, 833.7194
505.7114, 842.7987
507.6398, 849.9948
509.5683, 855.4908
511.4968, 859.4753
513.4252, 861.5109
515.3537, 860.2346
517.2822, 856.9550
519.2106, 854.5414
521.1391, 853.0829
523.0676, 851.4262
524.9960, 850.1127
526.9245, 847.4269
528.8530, 841.8692
530.7814, 836.9753
532.7099, 833.8521
534.6384, 831.6541
536.5668, 830.3436
538.4953, 829.5144
540.4238, 828.5848
542.3522, 827.5533
544.2807, 826.2932
546.2092, 824.9358
548.1376, 822.7817
550.0661, 819.6328
551.9946, 816.2040
553.9230, 812.8252
555.8515, 808.8427
557.7800, 803.1237
559.7084, 797.4879
561.6369, 793.0678
563.5654, 789.9339
565.4938, 788.5870
567.4223, 788.9011
569.3508, 788.7617
571.2792, 787.6464
573.2077, 787.9631
575.1362, 790.2714
577.0646, 792.5385
578.9931, 794.4218
580.9216, 795.9752
582.8500, 797.6210
584.7785, 798.3458
586.7070, 797.1178
588.6354, 794.9220
590.5639, 793.7646
592.4924, 793.5113
594.4208, 791.1224
596.3493, 786.2031
598.2778, 780.2740
600.2062, 772.6980
602.1347, 766.9579
604.0632, 764.8318
605.9916, 762.6738
607.9201, 757.8835
609.8486, 753.5732
611.7770, 751.6260
613.7055, 750.8060
615.6340, 750.6185
617.5624, 750.5788
619.4909, 748.4405
621.4194, 744.5114
623.3478, 743.0111
625.2763, 744.3929
627.2048, 742.8162
629.1332, 736.4810
631.0617, 730.8017
632.9902, 728.0612
634.9186, 724.7471
636.8471, 720.0558
638.7756, 714.3610
640.7040, 707.1035
642.6325, 699.4327
644.5610, 692.6868
646.4894, 686.4012
648.4179, 680.2363
650.3464, 673.8165
652.2748, 665.4566
654.2033, 655.0646
656.1318, 644.5654
658.0602, 633.8542
659.9887, 623.8116
661.9172, 615.6143
663.8456, 606.6552
665.7741, 595.7199
667.7026, 584.6865
669.6310, 574.2394
671.5595, 564.5017
673.4880, 556.3747
675.4164, 548.5250
677.3449, 537.6022
679.2734, 525.3349
681.2018, 517.9260
683.1303, 515.1960
685.0588, 509.0045
686.9872, 497.6467
688.9157, 488.3056
690.8442, 482.1474
692.7726, 476.8402
694.7011, 472.6423
696.6296, 468.8304
698.5580, 465.4440
700.4865, 461.8774
702.4149, 457.4458
704.3434, 453.1071
706.2719, 449.7291
708.2003, 446.8340
710.1288, 444.0428
712.0573, 441.0337
713.9857, 437.2649
715.9142, 432.8214
717.8427, 427.8470
719.7711, 422.2062
721.6996, 417.3884
723.6281, 413.3442
725.5565, 409.7588
727.4850, 407.2499
729.4135, 404.0464
731.3419, 399.0993
733.2704, 394.3961
735.1989, 391.0251
737.1273, 387.7441
739.0558, 383.5242
740.9843, 379.4018
742.9127, 376.3703
744.8412, 373.5894
746.7697, 369.6293
748.6981, 365.2400
750.6266, 362.4530
752.5551, 361.0804
754.4835, 359.4792
756.4120, 357.5996
758.3405, 356.2567
760.2689, 355.4740
762.1974, 354.4249
764.1259, 352.9377
766.0543, 352.3727
767.9828, 353.3322
769.9113, 353.6940
771.8397, 352.1133
773.7682, 351.4482
775.6967, 354.1372
777.6251, 356.0772
779.5536, 354.3725
781.4821, 352.6979
783.4105, 354.0770
785.3390, 356.2904
787.2675, 357.1363
789.1959, 357.1375
791.1244, 357.1665
793.0529, 357.0103
794.9813, 355.9012
796.9098, 354.3311
798.8383, 353.8973
800.7667, 354.4274
802.6952, 354.6879
804.6237, 354.6135
806.5521, 354.3616
808.4806, 353.9223
810.4091, 353.2379
812.3375, 352.4466
814.2660, 351.3380
816.1945, 349.4129
818.1229, 347.6158
820.0514, 346.1466
821.9799, 344.8642
823.9083, 343.9554
825.8368, 343.0279
827.7653, 341.6836
829.6937, 340.3419
831.6222, 339.5804
833.5507, 338.7507
835.4791, 336.9690
837.4076, 335.1538
839.3361, 334.4069
841.2645, 334.0984
843.1930, 333.4744
845.1215, 332.4992
847.0499, 331.2267
848.9784, 329.7663
850.9069, 328.1109
852.8353, 326.3582
854.7638, 325.5137
856.6923, 325.5789
858.6207, 325.3889
860.5492, 324.8655
862.4777, 324.5801
864.4061, 324.9849
866.3346, 323.9957
868.2631, 320.8634
870.1915, 318.8770
872.1200, 318.6848
874.0485, 318.7049
875.9769, 318.7823
877.9054, 318.2934
879.8339, 316.8633
881.7623, 315.9621
883.6908, 316.0415
885.6193, 316.4119
887.5477, 317.4818
889.4762, 317.7272
891.4047, 315.0919
893.3331, 313.1973
895.2616, 314.9354
897.1901, 316.6003
899.1185, 315.6178
901.0470, 313.9190
902.9755, 313.2180
904.9039, 312.7310
906.8324, 311.1927
908.7609, 309.6972
910.6893, 309.5506
912.6178, 310.1020
914.5463, 310.8366
916.4747, 311.8469
918.4032, 312.9828
920.3317, 313.8846
922.2601, 313.7733
924.1886, 313.2674
926.1171, 314.3304
928.0455, 316.4734
929.9740, 317.8257
931.9025, 318.7199
933.8309, 320.9012
935.7594, 323.9852
937.6879, 325.3883
939.6163, 325.3249
941.5448, 326.5291
943.4733, 329.0269
945.4017, 330.8115
947.3302, 331.7428
949.2587, 333.3781
951.1871, 335.9615
953.1156, 337.7728
955.0441, 338.4088
956.9725, 340.0969
958.9010, 343.3075
960.8295, 346.2917
962.7579, 348.8978
964.6864, 351.3148
966.6149, 353.2688
968.5433, 355.7267
970.4718, 358.9141
972.4003, 362.1142
974.3287, 365.5446
976.2572, 368.8478
978.1857, 371.4195
980.1141, 374.6616
982.0426, 379.3306
983.9711, 383.4995
985.8995, 386.5162
987.8280, 389.9186
989.7565, 394.0991
991.6849, 398.2414
993.6134, 401.8356
995.5419, 406.4403
997.4703, 413.4204
999.3988, 419.1719
1001.327, 421.3566
1003.256, 424.6763
1005.184, 431.4720
1007.113, 438.5029
1009.041, 444.3621
1010.970, 450.1053
1012.898, 456.2726
1014.827, 462.7156
1016.755, 468.9344
1018.683, 476.0108
1020.612, 485.2403
1022.540, 493.7879
1024.469, 499.4861
1026.397, 506.2222
1028.326, 516.2151
1030.254, 526.4764
1032.183, 535.9151
1034.111, 544.9461
1036.040, 553.6470
1037.968, 562.1876
1039.897, 570.2059
1041.825, 579.0717
1043.754, 589.6724
1045.682, 600.3759
1047.610, 610.4012
1049.539, 621.0054
1051.467, 633.2606
1053.396, 644.7668
1055.324, 654.1445
1057.253, 663.9137
1059.181, 675.6478
1061.110, 686.2902
1063.038, 694.5076
1064.967, 702.2675
1066.895, 709.7063
1068.824, 717.7355
1070.752, 727.2605
1072.681, 736.1334
1074.609, 743.7510
1076.537, 751.0485
1078.466, 758.3798
1080.394, 765.0388
1082.323, 770.4375
1084.251, 775.9324
1086.180, 781.9533
1088.108, 787.6564
1090.037, 792.3616
1091.965, 797.7295
1093.894, 804.8246
1095.822, 810.8766
1097.751, 814.6135
1099.679, 819.4785
1101.608, 824.9461
1103.536, 832.9584
1105.464, 844.9905
1107.393, 857.1856
1109.321, 869.2465
1111.250, 881.4519
1113.178, 893.2758
1115.107, 906.8889
1117.035, 922.3928
1118.964, 939.8649
1120.892, 959.8824
1122.821, 979.1921
1124.749, 997.4557
1126.678, 1016.491
1128.606, 1036.621
1130.535, 1057.263
1132.463, 1078.100
1134.391, 1098.594
1136.320, 1119.002
1138.248, 1140.475
1140.177, 1162.728
1142.105, 1182.748
1144.034, 1200.690
1145.962, 1217.722
1147.891, 1234.054
1149.819, 1249.779
1151.748, 1264.641
1153.676, 1277.632
1155.605, 1290.774
1157.533, 1311.066
1159.462, 1331.321
1161.390, 1337.665
1163.318, 1337.874
1165.247, 1341.003
1167.175, 1346.292
1169.104, 1354.351
1171.032, 1362.242
1172.961, 1366.602
1174.889, 1370.381
1176.818, 1376.085
1178.746, 1382.067
1180.675, 1387.677
1182.603, 1393.270
1184.532, 1398.258
1186.460, 1403.602
1188.389, 1409.399
1190.317, 1416.770
1192.245, 1426.361
1194.174, 1436.069
1196.102, 1444.548
1198.031, 1455.924
1199.959, 1472.209
1201.888, 1487.098
1203.816, 1498.328
1205.745, 1514.772
1207.673, 1537.665
1209.602, 1560.221
1211.530, 1582.335
1213.459, 1606.471
1215.387, 1632.723
1217.316, 1663.620
1219.244, 1698.669
1221.172, 1735.496
1223.101, 1773.550
1225.029, 1811.132
1226.958, 1849.785
1228.886, 1891.126
1230.815, 1934.510
1232.743, 1980.739
1234.672, 2028.795
1236.600, 2077.957
1238.529, 2126.373
1240.457, 2172.495
1242.386, 2217.693
1244.314, 2263.819
1246.243, 2307.692
1248.171, 2347.240
1250.099, 2383.425
1252.028, 2417.487
1253.956, 2448.252
1255.885, 2475.353
1257.813, 2497.454
1259.742, 2514.802
1261.670, 2525.720
1263.599, 2529.523
1265.527, 2528.456
1267.456, 2522.670
1269.384, 2510.380
1271.313, 2491.827
1273.241, 2468.366
1275.170, 2440.548
1277.098, 2412.993
1279.026, 2386.009
1280.955, 2356.416
1282.883, 2325.967
1284.812, 2298.457
1286.740, 2275.244
1288.669, 2255.950
1290.597, 2242.284
1292.526, 2234.953
1294.454, 2233.924
1296.383, 2239.597
1298.311, 2252.016
1300.240, 2269.328
1302.168, 2299.236
1304.097, 2344.972
1306.025, 2393.325
1307.953, 2442.196
1309.882, 2502.094
1311.810, 2573.547
1313.739, 2650.605
1315.667, 2732.863
1317.596, 2823.461
1319.524, 2919.273
1321.453, 3011.679
1323.381, 3104.938
1325.310, 3206.403
1327.238, 3308.019
1329.167, 3405.504
1331.095, 3497.083
1333.024, 3583.629
1334.952, 3659.066
1336.880, 3721.484
1338.809, 3768.560
1340.737, 3800.523
1342.666, 3814.498
1344.594, 3810.621
1346.523, 3787.870
1348.451, 3745.642
1350.380, 3690.762
1352.308, 3623.683
1354.237, 3545.788
1356.165, 3460.341
1358.094, 3370.489
1360.022, 3284.671
1361.951, 3214.720
1363.879, 3153.784
1365.807, 3095.662
1367.736, 3048.973
1369.664, 3017.404
1371.593, 2999.409
1373.521, 2995.572
1375.450, 3001.709
1377.378, 3016.789
1379.307, 3039.767
1381.235, 3070.899
1383.164, 3111.973
1385.092, 3161.928
1387.021, 3219.438
1388.949, 3285.596
1390.878, 3361.357
1392.806, 3444.769
1394.734, 3535.829
1396.663, 3632.210
1398.591, 3731.169
1400.520, 3834.440
1402.448, 3943.073
1404.377, 4063.094
1406.305, 4193.884
1408.234, 4331.240
1410.162, 4475.969
1412.091, 4627.375
1414.019, 4783.234
1415.948, 4941.808
1417.876, 5105.547
1419.805, 5278.015
1421.733, 5451.697
1423.661, 5620.182
1425.590, 5784.187
1427.518, 5943.951
1429.447, 6102.784
1431.375, 6261.831
1433.304, 6412.682
1435.232, 6554.760
1437.161, 6682.442
1439.089, 6796.150
1441.018, 6893.747
1442.946, 6974.225
1444.875, 7040.886
1446.803, 7093.259
1448.731, 7128.212
1450.660, 7147.026
1452.588, 7149.796
1454.517, 7142.046
1456.445, 7124.236
1458.374, 7098.977
1460.302, 7066.771
1462.231, 7029.900
1464.159, 6990.333
1466.088, 6954.554
1468.016, 6922.218
1469.945, 6896.576
1471.873, 6880.127
1473.802, 6876.030
1475.730, 6882.194
1477.658, 6893.569
1479.587, 6915.180
1481.515, 6952.462
1483.444, 7000.235
1485.372, 7052.812
1487.301, 7123.216
1489.229, 7215.283
1491.158, 7322.363
1493.086, 7445.483
1495.015, 7585.322
1496.943, 7739.641
1498.872, 7910.745
1500.800, 8100.722
1502.729, 8306.439
1504.657, 8524.122
1506.585, 8756.202
1508.514, 8984.438
1510.442, 9204.532
1512.371, 9428.325
1514.299, 9654.545
1516.228, 9872.252
1518.156, 10076.41
1520.085, 10264.04
1522.013, 10440.22
1523.942, 10607.04
1525.870, 10753.64
1527.799, 10878.08
1529.727, 10992.20
1531.656, 11095.11
1533.584, 11187.91
1535.512, 11271.39
1537.441, 11353.42
1539.369, 11433.97
1541.298, 11508.37
1543.226, 11576.62
1545.155, 11639.20
1547.083, 11700.77
1549.012, 11764.30
1550.940, 11836.08
1552.869, 11916.60
1554.797, 11986.68
1556.726, 12043.78
1558.654, 12085.82
1560.583, 12107.02
1562.511, 12108.13
1564.439, 12082.13
1566.368, 12024.52
1568.296, 11929.61
1570.225, 11796.97
1572.153, 11641.37
1574.082, 11460.38
1576.010, 11267.80
1577.939, 11069.57
1579.867, 10867.78
1581.796, 10672.39
1583.724, 10491.45
1585.653, 10319.50
1587.581, 10155.29
1589.510, 10005.00
1591.438, 9870.730
1593.366, 9757.146
1595.295, 9655.114
1597.223, 9551.207
1599.152, 9456.306
1601.080, 9381.149
1603.009, 9307.151
1604.937, 9229.618
1606.866, 9150.066
1608.794, 9063.775
1610.723, 8974.121
1612.651, 8884.292
1614.580, 8797.209
1616.508, 8705.790
1618.437, 8602.281
1620.365, 8495.779
1622.293, 8388.593
1624.222, 8284.184
1626.150, 8185.354
1628.079, 8087.531
1630.007, 7989.448
1631.936, 7895.424
1633.864, 7807.318
1635.793, 7725.329
1637.721, 7644.985
1639.650, 7568.538
1641.578, 7499.430
1643.507, 7433.145
1645.435, 7366.664
1647.364, 7302.593
1649.292, 7244.423
1651.220, 7189.412
1653.149, 7137.414
1655.077, 7088.231
1657.006, 7037.642
1658.934, 6987.300
1660.863, 6942.349
1662.791, 6906.181
1664.720, 6871.089
1666.648, 6827.138
1668.577, 6780.915
1670.505, 6739.732
1672.434, 6704.589
1674.362, 6674.374
1676.291, 6645.649
1678.219, 6619.200
1680.147, 6588.295
1682.076, 6555.344
1684.004, 6528.383
1685.933, 6502.981
1687.861, 6469.261
1689.790, 6427.618
1691.718, 6387.498
1693.647, 6355.003
1695.575, 6322.305
1697.504, 6279.359
1699.432, 6233.159
1701.361, 6189.195
1703.289, 6144.036
1705.218, 6095.060
1707.146, 6039.633
1709.074, 5981.305
1711.003, 5927.133
1712.931, 5871.550
1714.860, 5801.084
1716.788, 5725.820
1718.717, 5660.212
1720.645, 5594.350
1722.574, 5524.457
1724.502, 5460.121
1726.431, 5398.225
1728.359, 5329.542
1730.288, 5261.602
1732.216, 5204.807
1734.145, 5150.981
1736.073, 5092.720
1738.001, 5033.826
1739.930, 4978.576
1741.858, 4933.390
1743.787, 4892.752
1745.715, 4846.933
1747.644, 4798.763
1749.572, 4754.805
1751.501, 4717.309
1753.429, 4682.560
1755.358, 4644.701
1757.286, 4607.535
1759.215, 4578.096
1761.143, 4547.821
1763.072, 4509.913
1765.000, 4471.892
1766.928, 4438.063
1768.857, 4405.041
1770.785, 4369.245
1772.714, 4329.864
1774.642, 4294.882
1776.571, 4268.609
1778.499, 4232.681
1780.428, 4184.013
1782.356, 4140.963
1784.285, 4104.336
1786.213, 4066.658
1788.142, 4024.630
1790.070, 3978.883
1791.999, 3933.343
1793.927, 3887.509
1795.855, 3842.450
1797.784, 3797.569
1799.712, 3755.847
1801.641, 3715.667
1803.569, 3670.620
1805.498, 3622.531
1807.426, 3577.278
1809.355, 3537.946
1811.283, 3498.962
1813.212, 3460.582
1815.140, 3422.041
1817.069, 3377.547
1818.997, 3336.148
1820.926, 3299.798
1822.854, 3262.218
1824.782, 3222.495
1826.711, 3181.262
1828.639, 3142.595
1830.568, 3103.308
1832.496, 3063.493
1834.425, 3025.583
1836.353, 2982.135
1838.282, 2938.518
1840.210, 2898.875
1842.139, 2859.427
1844.067, 2822.348
1845.996, 2784.382
1847.924, 2744.708
1849.853, 2707.512
1851.781, 2671.839
1853.709, 2636.768
1855.638, 2601.555
1857.566, 2565.778
1859.495, 2536.344
1861.423, 2508.710
1863.352, 2474.310
1865.280, 2443.586
1867.209, 2418.832
1869.137, 2392.661
1871.066, 2366.160
1872.994, 2340.802
1874.923, 2314.948
1876.851, 2291.625
1878.780, 2269.877
1880.708, 2247.552
1882.636, 2225.390
1884.565, 2204.902
1886.493, 2184.897
1888.422, 2165.907
1890.350, 2146.861
1892.279, 2126.831
1894.207, 2108.732
1896.136, 2091.061
1898.064, 2072.969
1899.993, 2058.810
1901.921, 2043.686
1903.850, 2024.489
1905.778, 2009.860
1907.707, 1997.182
1909.635, 1980.727
1911.563, 1965.208
1913.492, 1952.984
1915.420, 1938.744
1917.349, 1922.612
1919.277, 1906.910
1921.206, 1890.173
1923.134, 1874.810
1925.063, 1858.981
1926.991, 1842.117
1928.920, 1828.258
1930.848, 1815.082
1932.777, 1800.341
1934.705, 1784.650
1936.634, 1770.646
1938.562, 1759.004
1940.490, 1745.707
1942.419, 1732.565
1944.347, 1721.175
1946.276, 1710.263
1948.204, 1699.044
1950.133, 1688.171
1952.061, 1676.586
1953.990, 1664.433
1955.918, 1653.492
1957.847, 1643.334
1959.775, 1633.427
1961.704, 1625.215
1963.632, 1619.332
1965.561, 1612.581
1967.489, 1602.534
1969.417, 1591.376
1971.346, 1582.107
1973.274, 1574.520
1975.203, 1568.564
1977.131, 1563.160
1979.060, 1556.926
1980.988, 1551.454
1982.917, 1546.395
1984.845, 1541.918
1986.774, 1541.810
1988.702, 1544.981
1990.631, 1545.280
1992.559, 1542.942
1994.488, 1543.734
1996.416, 1548.382
1998.344, 1553.266
2000.273, 1561.215
2002.201, 1576.438
2004.130, 1594.191
2006.058, 1613.856
2007.987, 1635.931
2009.915, 1659.134
2011.844, 1686.038
2013.772, 1716.912
2015.701, 1750.160
2017.629, 1781.789
2019.558, 1817.575
2021.486, 1860.294
2023.415, 1901.812
2025.343, 1943.985
2027.271, 1988.393
2029.200, 2028.997
2031.128, 2066.329
2033.057, 2103.841
2034.985, 2138.224
2036.914, 2162.756
2038.842, 2184.052
2040.771, 2204.785
2042.699, 2222.114
2044.628, 2233.746
2046.556, 2236.852
2048.485, 2236.433
2050.413, 2234.265
2052.342, 2226.948
2054.270, 2213.749
2056.198, 2196.635
2058.127, 2176.746
2060.055, 2151.466
2061.984, 2126.620
2063.912, 2102.623
2065.841, 2072.253
2067.769, 2040.089
2069.698, 2009.479
2071.626, 1975.785
2073.555, 1938.822
2075.483, 1899.863
2077.412, 1859.245
2079.340, 1818.097
2081.269, 1775.358
2083.197, 1731.774
2085.125, 1690.681
2087.054, 1649.796
2088.982, 1606.354
2090.911, 1561.497
2092.839, 1518.882
2094.768, 1480.322
2096.696, 1443.518
2098.625, 1408.459
2100.553, 1374.419
2102.482, 1343.680
2104.410, 1317.650
2106.339, 1290.385
2108.267, 1264.436
2110.196, 1241.399
2112.124, 1219.804
2114.052, 1195.983
2115.981, 1172.692
2117.909, 1152.477
2119.838, 1137.005
2121.766, 1124.325
2123.695, 1114.275
2125.623, 1104.019
2127.552, 1092.002
2129.480, 1085.241
2131.409, 1081.044
2133.337, 1075.907
2135.266, 1072.324
2137.194, 1071.243
2139.123, 1074.355
2141.051, 1076.053
2142.979, 1074.897
2144.908, 1075.697
2146.836, 1078.578
2148.765, 1081.556
2150.693, 1084.144
2152.622, 1086.598
2154.550, 1087.213
2156.479, 1087.293
2158.407, 1089.661
2160.336, 1088.430
2162.264, 1082.832
2164.193, 1079.118
2166.121, 1075.907
2168.050, 1070.702
2169.978, 1063.990
2171.906, 1056.766
2173.835, 1046.445
2175.763, 1036.365
2177.692, 1028.665
2179.620, 1022.895
2181.549, 1016.249
2183.477, 1002.941
2185.406, 992.0032
2187.334, 986.3566
2189.263, 979.8737
2191.191, 974.3624
2193.120, 971.6647
2195.048, 966.3177
2196.977, 960.2057
2198.905, 959.6707
2200.833, 957.5362
2202.762, 952.2919
2204.690, 949.7294
2206.619, 946.5709
2208.547, 939.9570
2210.476, 934.0741
2212.404, 929.3475
2214.333, 924.3976
2216.261, 916.9431
2218.190, 906.4221
2220.118, 895.2891
2222.047, 884.1257
2223.975, 872.7654
2225.904, 862.4753
2227.832, 852.9198
2229.760, 841.9189
2231.689, 830.4040
2233.617, 819.0514
2235.546, 807.6988
2237.474, 796.4747
2239.403, 787.8902
2241.331, 778.9674
2243.260, 768.6199
2245.188, 757.5859
2247.117, 747.4363
2249.045, 740.1895
2250.974, 733.1639
2252.902, 726.2383
2254.831, 720.0452
2256.759, 715.3470
2258.688, 711.9943
2260.616, 708.5286
2262.544, 706.4024
2264.473, 707.2689
2266.401, 709.4559
2268.330, 711.3096
2270.258, 711.3822
2272.187, 711.7365
2274.115, 712.3360
2276.044, 711.9445
2277.972, 711.0370
2279.901, 710.1108
2281.829, 707.0367
2283.758, 701.1584
2285.686, 693.5308
2287.615, 684.1672
2289.543, 672.7683
2291.471, 660.8446
2293.400, 647.5107
2295.328, 630.7195
2297.257, 615.2568
2299.185, 600.7590
2301.114, 583.6298
2303.042, 566.6293
2304.971, 550.8798
2306.899, 534.4294
2308.828, 519.4055
2310.756, 509.2873
2312.685, 497.1782
2314.613, 484.1118
2316.542, 474.8739
2318.470, 465.6940
2320.398, 455.7617
2322.327, 449.9418
2324.255, 444.5627
2326.184, 437.4399
2328.112, 429.7212
2330.041, 422.7982
2331.969, 419.1853
2333.898, 414.6655
2335.826, 408.7610
2337.755, 405.5666
2339.683, 402.4699
2341.612, 398.3834
2343.540, 394.9149
2345.469, 392.0836
2347.397, 390.1459
2349.325, 387.0760
2351.254, 383.4951
2353.182, 381.8725
2355.111, 379.1729
2357.039, 375.2447
2358.968, 374.3072
2360.896, 372.2875
2362.825, 367.3432
2364.753, 363.2281
2366.682, 359.3511
2368.610, 354.3544
2370.539, 350.6709
2372.467, 347.2411
2374.396, 340.9450
2376.324, 335.2365
2378.252, 330.6438
2380.181, 326.4678
2382.109, 321.3907
2384.038, 314.7526
2385.966, 309.8746
2387.895, 305.2014
2389.823, 298.5557
2391.752, 293.5616
2393.680, 289.5341
2395.609, 285.2379
2397.537, 280.8437
2399.466, 276.3643
2401.394, 271.7152
2403.323, 267.6363
2405.251, 264.6480
2407.179, 261.3321
2409.108, 258.0158
2411.036, 255.2054
2412.965, 252.3490
2414.893, 249.4353
2416.822, 246.3866
2418.750, 245.2675
2420.679, 245.0583
2422.607, 243.2997
2424.536, 241.0354
2426.464, 238.6938
2428.393, 237.3178
2430.321, 236.2273
2432.250, 235.3674
2434.178, 232.5944
2436.106, 229.8011
2438.035, 228.4190
2439.963, 227.3843
2441.892, 225.9358
2443.820, 223.1134
2445.749, 220.6601
2447.677, 218.6139
2449.606, 215.9284
2451.534, 213.6474
2453.463, 211.8496
2455.391, 210.4833
2457.320, 208.5004
2459.248, 205.7585
2461.177, 203.1556
2463.105, 200.5081
2465.033, 197.8621
2466.962, 197.6188
2468.890, 196.9955
2470.819, 193.9988
2472.747, 192.7814
2474.676, 191.6658
2476.604, 188.6971
2478.533, 187.0822
2480.461, 185.9672
2482.390, 182.8366
2484.318, 181.2155
2486.247, 180.6564
2488.175, 178.4026
2490.104, 177.1673
2492.032, 177.1230
2493.960, 175.4198
2495.889, 173.4864
2497.817, 172.3640
2499.746, 173.2562
2501.674, 173.8799
2503.603, 173.5321
2505.531, 173.0485
2507.460, 172.1898
2509.388, 170.8033
2511.317, 170.8181
2513.245, 171.2649
2515.174, 171.6424
2517.102, 170.7483
2519.031, 168.7393
2520.959, 166.5825
2522.887, 164.2952
2524.816, 161.4365
2526.744, 158.3910
2528.673, 156.1711
2530.601, 154.3572
2532.530, 152.3416
2534.458, 150.0494
2536.387, 148.5479
2538.315, 148.6347
2540.244, 149.6590
2542.172, 152.1101
2544.101, 155.8898
2546.029, 158.8881
2547.958, 161.6696
2549.886, 166.3239
2551.814, 173.3482
2553.743, 182.6107
2555.671, 194.4694
2557.600, 208.1211
2559.528, 221.7486
2561.457, 230.8104
2563.385, 234.8239
2565.314, 233.7720
2567.242, 223.9962
2569.171, 210.8571
2571.099, 197.6515
2573.028, 185.4367
2574.956, 173.5696
2576.885, 162.3547
2578.813, 153.1630
2580.741, 145.5611
2582.670, 139.0831
2584.598, 133.3437
2586.527, 128.6806
2588.455, 125.5021
2590.384, 124.2408
2592.312, 123.4196
2594.241, 122.6132
2596.169, 122.2938
2598.098, 122.3671
2600.026, 123.2013
2601.955, 123.0553
2603.883, 122.3311
2605.812, 121.7366
2607.740, 121.7951
2609.668, 121.2122
2611.597, 118.9930
2613.525, 116.8782
2615.454, 114.9311
2617.382, 112.3413
2619.311, 110.6914
2621.239, 109.0380
2623.168, 105.9375
2625.096, 102.5380
2627.025, 100.7940
2628.953, 100.1627
2630.882, 96.39593
2632.810, 93.42916
2634.739, 92.37796
2636.667, 91.52531
2638.595, 90.71657
2640.524, 89.70249
2642.452, 88.35250
2644.381, 86.75790
2646.309, 84.69703
2648.238, 84.59108
2650.166, 84.11143
2652.095, 82.49453
2654.023, 82.45528
2655.952, 81.63860
2657.880, 79.77662
2659.809, 78.17597
2661.737, 77.56186
2663.666, 77.51997
2665.594, 76.21557
2667.522, 75.08217
2669.451, 74.30155
2671.379, 73.98492
2673.308, 72.86936
2675.236, 71.29246
2677.165, 70.15408
2679.093, 69.57946
2681.022, 69.39854
2682.950, 68.07113
2684.879, 67.24433
2686.807, 66.58243
2688.736, 66.26493
2690.664, 65.15890
2692.593, 64.30062
2694.521, 64.88107
2696.449, 64.16428
2698.378, 63.04563
2700.306, 61.96454
2702.235, 61.36195
2704.163, 61.04323
2706.092, 60.27977
2708.020, 59.97894
2709.949, 59.81419
2711.877, 58.56421
2713.806, 58.04814
2715.734, 58.16024
2717.663, 57.43713
2719.591, 55.69143
2721.520, 55.50104
2723.448, 56.32299
2725.376, 54.46170
2727.305, 53.57520
2729.233, 53.58435
2731.162, 53.74120
2733.090, 52.87525
2735.019, 51.40438
2736.947, 50.96265
2738.876, 49.73967
2740.804, 49.05256
2742.733, 50.61694
2744.661, 49.04928
2746.590, 47.21281
2748.518, 47.53460
2750.447, 48.60049
2752.375, 47.84362
2754.303, 45.66402
2756.232, 45.69053
2758.160, 45.71111
2760.089, 45.27119
2762.017, 45.42482
2763.946, 45.19012
2765.874, 44.63318
2767.803, 44.74169
2769.731, 44.73488
2771.660, 44.64473
2773.588, 44.90485
2775.517, 44.57475
2777.445, 44.25159
2779.374, 44.22571
2781.302, 44.32072
2783.230, 44.28141
2785.159, 44.39924
2787.087, 44.09018
2789.016, 43.93235
2790.944, 44.59723
2792.873, 44.80297
2794.801, 44.41700
2796.730, 43.51390
2798.658, 43.38768
2800.587, 43.89883
2802.515, 43.75565
2804.444, 43.92678
2806.372, 43.32876
2808.301, 42.41606
2810.229, 41.79743
2812.157, 42.51870
2814.086, 42.24565
2816.014, 41.25702
2817.943, 41.96504
2819.871, 42.10663
2821.800, 41.26666
2823.728, 40.39334
2825.657, 40.52082
2827.585, 40.65360
2829.514, 40.16548
2831.442, 40.56933
2833.371, 40.57228
2835.299, 41.39639
2837.228, 41.67387
2839.156, 40.43191
2841.084, 40.44211
2843.013, 39.80727
2844.941, 39.21646
2846.870, 39.30636
2848.798, 39.09261
2850.727, 39.23280
2852.655, 39.40971
2854.584, 39.10149
2856.512, 39.28170
2858.441, 39.62077
2860.369, 40.18516
2862.298, 39.47693
2864.226, 39.41644
2866.155, 39.92528
2868.083, 39.44852
2870.011, 39.15022
2871.940, 39.14269
2873.868, 39.10221
2875.797, 39.02006
2877.725, 39.96228
2879.654, 40.86041
2881.582, 40.12440
2883.511, 40.12905
2885.439, 40.85464
2887.368, 41.76791
2889.296, 42.23159
2891.225, 41.84629
2893.153, 41.03659
2895.082, 42.07708
2897.010, 42.13277
2898.938, 41.75707
2900.867, 42.03511
2902.795, 42.32347
2904.724, 42.80342
2906.652, 43.01483
2908.581, 42.51247
2910.509, 42.33400
2912.438, 42.58710
2914.366, 43.03544
2916.295, 42.52468
2918.223, 42.00499
2920.152, 42.90446
2922.080, 43.82599
2924.008, 43.83494
2925.937, 43.83781
2927.865, 43.40557
2929.794, 43.42532
2931.722, 44.24914
2933.651, 44.61582
2935.579, 44.44020
2937.508, 44.77925
2939.436, 45.35217
2941.365, 45.60168
2943.293, 44.94379
2945.221, 44.64740
2947.150, 45.51739
2949.078, 46.02036
2951.007, 46.73185
2952.935, 47.37878
2954.864, 47.10137
2956.792, 47.80885
2958.721, 48.34412
2960.649, 46.87833
2962.578, 48.02974
2964.506, 48.82133
2966.435, 48.31899
2968.363, 48.93147
2970.292, 50.29779
2972.220, 51.25768
2974.148, 49.93545
2976.077, 50.33165
2978.005, 51.27816
2979.934, 51.98539
2981.862, 53.15152
2983.791, 52.67950
2985.719, 52.00650
2987.648, 52.53904
2989.576, 54.28510
2991.505, 54.43216
2993.433, 53.11689
2995.362, 54.79193
2997.290, 56.56927
2999.219, 57.15650
3001.147, 56.37598
3003.075, 56.34840
3005.004, 56.96673
3006.932, 57.73802
3008.861, 58.81220
3010.789, 58.72406
3012.718, 58.93990
3014.646, 59.58023
3016.575, 59.88056
3018.503, 60.09987
3020.432, 60.42676
3022.360, 61.81690
3024.289, 61.29536
3026.217, 60.98636
3028.146, 62.16278
3030.074, 62.49444
3032.002, 62.89550
3033.931, 63.01787
3035.859, 62.54003
3037.788, 63.81073
3039.716, 64.16031
3041.645, 64.21396
3043.573, 64.35751
3045.502, 63.64358
3047.430, 64.08469
3049.359, 65.31754
3051.287, 65.41167
3053.216, 65.69440
3055.144, 66.02506
3057.073, 66.79408
3059.001, 66.08848
3060.929, 67.41364
3062.858, 69.54006
3064.786, 69.90451
3066.715, 72.09875
3068.643, 73.99202
3070.572, 75.20837
3072.500, 75.88181
3074.429, 77.94170
3076.357, 80.34335
3078.286, 81.95850
3080.214, 84.49245
3082.143, 86.85985
3084.071, 88.78143
3086.000, 90.59713
3087.928, 91.25205
3089.856, 93.43360
3091.785, 96.28282
3093.713, 98.58203
3095.642, 100.9789
3097.570, 102.9410
3099.499, 105.5759
3101.427, 108.7395
3103.356, 109.6822
3105.284, 111.5917
3107.213, 113.7150
3109.141, 113.5808
3111.070, 115.5294
3112.998, 117.9141
3114.927, 119.2513
3116.855, 120.6181
3118.783, 122.2603
3120.712, 123.1708
3122.640, 122.1405
3124.569, 123.2675
3126.497, 124.6870
3128.426, 127.0034
3130.354, 129.9926
3132.283, 130.9082
3134.211, 129.9902
3136.140, 128.6429
3138.068, 129.6821
3139.997, 131.2077
3141.925, 131.9321
3143.854, 132.2901
3145.782, 134.8433
3147.710, 136.3426
3149.639, 138.3259
3151.567, 140.9995
3153.496, 141.5370
3155.424, 145.1682
3157.353, 148.9379
3159.281, 152.1122
3161.210, 155.1634
3163.138, 159.1684
3165.067, 163.3677
3166.995, 168.1717
3168.924, 174.1060
3170.852, 181.1069
3172.781, 186.4939
3174.709, 190.4570
3176.637, 201.1772
3178.566, 209.9917
3180.494, 218.1344
3182.423, 226.7893
3184.351, 233.5403
3186.280, 243.4027
3188.208, 252.7974
3190.137, 260.5348
3192.065, 274.0169
3193.994, 284.5020
3195.922, 295.3617
3197.851, 307.3741
3199.779, 313.4125
3201.708, 323.8847
3203.636, 334.5478
3205.564, 342.5284
3207.493, 344.1896
3209.421, 348.0049
3211.350, 351.2743
3213.278, 351.6583
3215.207, 348.7497
3217.135, 344.4609
3219.064, 340.4124
3220.992, 335.1598
3222.921, 322.5116
3224.849, 313.4482
3226.778, 303.8499
3228.706, 293.0216
3230.635, 284.0154
3232.563, 273.7236
3234.491, 261.5218
3236.420, 248.8645
3238.348, 239.4057
3240.277, 227.9842
3242.205, 219.7096
3244.134, 213.0147
3246.062, 204.0363
3247.991, 195.3799
3249.919, 188.4160
3251.848, 183.3121
3253.776, 179.8746
3255.705, 176.0428
3257.633, 174.7042
3259.562, 174.1923
3261.490, 173.8015
3263.418, 175.5147
3265.347, 179.1562
3267.275, 183.8279
3269.204, 189.0932
3271.132, 195.5368
3273.061, 202.8596
3274.989, 211.8370
3276.918, 221.6299
3278.846, 230.4379
3280.775, 243.4339
3282.703, 251.1796
3284.632, 255.7724
3286.560, 263.8737
3288.489, 274.1870
3290.417, 281.4550
3292.345, 285.9870
3294.274, 288.9911
3296.202, 292.4131
3298.131, 288.6879
3300.059, 282.7706
3301.988, 277.9064
3303.916, 274.0109
3305.845, 267.8740
3307.773, 260.9684
3309.702, 254.4793
3311.630, 249.3543
3313.559, 241.4036
3315.487, 236.2390
3317.416, 231.6689
3319.344, 225.1670
3321.272, 219.6814
3323.201, 213.9241
3325.129, 206.5295
3327.058, 199.3635
3328.986, 197.4820
3330.915, 193.9425
3332.843, 192.0857
3334.772, 192.9698
3336.700, 195.9538
3338.629, 199.9198
3340.557, 201.8980
3342.486, 205.4170
3344.414, 211.8775
3346.343, 216.0564
3348.271, 225.6963
3350.199, 234.1727
3352.128, 241.5733
3354.056, 251.9572
3355.985, 264.0143
3357.913, 275.3410
3359.842, 286.4247
3361.770, 297.1541
3363.699, 303.8633
3365.627, 312.9579
3367.556, 321.1989
3369.484, 327.6088
3371.413, 332.9469
3373.341, 337.3827
3375.270, 341.4420
3377.198, 343.2514
3379.126, 344.4185
3381.055, 356.3149
3382.983, 356.1429
3384.912, 347.4364
3386.840, 336.6186
3388.769, 328.8431
3390.697, 328.2487
3392.626, 320.7505
3394.554, 311.6519
3396.483, 303.9733
3398.411, 294.6205
3400.340, 290.1684
3402.268, 282.1974
3404.197, 271.0138
3406.125, 260.4202
3408.053, 254.9824
3409.982, 250.5333
3411.910, 244.8271
3413.839, 239.0345
3415.767, 235.5772
3417.696, 231.5527
3419.624, 227.4522
3421.553, 223.2362
3423.481, 219.4412
3425.410, 217.5642
3427.338, 215.1525
3429.267, 214.1005
3431.195, 212.1658
3433.124, 208.4743
3435.052, 208.7697
3436.980, 208.7639
3438.909, 209.8481
3440.837, 210.0807
3442.766, 207.5462
3444.694, 208.1908
3446.623, 207.9002
3448.551, 207.3703
3450.480, 206.1772
3452.408, 203.0178
3454.337, 198.2090
3456.265, 194.6552
3458.194, 190.8261
3460.122, 186.6053
3462.051, 183.1901
3463.979, 177.2505
3465.907, 172.8902
3467.836, 168.4041
3469.764, 162.6508
3471.693, 156.3519
3473.621, 151.8624
3475.550, 148.7337
3477.478, 146.7956
3479.407, 144.9545
3481.335, 140.8111
3483.264, 136.8934
3485.192, 133.0316
3487.121, 128.9240
3489.049, 124.8422
3490.978, 122.0854
3492.906, 118.3903
3494.834, 115.3583
3496.763, 113.3044
3498.691, 111.6454
3500.620, 109.1490
3502.548, 104.1218
3504.477, 102.0182
3506.405, 100.7649
3508.334, 98.68044
3510.262, 96.91065
3512.191, 95.74262
3514.119, 93.36546
3516.048, 92.09103
3517.976, 92.02310
3519.905, 90.44471
3521.833, 89.05238
3523.761, 87.06055
3525.690, 86.43855
3527.618, 87.40108
3529.547, 88.31171
3531.475, 87.09782
3533.404, 85.29570
3535.332, 83.99691
3537.261, 84.09596
3539.189, 85.47295
3541.118, 82.48763
3543.046, 83.30170
3544.975, 81.84403
3546.903, 79.55710
3548.832, 79.72869
3550.760, 79.96572
3552.688, 77.07079
3554.617, 77.58105
3556.545, 77.86306
3558.474, 75.71924
3560.402, 76.08655
3562.331, 76.54475
3564.259, 75.53475
3566.188, 74.10236
3568.116, 73.72078
3570.045, 75.01797
3571.973, 73.27457
3573.902, 72.32193
3575.830, 71.64143
3577.759, 70.70466
3579.687, 69.47398
3581.615, 68.10562
3583.544, 68.50091
3585.472, 69.41486
3587.401, 68.87467
3589.329, 67.10668
3591.258, 66.37489
3593.186, 64.44411
3595.115, 62.28016
3597.043, 61.85602
3598.972, 61.65593
3600.900, 60.08757
3602.829, 61.03650
3604.757, 60.64728
3606.686, 60.68545
3608.614, 59.62147
3610.542, 57.57927
3612.471, 57.38305
3614.399, 57.54852
3616.328, 57.31115
3618.256, 57.64437
3620.185, 57.17176
3622.113, 55.64677
3624.042, 57.30223
3625.970, 56.16990
3627.899, 55.47055
3629.827, 55.60648
3631.756, 55.40910
3633.684, 54.18351
3635.613, 55.09640
3637.541, 53.50256
3639.469, 53.74606
3641.398, 54.34801
3643.326, 54.13391
3645.255, 54.37235
3647.183, 53.38871
3649.112, 53.09298
3651.040, 52.13279
3652.969, 50.89888
3654.897, 50.03773
3656.826, 49.27799
3658.754, 48.11906
3660.683, 46.58934
3662.611, 45.11625
3664.540, 44.70507
3666.468, 45.07555
3668.396, 43.25524
3670.325, 42.94471
3672.253, 41.78514
3674.182, 40.83873
3676.110, 40.06840
3678.039, 39.11856
3679.967, 38.68702
3681.896, 38.04156
3683.824, 38.86353
3685.753, 38.39800
3687.681, 36.53542
3689.610, 35.14371
3691.538, 35.83568
3693.467, 36.13555
3695.395, 35.61596
3697.323, 35.38435
3699.252, 35.59155
3701.180, 35.42561
3703.109, 33.95101
3705.037, 34.88111
3706.966, 31.89196
3708.894, 31.95986
3710.823, 33.64577
3712.751, 33.73921
3714.680, 32.39907
3716.608, 31.44650
3718.537, 31.42484
3720.465, 31.21416
3722.394, 31.45070
3724.322, 31.41681
3726.250, 29.84588
3728.179, 30.12899
3730.107, 29.41596
3732.036, 28.94045
3733.964, 26.89762
3735.893, 26.55846
3737.821, 29.22699
3739.750, 27.02772
3741.678, 26.46779
3743.607, 25.80044
3745.535, 25.27253
3747.464, 25.29832
3749.392, 24.98040
3751.321, 23.20074
3753.249, 22.61421
3755.177, 22.15833
3757.106, 22.80438
3759.034, 22.49918
3760.963, 21.88373
3762.891, 21.99512
3764.820, 20.93720
3766.748, 20.77966
3768.677, 20.83512
3770.605, 20.29473
3772.534, 20.58120
3774.462, 21.21371
3776.391, 20.44592
3778.319, 19.86717
3780.248, 20.12891
3782.176, 19.04064
3784.104, 18.72471
3786.033, 19.50471
3787.961, 19.71244
3789.890, 18.18514
3791.818, 18.96938
3793.747, 18.69097
3795.675, 17.83194
3797.604, 18.57678
3799.532, 18.94218
3801.461, 17.57618
3803.389, 16.41043
3805.318, 16.81065
3807.246, 16.59893
3809.175, 16.21424
3811.103, 16.19468
3813.031, 16.54374
3814.960, 16.15620
3816.888, 14.15724
3818.817, 15.02426
3820.745, 14.53645
3822.674, 13.58279
3824.602, 13.52585
3826.531, 13.16249
3828.459, 12.66487
3830.388, 13.51535
3832.316, 12.30802
3834.245, 13.37218
3836.173, 13.26963
3838.102, 13.18125
3840.030, 13.10016
3841.958, 13.06266
3843.887, 13.37894
3845.815, 13.25705
3847.744, 12.26654
3849.672, 10.97450
3851.601, 12.01445
3853.529, 12.54312
3855.458, 11.87417
3857.386, 11.50865
3859.315, 11.93806
3861.243, 11.15823
3863.172, 12.01752
3865.100, 10.37728
3867.029, 10.81370
3868.957, 11.84946
3870.885, 12.30319
3872.814, 12.89769
3874.742, 11.94763
3876.671, 10.70113
3878.599, 10.69755
3880.528, 10.33521
3882.456, 10.19542
3884.385, 10.59958
3886.313, 10.59259
3888.242, 9.552426
3890.170, 9.513698
3892.099, 8.895008
3894.027, 8.944293
3895.956, 8.518065
3897.884, 8.187137
3899.813, 8.088226
3901.741, 8.284479
3903.669, 8.591412
3905.598, 7.542445
3907.526, 8.114175
3909.455, 8.129848
3911.383, 6.823689
3913.312, 6.605986
3915.240, 7.517401
3917.169, 8.524054
3919.097, 8.853104
3921.026, 7.206237
3922.954, 6.852730
3924.883, 7.347164
3926.811, 7.166206
3928.740, 6.919756
3930.668, 7.740705
3932.596, 8.287522
3934.525, 7.687306
3936.453, 7.881493
3938.382, 7.625508
3940.310, 6.842766
3942.239, 7.098352
3944.167, 6.857414
3946.096, 6.554114
3948.024, 6.797110
3949.953, 6.673056
3951.881, 5.632834
3953.810, 5.773747
3955.738, 7.465075
3957.667, 6.680297
3959.595, 6.525739
3961.523, 5.211006
3963.452, 5.149117
3965.380, 6.007224
3967.309, 5.976872
3969.237, 5.684964
3971.166, 5.134831
3973.094, 4.835556
3975.023, 5.591142
3976.951, 5.581406
3978.880, 4.653113
3980.808, 5.128027
3982.737, 4.805743
3984.665, 4.607843
3986.594, 4.827454
3988.522, 5.051096
3990.450, 4.433064
3992.379, 3.851094
3994.307, 3.380219
3996.236, 3.600885
3998.164, 3.430742
4000.093, 3.648385
4002.021, 3.844323
4003.950, 3.771005
4005.878, 3.773673
4007.807, 3.817058
4009.735, 3.528083
4011.664, 3.299786
4013.592, 2.832006
4015.521, 3.554030
4017.449, 3.512228
4019.377, 3.540454
4021.306, 3.412933
4023.234, 3.096559
4025.163, 2.525643
4027.091, 2.147265
4029.020, 3.070782
4030.948, 4.273604
4032.877, 1.815012
4034.805, 2.763470
4036.734, 3.006904
4038.662, 2.779904
4040.591, 3.439491
4042.519, 3.444515
4044.448, 2.326798
4046.376, 1.517475
4048.304, 1.220193
4050.233, 1.634728
4052.161, 2.737525
4054.090, 3.273710
4056.018, 2.877211
4057.947, 3.230638
4059.875, 2.581699
4061.804, 2.462078
4063.732, 3.398621
4065.661, 3.628137
4067.589, 3.159274
4069.518, 3.496948
4071.446, 1.326718
4073.375, 3.197274
4075.303, 2.969199
4077.231, 3.013003
4079.160, 2.836323
4081.088, 2.589558
4083.017, 2.247606
4084.945, 2.202531
4086.874, 2.444897
4088.802, 1.917876
4090.731, 3.334854
4092.659, 2.958646
4094.588, 2.971552
4096.516, 2.237836
4098.444, 2.551095
4100.373, 2.761497
4102.301, 3.404687
4104.230, 3.300562
4106.158, 2.042675
4108.087, 1.581972
4110.015, 2.529706
4111.944, 2.440201
4113.872, 3.420316
4115.801, 2.265048
4117.729, 1.630669
4119.658, 3.213424
4121.586, 2.764819
4123.515, 2.428554
4125.443, 2.220824
4127.372, 2.410171
4129.300, 3.045726
4131.229, 3.194957
4133.157, 3.179674
4135.085, 2.839660
4137.014, 2.150452
4138.942, 2.648344
4140.871, 3.709583
4142.799, 3.026825
4144.728, 2.700857
4146.656, 3.582703
4148.584, 2.611005
4150.513, 2.085995
4152.441, 2.602716
4154.370, 2.710955
4156.298, 2.954602
4158.227, 2.276530
4160.155, 1.631773
4162.084, 2.360081
4164.012, 1.906866
4165.941, 2.242971
4167.869, 2.850719
4169.798, 2.563678
4171.726, 2.880563
4173.655, 3.536067
4175.583, 2.891304
4177.512, 3.070702
4179.440, 3.899160
4181.369, 3.476741
4183.297, 3.616547
4185.226, 3.221949
4187.154, 3.337580
4189.083, 4.884627
4191.011, 3.207397
4192.939, 4.165033
4194.868, 4.157586
4196.796, 4.052485
4198.725, 2.537017
4200.653, 2.754341
4202.582, 3.667483
4204.510, 3.692880
4206.438, 3.594400
4208.367, 3.824402
4210.295, 3.625391
4212.224, 3.160844
4214.152, 4.154927
4216.081, 3.209949
4218.009, 3.433523
4219.938, 4.503920
4221.866, 4.183850
4223.795, 3.648497
4225.723, 5.411595
4227.652, 4.946536
4229.580, 3.102225
4231.509, 3.804578
4233.437, 4.343994
4235.366, 4.065751
4237.294, 4.248260
4239.223, 4.950921
4241.151, 5.019525
4243.080, 4.150905
4245.008, 5.541961
4246.937, 4.556548
4248.865, 5.173170
4250.793, 2.406079
4252.722, 4.086606
4254.650, 5.691011
4256.579, 2.411648
4258.507, 3.799404
4260.436, 3.160214
4262.364, 4.827935
4264.292, 5.703063
4266.221, 4.975441
4268.149, 4.237054
4270.078, 4.290386
4272.006, 4.907416
4273.935, 4.850521
4275.863, 4.179014
4277.792, 4.121709
4279.720, 4.222892
4281.649, 4.399274
4283.577, 4.485569
4285.506, 4.062526
4287.434, 3.694796
4289.363, 3.646922
4291.291, 4.033238
4293.220, 3.490955
4295.148, 4.476124
4297.077, 2.993884
4299.005, 2.999244
4300.934, 2.861645
4302.862, 3.211869
4304.791, 3.711078
4306.719, 3.824509
4308.647, 4.228846
4310.576, 3.547985
4312.504, 2.718772
4314.433, 2.211269
4316.361, 1.983505
4318.290, 3.041442
4320.218, 3.450444
4322.146, 2.226363
4324.075, 1.825441
4326.003, 3.936619
4327.932, 3.372477
4329.860, 3.338905
4331.789, 2.623331
4333.717, 2.834349
4335.646, 3.061992
4337.574, 4.039326
4339.503, 3.105307
4341.431, 3.349881
4343.360, 3.426204
4345.288, 3.538085
4347.217, 3.370566
4349.145, 2.953370
4351.074, 3.088501
4353.002, 3.529157
4354.931, 3.623348
4356.859, 2.540973
4358.788, 2.371805
4360.716, 2.434607
4362.645, 2.864820
4364.573, 2.641490
4366.501, 3.060349
4368.430, 3.677862
4370.358, 2.852885
4372.287, 2.528650
4374.215, 2.393989
4376.144, 2.318806
4378.072, 3.370469
4380.000, 3.080986
4381.929, 2.098346
##END=



