##NAMES=Pyrope
##RRUFFID=R050112
##IDEAL CHEMISTRY=Mg_3_Al_2_(SiO_4_)_3_
##LOCALITY=Cruzeiro mine, San Jose, Minas Gerais, Brazil
##OWNER=RRUFF
##SOURCE=Carlos and Paulo Vasconcelos
##DESCRIPTION=Dark red crystal fragment
##STATUS=The identification of this mineral has been confirmed by X-ray diffraction and chemical analysis
##URL=https://www.rruff.net/odr/rruff_sample/R050112
##MEASURED CHEMISTRY=(Mg_1.49_Fe^2+^_1.18_Ca_0.29_Mn_0.04_)(Al_1.99_Fe^3+^_0.01_)(Si_1.00_O_4_)_3_
##DIFFRACTION SAMPLE DESCRIPTION=Powder
##CELL PARAMETERS=a: 11.5306 b: 11.5306 c: 11.5306 alpha: 90 beta: 90 gamma: 90 volume: 1533.08 crystal system: cubic
##FILETYPE=Raman RAW
##RAMAN WAVELENGTH=780

136.7808, 4682.448
138.7092, 4694.968
140.6377, 4753.354
142.5662, 4802.543
144.4946, 4829.902
146.4231, 4843.960
148.3516, 4853.050
150.2800, 4857.312
152.2085, 4848.414
154.1370, 4818.659
156.0654, 4790.793
157.9939, 4768.737
159.9224, 4750.063
161.8508, 4729.190
163.7793, 4707.750
165.7078, 4702.689
167.6362, 4711.238
169.5647, 4741.568
171.4932, 4813.406
173.4216, 4886.930
175.3501, 4945.437
177.2786, 4987.173
179.2070, 5000.694
181.1355, 4971.561
183.0640, 4953.318
184.9924, 4953.905
186.9209, 4960.675
188.8494, 4961.467
190.7778, 4964.875
192.7063, 4989.814
194.6348, 5043.375
196.5632, 5096.913
198.4917, 5152.854
200.4202, 5204.590
202.3486, 5254.058
204.2771, 5294.760
206.2056, 5319.757
208.1340, 5328.305
210.0625, 5319.071
211.9910, 5292.915
213.9194, 5248.060
215.8479, 5163.807
217.7764, 5078.714
219.7048, 5021.552
221.6333, 4988.198
223.5618, 4950.940
225.4902, 4905.918
227.4187, 4875.201
229.3472, 4870.468
231.2756, 4870.741
233.2041, 4867.303
235.1326, 4860.925
237.0610, 4851.456
238.9895, 4838.196
240.9180, 4833.038
242.8464, 4841.815
244.7749, 4846.855
246.7034, 4837.546
248.6318, 4824.803
250.5603, 4817.031
252.4888, 4813.870
254.4172, 4812.383
256.3457, 4813.018
258.2742, 4811.972
260.2026, 4806.385
262.1311, 4801.213
264.0596, 4801.562
265.9880, 4802.801
267.9165, 4793.575
269.8450, 4774.140
271.7734, 4764.685
273.7019, 4771.500
275.6304, 4775.838
277.5588, 4766.037
279.4873, 4756.365
281.4158, 4759.061
283.3442, 4770.637
285.2727, 4775.958
287.2012, 4774.118
289.1296, 4780.784
291.0581, 4806.556
292.9866, 4829.090
294.9150, 4840.003
296.8435, 4844.179
298.7720, 4837.938
300.7004, 4827.296
302.6289, 4846.480
304.5574, 4899.829
306.4858, 4964.606
308.4143, 5054.592
310.3428, 5131.337
312.2712, 5173.690
314.1997, 5196.181
316.1282, 5213.302
318.0566, 5228.542
319.9851, 5265.242
321.9136, 5323.509
323.8420, 5409.639
325.7705, 5523.653
327.6990, 5666.340
329.6274, 5832.653
331.5559, 6030.755
333.4843, 6276.127
335.4128, 6564.938
337.3413, 6885.961
339.2697, 7219.993
341.1982, 7635.010
343.1267, 8151.314
345.0551, 8736.047
346.9836, 9457.520
348.9121, 10197.37
350.8405, 10815.68
352.7690, 11299.95
354.6975, 11434.19
356.6259, 11109.64
358.5544, 10612.55
360.4829, 9868.353
362.4113, 9137.093
364.3398, 8551.204
366.2683, 8077.842
368.1967, 7677.479
370.1252, 7343.552
372.0537, 7023.811
373.9821, 6718.085
375.9106, 6415.884
377.8391, 6094.691
379.7675, 5800.784
381.6960, 5570.600
383.6245, 5371.431
385.5529, 5153.583
387.4814, 4927.445
389.4099, 4745.138
391.3383, 4620.352
393.2668, 4508.981
395.1953, 4402.629
397.1237, 4311.748
399.0522, 4246.819
400.9807, 4193.674
402.9091, 4133.877
404.8376, 4076.229
406.7661, 4046.227
408.6945, 4051.225
410.6230, 4046.700
412.5515, 4026.746
414.4799, 3999.798
416.4084, 3960.980
418.3369, 3923.135
420.2654, 3887.485
422.1938, 3860.948
424.1223, 3860.124
426.0508, 3884.801
427.9792, 3895.578
429.9077, 3880.284
431.8362, 3869.483
433.7646, 3876.295
435.6931, 3873.874
437.6216, 3838.207
439.5500, 3799.737
441.4785, 3787.192
443.4070, 3793.238
445.3354, 3795.130
447.2639, 3790.631
449.1924, 3788.863
451.1208, 3792.116
453.0493, 3794.340
454.9778, 3793.570
456.9062, 3793.125
458.8347, 3790.778
460.7632, 3791.140
462.6916, 3803.297
464.6201, 3825.774
466.5486, 3842.668
468.4770, 3849.529
470.4055, 3861.759
472.3340, 3874.955
474.2624, 3902.533
476.1909, 3958.140
478.1194, 4015.742
480.0478, 4074.302
481.9763, 4114.761
483.9048, 4099.029
485.8332, 4034.224
487.7617, 3995.260
489.6902, 3983.037
491.6186, 3996.706
493.5471, 4028.711
495.4756, 4107.239
497.4040, 4278.554
499.3325, 4445.050
501.2610, 4580.533
503.1894, 4658.622
505.1179, 4623.519
507.0464, 4489.063
508.9748, 4346.506
510.9033, 4183.636
512.8318, 4072.686
514.7603, 4027.805
516.6887, 3996.491
518.6172, 3971.285
520.5457, 3948.209
522.4741, 3923.407
524.4026, 3900.986
526.3311, 3881.115
528.2595, 3865.939
530.1880, 3863.257
532.1165, 3873.980
534.0449, 3910.782
535.9734, 3975.014
537.9019, 4055.110
539.8303, 4138.531
541.7588, 4259.204
543.6873, 4418.276
545.6157, 4637.938
547.5442, 4948.915
549.4727, 5319.689
551.4011, 5758.695
553.3296, 6234.602
555.2581, 6515.550
557.1865, 6610.654
559.1150, 6463.955
561.0435, 6013.356
562.9719, 5535.832
564.9004, 5063.738
566.8289, 4651.115
568.7573, 4309.288
570.6858, 4042.223
572.6143, 3872.488
574.5427, 3767.607
576.4711, 3676.185
578.3996, 3600.360
580.3281, 3541.451
582.2565, 3499.132
584.1850, 3475.444
586.1135, 3477.764
588.0419, 3473.143
589.9704, 3452.190
591.8989, 3421.776
593.8273, 3374.018
595.7558, 3331.504
597.6843, 3308.765
599.6127, 3299.567
601.5412, 3302.507
603.4697, 3314.861
605.3981, 3318.083
607.3266, 3311.740
609.2551, 3301.023
611.1835, 3286.325
613.1120, 3269.156
615.0405, 3243.641
616.9689, 3226.114
618.8974, 3225.509
620.8259, 3229.729
622.7543, 3219.148
624.6828, 3220.776
626.6113, 3267.732
628.5397, 3344.961
630.4682, 3434.265
632.3967, 3530.064
634.3251, 3603.411
636.2536, 3654.252
638.1821, 3665.621
640.1105, 3627.936
642.0390, 3567.443
643.9675, 3473.791
645.8959, 3383.113
647.8244, 3303.888
649.7529, 3234.759
651.6813, 3167.167
653.6098, 3112.610
655.5383, 3097.338
657.4667, 3096.645
659.3952, 3067.178
661.3237, 3017.773
663.2521, 2980.136
665.1806, 2955.277
667.1091, 2931.161
669.0375, 2907.167
670.9660, 2885.815
672.8945, 2864.339
674.8229, 2847.920
676.7514, 2844.163
678.6799, 2841.387
680.6083, 2829.137
682.5368, 2816.077
684.4653, 2815.505
686.3937, 2816.397
688.3222, 2801.159
690.2507, 2800.754
692.1791, 2774.323
694.1076, 2783.389
696.0361, 2780.488
697.9645, 2760.787
699.8930, 2747.020
701.8215, 2740.165
703.7499, 2741.836
705.6784, 2763.166
707.6069, 2770.818
709.5353, 2747.165
711.4638, 2725.214
713.3923, 2723.944
715.3207, 2724.921
717.2492, 2711.874
719.1777, 2697.066
721.1061, 2693.080
723.0346, 2693.792
724.9631, 2690.864
726.8915, 2686.452
728.8200, 2680.878
730.7485, 2671.887
732.6769, 2666.839
734.6054, 2666.189
736.5339, 2671.314
738.4623, 2690.091
740.3908, 2695.030
742.3193, 2672.914
744.2477, 2653.825
746.1762, 2648.491
748.1047, 2647.617
750.0331, 2651.196
751.9616, 2652.438
753.8901, 2641.185
755.8185, 2627.229
757.7470, 2628.013
759.6755, 2635.842
761.6039, 2625.873
763.5324, 2628.079
765.4609, 2627.658
767.3893, 2619.216
769.3178, 2623.304
771.2463, 2612.214
773.1747, 2602.566
775.1032, 2594.783
777.0317, 2593.370
778.9601, 2600.102
780.8886, 2602.374
782.8171, 2598.038
784.7455, 2589.185
786.6740, 2569.644
788.6025, 2557.366
790.5309, 2568.052
792.4594, 2581.176
794.3879, 2579.997
796.3163, 2578.545
798.2448, 2596.679
800.1733, 2594.721
802.1017, 2617.939
804.0302, 2609.614
805.9587, 2617.128
807.8871, 2634.673
809.8156, 2644.017
811.7441, 2646.609
813.6725, 2647.454
815.6010, 2646.228
817.5295, 2654.862
819.4579, 2660.223
821.3864, 2666.708
823.3149, 2683.565
825.2433, 2689.549
827.1718, 2711.732
829.1003, 2737.740
831.0287, 2767.106
832.9572, 2794.212
834.8857, 2810.056
836.8141, 2831.310
838.7426, 2857.211
840.6711, 2905.774
842.5995, 2980.066
844.5280, 3082.777
846.4565, 3224.357
848.3849, 3394.019
850.3134, 3590.290
852.2419, 3795.301
854.1703, 3995.050
856.0988, 4180.009
858.0273, 4333.863
859.9557, 4434.870
861.8842, 4401.834
863.8127, 4258.863
865.7411, 4115.145
867.6696, 3974.945
869.5981, 3845.876
871.5266, 3725.329
873.4550, 3634.593
875.3835, 3579.574
877.3120, 3556.405
879.2404, 3561.725
881.1689, 3594.277
883.0974, 3654.629
885.0258, 3752.858
886.9543, 3889.705
888.8828, 4056.876
890.8112, 4244.570
892.7397, 4481.846
894.6682, 4739.162
896.5966, 5099.303
898.5251, 5528.581
900.4536, 6169.031
902.3820, 7030.310
904.3105, 8190.550
906.2390, 9719.852
908.1674, 11568.50
910.0959, 13990.99
912.0244, 16395.78
913.9528, 18620.56
915.8813, 20073.53
917.8098, 19964.29
919.7382, 18763.93
921.6667, 16725.71
923.5952, 14287.12
925.5236, 12032.71
927.4521, 10041.76
929.3806, 8449.282
931.3090, 7192.964
933.2375, 6170.247
935.1660, 5369.273
937.0944, 4756.469
939.0229, 4310.850
940.9514, 3939.368
942.8798, 3637.447
944.8083, 3407.973
946.7368, 3251.490
948.6652, 3111.729
950.5937, 2983.582
952.5222, 2881.562
954.4506, 2807.418
956.3791, 2758.045
958.3076, 2740.388
960.2360, 2712.344
962.1645, 2665.013
964.0930, 2625.497
966.0214, 2597.635
967.9499, 2577.825
969.8784, 2564.662
971.8068, 2548.997
973.7353, 2534.899
975.6638, 2524.410
977.5922, 2511.344
979.5207, 2501.314
981.4492, 2503.055
983.3776, 2490.999
985.3061, 2454.429
987.2346, 2428.837
989.1630, 2424.488
991.0915, 2410.263
993.0200, 2376.634
994.9484, 2349.375
996.8769, 2333.853
998.8054, 2324.400
1000.734, 2320.285
1002.662, 2320.950
1004.591, 2330.479
1006.519, 2336.372
1008.448, 2328.985
1010.376, 2326.297
1012.305, 2336.838
1014.233, 2350.734
1016.162, 2367.387
1018.090, 2386.068
1020.018, 2401.462
1021.947, 2416.824
1023.875, 2436.163
1025.804, 2459.291
1027.732, 2486.829
1029.661, 2515.604
1031.589, 2535.176
1033.518, 2561.732
1035.446, 2617.602
1037.375, 2692.375
1039.303, 2766.442
1041.232, 2818.892
1043.160, 2867.096
1045.089, 2908.967
1047.017, 2942.048
1048.946, 2941.028
1050.874, 2893.177
1052.802, 2814.969
1054.731, 2700.834
1056.659, 2593.345
1058.588, 2504.830
1060.516, 2416.232
1062.445, 2316.704
1064.373, 2239.891
1066.302, 2198.541
1068.230, 2171.101
1070.159, 2157.042
1072.087, 2139.435
1074.016, 2117.233
1075.944, 2098.155
1077.872, 2075.757
1079.801, 2058.651
1081.729, 2053.862
1083.658, 2052.243
1085.586, 2053.663
1087.515, 2048.896
1089.443, 2033.012
1091.372, 2017.826
1093.300, 2007.345
1095.229, 1997.786
1097.157, 1985.972
1099.086, 1979.353
1101.014, 1985.705
1102.943, 1980.022
1104.871, 1947.732
1106.799, 1929.680
1108.728, 1936.343
1110.656, 1941.914
1112.585, 1948.142
1114.513, 1946.769
1116.442, 1929.929
1118.370, 1919.123
1120.299, 1921.481
1122.227, 1922.677
1124.156, 1920.919
1126.084, 1917.517
1128.013, 1907.470
1129.941, 1905.688
1131.870, 1898.995
1133.798, 1891.620
1135.726, 1893.950
1137.655, 1883.133
1139.583, 1892.581
1141.512, 1902.163
1143.440, 1909.427
1145.369, 1905.655
1147.297, 1909.137
1149.226, 1906.183
1151.154, 1902.213
1153.083, 1897.908
1155.011, 1887.346
1156.940, 1881.382
1158.868, 1881.742
1160.797, 1892.670
1162.725, 1905.158
1164.653, 1904.318
1166.582, 1902.098
1168.510, 1914.766
1170.439, 1926.874
1172.367, 1924.063
1174.296, 1917.454
1176.224, 1916.104
1178.153, 1917.734
1180.081, 1911.799
1182.010, 1903.652
1183.938, 1911.293
1185.867, 1925.282
1187.795, 1930.728
1189.724, 1928.651
1191.652, 1925.326
1193.580, 1919.278
1195.509, 1901.943
1197.437, 1891.538
1199.366, 1901.794
1201.294, 1910.594
1203.223, 1905.882
1205.151, 1903.891
1207.080, 1912.271
1209.008, 1916.904
1210.937, 1913.821
1212.865, 1908.132
1214.794, 1903.643
1216.722, 1898.544
1218.651, 1893.732
1220.579, 1890.278
1222.507, 1885.359
1224.436, 1884.718
1226.364, 1882.973
1228.293, 1882.733
1230.221, 1878.161
1232.150, 1889.374
1234.078, 1931.203
1236.007, 1941.779
1237.935, 1909.269
1239.864, 1886.769
1241.792, 1877.134
1243.721, 1872.242
1245.649, 1870.143
1247.578, 1865.295
1249.506, 1863.048
1251.434, 1857.916
1253.363, 1854.949
1255.291, 1868.061
1257.220, 1880.828
1259.148, 1885.840
1261.077, 1879.947
1263.005, 1854.404
1264.934, 1844.207
1266.862, 1857.257
1268.791, 1868.526
1270.719, 1881.508
1272.648, 1884.588
1274.576, 1872.338
1276.505, 1865.987
1278.433, 1866.844
1280.361, 1865.895
1282.290, 1862.790
1284.218, 1862.080
1286.147, 1864.406
1288.075, 1855.141
1290.004, 1856.490
1291.932, 1857.756
1293.861, 1853.305
1295.789, 1862.341
1297.718, 1863.646
1299.646, 1864.232
1301.575, 1864.006
1303.503, 1860.296
1305.432, 1856.517
1307.360, 1850.517
1309.288, 1842.812
1311.217, 1833.666
1313.145, 1829.886
1315.074, 1837.302
1317.002, 1839.446
1318.931, 1831.627
1320.859, 1828.048
1322.788, 1830.466
1324.716, 1826.754
1326.645, 1818.240
1328.573, 1815.279
1330.502, 1819.787
1332.430, 1830.206
1334.359, 1832.373
1336.287, 1809.988
1338.215, 1787.232
1340.144, 1786.802
1342.072, 1794.988
1344.001, 1801.012
1345.929, 1800.815
1347.858, 1804.304
1349.786, 1802.984
1351.715, 1799.077
1353.643, 1796.701
1355.572, 1782.052
1357.500, 1773.705
1359.429, 1773.142
1361.357, 1776.860
1363.286, 1777.698
1365.214, 1775.530
1367.142, 1777.907
1369.071, 1774.559
1370.999, 1765.469
1372.928, 1769.605
1374.856, 1765.078
1376.785, 1771.542
1378.713, 1765.728
1380.642, 1772.434
1382.570, 1778.951
1384.499, 1775.925
1386.427, 1768.808
1388.356, 1765.386
1390.284, 1761.778
1392.213, 1754.026
1394.141, 1750.856
1396.069, 1749.918
1397.998, 1749.243
1399.926, 1749.793
1401.855, 1749.116
1403.783, 1751.255
1405.712, 1765.252
1407.640, 1774.099
1409.569, 1759.396
1411.497, 1748.760
1413.426, 1752.143
1415.354, 1753.587
1417.283, 1751.438
1419.211, 1740.440
1421.140, 1726.277
1423.068, 1727.235
1424.996, 1734.197
1426.925, 1744.789
1428.853, 1743.252
1430.782, 1757.995
1432.710, 1747.217
1434.639, 1751.221
1436.567, 1758.833
1438.496, 1751.896
1440.424, 1746.602
1442.353, 1752.173
1444.281, 1752.265
1446.210, 1753.398
1448.138, 1750.733
1450.067, 1743.257
1451.995, 1741.575
1453.923, 1739.502
1455.852, 1737.600
1457.780, 1737.344
1459.709, 1733.806
1461.637, 1730.607
1463.566, 1731.315
1465.494, 1730.538
1467.423, 1727.360
1469.351, 1730.800
1471.280, 1737.861
1473.208, 1735.626
1475.137, 1732.547
1477.065, 1726.737
1478.994, 1715.206
1480.922, 1706.790
1482.850, 1703.161
1484.779, 1703.288
1486.707, 1704.135
1488.636, 1707.998
1490.564, 1718.338
1492.493, 1735.764
1494.421, 1738.548
1496.350, 1721.331
1498.278, 1708.794
1500.207, 1699.893
1502.135, 1693.927
1504.064, 1691.670
1505.992, 1695.128
1507.921, 1702.666
1509.849, 1707.042
1511.777, 1706.766
1513.706, 1692.490
1515.634, 1679.062
1517.563, 1684.320
1519.491, 1688.123
1521.420, 1679.649
1523.348, 1675.843
1525.277, 1677.767
1527.205, 1680.353
1529.134, 1682.547
1531.062, 1678.298
1532.991, 1671.466
1534.919, 1675.595
1536.848, 1679.581
1538.776, 1672.750
1540.704, 1666.369
1542.633, 1664.084
1544.561, 1664.143
1546.490, 1664.560
1548.418, 1663.642
1550.347, 1659.953
1552.275, 1649.808
1554.204, 1645.996
1556.132, 1649.776
1558.061, 1649.681
1559.989, 1650.285
1561.918, 1646.046
1563.846, 1636.741
1565.775, 1628.863
1567.703, 1629.213
1569.631, 1629.815
1571.560, 1625.080
1573.488, 1618.334
1575.417, 1612.993
1577.345, 1619.196
1579.274, 1627.567
1581.202, 1626.728
1583.131, 1622.833
1585.059, 1618.972
1586.988, 1606.383
1588.916, 1596.747
1590.845, 1594.731
1592.773, 1592.078
1594.702, 1594.044
1596.630, 1595.308
1598.558, 1585.719
1600.487, 1579.087
1602.415, 1581.508
1604.344, 1578.614
1606.272, 1578.504
1608.201, 1567.727
1610.129, 1579.371
1612.058, 1587.110
1613.986, 1587.339
1615.915, 1576.481
1617.843, 1562.777
1619.772, 1556.448
1621.700, 1548.178
1623.629, 1538.359
1625.557, 1535.911
1627.485, 1542.021
1629.414, 1553.198
1631.342, 1553.410
1633.271, 1530.415
1635.199, 1512.195
1637.128, 1516.056
1639.056, 1522.211
1640.985, 1528.089
1642.913, 1528.517
1644.842, 1521.184
1646.770, 1511.789
1648.699, 1499.075
1650.627, 1494.103
1652.556, 1500.464
1654.484, 1505.277
1656.412, 1500.880
1658.341, 1489.364
1660.269, 1476.083
1662.198, 1470.400
1664.126, 1473.217
1666.055, 1472.369
1667.983, 1469.899
1669.912, 1459.756
1671.840, 1456.447
1673.769, 1451.731
1675.697, 1442.480
1677.626, 1444.672
1679.554, 1437.636
1681.483, 1436.118
1683.411, 1440.040
1685.339, 1427.330
1687.268, 1417.692
1689.196, 1425.837
1691.125, 1435.123
1693.053, 1437.628
1694.982, 1426.917
1696.910, 1410.674
1698.839, 1402.934
1700.767, 1404.781
1702.696, 1416.260
1704.624, 1419.687
1706.553, 1409.169
1708.481, 1403.536
1710.410, 1394.004
1712.338, 1379.882
1714.266, 1376.768
1716.195, 1377.661
1718.123, 1380.299
1720.052, 1379.164
1721.980, 1379.195
1723.909, 1377.319
1725.837, 1375.834
1727.766, 1368.255
1729.694, 1363.600
1731.623, 1360.444
1733.551, 1352.836
1735.480, 1354.064
1737.408, 1344.198
1739.337, 1341.990
1741.265, 1347.447
1743.193, 1332.047
1745.122, 1314.336
1747.050, 1313.071
1748.979, 1309.688
1750.907, 1301.961
1752.836, 1307.016
1754.764, 1315.034
1756.693, 1318.618
1758.621, 1316.447
1760.550, 1293.586
1762.478, 1280.408
1764.407, 1288.624
1766.335, 1289.887
1768.264, 1289.125
1770.192, 1294.143
1772.120, 1292.071
1774.049, 1281.011
1775.977, 1274.074
1777.906, 1276.522
1779.834, 1276.732
1781.763, 1264.405
1783.691, 1264.187
1785.620, 1248.300
1787.548, 1253.073
1789.477, 1240.121
1791.405, 1234.373
1793.334, 1234.593
1795.262, 1230.093
1797.191, 1229.427
1799.119, 1221.674
1801.047, 1218.535
1802.976, 1224.327
1804.904, 1219.495
1806.833, 1206.466
1808.761, 1200.954
1810.690, 1207.573
1812.618, 1211.591
1814.547, 1202.718
1816.475, 1191.785
1818.404, 1179.549
1820.332, 1171.099
1822.261, 1177.937
1824.189, 1182.209
1826.118, 1171.579
1828.046, 1169.988
1829.974, 1175.740
1831.903, 1174.320
1833.831, 1171.713
1835.760, 1169.913
1837.688, 1161.030
1839.617, 1149.521
1841.545, 1148.435
1843.474, 1148.608
1845.402, 1141.692
1847.331, 1128.709
1849.259, 1119.813
1851.188, 1115.565
1853.116, 1111.961
1855.045, 1107.721
1856.973, 1109.281
1858.901, 1113.886
1860.830, 1105.861
1862.758, 1100.186
1864.687, 1100.154
1866.615, 1092.997
1868.544, 1086.591
1870.472, 1083.275
1872.401, 1070.506
1874.329, 1065.763
1876.258, 1072.323
1878.186, 1072.141
1880.115, 1062.793
1882.043, 1055.507
1883.972, 1054.890
1885.900, 1057.480
1887.828, 1062.874
1889.757, 1061.001
1891.685, 1051.497
1893.614, 1040.265
1895.542, 1029.484
1897.471, 1027.401
1899.399, 1032.101
1901.328, 1029.903
1903.256, 1026.837
1905.185, 1022.615
1907.113, 1021.683
1909.042, 1019.457
1910.970, 1015.933
1912.899, 1016.102
1914.827, 1006.945
1916.755, 1002.298
1918.684, 1004.004
1920.612, 1005.793
1922.541, 994.9276
1924.469, 983.4391
1926.398, 977.4684
1928.326, 977.5255
1930.255, 975.2065
1932.183, 969.8643
1934.112, 966.6247
1936.040, 966.3097
1937.969, 964.4103
1939.897, 960.2632
1941.826, 950.9354
1943.754, 944.3269
1945.682, 938.4415
1947.611, 927.0743
1949.539, 932.7086
1951.468, 941.7390
1953.396, 937.6627
1955.325, 934.4034
1957.253, 927.7974
1959.182, 925.0239
1961.110, 926.0476
1963.039, 914.5547
1964.967, 908.5960
1966.896, 911.8762
1968.824, 909.5457
1970.753, 902.8158
1972.681, 896.9901
1974.609, 898.3966
1976.538, 898.9175
1978.466, 894.7574
1980.395, 888.7836
1982.323, 878.3597
1984.252, 869.2386
1986.180, 869.4201
1988.109, 869.9700
1990.037, 861.6534
1991.966, 859.8430
1993.894, 855.5286
1995.823, 851.5515
1997.751, 848.6195
1999.680, 845.6189
2001.608, 843.0760
2003.536, 843.6494
2005.465, 838.5808
2007.393, 835.4887
2009.322, 832.8322
2011.250, 824.5119
2013.179, 820.1194
2015.107, 821.9485
2017.036, 818.0057
2018.964, 807.3605
2020.893, 803.1370
2022.821, 805.0747
2024.750, 803.7910
2026.678, 800.0644
2028.607, 791.3016
2030.535, 785.1568
2032.464, 788.5483
2034.392, 794.0458
2036.320, 792.3374
2038.249, 780.9992
2040.177, 771.0287
2042.106, 772.5322
2044.034, 775.9025
2045.963, 771.2002
2047.891, 767.8163
2049.820, 762.2231
2051.748, 753.4330
2053.677, 754.1735
2055.605, 752.7624
2057.533, 742.7960
2059.462, 735.9797
2061.390, 739.8814
2063.319, 741.0480
2065.247, 730.1608
2067.176, 724.8002
2069.104, 726.0441
2071.033, 718.5663
2072.961, 714.9053
2074.890, 718.3578
2076.818, 710.7152
2078.747, 701.2913
2080.675, 700.2095
2082.604, 701.1906
2084.532, 700.0806
2086.460, 721.2809
2088.389, 709.0338
2090.317, 730.4791
2092.246, 699.5462
2094.174, 685.5831
2096.103, 685.9750
2098.031, 688.2747
2099.960, 684.0391
2101.888, 683.9176
2103.817, 675.3134
2105.745, 671.1180
2107.674, 665.4730
2109.602, 660.6321
2111.531, 656.9465
2113.459, 652.5247
2115.387, 649.8993
2117.316, 645.6829
2119.244, 642.5355
2121.173, 646.2890
2123.101, 648.7485
2125.030, 644.2900
2126.958, 639.1486
2128.887, 636.7001
2130.815, 634.5608
2132.744, 630.3610
2134.672, 624.9700
2136.601, 627.0416
2138.529, 627.3350
2140.458, 612.6600
2142.386, 599.7026
2144.314, 599.5627
2146.243, 606.2701
2148.171, 607.4777
2150.100, 602.3818
2152.028, 602.3970
2153.957, 600.0283
2155.885, 593.4373
2157.814, 588.5352
2159.742, 591.1498
2161.671, 591.1306
2163.599, 585.9962
2165.528, 588.1608
2167.456, 584.4780
2169.385, 583.6140
2171.313, 582.1362
2173.241, 579.1296
2175.170, 576.8638
2177.098, 569.0977
2179.027, 563.7064
2180.955, 564.7696
2182.884, 566.3832
2184.812, 561.6877
2186.741, 558.9341
2188.669, 558.9377
2190.598, 551.6551
2192.526, 547.0132
2194.455, 542.9674
2196.383, 538.0919
2198.312, 534.8301
2200.240, 531.3950
2202.168, 530.2654
2204.097, 525.7650
2206.025, 520.8956
2207.954, 522.6858
2209.882, 528.6368
2211.811, 528.7592
2213.739, 526.3544
2215.668, 521.9194
2217.596, 511.2437
2219.525, 506.7765
2221.453, 506.0385
2223.382, 510.0154
2225.310, 504.6654
2227.239, 512.4346
2229.167, 499.6010
2231.095, 493.5706
2233.024, 492.5489
2234.952, 490.7396
2236.881, 489.2162
2238.809, 488.4791
2240.738, 488.5416
2242.666, 486.7489
2244.595, 477.7309
2246.523, 472.3860
2248.452, 475.4523
2250.380, 475.7375
2252.309, 476.4971
2254.237, 473.1647
2256.166, 470.9978
2258.094, 470.9002
2260.022, 467.1028
2261.951, 457.7997
2263.879, 461.9819
2265.808, 456.0424
2267.736, 454.4588
2269.665, 457.2214
2271.593, 453.6842
2273.522, 453.6179
2275.450, 456.8873
2277.379, 448.3036
2279.307, 448.5985
2281.236, 441.3543
2283.164, 442.4695
2285.093, 432.0966
2287.021, 429.6868
2288.949, 434.0811
2290.878, 443.3546
2292.806, 437.9091
2294.735, 429.0991
2296.663, 421.9302
2298.592, 414.4915
2300.520, 415.9597
2302.449, 420.3891
2304.377, 421.3985
2306.306, 417.5670
2308.234, 405.8585
2310.163, 397.0114
2312.091, 402.5831
2314.020, 406.2246
2315.948, 400.8251
2317.876, 403.0055
2319.805, 409.2698
2321.733, 407.8105
2323.662, 405.3701
2325.590, 400.2693
2327.519, 392.4506
2329.447, 415.1871
2331.376, 434.9390
2333.304, 406.9040
2335.233, 390.3115
2337.161, 385.0069
2339.090, 382.3838
2341.018, 380.1109
2342.947, 378.3919
2344.875, 377.1552
2346.803, 373.0139
2348.732, 366.4880
2350.660, 368.3272
2352.589, 364.0963
2354.517, 363.4052
2356.446, 362.0499
2358.374, 362.3644
2360.303, 364.1471
2362.231, 363.5968
2364.160, 366.3972
2366.088, 359.9456
2368.017, 343.2831
2369.945, 341.7975
2371.874, 347.6573
2373.802, 351.8940
2375.730, 350.4048
2377.659, 349.8149
2379.587, 349.1398
2381.516, 345.0826
2383.444, 340.7632
2385.373, 342.1349
2387.301, 337.8409
2389.230, 331.9395
2391.158, 336.1564
2393.087, 332.2695
2395.015, 322.4129
2396.944, 326.8965
2398.872, 330.2739
2400.801, 322.1567
2402.729, 317.9826
2404.657, 316.8206
2406.586, 317.6574
2408.514, 317.5055
2410.443, 316.0370
2412.371, 315.1760
2414.300, 313.0046
2416.228, 311.2372
2418.157, 308.5745
2420.085, 305.6635
2422.014, 304.5222
2423.942, 303.6977
2425.871, 302.9151
2427.799, 302.9190
2429.728, 303.9085
2431.656, 301.8839
2433.584, 304.4681
2435.513, 301.8345
2437.441, 293.4389
2439.370, 295.9629
2441.298, 295.5830
2443.227, 287.2533
2445.155, 284.6168
2447.084, 284.5929
2449.012, 285.5493
2450.941, 287.2756
2452.869, 286.8018
2454.798, 283.5185
2456.726, 278.5393
2458.655, 273.1479
2460.583, 270.6438
2462.511, 272.1205
2464.440, 270.9579
2466.368, 271.2660
2468.297, 271.4304
2470.225, 266.6073
2472.154, 268.5824
2474.082, 267.5205
2476.011, 262.1236
2477.939, 263.8579
2479.868, 265.8600
2481.796, 268.3223
2483.725, 258.8539
2485.653, 250.0017
2487.582, 257.5230
2489.510, 262.4910
2491.438, 262.2419
2493.367, 256.6266
2495.295, 252.7881
2497.224, 251.3575
2499.152, 247.0440
2501.081, 248.0308
2503.009, 242.5225
2504.938, 240.4094
2506.866, 240.9096
2508.795, 238.4378
2510.723, 242.1136
2512.652, 237.5838
2514.580, 240.0171
2516.509, 239.7935
2518.437, 238.6600
2520.365, 238.0018
2522.294, 236.8037
2524.222, 235.0473
2526.151, 233.1448
2528.079, 228.5418
2530.008, 224.7237
2531.936, 227.9129
2533.865, 224.3714
2535.793, 216.3800
2537.722, 220.3519
2539.650, 221.3805
2541.579, 217.7587
2543.507, 218.6029
2545.436, 215.7426
2547.364, 214.2533
2549.292, 211.2224
2551.221, 207.6923
2553.149, 207.0768
2555.078, 206.6709
2557.006, 206.7011
2558.935, 206.9546
2560.863, 204.7992
2562.792, 208.5758
2564.720, 212.3006
2566.649, 201.4146
2568.577, 198.8776
2570.506, 203.6476
2572.434, 197.6257
2574.363, 193.1125
2576.291, 193.9422
2578.219, 194.1106
2580.148, 193.9678
2582.076, 196.1636
2584.005, 196.5588
2585.933, 194.8205
2587.862, 189.8476
2589.790, 188.8614
2591.719, 188.3486
2593.647, 186.5188
2595.576, 185.9121
2597.504, 188.5317
2599.433, 184.1502
2601.361, 181.3266
2603.290, 180.5748
2605.218, 183.5298
2607.146, 181.5573
2609.075, 177.0251
2611.003, 171.5357
2612.932, 173.9170
2614.860, 176.5941
2616.789, 178.3959
2618.717, 179.7180
2620.646, 176.8624
2622.574, 170.9281
2624.503, 171.0856
2626.431, 170.8037
2628.360, 167.8702
2630.288, 173.2850
2632.217, 171.3415
2634.145, 159.0308
2636.073, 158.5587
2638.002, 160.4930
2639.930, 161.3607
2641.859, 160.2616
2643.787, 158.7552
2645.716, 154.9918
2647.644, 156.0234
2649.573, 157.0993
2651.501, 157.1628
2653.430, 152.2583
2655.358, 147.5860
2657.287, 150.1642
2659.215, 153.0384
2661.144, 153.0992
2663.072, 152.1641
2665.000, 153.5482
2666.929, 152.0448
2668.857, 153.3722
2670.786, 149.7711
2672.714, 147.9309
2674.643, 146.3510
2676.571, 141.7474
2678.500, 137.9702
2680.428, 135.6983
2682.357, 139.1158
2684.285, 137.8878
2686.214, 134.8784
2688.142, 141.2492
2690.071, 138.4079
2691.999, 133.7965
2693.927, 133.2684
2695.856, 128.4377
2697.784, 127.1623
2699.713, 128.4256
2701.641, 130.2699
2703.570, 130.8873
2705.498, 126.9745
2707.427, 129.3421
2709.355, 130.4045
2711.284, 123.4350
2713.212, 127.5717
2715.141, 128.5854
2717.069, 119.5950
2718.998, 121.1463
2720.926, 122.9196
2722.854, 121.6453
2724.783, 119.8211
2726.711, 119.4215
2728.640, 119.6809
2730.568, 119.7827
2732.497, 116.9889
2734.425, 113.3778
2736.354, 113.5451
2738.282, 111.3564
2740.211, 112.3870
2742.139, 116.0929
2744.068, 115.2213
2745.996, 113.6974
2747.925, 111.2296
2749.853, 110.5832
2751.781, 108.4571
2753.710, 107.7847
2755.638, 104.6138
2757.567, 107.0517
2759.495, 103.1448
2761.424, 103.5692
2763.352, 101.9943
2765.281, 99.36176
2767.209, 96.94530
2769.138, 95.78712
2771.066, 97.68437
2772.995, 99.65427
2774.923, 100.6060
2776.852, 99.83537
2778.780, 97.93263
2780.708, 96.07500
2782.637, 93.03720
2784.565, 89.26788
2786.494, 93.64800
2788.422, 97.97209
2790.351, 94.49321
2792.279, 93.87516
2794.208, 94.56125
2796.136, 91.62189
2798.065, 89.65576
2799.993, 90.84797
2801.922, 91.78068
2803.850, 86.36327
2805.779, 87.03358
2807.707, 90.08401
2809.635, 86.28805
2811.564, 84.28767
2813.492, 82.36935
2815.421, 80.28815
2817.349, 84.43968
2819.278, 86.04479
2821.206, 84.61996
2823.135, 78.08463
2825.063, 78.80157
2826.992, 82.43740
2828.920, 71.88544
2830.849, 69.73771
2832.777, 72.66164
2834.706, 78.76621
2836.634, 80.78233
2838.563, 76.53939
2840.491, 75.30551
2842.419, 70.71061
2844.348, 69.53342
2846.276, 71.95343
2848.205, 73.15742
2850.133, 72.23224
2852.062, 72.56586
2853.990, 77.96346
2855.919, 73.32932
2857.847, 68.60501
2859.776, 71.19880
2861.704, 73.37716
2863.633, 72.31901
2865.561, 72.99413
2867.490, 70.26825
2869.418, 70.63297
2871.346, 70.28501
2873.275, 67.73636
2875.203, 69.87887
2877.132, 71.12357
2879.060, 66.66352
2880.989, 62.52870
2882.917, 62.62986
2884.846, 63.77488
2886.774, 66.15466
2888.703, 65.20049
2890.631, 61.68924
2892.560, 62.71188
2894.488, 61.88602
2896.417, 62.66769
2898.345, 65.22998
2900.273, 62.59902
2902.202, 63.65803
2904.130, 63.77649
2906.059, 61.19448
2907.987, 62.77227
2909.916, 58.40473
2911.844, 54.94319
2913.773, 51.56181
2915.701, 49.72794
2917.630, 51.86497
2919.558, 58.23232
2921.487, 59.57514
2923.415, 56.39588
2925.344, 53.61507
2927.272, 54.64513
2929.200, 53.04207
2931.129, 50.58361
2933.057, 53.96041
2934.986, 53.17483
2936.914, 48.75143
2938.843, 47.21775
2940.771, 52.00254
2942.700, 48.75610
2944.628, 50.48903
2946.557, 51.67322
2948.485, 49.15160
2950.414, 53.53878
2952.342, 48.27626
2954.271, 48.78344
2956.199, 45.89677
2958.127, 39.18736
2960.056, 43.03885
2961.984, 46.99100
2963.913, 48.81157
2965.841, 42.45726
2967.770, 40.52216
2969.698, 39.33831
2971.627, 34.87411
2973.555, 37.24909
2975.484, 35.70353
2977.412, 35.00973
2979.341, 36.92368
2981.269, 35.37774
2983.198, 37.32922
2985.126, 39.57197
2987.054, 39.81797
2988.983, 41.13011
2990.911, 41.88781
2992.840, 41.38815
2994.768, 41.11953
2996.697, 39.36523
2998.625, 37.35013
3000.554, 34.56574
3002.482, 29.74277
3004.411, 26.47860
3006.339, 29.98550
3008.268, 30.25658
3010.196, 33.60240
3012.125, 35.98132
3014.053, 30.60847
3015.981, 33.69864
3017.910, 34.72713
3019.838, 29.25715
3021.767, 32.42310
3023.695, 33.94912
3025.624, 31.73475
3027.552, 28.30005
3029.481, 28.94709
3031.409, 27.22203
3033.338, 26.63964
3035.266, 26.83018
3037.195, 25.39800
3039.123, 26.01078
3041.052, 23.89738
3042.980, 28.34926
3044.908, 28.69239
3046.837, 25.25076
3048.765, 20.85043
3050.694, 25.62377
3052.622, 29.64588
3054.551, 28.14538
3056.479, 27.84607
3058.408, 25.62387
3060.336, 20.63622
3062.265, 16.64064
3064.193, 21.41729
3066.122, 25.05888
3068.050, 25.97179
3069.979, 23.46526
3071.907, 23.25173
3073.835, 25.12932
3075.764, 25.13692
3077.692, 19.14967
3079.621, 20.39106
3081.549, 25.09038
3083.478, 28.53790
3085.406, 21.67362
3087.335, 20.51485
3089.263, 21.89942
3091.192, 18.65161
3093.120, 20.89214
3095.049, 21.02405
3096.977, 17.89257
3098.906, 17.72332
3100.834, 18.78304
3102.762, 17.51639
3104.691, 13.88561
3106.619, 20.27584
3108.548, 18.27421
3110.476, 17.18830
3112.405, 20.90706
3114.333, 14.02773
3116.262, 13.44179
3118.190, 15.04078
3120.119, 15.81370
3122.047, 15.53533
3123.976, 21.48245
3125.904, 26.47874
3127.833, 25.61944
3129.761, 19.66714
3131.689, 19.90580
3133.618, 21.24438
3135.546, 13.05596
3137.475, 15.35151
3139.403, 11.04662
3141.332, 5.368925
3143.260, 19.83211
3145.189, 19.06455
3147.117, 18.15057
3149.046, 21.16268
3150.974, 23.58489
3152.903, 16.13654
3154.831, 13.24791
3156.760, 17.61089
3158.688, 20.34672
3160.616, 19.48139
3162.545, 17.97688
3164.473, 16.24358
3166.402, 11.80231
3168.330, 11.76157
3170.259, 11.07677
3172.187, 9.364977
3174.116, 12.06577
3176.044, 9.915038
3177.973, 10.09059
3179.901, 15.47798
3181.830, 7.456398
3183.758, 7.406877
3185.687, 10.88107
3187.615, 13.38030
3189.543, 13.41057
3191.472, 12.02981
3193.400, 11.84974
3195.329, 13.40585
3197.257, 13.54908
3199.186, 10.77208
3201.114, 12.14750
3203.043, 10.89824
3204.971, 10.55377
3206.900, 11.51786
3208.828, 10.11171
3210.757, 13.78134
3212.685, 13.57526
3214.614, 12.87415
3216.542, 8.172688
3218.470, 1.517687
3220.399, 11.47501
3222.327, 15.62102
3224.256, 12.26194
3226.184, 6.127115
3228.113, 13.72851
3230.041, 10.32558
3231.970, 10.51197
3233.898, 16.66996
3235.827, 13.19196
3237.755, 7.551086
3239.684, 8.008398
3241.612, 12.67273
3243.541, 11.50655
3245.469, 11.97733
3247.397, 7.744677
3249.326, 1.834885
3251.254, 2.291842
3253.183, 7.403847
3255.111, 14.83224
3257.040, 16.41721
3258.968, 17.04976
3260.897, 17.11309
3262.825, 12.48272
3264.754, 14.16296
3266.682, 9.306749
3268.611, 11.71445
3270.539, 7.466374
3272.468, 4.252600
3274.396, 7.588864
3276.324, 10.08787
3278.253, 7.181432
3280.181, 6.470941
3282.110, 8.919800
3284.038, 6.981209
3285.967, 1.290281
3287.895, 2.854766
3289.824, 7.030963
3291.752, 1.235050
3293.681, 8.060903
3295.609, 12.95137
3297.538, 10.19199
3299.466, 1.678732
3301.395, 6.553734
3303.323, 3.357429
3305.251, 5.618076
3307.180, 15.37711
3309.108, -0.8814717
3311.037, 5.361554
3312.965, 12.47571
3314.894, 11.18715
3316.822, 5.417126
3318.751, 0.1422601
3320.679, 1.967497
3322.608, 7.328499
3324.536, 8.757354
3326.465, 5.302592
3328.393, 4.878611
3330.322, 5.520292
3332.250, 6.142079
3334.178, 4.998880
3336.107, 8.998917
3338.035, 4.087222
3339.964, 1.889676
3341.892, 3.756115
3343.821, 5.075643
3345.749, 2.551533
3347.678, 0.5548843
3349.606, 2.760295
3351.535, 4.541025
3353.463, 5.844572
3355.392, 4.970844
3357.320, 3.065236
3359.249, 3.937509
3361.177, 2.452228
3363.105, 7.762918
3365.034, 3.323332
3366.962, 1.962710
3368.891, 7.415743
3370.819, 10.25309
3372.748, 8.554906
3374.676, 4.989169
3376.605, 4.583270
3378.533, 8.614031
3380.462, 0.4949825
3382.390, -3.508820
3384.319, 5.636669
3386.247, 5.570082
3388.176, 3.966647
3390.104, 2.528155
3392.032, 1.048117
3393.961, 0.5344428
3395.889, 5.475280
3397.818, 4.435730
3399.746, 6.706950
3401.675, 8.234031
3403.603, 8.569710
3405.532, 9.472470
3407.460, 9.442550
3409.389, 7.978895
3411.317, 6.390254
3413.246, 6.229421
3415.174, 3.426804
3417.103, 4.585035
3419.031, 2.798100
3420.959, 0.5752057
3422.888, 7.071661
3424.816, 8.549842
3426.745, 5.981020
3428.673, 3.391694
3430.602, 6.571696
3432.530, 5.479796
3434.459, 4.746838
3436.387, 8.001330
3438.316, 13.43709
3440.244, 5.760179
3442.173, 0.3091944
3444.101, 3.376583
3446.030, 7.714287
3447.958, 5.358465
3449.886, 8.804827
3451.815, 4.421767
3453.743, -3.732904
3455.672, -3.925872
3457.600, 11.78152
3459.529, 0.3849328
3461.457, 5.280677
3463.386, 9.590994
3465.314, 6.517438
3467.243, 4.975554
3469.171, -1.362274
3471.100, 2.977808
3473.028, 7.149763
3474.957, 5.251434
3476.885, 1.296833
3478.813, 5.673337
3480.742, -3.232821
3482.670, -6.337124
3484.599, 1.913239
3486.527, -1.340597
3488.456, -5.006098
3490.384, 2.685019
3492.313, 6.619928
3494.241, 1.313286
3496.170, 1.138716
3498.098, 0.1950337
3500.027, -0.7772874
3501.955, 4.306043
3503.884, 3.159426
3505.812, 7.527388
3507.740, 4.153904
3509.669, 3.712145
3511.597, 1.660897
3513.526, -0.6894821
3515.454, 4.190886
3517.383, 9.616712
3519.311, 10.15750
3521.240, 6.876091
3523.168, 6.972335
3525.097, 4.133105
3527.025, 5.370566
3528.954, 4.632051
3530.882, 2.611787
3532.811, 5.619147
3534.739, 5.029485
3536.667, 7.336065
3538.596, 0.7446740
3540.524, 7.021884
3542.453, 6.829638
3544.381, 0.7130653
3546.310, -5.018222
3548.238, -1.275365
3550.167, 1.514308
3552.095, -0.1460349
3554.024, -3.071308
3555.952, 4.495222
3557.881, 0.9157293
3559.809, 5.024929
3561.738, 0.9993563
3563.666, 1.809218
3565.594, 1.703416
3567.523, 3.185855
3569.451, 3.315216
3571.380, 2.733303
3573.308, 1.809805
3575.237, 1.830585
3577.165, 8.8350894E-03
3579.094, 1.027651
3581.022, 0.6773779
3582.951, 4.880471
3584.879, 2.380038
3586.808, 2.964498
3588.736, 6.319175
3590.665, 4.094441
3592.593, 2.677022
3594.521, 5.172326
3596.450, 8.112597
3598.378, 6.923281
3600.307, 0.9772508
3602.235, 4.954146
3604.164, 3.323021
3606.092, -1.200130
3608.021, 11.34639
3609.949, 1.731591
3611.878, -2.842833
3613.806, 2.972579
3615.735, 9.074315
3617.663, 5.391397
3619.592, 11.51676
3621.520, 12.05932
3623.448, 6.897374
3625.377, 5.846096
3627.305, 10.48377
3629.234, 10.01622
3631.162, 5.350265
3633.091, 5.869024
3635.019, 5.090001
3636.948, 5.040956
3638.876, 9.906957
3640.805, 7.740372
3642.733, 14.73331
3644.662, 6.931487
3646.590, 1.873482
3648.519, 0.9367047
3650.447, 1.060932
3652.375, 5.108567
3654.304, 4.325776
3656.232, 9.642187
3658.161, 4.417601
3660.089, -4.009996
3662.018, 4.337065
3663.946, -1.893137
3665.875, 3.738745
3667.803, 2.489730
3669.732, 4.359691
3671.660, 10.42145
3673.589, 7.636085
3675.517, 10.63641
3677.446, 4.877861
3679.374, 9.968433
3681.302, 3.847385
3683.231, -1.648768
3685.159, -1.419930
3687.088, -3.915559
3689.016, -3.154721
3690.945, -2.074822
3692.873, -0.8408179
3694.802, 8.708984
3696.730, 4.606542
3698.659, 7.656177
3700.587, 11.39532
3702.516, 5.133718
3704.444, -0.9568701
3706.373, -4.131476
3708.301, 0.6756073
3710.229, -6.535885
3712.158, 2.300454
3714.086, 5.395315
3716.015, 3.103927
3717.943, 1.295083
3719.872, 2.141331
3721.800, 2.817216
3723.729, 7.950243
3725.657, 7.327722
3727.586, 4.528781
3729.514, 1.267306
3731.443, -0.9248782
3733.371, -2.423185
3735.300, -3.620261
3737.228, -4.236633
3739.156, -1.429644
3741.085, -1.468767
3743.013, -1.064052
3744.942, 4.120172
3746.870, -8.964609
3748.799, 8.406796
3750.727, 42.65538
3752.656, 23.27462
3754.584, 31.49087
3756.513, 11.42231
3758.441, 5.403967
3760.370, -4.520766
3762.298, -7.700402
3764.227, 3.436412
3766.155, 10.36040
3768.083, 8.540339
3770.012, 6.635728
3771.940, 4.564194
3773.869, 6.121640
3775.797, 8.765863
3777.726, 2.472824
3779.654, -1.340932
3781.583, 4.732509
3783.511, 12.78613
3785.440, 12.50919
3787.368, 10.47366
3789.297, 2.259749
3791.225, 0.1254739
3793.154, 0.3707916
3795.082, -1.010471
3797.010, 1.091530
3798.939, 0.2834056
3800.867, -1.139963
3802.796, 1.651363
3804.724, -4.712543
3806.653, -8.970097
3808.581, -5.322987
3810.510, -6.898216
3812.438, 4.429137
3814.367, -0.1278198
3816.295, 2.498684
3818.224, 7.977042
3820.152, 5.663898
3822.081, -0.1895500
3824.009, 0.9912443
3825.938, -8.084140
3827.866, -8.346423
3829.794, -4.498899
3831.723, -0.2874684
3833.651, 2.874022
3835.580, 4.048461
3837.508, 3.350903
3839.437, 4.279598
3841.365, 3.719837
3843.294, -7.637352
3845.222, 2.403601
3847.151, 1.522420
3849.079, 0.4367517
3851.008, 9.350144
3852.936, 5.141841
3854.865, 7.744396
3856.793, -0.1430008
3858.721, 6.632298
3860.650, 6.369418
3862.578, -0.4064776
3864.507, -1.741677
3866.435, 3.495171
3868.364, 4.723527
3870.292, 9.911155
3872.221, -2.993984
3874.149, -13.98742
3876.078, -1.450764
3878.006, 9.129784
3879.935, -1.212102
3881.863, -7.342883
3883.792, 3.411587
3885.720, 4.989330
3887.648, 3.270215
3889.577, 7.908709
3891.505, 4.496127
3893.434, 0.5344377
3895.362, 4.030601
3897.291, 1.243410
3899.219, 1.413361
3901.148, -2.323641
3903.076, -3.847344
3905.005, -1.308039
3906.933, 2.651197
3908.862, 5.013494
3910.790, 2.486727
3912.719, -6.310448
3914.647, -4.250251
3916.575, -14.80262
3918.504, -1.945058
3920.432, -4.173409
3922.361, 1.971845
3924.289, 7.634802
3926.218, -0.3158262
3928.146, -5.274872
3930.075, 3.072387
3932.003, 2.513417
3933.932, -7.335397
3935.860, -1.711336
3937.789, -1.819256
3939.717, -6.044030
3941.646, -4.913362
3943.574, 0.1401376
3945.502, 2.360413
3947.431, 2.260851
3949.359, 4.927406
3951.288, 4.055419
3953.216, 3.632403
3955.145, 3.207391
3957.073, 2.669300
3959.002, 3.525784
3960.930, 1.129321
3962.859, 6.926596
3964.787, 6.583431
3966.716, -1.142639
3968.644, -1.012118
3970.573, 6.689756
3972.501, 10.07391
3974.429, 3.066578
3976.358, -7.264438
3978.286, -9.633235
3980.215, -3.494104
3982.143, 0.4396515
3984.072, -3.405375
3986.000, -5.362350
3987.929, -5.818163
3989.857, -7.202700
3991.786, -1.465730
3993.714, -7.492525
3995.643, -4.690096
3997.571, -4.663503
3999.500, -8.266296
4001.428, -8.720249
4003.356, -11.27250
4005.285, -8.418256
4007.213, -8.826521
4009.142, -7.509944
4011.070, -3.756100
4012.999, -11.48697
4014.927, -15.27597
4016.856, -16.49654
4018.784, -5.512691
4020.713, -0.4883364
4022.641, -8.323074
4024.570, -6.417605
4026.498, -9.687539
4028.427, -13.07885
4030.355, -5.209456
4032.283, -14.02667
4034.212, -19.35634
4036.140, -14.29362
4038.069, -9.548594
4039.997, -11.87840
4041.926, -12.70249
4043.854, -11.11701
4045.783, -2.639276
4047.711, 2.517317
4049.640, -8.991204
4051.568, -23.41899
4053.497, -6.839986
4055.425, -8.3988719E-02
4057.354, -7.487790
4059.282, 2.832262
4061.210, -3.974204
4063.139, -3.302420
4065.067, 2.371361
4066.996, 1.204147
4068.924, -2.417003
4070.853, -4.321648
4072.781, -12.71873
4074.710, -14.91331
4076.638, -16.14465
4078.567, -14.96324
4080.495, -13.99858
4082.424, -11.94390
4084.352, -5.257837
4086.281, -8.845299
4088.209, -9.392138
4090.137, -0.6976737
4092.066, -6.523114
4093.994, 1.842964
4095.923, -5.062634
4097.851, 1.845318
4099.780, -1.061229
4101.708, -5.727352
4103.637, -5.416683
4105.565, 3.2838739E-02
4107.494, -8.409794
4109.422, -10.68739
4111.351, -1.868486
4113.279, -5.765758
4115.208, -10.74666
4117.136, -14.64370
4119.064, -7.140732
4120.993, -11.61370
4122.921, -6.813744
4124.850, -4.088030
4126.778, -12.32754
4128.707, -15.17342
4130.635, -6.680722
4132.563, 0.2424577
4134.492, -0.8449738
4136.420, -2.152067
4138.349, -7.6471373E-02
4140.277, -2.494959
4142.206, -4.946141
4144.134, -7.622285
4146.063, -9.026690
4147.991, 1.465775
4149.920, -8.314172
4151.848, -5.158947
4153.777, -7.832699
4155.705, -15.89388
4157.634, -11.24329
4159.562, -2.274750
4161.491, -7.800597
4163.419, -21.14013
4165.348, -16.99167
4167.276, -5.900071
4169.205, -21.91395
4171.133, -8.992887
4173.062, -11.79975
4174.990, -5.027670
4176.918, -3.296682
4178.847, -1.930660
4180.775, -6.237040
4182.704, -0.1987427
4184.632, -2.558673
4186.561, -6.958046
4188.489, -6.372892
4190.417, -8.083134
4192.346, -12.31647
4194.274, -6.846616
4196.203, -11.90069
4198.131, -8.165083
4200.060, 1.949023
4201.988, -16.22183
4203.917, -12.14272
4205.845, -4.948170
4207.774, -13.67937
4209.702, -12.33397
4211.631, -6.454821
4213.559, -3.589280
4215.488, -5.837924
4217.416, -11.11859
4219.345, -4.510380
4221.273, -0.3223080
4223.202, -10.62807
4225.130, -4.388211
4227.059, -8.009472
4228.987, -2.533793
4230.916, -10.97233
4232.844, -18.26446
4234.772, -16.55122
4236.701, -4.475930
4238.629, -7.054120
4240.558, -5.238768
4242.486, -5.017619
4244.415, -9.301495
4246.343, -11.13462
4248.271, -9.463567
4250.200, -10.25863
4252.128, -17.30670
4254.057, -15.49879
4255.985, -15.82208
4257.914, -7.324611
4259.842, -7.910147
4261.771, -11.86094
4263.699, -12.41207
4265.628, -10.93930
4267.556, -14.38488
4269.485, -3.349332
4271.413, -9.531754
4273.342, -8.511815
4275.270, -7.497466
4277.199, -16.07774
4279.127, -9.032769
4281.056, -4.745059
4282.984, -6.575328
4284.913, -5.023075
4286.841, -3.425673
4288.770, -2.325610
4290.698, -6.982710
4292.626, 2.255026
4294.555, 6.268677
4296.483, -10.65149
4298.412, -8.457081
4300.340, -6.541796
4302.269, -16.04576
4304.197, -10.04860
4306.125, 0.8512877
4308.054, -19.47423
4309.982, -19.07671
4311.911, -9.008007
4313.839, -19.37809
4315.768, -13.88988
4317.696, -9.524432
4319.625, -9.037730
4321.553, -7.861073
4323.482, -18.55631
4325.410, -9.832258
4327.339, -11.89951
4329.267, -12.75390
4331.196, -7.879038
4333.124, -10.02422
4335.053, -14.13840
4336.981, -8.202257
4338.910, 1.123598
4340.838, -3.857608
4342.767, 1.173973
4344.695, -11.84326
4346.624, -9.698568
4348.552, -8.398251
4350.480, -18.26935
4352.409, -4.416499
4354.337, 2.908325
4356.266, -6.928214
4358.194, -8.271457
4360.123, -10.69850
4362.051, -14.48196
4363.979, -13.15179
4365.908, -16.06647
4367.836, -12.22077
4369.765, -8.822129
4371.693, -10.19217
4373.622, 2.540194
4375.550, 3.765905
4377.479, -6.524767
4379.407, -6.876805
4381.336, -8.113799
##END=



