##NAMES=Pyrochlore
##RRUFFID=R060151
##IDEAL CHEMISTRY=Ca_2_Nb_2_O_7_
##LOCALITY=Oka, Quebec, Canada
##OWNER=RRUFF
##SOURCE=Marcus Origlieri
##DESCRIPTION=Reddish-brown octahedral crystals associated with calcite
##STATUS=The identification of this mineral has been confirmed by X-ray diffraction and chemical analysis
##URL=https://www.rruff.net/odr/rruff_sample/R060151
##MEASURED CHEMISTRY=(Ca_1.41_Na_0.59_)(Nb_1.49_Ti_0.26_Ce_0.15_Fe^3+^_0.05_La_0.02_Nd_0.02_Mn_0.02_)(O_5.40_(OH)_1.10_F_0.50_)
##DIFFRACTION SAMPLE DESCRIPTION=Powder
##CELL PARAMETERS=a: 10.3914 b: 10.3914 c: 10.3914 alpha: 90 beta: 90 gamma: 90 volume: 1122.08 crystal system: cubic
##FILETYPE=Raman RAW
##RAMAN WAVELENGTH=532

85.98978, 15.62320
87.91824, 14.89759
89.84671, 14.43532
91.77518, 14.23483
93.70364, 14.31629
95.63211, 14.81002
97.56058, 16.05586
99.48904, 16.98262
101.4175, 17.14839
103.3460, 16.09053
105.2744, 15.78354
107.2029, 15.91995
109.1314, 17.04781
111.0598, 19.49385
112.9883, 20.49492
114.9168, 25.71705
116.8452, 35.94615
118.7737, 50.59462
120.7022, 74.74153
122.6306, 110.5950
124.5591, 156.1908
126.4876, 211.4077
128.4160, 280.4695
130.3445, 354.2574
132.2730, 430.0742
134.2014, 508.4928
136.1299, 586.0048
138.0584, 663.1885
139.9868, 739.2943
141.9153, 812.0290
143.8438, 880.6641
145.7722, 946.2463
147.7007, 1009.353
149.6292, 1053.021
151.5576, 1053.445
153.4861, 1047.295
155.4146, 1037.846
157.3430, 1026.417
159.2715, 1012.447
161.2000, 997.6365
163.1284, 982.7325
165.0569, 967.7665
166.9854, 952.9409
168.9138, 938.0117
170.8423, 923.1023
172.7708, 909.3255
174.6992, 897.4729
176.6277, 885.6573
178.5562, 872.4130
180.4846, 857.0764
182.4131, 842.3956
184.3416, 828.5525
186.2701, 815.4968
188.1985, 803.2043
190.1270, 792.5331
192.0555, 781.6534
193.9839, 769.3512
195.9124, 753.8662
197.8409, 739.5813
199.7693, 727.5479
201.6978, 717.4300
203.6263, 707.1455
205.5547, 695.7518
207.4832, 684.5202
209.4117, 674.3356
211.3401, 665.3860
213.2686, 657.2330
215.1971, 649.7852
217.1255, 642.9834
219.0540, 637.0822
220.9825, 632.1681
222.9109, 628.0920
224.8394, 624.9128
226.7679, 622.5018
228.6963, 620.8594
230.6248, 619.6417
232.5533, 619.0714
234.4817, 620.5310
236.4102, 625.4646
238.3387, 630.8132
240.2671, 635.0831
242.1956, 638.0475
244.1241, 641.8403
246.0525, 646.7728
247.9810, 652.7182
249.9095, 659.2540
251.8379, 666.7751
253.7664, 674.2634
255.6949, 681.6155
257.6233, 688.8903
259.5518, 695.7930
261.4803, 702.2767
263.4087, 708.0930
265.3372, 713.0431
267.2657, 717.0447
269.1941, 719.8122
271.1226, 721.4323
273.0511, 721.8098
274.9795, 721.5396
276.9080, 720.9093
278.8365, 719.2840
280.7649, 716.5746
282.6934, 712.5289
284.6219, 708.1478
286.5503, 703.6759
288.4788, 698.9346
290.4073, 693.3408
292.3357, 686.3601
294.2642, 678.6290
296.1927, 670.5557
298.1211, 662.3701
300.0496, 653.0628
301.9781, 641.8143
303.9065, 629.2770
305.8350, 617.1422
307.7635, 606.5447
309.6919, 596.2176
311.6204, 585.5622
313.5489, 574.5145
315.4773, 563.4069
317.4058, 552.0043
319.3343, 540.8424
321.2627, 530.5641
323.1912, 520.9684
325.1197, 511.9278
327.0481, 503.9460
328.9766, 497.0137
330.9051, 490.5908
332.8336, 484.6697
334.7620, 478.4074
336.6905, 471.3507
338.6190, 462.6973
340.5474, 455.1010
342.4759, 449.5763
344.4044, 445.5589
346.3328, 441.5663
348.2613, 436.9418
350.1898, 432.3333
352.1182, 428.1912
354.0467, 424.5829
355.9752, 421.2664
357.9036, 418.2433
359.8321, 415.4305
361.7606, 412.6501
363.6890, 409.8448
365.6175, 406.7608
367.5460, 403.5640
369.4744, 400.3229
371.4029, 397.0773
373.3314, 393.7592
375.2598, 390.7370
377.1883, 387.9452
379.1168, 385.1410
381.0452, 381.9014
382.9737, 378.4901
384.9022, 375.2438
386.8306, 372.4425
388.7591, 370.0894
390.6876, 367.6090
392.6160, 364.9110
394.5445, 362.1032
396.4730, 359.5003
398.4014, 357.0627
400.3299, 354.5214
402.2584, 351.7918
404.1868, 348.8210
406.1153, 346.0611
408.0438, 343.6317
409.9722, 341.3963
411.9007, 339.1219
413.8292, 336.7935
415.7576, 334.4328
417.6861, 332.0041
419.6146, 329.4633
421.5430, 326.9450
423.4715, 324.1807
425.4000, 321.5269
427.3284, 319.2824
429.2569, 317.9095
431.1854, 316.6225
433.1138, 315.3120
435.0423, 314.0264
436.9708, 312.8145
438.8992, 311.3333
440.8277, 310.0794
442.7562, 309.2685
444.6846, 309.0919
446.6131, 309.9261
448.5416, 311.9207
450.4700, 314.3731
452.3985, 316.5527
454.3270, 318.0162
456.2554, 320.3428
458.1839, 324.2019
460.1124, 329.3793
462.0408, 335.4371
463.9693, 341.7042
465.8978, 348.7704
467.8262, 357.1731
469.7547, 366.8526
471.6832, 377.1944
473.6116, 388.3004
475.5401, 400.0707
477.4686, 412.3370
479.3970, 424.9180
481.3255, 439.0605
483.2540, 455.2729
485.1824, 471.9697
487.1109, 487.6768
489.0394, 503.8862
490.9678, 519.8577
492.8963, 534.6102
494.8248, 547.5982
496.7532, 559.7907
498.6817, 571.9484
500.6102, 583.8419
502.5386, 595.4032
504.4671, 606.2748
506.3956, 615.7683
508.3240, 624.2288
510.2525, 631.8412
512.1810, 638.6312
514.1094, 644.2676
516.0379, 649.4349
517.9664, 654.2510
519.8948, 658.7809
521.8233, 663.2764
523.7518, 668.0448
525.6802, 671.8275
527.6087, 674.0730
529.5372, 675.5422
531.4656, 677.5684
533.3941, 680.1944
535.3226, 682.2003
537.2510, 683.0095
539.1795, 682.7011
541.1080, 681.8744
543.0364, 680.4355
544.9649, 679.0198
546.8934, 677.8896
548.8218, 677.5303
550.7503, 677.4078
552.6788, 677.1535
554.6072, 677.5107
556.5357, 679.4077
558.4642, 682.4012
560.3926, 685.1047
562.3211, 686.7145
564.2496, 688.8055
566.1780, 693.7695
568.1065, 702.5727
570.0350, 711.2175
571.9634, 717.9439
573.8919, 723.1071
575.8204, 729.3193
577.7488, 737.9629
579.6773, 747.5460
581.6058, 758.0194
583.5342, 767.9802
585.4627, 776.8235
587.3912, 784.8856
589.3196, 792.4506
591.2481, 799.4583
593.1766, 805.4395
595.1050, 810.2660
597.0335, 813.8107
598.9620, 816.4163
600.8904, 818.7058
602.8189, 820.7126
604.7474, 820.9599
606.6758, 818.6514
608.6043, 814.7604
610.5328, 810.4797
612.4612, 806.4660
614.3897, 801.3797
616.3182, 794.3036
618.2466, 786.2325
620.1751, 778.5197
622.1036, 771.6065
624.0320, 765.0159
625.9605, 759.0300
627.8890, 753.0793
629.8174, 745.4905
631.7459, 735.6211
633.6744, 725.1505
635.6028, 714.7945
637.5313, 704.4953
639.4598, 693.7832
641.3882, 682.5173
643.3167, 671.1822
645.2452, 659.8360
647.1736, 648.3267
649.1021, 637.2135
651.0306, 627.0178
652.9590, 616.7927
654.8875, 605.9273
656.8160, 593.9843
658.7444, 582.0732
660.6729, 570.5934
662.6014, 559.4483
664.5298, 548.0734
666.4583, 536.2006
668.3868, 524.1953
670.3152, 511.9724
672.2437, 499.8607
674.1722, 488.0662
676.1006, 476.8179
678.0291, 465.7007
679.9576, 454.6265
681.8860, 443.7677
683.8145, 433.2580
685.7430, 423.0887
687.6714, 413.2184
689.5999, 403.5189
691.5284, 394.2807
693.4568, 385.6478
695.3853, 377.5941
697.3138, 369.6916
699.2422, 361.8163
701.1707, 354.1190
703.0992, 346.4456
705.0276, 338.4946
706.9561, 330.9055
708.8846, 324.1338
710.8130, 318.1285
712.7415, 312.0709
714.6700, 305.8131
716.5984, 300.0976
718.5269, 295.4737
720.4554, 291.3688
722.3839, 287.3186
724.3123, 283.0149
726.2408, 279.1645
728.1693, 275.6658
730.0977, 272.4318
732.0262, 269.6772
733.9547, 267.5719
735.8831, 265.6838
737.8116, 263.7938
739.7401, 261.9110
741.6685, 260.3837
743.5970, 259.1978
745.5255, 258.5064
747.4539, 258.4266
749.3824, 258.8712
751.3109, 259.4313
753.2393, 259.9912
755.1678, 260.8393
757.0963, 262.0565
759.0247, 263.6064
760.9532, 265.3433
762.8817, 267.5250
764.8101, 269.6412
766.7386, 271.1865
768.6671, 272.2192
770.5955, 274.0766
772.5240, 277.4671
774.4525, 281.0835
776.3809, 284.1880
778.3094, 286.6214
780.2379, 289.5512
782.1663, 293.6577
784.0948, 297.5836
786.0233, 300.5663
787.9517, 302.6158
789.8802, 304.2104
791.8087, 305.0069
793.7371, 305.8065
795.6656, 307.1815
797.5941, 309.2981
799.5225, 310.7904
801.4510, 311.5001
803.3795, 311.9655
805.3079, 312.3377
807.2364, 312.4463
809.1649, 312.1362
811.0933, 310.9906
813.0218, 309.9007
814.9503, 309.4330
816.8787, 309.6204
818.8072, 308.9211
820.7357, 306.6653
822.6641, 304.2917
824.5926, 302.6355
826.5211, 301.5287
828.4495, 299.4948
830.3780, 295.8441
832.3065, 291.9237
834.2349, 288.3998
836.1634, 285.2397
838.0919, 282.2844
840.0203, 279.5299
841.9488, 277.1584
843.8773, 275.1577
845.8057, 273.0821
847.7342, 270.6402
849.6627, 267.6219
851.5911, 264.4301
853.5196, 261.1624
855.4481, 257.9705
857.3765, 254.9431
859.3050, 252.3830
861.2335, 249.6028
863.1619, 246.4471
865.0904, 242.7560
867.0189, 238.9773
868.9473, 235.2116
870.8758, 231.4922
872.8043, 227.7617
874.7327, 223.8187
876.6612, 219.7339
878.5897, 215.3851
880.5181, 211.2352
882.4466, 207.4619
884.3751, 203.6229
886.3035, 199.2757
888.2320, 194.2817
890.1605, 189.4958
892.0889, 185.3221
894.0174, 181.4123
895.9459, 177.2987
897.8743, 172.8587
899.8028, 168.6151
901.7313, 164.7647
903.6597, 160.8609
905.5882, 156.8635
907.5167, 152.9218
909.4451, 149.0506
911.3736, 145.0972
913.3021, 141.3201
915.2305, 138.0012
917.1590, 135.0980
919.0875, 132.3487
921.0159, 129.6196
922.9444, 127.2680
924.8729, 125.3148
926.8013, 123.7051
928.7298, 121.9674
930.6583, 119.9398
932.5867, 117.8102
934.5152, 115.8392
936.4437, 114.1656
938.3721, 112.7044
940.3006, 111.6018
942.2291, 110.3923
944.1575, 108.8244
946.0860, 107.0587
948.0145, 105.5990
949.9429, 104.4368
951.8714, 103.3293
953.7999, 102.2488
955.7283, 101.6128
957.6568, 100.8582
959.5853, 99.79442
961.5137, 98.64599
963.4422, 97.68984
965.3707, 96.83715
967.2991, 95.93523
969.2276, 94.76180
971.1561, 93.56760
973.0845, 92.45354
975.0130, 91.77969
976.9415, 91.42437
978.8699, 91.33284
980.7984, 91.08047
982.7269, 90.55376
984.6553, 89.65469
986.5838, 88.50879
988.5123, 87.34050
990.4407, 86.47221
992.3692, 86.12041
994.2977, 85.84056
996.2261, 85.07969
998.1546, 83.53406
1000.083, 82.42297
1002.012, 82.19353
1003.940, 82.14909
1005.868, 81.36132
1007.797, 79.91631
1009.725, 78.85930
1011.654, 78.50662
1013.582, 78.17249
1015.511, 77.33755
1017.439, 76.19206
1019.368, 75.63789
1021.296, 75.98963
1023.225, 76.01487
1025.153, 75.13615
1027.082, 73.59602
1029.010, 72.40200
1030.939, 71.91207
1032.867, 71.47243
1034.796, 70.84123
1036.724, 70.15810
1038.652, 69.85500
1040.581, 69.41092
1042.509, 68.64018
1044.438, 67.92133
1046.366, 67.51679
1048.295, 67.32563
1050.223, 67.11131
1052.152, 66.84843
1054.080, 66.38908
1056.009, 65.81763
1057.937, 65.21764
1059.866, 64.74792
1061.794, 64.32628
1063.723, 64.03967
1065.651, 63.70556
1067.579, 63.18159
1069.508, 62.64780
1071.436, 62.52509
1073.365, 62.88145
1075.293, 62.94795
1077.222, 62.38152
1079.150, 61.47123
1081.079, 60.68409
1083.007, 60.67860
1084.936, 60.68351
1086.864, 60.05435
1088.793, 59.19718
1090.721, 58.72247
1092.650, 58.82073
1094.578, 59.00118
1096.506, 59.09950
1098.435, 59.08971
1100.363, 58.96939
1102.292, 58.78029
1104.220, 58.66483
1106.149, 58.76898
1108.077, 58.78559
1110.006, 58.53149
1111.934, 58.07344
1113.863, 57.61771
1115.791, 57.35962
1117.720, 57.25355
1119.648, 57.12347
1121.577, 57.03699
1123.505, 56.94364
1125.433, 56.72803
1127.362, 56.47243
1129.290, 56.78508
1131.219, 57.30863
1133.147, 57.39122
1135.076, 56.98211
1137.004, 56.59628
1138.933, 56.69605
1140.861, 56.76487
1142.790, 56.60472
1144.718, 56.38036
1146.647, 56.19622
1148.575, 55.98679
1150.504, 55.85513
1152.432, 56.04797
1154.360, 56.09580
1156.289, 55.83529
1158.217, 55.47805
1160.146, 55.31005
1162.074, 55.03402
1164.003, 54.59970
1165.931, 54.37163
1167.860, 54.29416
1169.788, 54.28163
1171.717, 54.48844
1173.645, 54.51689
1175.574, 53.84425
1177.502, 53.06044
1179.431, 52.66843
1181.359, 52.62327
1183.287, 52.47832
1185.216, 52.27640
1187.144, 52.12151
1189.073, 51.83202
1191.001, 51.32229
1192.930, 50.86563
1194.858, 50.69791
1196.787, 50.69296
1198.715, 50.20722
1200.644, 49.45735
1202.572, 48.98909
1204.501, 48.96489
1206.429, 49.06421
1208.358, 49.15111
1210.286, 48.95336
1212.214, 48.62513
1214.143, 48.34526
1216.071, 47.97314
1218.000, 47.36917
1219.928, 46.68844
1221.857, 46.14812
1223.785, 45.69988
1225.714, 45.34840
1227.642, 45.05802
1229.571, 44.66008
1231.499, 44.00769
1233.428, 43.59281
1235.356, 43.53246
1237.285, 43.52501
1239.213, 43.36031
1241.141, 43.00813
1243.070, 42.71235
1244.998, 42.54052
1246.927, 42.32819
1248.855, 42.04577
1250.784, 41.68460
1252.712, 41.19255
1254.641, 40.48668
1256.569, 39.98219
1258.498, 39.96656
1260.426, 40.05895
1262.355, 39.82338
1264.283, 39.25074
1266.212, 38.76693
1268.140, 38.50018
1270.068, 38.32140
1271.997, 38.20451
1273.925, 38.11846
1275.854, 37.95049
1277.782, 37.63286
1279.711, 37.30586
1281.639, 36.99853
1283.568, 36.81538
1285.496, 36.68250
1287.425, 36.58521
1289.353, 36.51343
1291.282, 36.47928
1293.210, 36.25156
1295.139, 35.82233
1297.067, 35.57597
1298.995, 35.25525
1300.924, 34.80135
1302.852, 34.47340
1304.781, 34.43475
1306.709, 34.32710
1308.638, 33.91804
1310.566, 33.51943
1312.495, 33.39610
1314.423, 33.59528
1316.352, 33.62270
1318.280, 33.24679
1320.209, 32.93867
1322.137, 33.01476
1324.066, 33.33337
1325.994, 33.32693
1327.922, 32.67898
1329.851, 32.29722
1331.779, 32.53420
1333.708, 32.73082
1335.636, 32.57350
1337.565, 32.29530
1339.493, 32.03773
1341.422, 31.72290
1343.350, 31.42711
1345.279, 31.19633
1347.207, 31.15194
1349.136, 31.35979
1351.064, 31.74719
1352.993, 31.87201
1354.921, 31.54751
1356.849, 31.28200
1358.778, 31.29906
1360.706, 31.42450
1362.635, 31.48743
1364.563, 31.48555
1366.492, 31.32251
1368.420, 30.77142
1370.349, 30.36987
1372.277, 30.24919
1374.206, 30.30761
1376.134, 30.48013
1378.063, 30.82462
1379.991, 31.07812
1381.920, 31.28913
1383.848, 31.33639
1385.776, 31.06185
1387.705, 30.64728
1389.633, 30.39473
1391.562, 30.32013
1393.490, 30.25019
1395.419, 30.11068
1397.347, 30.04297
1399.276, 30.28867
1401.204, 30.58684
1403.133, 30.43032
1405.061, 29.72247
1406.990, 29.35879
1408.918, 29.81457
1410.847, 30.19707
1412.775, 29.99254
1414.703, 29.48344
1416.632, 29.35637
1418.560, 29.82501
1420.489, 30.06049
1422.417, 29.78138
1424.346, 29.51578
1426.274, 29.53861
1428.203, 29.72781
1430.131, 29.78650
1432.060, 29.61810
1433.988, 29.52651
1435.917, 29.56418
1437.845, 29.62437
1439.774, 29.68365
1441.702, 29.72231
1443.630, 29.68296
1445.559, 29.54075
1447.487, 29.43601
1449.416, 29.43658
1451.344, 29.43778
1453.273, 29.37002
1455.201, 29.26595
1457.130, 29.21543
1459.058, 29.22878
1460.987, 29.14674
1462.915, 28.81841
1464.844, 28.58213
1466.772, 28.58626
1468.701, 28.77886
1470.629, 29.18668
1472.557, 29.87803
1474.486, 30.21760
1476.414, 29.81790
1478.343, 29.46557
1480.271, 29.54109
1482.200, 29.83246
1484.128, 29.96425
1486.057, 29.87763
1487.985, 29.85234
1489.914, 30.01840
1491.842, 30.06964
1493.771, 29.77804
1495.699, 29.44564
1497.628, 29.49425
1499.556, 29.99099
1501.484, 30.08914
1503.413, 29.45627
1505.341, 28.93731
1507.270, 28.59090
1509.198, 28.49063
1511.127, 28.83264
1513.055, 29.55634
1514.984, 30.02027
1516.912, 30.14644
1518.841, 30.16146
1520.769, 30.00207
1522.698, 29.84286
1524.626, 29.81400
1526.555, 29.90607
1528.483, 29.97842
1530.411, 29.99581
1532.340, 29.99801
1534.268, 29.92480
1536.197, 29.96494
1538.125, 30.29627
1540.054, 30.74349
1541.982, 31.12173
1543.911, 31.47546
1545.839, 31.54674
1547.768, 30.97438
1549.696, 30.64782
1551.625, 31.23215
1553.553, 32.08113
1555.482, 32.57116
1557.410, 32.70936
1559.339, 32.65997
1561.267, 32.34099
1563.195, 32.13570
1565.124, 32.17609
1567.052, 32.30510
1568.981, 32.50763
1570.909, 32.78338
1572.838, 32.93734
1574.766, 32.95459
1576.695, 32.87400
1578.623, 32.43359
1580.552, 32.17764
1582.480, 32.49074
1584.409, 33.11545
1586.337, 33.52028
1588.266, 33.59093
1590.194, 33.70623
1592.122, 33.92133
1594.051, 34.12804
1595.979, 34.28435
1597.908, 34.43891
1599.836, 34.71238
1601.765, 35.07832
1603.693, 35.13176
1605.622, 34.41164
1607.550, 34.08838
1609.479, 34.51492
1611.407, 35.04232
1613.336, 35.30367
1615.264, 35.42268
1617.193, 35.72274
1619.121, 36.34313
1621.049, 36.66663
1622.978, 36.39909
1624.906, 36.21932
1626.835, 36.27662
1628.763, 36.50027
1630.692, 36.93819
1632.620, 37.52398
1634.549, 37.79470
1636.477, 37.62529
1638.406, 37.46509
1640.334, 37.33910
1642.263, 37.24165
1644.191, 37.06642
1646.120, 36.96753
1648.048, 37.24072
1649.976, 37.91896
1651.905, 38.46559
1653.833, 38.90235
1655.762, 39.14885
1657.690, 39.13811
1659.619, 38.98462
1661.547, 38.62911
1663.476, 38.21752
1665.404, 38.18148
1667.333, 38.57958
1669.261, 38.95254
1671.190, 39.22678
1673.118, 39.52774
1675.047, 40.12237
1676.975, 40.57591
1678.903, 40.26488
1680.832, 39.38807
1682.760, 39.00325
1684.689, 39.16191
1686.617, 39.60442
1688.546, 40.80233
1690.474, 41.64494
1692.403, 41.34768
1694.331, 40.66520
1696.260, 40.51120
1698.188, 40.84803
1700.117, 41.33370
1702.045, 42.15110
1703.974, 42.56825
1705.902, 42.03489
1707.830, 41.53641
1709.759, 41.59877
1711.687, 41.96222
1713.616, 42.31425
1715.544, 42.64341
1717.473, 42.72033
1719.401, 42.35749
1721.330, 42.19506
1723.258, 42.61486
1725.187, 43.01341
1727.115, 43.00357
1729.044, 42.78429
1730.972, 42.74968
1732.901, 42.89812
1734.829, 42.66030
1736.757, 41.59354
1738.686, 41.08039
1740.614, 42.08655
1742.543, 43.00066
1744.471, 42.60911
1746.400, 41.63883
1748.328, 41.38044
1750.257, 41.85814
1752.185, 42.35009
1754.114, 43.14131
1756.042, 43.32837
1757.971, 42.11060
1759.899, 40.94658
1761.828, 40.75037
1763.756, 41.06831
1765.684, 41.17615
1767.613, 41.06203
1769.541, 41.04156
1771.470, 41.27691
1773.398, 41.28271
1775.327, 40.70033
1777.255, 40.22650
1779.184, 40.20770
1781.112, 40.48587
1783.041, 40.97518
1784.969, 41.65370
1786.898, 41.91440
1788.826, 41.55573
1790.755, 41.16874
1792.683, 40.66551
1794.611, 40.28645
1796.540, 40.19304
1798.468, 40.22450
1800.397, 40.20575
1802.325, 40.15626
1804.254, 40.19690
1806.182, 40.42848
1808.111, 40.51461
1810.039, 40.33019
1811.968, 40.16665
1813.896, 40.04208
1815.825, 40.01022
1817.753, 40.26955
1819.682, 40.63111
1821.610, 40.45082
1823.538, 39.46626
1825.467, 39.29912
1827.395, 40.76196
1829.324, 41.58789
1831.252, 40.78349
1833.181, 39.95238
1835.109, 40.04156
1837.038, 40.50206
1838.966, 40.53275
1840.895, 40.16178
1842.823, 39.87868
1844.752, 39.69945
1846.680, 39.59936
1848.609, 39.65833
1850.537, 39.65989
1852.465, 39.38203
1854.394, 39.13421
1856.322, 39.20782
1858.251, 39.48458
1860.179, 39.70195
1862.108, 39.85748
1864.036, 39.86192
1865.965, 39.69094
1867.893, 39.42553
1869.822, 38.88554
1871.750, 38.54342
1873.679, 38.86652
1875.607, 39.39544
1877.536, 39.56203
1879.464, 39.44328
1881.392, 39.37277
1883.321, 39.36985
1885.249, 39.29881
1887.178, 39.05523
1889.106, 38.89040
1891.035, 38.98866
1892.963, 39.08084
1894.892, 38.93317
1896.820, 38.68982
1898.749, 38.64003
1900.677, 38.77938
1902.606, 38.69648
1904.534, 38.14894
1906.463, 37.90553
1908.391, 38.22774
1910.319, 38.53325
1912.248, 38.71175
1914.176, 38.75085
1916.105, 38.45051
1918.033, 38.07099
1919.962, 38.29020
1921.890, 39.17848
1923.819, 39.46999
1925.747, 38.83093
1927.676, 38.48568
1929.604, 38.88577
1931.533, 39.14013
1933.461, 38.71975
1935.390, 38.31089
1937.318, 38.52476
1939.246, 39.05805
1941.175, 39.25916
1943.103, 39.16842
1945.032, 39.23060
1946.960, 39.51440
1948.889, 39.69538
1950.817, 39.59845
1952.746, 39.61283
1954.674, 40.05299
1956.603, 40.49513
1958.531, 40.57349
1960.460, 40.48635
1962.388, 40.58474
1964.317, 40.84362
1966.245, 40.97749
1968.173, 40.90270
1970.102, 41.01302
1972.030, 41.47613
1973.959, 41.93541
1975.887, 42.36660
1977.816, 42.71143
1979.744, 42.87593
1981.673, 42.96868
1983.601, 43.10925
1985.530, 43.29782
1987.458, 43.58004
1989.387, 43.99892
1991.315, 44.25966
1993.244, 44.18568
1995.172, 44.35760
1997.100, 45.21729
1999.029, 45.87748
2000.957, 45.69199
2002.886, 45.42334
2004.814, 45.73905
2006.743, 46.40105
2008.671, 46.94746
2010.600, 47.39362
2012.528, 47.94679
2014.457, 48.67841
2016.385, 49.11574
2018.314, 49.05894
2020.242, 48.92255
2022.171, 48.71228
2024.099, 48.59862
2026.027, 48.77400
2027.956, 49.02947
2029.884, 49.10335
2031.813, 49.04765
2033.741, 48.99981
2035.670, 48.91427
2037.598, 49.19295
2039.527, 50.20233
2041.455, 50.76182
2043.384, 50.26901
2045.312, 50.07062
2047.241, 50.84523
2049.169, 51.67387
2051.098, 52.06715
2053.026, 52.16013
2054.955, 51.97676
2056.883, 51.65502
2058.812, 51.64582
2060.740, 51.95373
2062.668, 52.30202
2064.597, 52.68690
2066.525, 53.03337
2068.454, 53.31020
2070.382, 53.57241
2072.311, 53.94080
2074.239, 54.18105
2076.168, 53.90748
2078.096, 53.60633
2080.025, 54.05456
2081.953, 54.97709
2083.882, 55.38232
2085.810, 55.20689
2087.739, 55.07198
2089.667, 54.98322
2091.595, 54.89594
2093.524, 54.72066
2095.452, 54.71672
2097.381, 55.10415
2099.309, 55.46248
2101.238, 55.64579
2103.166, 55.62730
2105.095, 55.22211
2107.023, 54.68068
2108.952, 54.55779
2110.880, 54.78546
2112.809, 54.70634
2114.737, 54.22807
2116.666, 53.84057
2118.594, 53.56027
2120.522, 53.35277
2122.451, 53.22283
2124.379, 53.14404
2126.308, 53.24693
2128.236, 53.24350
2130.165, 52.83551
2132.093, 52.31455
2134.022, 52.05032
2135.950, 51.94656
2137.879, 51.70156
2139.807, 51.34381
2141.736, 51.14618
2143.664, 51.10717
2145.593, 51.46064
2147.521, 52.66615
2149.449, 53.20678
2151.378, 52.02412
2153.306, 51.13451
2155.235, 51.56074
2157.163, 52.19558
2159.092, 52.20372
2161.020, 52.02160
2162.949, 52.22032
2164.877, 52.65843
2166.806, 52.94287
2168.734, 53.08520
2170.663, 53.25570
2172.591, 53.46665
2174.520, 53.78745
2176.448, 54.34690
2178.376, 54.56557
2180.305, 53.98494
2182.233, 53.65796
2184.162, 54.13358
2186.090, 54.75868
2188.019, 55.35449
2189.947, 55.73322
2191.876, 55.60018
2193.804, 55.18274
2195.733, 54.96080
2197.661, 54.85970
2199.590, 54.23128
2201.518, 53.02746
2203.447, 52.78404
2205.375, 53.80183
2207.303, 54.23955
2209.232, 53.67508
2211.160, 52.99630
2213.089, 52.44614
2215.017, 51.84784
2216.946, 50.91494
2218.874, 50.17359
2220.803, 50.07066
2222.731, 50.23054
2224.660, 50.39668
2226.588, 50.45319
2228.517, 50.04744
2230.445, 49.29220
2232.374, 49.00107
2234.302, 49.17395
2236.230, 48.97982
2238.159, 48.29652
2240.087, 48.00905
2242.016, 48.46803
2243.944, 48.56256
2245.873, 47.59578
2247.801, 46.90521
2249.730, 47.21549
2251.658, 47.55474
2253.587, 47.31395
2255.515, 46.97371
2257.444, 47.08112
2259.372, 47.25631
2261.301, 46.88909
2263.229, 46.15757
2265.157, 45.50848
2267.086, 44.96589
2269.014, 44.73400
2270.943, 44.82317
2272.871, 44.68488
2274.800, 44.17639
2276.728, 43.86092
2278.657, 43.82697
2280.585, 43.96491
2282.514, 44.67031
2284.442, 44.93239
2286.371, 43.93705
2288.299, 43.07787
2290.228, 43.28640
2292.156, 43.66247
2294.084, 43.44371
2296.013, 43.06673
2297.941, 43.03246
2299.870, 43.22736
2301.798, 43.49201
2303.727, 43.78585
2305.655, 43.92479
2307.584, 43.91330
2309.512, 43.59613
2311.441, 42.71546
2313.369, 42.45351
2315.298, 43.05334
2317.226, 43.55779
2319.155, 43.75708
2321.083, 44.06426
2323.011, 44.51710
2324.940, 45.22755
2326.868, 46.87743
2328.797, 47.96913
2330.725, 47.41684
2332.654, 46.25328
2334.582, 44.94978
2336.511, 43.85633
2338.439, 43.49706
2340.368, 43.61742
2342.296, 43.88098
2344.225, 44.15409
2346.153, 43.80160
2348.082, 42.95600
2350.010, 42.63548
2351.938, 42.90788
2353.867, 42.92626
2355.795, 42.51889
2357.724, 42.24714
2359.652, 42.01832
2361.581, 42.16372
2363.509, 43.24690
2365.438, 43.66441
2367.366, 42.52628
2369.295, 41.73127
2371.223, 42.18127
2373.152, 42.86519
2375.080, 43.41021
2377.009, 43.75624
2378.937, 43.86200
2380.865, 43.74553
2382.794, 43.17402
2384.722, 42.57345
2386.651, 42.75836
2388.579, 43.38829
2390.508, 43.48192
2392.436, 43.24284
2394.365, 43.63231
2396.293, 44.53797
2398.222, 44.88613
2400.150, 44.58598
2402.079, 44.46370
2404.007, 44.48907
2405.936, 44.92937
2407.864, 46.21228
2409.792, 46.90817
2411.721, 46.69709
2413.649, 46.45739
2415.578, 46.31210
2417.506, 46.26121
2419.435, 46.21082
2421.363, 46.41555
2423.292, 47.26996
2425.220, 48.03675
2427.149, 48.24202
2429.077, 48.29686
2431.006, 48.41300
2432.934, 48.61708
2434.863, 49.00431
2436.791, 49.43626
2438.719, 49.72324
2440.648, 49.94240
2442.576, 50.12056
2444.505, 50.37304
2446.433, 51.18390
2448.362, 52.36499
2450.290, 52.83926
2452.219, 52.62354
2454.147, 52.54260
2456.076, 52.59677
2458.004, 52.60272
2459.933, 52.54400
2461.861, 52.57396
2463.790, 52.69045
2465.718, 52.99626
2467.646, 53.78309
2469.575, 54.16182
2471.503, 53.68665
2473.432, 53.49774
2475.360, 53.95741
2477.289, 54.19732
2479.217, 53.88460
2481.146, 53.58600
2483.074, 53.49986
2485.003, 53.49303
2486.931, 53.49278
2488.860, 53.55581
2490.788, 53.88979
2492.717, 54.07827
2494.645, 53.74003
2496.573, 53.24670
2498.502, 52.87202
2500.430, 52.53925
2502.359, 52.16094
2504.287, 51.78625
2506.216, 51.43859
2508.144, 51.15945
2510.073, 51.21180
2512.001, 51.30375
2513.930, 50.41769
2515.858, 49.04578
2517.787, 49.13293
2519.715, 50.23742
2521.644, 50.74604
2523.572, 50.66790
2525.500, 50.27486
2527.429, 49.56623
2529.357, 49.39075
2531.286, 49.77942
2533.214, 50.69303
2535.143, 52.25463
2537.071, 52.19723
2539.000, 50.15844
2540.928, 49.19056
2542.857, 49.94458
2544.785, 50.45371
2546.714, 50.48868
2548.642, 50.25277
2550.571, 49.45942
2552.499, 49.15419
2554.427, 49.59893
2556.356, 50.15651
2558.284, 50.97624
2560.213, 51.12354
2562.141, 49.58580
2564.070, 48.53443
2565.998, 48.58152
2567.927, 49.13240
2569.855, 50.87262
2571.784, 51.66321
2573.712, 49.67137
2575.641, 48.52246
2577.569, 51.32185
2579.498, 53.55917
2581.426, 52.18890
2583.354, 50.46620
2585.283, 50.28115
2587.211, 50.51197
2589.140, 50.56249
2591.068, 50.58114
2592.997, 50.68641
2594.925, 50.78815
2596.854, 50.83425
2598.782, 50.80313
2600.711, 50.54332
2602.639, 50.31116
2604.568, 50.37701
2606.496, 50.63833
2608.425, 51.17578
2610.353, 51.66837
2612.281, 51.69523
2614.210, 51.47850
2616.138, 51.33642
2618.067, 51.16315
2619.995, 50.71310
2621.924, 50.13734
2623.852, 49.55608
2625.781, 49.16719
2627.709, 49.67821
2629.638, 50.52052
2631.566, 50.35917
2633.495, 49.63812
2635.423, 49.55207
2637.352, 49.85878
2639.280, 49.82952
2641.208, 49.52909
2643.137, 49.03952
2645.065, 48.49754
2646.994, 48.44544
2648.922, 48.71971
2650.851, 48.63628
2652.779, 48.25261
2654.708, 47.74299
2656.636, 47.21302
2658.565, 47.47933
2660.493, 48.26808
2662.422, 48.10652
2664.350, 47.15205
2666.279, 46.63120
2668.207, 46.51758
2670.135, 46.56106
2672.064, 46.73391
2673.992, 46.78280
2675.921, 46.71761
2677.849, 46.58177
2679.778, 46.39913
2681.706, 46.46205
2683.635, 46.75964
2685.563, 46.90424
2687.492, 46.88806
2689.420, 46.43489
2691.349, 45.64140
2693.277, 45.39935
2695.206, 45.71637
2697.134, 45.90960
2699.063, 45.98039
2700.991, 45.89211
2702.919, 45.65973
2704.848, 45.59190
2706.776, 45.65837
2708.705, 45.42352
2710.633, 44.91258
2712.562, 45.18729
2714.490, 46.21435
2716.419, 45.99026
2718.347, 44.64885
2720.276, 44.30439
2722.204, 44.84566
2724.133, 45.14486
2726.061, 45.18053
2727.990, 45.16376
2729.918, 45.09521
2731.846, 44.95325
2733.775, 44.76511
2735.703, 44.81950
2737.632, 45.06692
2739.560, 45.21291
2741.489, 45.25853
2743.417, 45.20773
2745.346, 45.08514
2747.274, 45.12593
2749.203, 45.25517
2751.131, 45.03056
2753.060, 44.57146
2754.988, 44.40444
2756.917, 44.45835
2758.845, 44.45758
2760.773, 44.40826
2762.702, 44.33630
2764.630, 44.22986
2766.559, 43.95491
2768.487, 43.65473
2770.416, 43.77695
2772.344, 44.13751
2774.273, 44.28847
2776.201, 44.28452
2778.130, 44.20770
2780.058, 44.11279
2781.987, 44.12518
2783.915, 44.17599
2785.844, 44.16453
2787.772, 44.09469
2789.700, 43.79682
2791.629, 43.59146
2793.557, 44.19841
2795.486, 44.94182
2797.414, 44.91785
2799.343, 44.65963
2801.271, 44.88565
2803.200, 45.12934
2805.128, 44.70203
2807.057, 44.26355
2808.985, 44.41521
2810.914, 44.77409
2812.842, 45.16616
2814.771, 45.45126
2816.699, 45.49611
2818.627, 45.42923
2820.556, 45.35780
2822.484, 45.16261
2824.413, 44.47127
2826.341, 44.07388
2828.270, 44.62056
2830.198, 45.19963
2832.127, 45.53723
2834.055, 45.62846
2835.984, 45.29226
2837.912, 45.07773
2839.841, 45.52029
2841.769, 45.53043
2843.698, 44.40172
2845.626, 43.82503
2847.554, 44.26212
2849.483, 44.72575
2851.411, 45.03704
2853.340, 45.19954
2855.268, 45.07599
2857.197, 45.18850
2859.125, 45.67051
2861.054, 45.62192
2862.982, 44.81620
2864.911, 44.63069
2866.839, 45.39437
2868.768, 45.75677
2870.696, 45.69235
2872.625, 45.74403
2874.553, 45.91436
2876.481, 46.09094
2878.410, 46.24523
2880.338, 46.14485
2882.267, 45.82558
2884.195, 45.47473
2886.124, 45.13184
2888.052, 44.86715
2889.981, 44.74001
2891.909, 45.07880
2893.838, 45.51395
2895.766, 45.17282
2897.695, 44.56232
2899.623, 44.24232
2901.552, 44.28458
2903.480, 45.34888
2905.408, 46.14526
2907.337, 44.87607
2909.265, 43.51433
2911.194, 43.56529
2913.122, 43.88726
2915.051, 43.85375
2916.979, 43.81522
2918.908, 44.00383
2920.836, 44.12912
2922.765, 44.20367
2924.693, 43.92574
2926.622, 42.85946
2928.550, 42.24352
2930.479, 42.62536
2932.407, 43.05122
2934.335, 43.56193
2936.264, 43.49632
2938.192, 42.64706
2940.121, 42.41388
2942.049, 43.17895
2943.978, 42.71418
2945.906, 41.05098
2947.835, 40.85132
2949.763, 41.87705
2951.692, 42.16619
2953.620, 41.87763
2955.549, 41.61097
2957.477, 41.48565
2959.406, 42.22063
2961.334, 43.00184
2963.262, 42.22839
2965.191, 41.04596
2967.119, 41.03764
2969.048, 41.28223
2970.976, 40.83097
2972.905, 40.34732
2974.833, 40.24767
2976.762, 40.29787
2978.690, 40.49560
2980.619, 40.60319
2982.547, 40.48615
2984.476, 40.42522
2986.404, 40.55631
2988.333, 40.60564
2990.261, 40.52552
2992.189, 40.27236
2994.118, 39.78078
2996.046, 39.70794
2997.975, 40.14948
2999.903, 40.40855
3001.832, 40.46805
3003.760, 40.11786
3005.689, 39.53321
3007.617, 39.78045
3009.546, 40.46963
3011.474, 40.53617
3013.403, 40.27175
3015.331, 40.13717
3017.260, 40.10071
3019.188, 40.31933
3021.116, 40.35958
3023.045, 39.53770
3024.973, 38.85332
3026.902, 39.07001
3028.830, 39.38784
3030.759, 39.58957
3032.687, 39.69464
3034.616, 39.67461
3036.544, 39.59818
3038.473, 39.40358
3040.401, 39.52102
3042.330, 40.04734
3044.258, 40.29655
3046.187, 40.19691
3048.115, 40.32520
3050.043, 40.58591
3051.972, 40.03015
3053.900, 39.13680
3055.829, 39.54070
3057.757, 40.44786
3059.686, 40.29498
3061.614, 39.80602
3063.543, 39.78358
3065.471, 39.82965
3067.400, 39.58553
3069.328, 39.36577
3071.257, 39.36055
3073.185, 39.35819
3075.114, 39.33143
3077.042, 39.19270
3078.970, 38.66689
3080.899, 38.61253
3082.827, 39.10707
3084.756, 39.77336
3086.684, 40.57070
3088.613, 40.32113
3090.541, 39.23649
3092.470, 39.34894
3094.398, 40.06099
3096.327, 39.53120
3098.255, 38.72426
3100.184, 39.28721
3102.112, 40.14743
3104.041, 40.18576
3105.969, 40.10995
3107.897, 40.27758
3109.826, 40.54393
3111.754, 41.06390
3113.683, 41.21812
3115.611, 40.77814
3117.540, 40.53594
3119.468, 40.70913
3121.397, 40.71880
3123.325, 40.54895
3125.254, 40.26903
3127.182, 39.92234
3129.111, 39.60968
3131.039, 39.42766
3132.968, 39.69975
3134.896, 40.15498
3136.824, 40.57981
3138.753, 40.78687
3140.681, 40.41840
3142.610, 40.08276
3144.538, 40.02509
3146.467, 40.21387
3148.395, 40.76360
3150.324, 41.19132
3152.252, 41.50016
3154.181, 41.28901
3156.109, 40.56498
3158.038, 40.31549
3159.966, 40.46787
3161.895, 40.08162
3163.823, 39.54460
3165.751, 40.11766
3167.680, 40.95940
3169.608, 40.92933
3171.537, 40.80117
3173.465, 41.37395
3175.394, 41.75520
3177.322, 41.42540
3179.251, 41.27240
3181.179, 41.85296
3183.108, 42.01875
3185.036, 41.66099
3186.965, 41.47498
3188.893, 41.47757
3190.822, 41.13468
3192.750, 40.62453
3194.678, 40.77845
3196.607, 41.20747
3198.535, 41.29445
3200.464, 41.32923
3202.392, 41.73396
3204.321, 41.95527
3206.249, 41.66093
3208.178, 41.34266
3210.106, 41.08672
3212.035, 40.98275
3213.963, 41.00249
3215.892, 41.50517
3217.820, 42.42859
3219.749, 42.54427
3221.677, 42.04921
3223.605, 41.57397
3225.534, 41.22765
3227.462, 41.16161
3229.391, 41.28213
3231.319, 41.78576
3233.248, 41.96312
3235.176, 41.36035
3237.105, 40.85625
3239.033, 40.72485
3240.962, 40.77549
3242.890, 41.02516
3244.819, 40.88927
3246.747, 40.46907
3248.676, 40.74209
3250.604, 41.40398
3252.532, 41.78724
3254.461, 41.95650
3256.389, 41.85332
3258.318, 41.77426
3260.246, 41.98500
3262.175, 42.15681
3264.103, 42.28685
3266.032, 42.03183
3267.960, 41.01855
3269.889, 40.83614
3271.817, 41.38765
3273.746, 41.72213
3275.674, 41.83732
3277.603, 41.77703
3279.531, 41.55526
3281.459, 40.76600
3283.388, 40.48137
3285.316, 42.21420
3287.245, 43.10409
3289.173, 41.88906
3291.102, 41.37727
3293.030, 42.14374
3294.959, 42.32059
3296.887, 41.87641
3298.816, 42.18375
3300.744, 42.73481
3302.673, 42.19707
3304.601, 41.41043
3306.530, 41.30983
3308.458, 41.49760
3310.386, 41.75006
3312.315, 42.23726
3314.243, 43.43283
3316.172, 43.66665
3318.100, 42.83028
3320.029, 42.29491
3321.957, 42.07837
3323.886, 41.77978
3325.814, 41.58609
3327.743, 42.04703
3329.671, 42.47308
3331.600, 41.93803
3333.528, 41.79146
3335.457, 42.79436
3337.385, 43.20301
3339.313, 42.16387
3341.242, 42.32145
3343.170, 43.56411
3345.099, 43.56438
3347.027, 42.92277
3348.956, 43.43907
3350.884, 43.95335
3352.813, 42.80945
3354.741, 41.77352
3356.670, 41.67244
3358.598, 42.22604
3360.527, 43.58279
3362.455, 44.15966
3364.384, 43.79566
3366.312, 43.58045
3368.240, 43.47974
3370.169, 43.34340
3372.097, 43.22594
3374.026, 43.19590
3375.954, 43.20362
3377.883, 43.17672
3379.811, 43.30843
3381.740, 43.72424
3383.668, 44.07990
3385.597, 44.35847
3387.525, 43.93652
3389.454, 43.18961
3391.382, 43.12770
3393.311, 43.54797
3395.239, 44.73495
3397.167, 45.42060
3399.096, 44.49430
3401.024, 43.75316
3402.953, 43.46351
3404.881, 43.71862
3406.810, 44.49355
3408.738, 45.08220
3410.667, 45.49007
3412.595, 45.86887
3414.524, 45.91122
3416.452, 44.81404
3418.381, 44.20988
3420.309, 44.97078
3422.238, 45.54667
3424.166, 45.64743
3426.094, 45.24640
3428.023, 44.50920
3429.951, 44.90241
3431.880, 45.75276
3433.808, 46.12088
3435.737, 46.15279
3437.665, 45.82849
3439.594, 45.53588
3441.522, 45.43609
3443.451, 45.30869
3445.379, 45.16076
3447.308, 45.45101
3449.236, 46.03090
3451.165, 46.72523
3453.093, 47.04331
3455.021, 46.00834
3456.950, 45.27325
3458.878, 45.95283
3460.807, 46.38631
3462.735, 46.36730
3464.664, 46.89038
3466.592, 47.78838
3468.521, 47.67775
3470.449, 47.22830
3472.378, 47.47748
3474.306, 47.64567
3476.235, 46.92617
3478.163, 46.70066
3480.092, 47.32104
3482.020, 47.98442
3483.948, 48.60104
3485.877, 48.56430
3487.805, 48.28084
3489.734, 48.53528
3491.662, 48.82545
3493.591, 48.82695
3495.519, 48.67707
3497.448, 48.19557
3499.376, 48.36515
3501.305, 49.13702
3503.233, 49.43803
3505.162, 49.38029
3507.090, 49.11750
3509.019, 48.80824
3510.947, 48.45034
3512.875, 48.37981
3514.804, 48.98614
3516.732, 48.98235
3518.661, 48.41776
3520.589, 48.56304
3522.518, 49.13836
3524.446, 49.65907
3526.375, 49.94175
3528.303, 49.53237
3530.232, 49.49624
3532.160, 50.18829
3534.089, 50.71473
3536.017, 50.99174
3537.946, 51.25957
3539.874, 51.38202
3541.802, 50.86345
3543.731, 50.40675
3545.659, 50.71363
3547.588, 50.77988
3549.516, 50.30323
3551.445, 50.48542
3553.373, 51.31408
3555.302, 52.07575
3557.230, 52.64565
3559.159, 52.67490
3561.087, 52.75518
3563.016, 53.29203
3564.944, 53.72661
3566.873, 53.93191
3568.801, 53.97841
3570.729, 53.91087
3572.658, 53.82751
3574.586, 53.87364
3576.515, 54.26781
3578.443, 54.80248
3580.372, 55.42243
3582.300, 56.08272
3584.229, 56.79232
3586.157, 56.88692
3588.086, 56.90500
3590.014, 58.33901
3591.943, 59.99474
3593.871, 60.96026
3595.800, 61.80494
3597.728, 62.80378
3599.656, 63.26466
3601.585, 63.37572
3603.513, 64.53550
3605.442, 65.90610
3607.370, 65.96676
3609.299, 66.11249
3611.227, 67.64392
3613.156, 67.83849
3615.084, 66.46196
3617.013, 65.41801
3618.941, 64.42979
3620.870, 62.50169
3622.798, 60.19574
3624.727, 57.63556
3626.655, 55.64258
3628.583, 54.56280
3630.512, 53.27931
3632.440, 51.87953
3634.369, 51.23614
3636.297, 50.86681
3638.226, 50.10692
3640.154, 49.43252
3642.083, 49.24862
3644.011, 48.62310
3645.940, 47.60057
3647.868, 47.71917
3649.797, 48.35049
3651.725, 48.15263
3653.654, 47.82821
3655.582, 47.73567
3657.510, 47.81258
3659.439, 48.05874
3661.367, 47.68647
3663.296, 46.98756
3665.224, 46.82317
3667.153, 46.91833
3669.081, 47.08147
3671.010, 47.35303
3672.938, 47.72358
3674.867, 48.45350
3676.795, 49.29847
3678.724, 49.15116
3680.652, 48.36626
3682.581, 46.58708
3684.509, 45.98313
3686.438, 47.45552
3688.366, 48.41372
3690.294, 48.67941
3692.223, 48.45995
3694.151, 48.14778
3696.080, 48.32346
3698.008, 48.37494
3699.937, 47.97771
3701.865, 47.84766
3703.794, 48.03279
3705.722, 48.40571
3707.651, 48.62640
3709.579, 48.03595
3711.508, 47.47982
3713.436, 47.28614
3715.365, 47.34084
3717.293, 47.65653
3719.221, 48.44942
3721.150, 49.26422
3723.078, 49.42710
3725.007, 49.30449
3726.935, 49.02666
3728.864, 48.40975
3730.792, 47.55116
3732.721, 47.85555
3734.649, 48.46615
3736.578, 47.76952
3738.506, 47.41608
3740.435, 48.41244
3742.363, 49.33393
3744.292, 49.99413
3746.220, 49.47797
3748.148, 48.71755
3750.077, 49.23537
3752.005, 49.58620
3753.934, 48.90417
3755.862, 48.90478
3757.791, 49.48325
3759.719, 49.13182
3761.648, 48.54765
3763.576, 48.49833
3765.505, 48.73427
3767.433, 49.25927
3769.362, 49.71901
3771.290, 50.10990
3773.219, 50.61737
3775.147, 50.92440
3777.075, 50.62449
3779.004, 50.31187
3780.932, 50.11626
3782.861, 50.23432
3784.789, 50.48255
3786.718, 50.08349
3788.646, 49.82697
3790.575, 50.46857
3792.503, 50.78275
3794.432, 50.48603
3796.360, 50.65331
3798.289, 51.01563
3800.217, 50.84026
3802.146, 50.76460
3804.074, 51.26820
3806.002, 51.36603
3807.931, 50.97842
3809.859, 50.66793
3811.788, 50.52470
3813.716, 50.88684
3815.645, 51.02985
3817.573, 50.51549
3819.502, 50.79219
3821.430, 51.71381
3823.359, 52.12542
3825.287, 52.18923
3827.216, 52.02283
3829.144, 51.48401
3831.073, 50.40332
3833.001, 50.24168
3834.929, 50.72289
3836.858, 51.38499
3838.786, 51.68190
3840.715, 51.11749
3842.643, 50.81129
3844.572, 50.91344
3846.500, 51.44420
3848.429, 51.90564
3850.357, 51.50751
3852.286, 51.17506
3854.214, 51.13850
3856.143, 51.64106
3858.071, 52.45648
3860.000, 53.04644
3861.928, 53.02346
3863.856, 51.50724
3865.785, 50.66478
3867.713, 50.75913
3869.642, 51.79643
3871.570, 52.92289
3873.499, 52.64970
3875.427, 52.37733
3877.356, 52.72012
3879.284, 52.71519
3881.213, 52.50635
3883.141, 52.86674
3885.070, 53.11195
3886.998, 52.50088
3888.927, 52.40874
3890.855, 53.09225
3892.783, 52.33981
3894.712, 51.38388
3896.640, 52.48768
3898.569, 53.53817
3900.497, 53.80317
3902.426, 53.47405
3904.354, 52.92994
3906.283, 52.55376
3908.211, 52.49432
3910.140, 53.47892
3912.068, 53.54354
3913.997, 52.33363
3915.925, 52.52558
3917.854, 53.21428
3919.782, 53.54954
3921.710, 53.71808
3923.639, 53.50828
3925.567, 54.01764
3927.496, 54.74450
3929.424, 54.14906
3931.353, 53.63812
3933.281, 53.80076
3935.210, 53.52074
3937.138, 52.99269
3939.067, 53.00918
3940.995, 53.40186
3942.924, 53.86309
3944.852, 53.84485
3946.781, 53.54151
3948.709, 54.28908
3950.637, 55.21585
3952.566, 54.85743
3954.494, 54.18513
3956.423, 54.02240
3958.351, 53.90053
3960.280, 53.79619
3962.208, 55.20403
3964.137, 56.28444
3966.065, 55.94438
3967.994, 55.42031
3969.922, 54.97018
3971.851, 55.33802
3973.779, 55.53796
3975.708, 54.62940
3977.636, 54.34873
3979.564, 54.49882
3981.493, 54.82720
3983.421, 54.98742
3985.350, 54.36230
3987.278, 54.48456
3989.207, 55.18561
3991.135, 55.07566
3993.064, 54.72620
3994.992, 54.59682
3996.921, 54.73627
3998.849, 55.41524
4000.778, 55.96808
4002.706, 56.22610
4004.635, 56.07614
4006.563, 55.54046
4008.491, 55.30284
4010.420, 55.67041
4012.348, 55.80250
4014.277, 56.01780
4016.205, 56.50202
4018.134, 56.81358
4020.062, 56.06977
4021.991, 55.37162
4023.919, 56.01306
4025.848, 56.39743
4027.776, 56.45481
4029.705, 56.80751
4031.633, 56.85885
4033.562, 56.31219
4035.490, 56.08038
4037.418, 56.07734
4039.347, 56.17410
4041.275, 56.30110
4043.204, 56.16187
4045.132, 55.79921
4047.061, 55.24482
4048.989, 55.00265
4050.918, 55.22204
4052.846, 55.66510
4054.775, 56.03003
4056.703, 56.29749
4058.632, 56.14559
4060.560, 55.90487
4062.489, 56.13582
4064.417, 56.28456
4066.345, 56.28307
4068.274, 56.26554
4070.202, 56.20934
4072.131, 56.62175
4074.059, 56.92247
4075.988, 56.53367
4077.916, 56.72204
4079.845, 57.47441
4081.773, 57.15050
4083.702, 56.67179
4085.630, 57.01902
4087.559, 57.06143
4089.487, 56.67265
4091.416, 56.92413
4093.344, 57.28956
4095.272, 57.16615
4097.201, 57.13911
4099.129, 57.29290
4101.058, 56.72250
4102.986, 56.09178
4104.915, 56.70139
4106.843, 56.49128
4108.772, 55.29777
4110.700, 55.67312
4112.629, 56.45878
4114.557, 56.32990
4116.486, 56.41624
4118.414, 56.98411
4120.343, 56.54947
4122.271, 55.91820
4124.200, 56.21493
4126.128, 56.71904
4128.057, 57.39036
4129.985, 56.79266
4131.914, 55.93013
4133.842, 55.97871
4135.771, 55.95816
4137.699, 55.94255
4139.627, 56.16844
4141.556, 56.22993
4143.484, 55.53215
4145.413, 55.18312
4147.341, 55.67866
4149.270, 55.66680
4151.198, 55.43501
4153.126, 55.61615
4155.055, 55.58458
4156.983, 55.19450
4158.912, 55.09395
4160.840, 55.14070
4162.769, 55.92594
4164.697, 56.41009
4166.626, 55.80943
4168.554, 55.68325
4170.483, 55.97258
4172.411, 56.27576
4174.340, 56.45088
4176.268, 56.48783
4178.197, 55.49541
4180.125, 54.30286
4182.054, 54.68779
4183.982, 55.29219
4185.911, 55.25078
4187.839, 55.32536
4189.768, 55.62899
4191.696, 55.44428
4193.625, 55.35244
4195.553, 55.44383
4197.481, 56.12741
4199.410, 56.99860
4201.338, 56.87421
4203.267, 56.20183
4205.195, 55.23271
4207.124, 55.62407
4209.052, 56.03872
4210.980, 54.74947
4212.909, 54.73057
4214.837, 56.06686
4216.766, 56.25853
4218.694, 56.03463
4220.623, 55.69151
4222.551, 55.97571
4224.480, 56.83240
4226.408, 56.77143
4228.337, 56.49619
4230.265, 56.81434
4232.194, 56.54995
4234.122, 55.85353
4236.051, 55.88089
4237.979, 56.05301
4239.908, 55.99786
4241.836, 56.76186
4243.765, 57.62296
4245.693, 56.59008
4247.622, 55.67413
4249.550, 55.57442
4251.479, 56.32124
4253.407, 57.21643
4255.335, 57.37640
4257.264, 57.02821
4259.192, 56.31248
4261.121, 56.07349
4263.049, 56.24237
4264.978, 56.90763
4266.906, 57.25927
4268.834, 57.27000
4270.763, 57.33682
4272.691, 57.50639
4274.620, 57.99831
4276.548, 57.32897
4278.477, 56.07963
4280.405, 56.32432
4282.334, 56.86418
4284.262, 57.25816
4286.191, 56.32899
4288.119, 55.31163
4290.048, 56.77099
4291.976, 57.79847
4293.905, 57.76319
4295.833, 57.59224
4297.762, 57.29573
4299.690, 56.46777
4301.619, 56.86913
4303.547, 58.15789
4305.476, 57.53603
4307.404, 56.90043
4309.333, 57.54798
4311.261, 57.62706
4313.189, 57.42778
4315.118, 58.14986
4317.046, 58.25023
4318.975, 57.17829
4320.903, 56.92847
4322.832, 57.14029
4324.760, 57.44253
4326.688, 57.59714
4328.617, 57.51821
4330.545, 56.65219
4332.474, 56.05949
4334.402, 56.71863
4336.331, 57.17717
4338.259, 57.50771
4340.188, 58.47042
4342.116, 58.39906
4344.045, 56.27511
4345.973, 57.24472
4347.902, 58.94438
4349.830, 58.17433
4351.759, 58.03939
4353.687, 58.69299
4355.616, 58.11031
4357.544, 57.55362
4359.473, 57.78202
4361.401, 58.11982
4363.330, 58.38929
4365.258, 58.28237
4367.187, 58.06528
4369.115, 57.81062
4371.043, 57.73279
4372.972, 57.78142
4374.900, 57.91953
4376.829, 58.11311
4378.757, 58.37583
4380.686, 59.07244
4382.614, 59.15442
4384.542, 58.28525
4386.471, 58.39745
4388.399, 58.84921
4390.328, 58.51178
4392.256, 59.28783
4394.185, 60.73051
4396.113, 59.39279
4398.042, 58.03868
4399.970, 58.16487
4401.899, 58.25504
4403.827, 58.19869
4405.756, 57.81087
4407.684, 57.59124
4409.613, 57.67955
4411.541, 58.89502
4413.470, 59.46793
4415.398, 57.60052
4417.327, 57.48640
4419.255, 58.41568
4421.184, 59.11310
4423.112, 58.90740
4425.041, 57.73452
4426.969, 58.23605
4428.897, 58.71736
4430.826, 57.98543
4432.754, 58.21523
4434.683, 58.89056
4436.611, 58.79560
4438.540, 58.05321
4440.468, 56.94486
4442.396, 57.76453
4444.325, 58.36070
4446.253, 56.76979
4448.182, 57.01161
4450.110, 58.20514
4452.039, 58.25281
4453.967, 58.24969
4455.896, 58.39469
4457.824, 57.78511
4459.753, 57.20681
4461.681, 57.15520
4463.610, 57.46535
4465.538, 57.83636
4467.467, 57.83365
4469.395, 57.46813
4471.324, 56.88863
4473.252, 57.17638
4475.181, 57.42282
4477.109, 57.17686
4479.038, 56.78545
4480.966, 56.66389
4482.895, 57.91226
4484.823, 57.31017
4486.751, 55.25016
4488.680, 55.36400
4490.608, 55.97710
4492.537, 56.44319
4494.465, 56.62040
4496.394, 56.71961
4498.322, 56.98897
4500.250, 56.89938
4502.179, 56.73125
4504.107, 57.85436
4506.036, 57.83604
4507.964, 56.37762
4509.893, 56.10749
4511.821, 56.23487
4513.750, 56.20279
4515.678, 56.14967
4517.607, 56.15617
4519.535, 56.44497
4521.464, 56.41640
4523.392, 56.16109
4525.321, 57.05365
4527.249, 57.46798
4529.178, 56.76429
4531.106, 56.77626
4533.035, 56.79985
4534.963, 56.05109
4536.892, 55.90371
4538.820, 56.14087
4540.749, 55.98487
4542.677, 55.92785
4544.605, 56.08728
4546.534, 56.62981
4548.462, 56.99670
4550.391, 56.86633
4552.319, 56.80030
4554.248, 56.54441
4556.176, 55.66387
4558.104, 55.34524
4560.033, 55.50711
4561.961, 55.68623
4563.890, 56.01728
4565.818, 56.44513
4567.747, 56.27482
4569.675, 56.04742
4571.604, 56.07875
4573.532, 56.20946
4575.461, 56.19297
4577.389, 55.72232
4579.318, 55.22663
4581.246, 54.90025
4583.175, 55.05769
4585.103, 55.58947
4587.032, 56.29914
4588.960, 56.28008
4590.889, 56.19968
4592.817, 56.40933
4594.746, 56.45045
4596.674, 56.43723
4598.603, 56.57418
4600.531, 55.64449
4602.459, 54.64846
4604.388, 55.75533
4606.316, 56.33190
4608.245, 56.14978
4610.173, 55.62244
4612.102, 55.80294
4614.030, 57.00055
4615.958, 56.06759
4617.887, 55.13050
4619.815, 55.43406
4621.744, 56.26634
4623.672, 56.87074
4625.601, 56.37747
4627.529, 55.94635
4629.458, 55.92937
4631.386, 57.02198
4633.315, 57.92346
4635.243, 58.18483
4637.172, 56.21405
4639.100, 54.62974
4641.029, 54.27069
4642.957, 55.50674
4644.886, 56.51122
4646.814, 56.21791
4648.743, 55.80437
4650.671, 55.62738
4652.600, 56.27525
4654.528, 56.14101
4656.457, 55.69154
4658.385, 56.11720
4660.313, 55.84661
4662.242, 55.13469
4664.170, 55.78211
4666.099, 55.97707
4668.027, 55.38647
4669.956, 56.32278
4671.884, 56.81868
4673.813, 55.94639
4675.741, 55.31493
4677.669, 55.21002
4679.598, 55.83866
4681.526, 56.52467
4683.455, 56.99004
4685.383, 56.97292
4687.312, 56.48974
4689.240, 55.94245
4691.169, 56.32548
4693.097, 55.70755
4695.026, 54.49670
4696.954, 55.11036
4698.883, 55.64150
4700.811, 55.66366
4702.740, 55.94375
4704.668, 55.87235
4706.597, 55.22554
4708.525, 54.80737
4710.454, 55.00365
4712.382, 56.03033
4714.311, 55.90719
4716.239, 55.47432
4718.167, 55.57104
4720.096, 55.91772
4722.024, 56.15763
4723.953, 55.70817
4725.881, 56.32319
4727.810, 57.20261
4729.738, 56.30619
4731.667, 56.17783
4733.595, 56.61297
4735.523, 55.60668
4737.452, 55.22853
4739.380, 55.67545
4741.309, 55.96125
4743.237, 55.90369
4745.166, 55.56496
4747.094, 56.36367
4749.023, 56.64153
4750.951, 55.72388
4752.880, 55.64328
4754.808, 55.82431
4756.737, 55.95113
4758.665, 55.73194
4760.594, 55.81933
4762.522, 57.02202
4764.451, 56.53882
4766.379, 55.91504
4768.308, 56.72402
4770.236, 57.26887
4772.165, 57.23232
4774.093, 56.10262
4776.021, 55.52164
4777.950, 55.53947
4779.878, 56.20071
4781.807, 56.43528
4783.735, 56.42682
4785.664, 56.90221
4787.592, 57.26925
4789.521, 57.22583
4791.449, 55.78079
4793.377, 55.43960
4795.306, 56.18436
4797.234, 56.65425
4799.163, 56.05754
4801.091, 54.68755
4803.020, 55.42111
4804.948, 56.02316
4806.877, 56.06348
4808.805, 57.00146
4810.734, 57.75605
4812.662, 57.89423
4814.591, 56.77982
4816.519, 56.06073
4818.448, 56.31422
4820.376, 56.45758
4822.305, 56.70940
4824.233, 57.19209
4826.162, 56.87107
4828.090, 56.53390
4830.019, 56.58213
4831.947, 56.20725
4833.875, 55.79057
4835.804, 55.56384
4837.732, 55.37900
4839.661, 55.35275
4841.589, 55.56487
4843.518, 55.64360
4845.446, 56.60929
4847.375, 59.67957
4849.303, 58.60156
4851.231, 56.65808
4853.160, 56.41111
4855.088, 56.37183
4857.017, 56.53127
4858.945, 57.15415
4860.874, 56.45472
4862.802, 55.68735
4864.731, 55.95779
4866.659, 56.00859
4868.588, 55.91288
4870.516, 55.70787
4872.445, 56.16354
4874.373, 56.47294
4876.302, 55.87804
4878.230, 55.84269
4880.159, 56.13496
4882.087, 56.72934
4884.016, 55.97881
4885.944, 55.01963
4887.873, 54.82823
4889.801, 54.97225
4891.729, 55.42655
4893.658, 56.52901
4895.586, 56.28839
4897.515, 55.73375
4899.443, 55.69331
4901.372, 55.56438
4903.300, 55.51482
4905.229, 55.77841
4907.157, 55.77607
4909.085, 55.45925
4911.014, 54.76038
4912.942, 56.21734
4914.871, 57.49468
4916.799, 56.80176
4918.728, 56.73382
4920.656, 56.72162
4922.585, 56.38196
4924.513, 57.31097
4926.442, 57.69180
4928.370, 56.53871
4930.299, 56.78950
4932.227, 57.23823
4934.156, 57.21572
4936.084, 56.57614
4938.013, 56.75183
4939.941, 57.94226
4941.870, 55.37372
4943.798, 54.34920
4945.727, 56.62130
4947.655, 56.76787
4949.583, 56.45569
4951.512, 56.33633
4953.440, 57.40787
4955.369, 57.01511
4957.297, 55.25608
4959.226, 56.78147
4961.154, 57.52792
4963.083, 56.98804
4965.011, 56.29128
4966.939, 56.86544
4968.868, 58.05025
4970.796, 57.44958
4972.725, 56.73046
4974.653, 56.47334
4976.582, 57.58289
4978.510, 56.97327
4980.439, 56.03093
4982.367, 57.73657
4984.296, 58.17327
4986.224, 57.90020
4988.153, 57.87239
4990.081, 57.58212
4992.010, 57.32393
4993.938, 57.45440
4995.867, 56.99735
4997.795, 56.71624
4999.724, 57.15024
5001.652, 56.80184
5003.581, 56.70653
5005.509, 57.26583
5007.438, 56.53807
5009.366, 56.13563
5011.294, 56.63866
5013.223, 57.30303
5015.151, 57.43126
5017.080, 57.02102
5019.008, 56.63521
5020.937, 56.45369
5022.865, 56.46645
5024.793, 56.47238
5026.722, 57.12402
5028.650, 57.79304
5030.579, 57.04009
5032.507, 57.93184
5034.436, 59.04864
5036.364, 58.14968
5038.293, 56.99082
5040.221, 56.56163
5042.150, 57.57538
5044.078, 58.12421
5046.007, 58.15711
5047.935, 57.72881
5049.864, 57.05920
5051.792, 56.90351
5053.721, 57.45332
5055.649, 58.08142
5057.578, 58.52819
5059.506, 58.77943
5061.435, 58.98903
5063.363, 59.08591
5065.292, 58.95217
5067.220, 58.35638
5069.148, 57.40020
5071.077, 56.69120
5073.005, 56.88108
5074.934, 58.06448
5076.862, 58.91502
5078.791, 58.32875
5080.719, 58.18731
5082.647, 57.66647
5084.576, 56.61095
5086.504, 57.27557
5088.433, 57.55414
5090.361, 57.21401
5092.290, 57.91615
5094.218, 57.96313
5096.147, 57.54022
5098.075, 57.55500
5100.004, 58.27330
5101.932, 58.87746
5103.861, 58.42782
5105.789, 57.56762
5107.718, 57.20179
5109.646, 57.96159
5111.575, 58.66279
5113.503, 58.99603
5115.432, 58.93951
5117.360, 58.82907
5119.289, 59.24994
5121.217, 59.91547
5123.146, 59.72283
5125.074, 59.24530
5127.002, 59.10386
5128.931, 60.09931
5130.859, 59.94359
5132.788, 59.21883
5134.716, 58.50691
5136.645, 59.27514
5138.573, 59.64727
5140.501, 59.07947
5142.430, 59.79758
5144.358, 60.19370
5146.287, 60.09847
5148.215, 59.88165
5150.144, 60.21354
5152.072, 60.60235
5154.001, 60.21670
5155.929, 60.43365
5157.858, 61.16949
5159.786, 62.21144
5161.715, 61.81986
5163.643, 61.20528
5165.572, 60.98872
5167.500, 62.12703
5169.429, 62.71678
5171.357, 62.55222
5173.286, 61.76371
5175.214, 61.60009
5177.143, 61.78149
5179.071, 61.96833
5181.000, 61.09587
5182.928, 61.41041
5184.856, 63.31663
5186.785, 61.93352
5188.713, 62.12109
5190.642, 63.68152
5192.570, 64.12149
5194.499, 63.40958
5196.427, 62.66958
5198.355, 63.07754
5200.284, 62.15454
5202.212, 62.09513
5204.141, 63.58839
5206.069, 64.22335
5207.998, 63.55947
5209.926, 62.46284
5211.855, 62.93163
5213.783, 63.36422
5215.712, 63.77595
5217.640, 64.46398
5219.569, 63.92509
5221.497, 62.64288
5223.426, 61.44914
5225.354, 64.32899
5227.283, 64.46193
5229.211, 62.82159
5231.140, 63.77631
5233.068, 63.95524
5234.997, 63.95857
5236.925, 64.40376
5238.854, 64.83662
5240.782, 64.88537
5242.710, 64.58275
5244.639, 64.38081
5246.567, 64.38079
5248.496, 64.50723
5250.424, 64.70080
5252.353, 64.67088
5254.281, 64.58292
5256.209, 64.50149
5258.138, 63.95974
5260.066, 64.33938
5261.995, 65.11562
5263.923, 64.11459
5265.852, 64.62878
5267.780, 64.73966
5269.709, 62.59827
5271.637, 62.50786
5273.566, 62.86494
5275.494, 63.24858
5277.423, 64.77325
5279.351, 64.65067
5281.280, 63.75831
5283.208, 63.42525
5285.137, 64.23190
5287.065, 64.30139
5288.994, 63.25074
5290.922, 64.26012
5292.851, 64.81416
5294.779, 64.71557
5296.708, 64.33432
5298.636, 64.24853
5300.564, 64.32189
5302.493, 64.41540
5304.421, 63.58226
5306.350, 64.21862
5308.278, 65.38183
5310.207, 64.03615
5312.135, 64.63744
5314.063, 66.18733
5315.992, 67.59292
5317.920, 66.93586
5319.849, 66.04117
5321.777, 65.53242
5323.706, 65.50582
5325.634, 66.59492
5327.563, 66.95280
5329.491, 65.45362
5331.420, 64.78311
5333.348, 64.72780
5335.277, 65.15448
5337.205, 66.45861
5339.134, 65.58604
5341.062, 64.79274
5342.991, 65.73599
5344.919, 65.35514
5346.848, 65.00768
5348.776, 65.10031
5350.705, 65.93567
5352.633, 65.18312
5354.562, 64.54587
5356.490, 65.24774
5358.418, 64.95232
5360.347, 64.89763
5362.275, 65.24841
5364.204, 65.76028
5366.132, 65.48315
5368.061, 65.33108
5369.989, 65.86391
5371.917, 67.15676
5373.846, 66.49134
5375.774, 64.86580
5377.703, 64.60143
5379.631, 65.38075
5381.560, 66.34916
5383.488, 67.04398
5385.417, 67.31358
5387.345, 67.16647
5389.274, 66.53657
5391.202, 65.15932
5393.131, 66.63071
5395.059, 67.10693
5396.988, 66.14585
5398.916, 67.32313
5400.845, 68.23081
5402.773, 67.89822
5404.702, 66.13695
5406.630, 66.14474
5408.559, 66.63148
5410.487, 67.22231
5412.416, 68.33376
5414.344, 67.56295
5416.272, 66.88543
5418.201, 67.22440
5420.129, 67.31049
5422.058, 67.41561
5423.986, 67.10078
5425.915, 65.91741
5427.843, 67.66615
5429.771, 68.48335
5431.700, 67.58216
5433.628, 66.55659
5435.557, 66.53646
5437.485, 67.10013
5439.414, 67.81827
5441.342, 67.63711
5443.271, 68.12321
5445.199, 68.74734
5447.128, 68.43546
5449.056, 68.42566
5450.985, 68.26680
5452.913, 67.70420
5454.842, 66.22913
5456.770, 66.52859
5458.699, 67.14146
5460.627, 67.00082
5462.556, 67.68750
5464.484, 66.73129
5466.413, 65.65228
5468.341, 66.82946
5470.270, 67.44379
5472.198, 67.03268
5474.126, 66.11444
5476.055, 66.24825
5477.983, 66.39573
5479.912, 66.58846
5481.840, 66.87985
5483.769, 67.08518
5485.697, 67.90996
5487.625, 68.15481
5489.554, 66.77709
5491.482, 67.35781
5493.411, 67.70808
5495.339, 67.50774
5497.268, 67.53800
5499.196, 66.36252
5501.125, 65.37135
5503.053, 65.37553
5504.982, 67.21220
5506.910, 68.25044
5508.839, 68.30186
5510.767, 67.63577
5512.696, 66.85509
5514.624, 67.78115
5516.553, 69.05830
5518.481, 69.08498
5520.410, 67.76353
5522.338, 67.15416
5524.267, 67.12786
5526.195, 66.42604
5528.124, 66.18177
5530.052, 67.28847
5531.980, 68.56645
5533.909, 66.18926
5535.837, 66.81667
5537.766, 67.78957
5539.694, 67.52480
5541.623, 67.20564
5543.551, 67.19563
5545.479, 67.21840
5547.408, 67.06774
5549.336, 67.32973
5551.265, 66.53172
5553.193, 66.19255
5555.122, 67.94183
5557.050, 66.50941
5558.979, 66.78054
5560.907, 67.79195
5562.836, 66.65990
5564.764, 68.31701
5566.693, 68.11228
5568.621, 66.23345
5570.550, 66.39851
5572.478, 66.30132
5574.407, 66.98857
5576.335, 68.12756
5578.264, 67.59909
5580.192, 66.61384
5582.121, 66.48008
5584.049, 67.49910
5585.978, 68.89584
5587.906, 68.59495
5589.834, 68.59293
5591.763, 69.58399
5593.691, 68.19183
5595.620, 67.18388
5597.548, 67.45545
5599.477, 68.91337
5601.405, 67.45142
5603.333, 67.80015
5605.262, 68.23013
5607.190, 66.98148
5609.119, 67.36856
5611.047, 67.67077
5612.976, 67.90315
5614.904, 68.36272
5616.833, 68.97731
5618.761, 68.52818
5620.690, 68.13553
5622.618, 69.05779
5624.547, 68.68755
5626.475, 68.19396
5628.404, 67.48324
5630.332, 66.06374
5632.261, 66.49387
5634.189, 67.11200
5636.118, 67.44455
5638.046, 67.46213
5639.975, 67.22977
5641.903, 67.84109
5643.832, 68.15797
5645.760, 66.80815
5647.688, 67.86678
5649.617, 68.17532
5651.545, 67.67323
5653.474, 67.31301
5655.402, 66.67773
5657.331, 67.21458
5659.259, 68.26638
5661.188, 68.64535
5663.116, 67.25905
5665.044, 66.34582
5666.973, 66.56741
5668.901, 67.78240
5670.830, 66.67645
5672.758, 67.26514
5674.687, 67.66631
5676.615, 65.62392
5678.544, 66.91525
5680.472, 67.65928
5682.401, 68.12306
5684.329, 69.24061
5686.258, 67.84200
5688.186, 66.40782
5690.115, 66.34999
5692.043, 67.90806
5693.972, 66.26216
5695.900, 65.71012
5697.829, 66.55919
5699.757, 67.83302
5701.686, 66.17155
5703.614, 66.92358
5705.542, 67.56785
5707.471, 66.93503
5709.399, 69.00024
5711.328, 66.68767
5713.256, 65.85699
5715.185, 68.07484
5717.113, 67.56425
5719.042, 66.04288
5720.970, 65.72205
5722.898, 66.67461
5724.827, 67.26230
5726.755, 66.92608
5728.684, 66.82231
5730.612, 66.55682
5732.541, 65.01678
5734.469, 66.65470
5736.398, 66.59026
5738.326, 66.09749
5740.255, 67.84402
5742.183, 69.16348
5744.112, 66.96114
5746.040, 65.26502
5747.969, 67.12899
5749.897, 66.65520
5751.826, 66.79652
5753.754, 67.05471
5755.683, 67.00719
5757.611, 67.60591
5759.540, 67.61375
5761.468, 67.14444
5763.396, 66.51666
5765.325, 66.12569
5767.253, 66.29089
5769.182, 66.74551
5771.110, 67.04707
5773.039, 66.80736
5774.967, 67.46501
5776.896, 67.92876
5778.824, 67.93588
5780.752, 67.59798
5782.681, 67.34271
5784.609, 67.70683
5786.538, 68.22389
5788.466, 68.44109
5790.395, 67.72225
5792.323, 68.06943
5794.252, 68.43770
5796.180, 68.58495
5798.109, 69.29745
5800.037, 68.47054
5801.966, 67.36642
5803.894, 67.35673
5805.823, 69.22318
5807.751, 68.57280
5809.680, 68.32312
5811.608, 68.65799
5813.537, 69.18029
5815.465, 69.45193
5817.394, 70.61876
5819.322, 70.94533
5821.250, 70.44955
5823.179, 70.63358
5825.107, 70.24136
5827.036, 70.04639
5828.964, 70.60613
5830.893, 72.02617
5832.821, 72.51128
5834.750, 72.87218
5836.678, 72.48853
5838.606, 71.81480
5840.535, 74.20206
5842.463, 74.06014
5844.392, 74.24510
5846.320, 74.44629
5848.249, 72.71989
5850.177, 74.92302
5852.106, 76.54866
5854.034, 77.19829
5855.963, 77.54318
5857.891, 78.51330
5859.820, 78.78090
5861.748, 77.33316
5863.677, 76.05905
5865.605, 77.97864
5867.534, 77.64111
5869.462, 78.75684
5871.391, 79.79479
5873.319, 79.39585
5875.248, 80.03600
5877.176, 80.72408
5879.104, 81.82286
5881.033, 82.41063
5882.961, 80.61506
5884.890, 80.87910
5886.818, 82.78067
5888.747, 82.98949
5890.675, 80.42606
5892.604, 81.47726
5894.532, 82.21577
5896.460, 82.16757
5898.389, 82.14603
5900.317, 83.43269
5902.246, 83.62269
5904.174, 83.71026
5906.103, 83.61374
5908.031, 83.39608
5909.960, 83.93605
5911.888, 82.87203
5913.817, 83.95497
5915.745, 86.02532
5917.674, 86.34443
5919.602, 85.60162
5921.531, 86.32974
5923.459, 87.24976
5925.388, 87.42901
5927.316, 86.97722
5929.245, 87.54141
5931.173, 88.89003
5933.102, 89.08294
5935.030, 87.86790
5936.958, 91.14013
5938.887, 91.20977
5940.815, 91.58591
5942.744, 92.32907
5944.672, 91.57957
5946.601, 92.08817
5948.529, 92.89868
5950.458, 95.23507
5952.386, 97.92821
5954.314, 96.02613
5956.243, 96.35490
5958.171, 96.25530
5960.100, 94.07077
5962.028, 98.22824
5963.957, 100.7859
5965.885, 101.8291
5967.814, 96.82335
5969.742, 99.62874
5971.671, 99.30380
5973.599, 98.85038
5975.528, 102.7553
5977.456, 98.62918
5979.385, 102.4650
5981.313, 103.1225
5983.242, 105.2348
5985.170, 104.1970
5987.099, 104.1324
5989.027, 107.2182
5990.956, 108.5598
5992.884, 107.1594
5994.813, 109.3642
5996.741, 105.1280
5998.669, 106.5435
6000.598, 110.3979
6002.526, 109.1559
6004.455, 111.4183
6006.383, 112.3457
6008.312, 107.2087
6010.240, 112.6188
6012.168, 113.4674
6014.097, 109.6328
6016.025, 114.6815
6017.954, 111.4925
6019.882, 111.0335
6021.811, 112.0476
6023.739, 112.8801
6025.668, 113.1217
6027.596, 113.7076
6029.525, 117.5415
6031.453, 118.8740
6033.382, 118.1959
6035.310, 117.3448
6037.239, 117.9483
6039.167, 121.7250
6041.096, 122.5058
6043.024, 122.7560
6044.953, 124.8333
6046.881, 129.0115
6048.810, 128.4227
6050.738, 130.5707
6052.667, 131.6272
6054.595, 131.9632
6056.523, 134.0874
6058.452, 135.8504
6060.380, 138.9506
6062.309, 140.3569
6064.237, 140.1658
6066.166, 140.1811
6068.094, 142.3000
6070.022, 143.3523
6071.951, 143.6830
6073.879, 144.9612
6075.808, 147.9838
6077.736, 147.8944
6079.665, 150.1873
6081.593, 151.3162
6083.522, 150.6722
6085.450, 150.0361
6087.379, 154.9263
6089.307, 156.6176
6091.236, 156.7708
6093.164, 157.5231
6095.093, 159.5026
6097.021, 161.4405
6098.950, 159.0855
6100.878, 159.4251
6102.807, 161.8753
6104.735, 163.7915
6106.664, 162.7274
6108.592, 163.1422
6110.521, 162.8021
6112.449, 162.5887
6114.377, 163.0759
6116.306, 163.8418
6118.234, 165.6308
6120.163, 163.7384
6122.091, 162.5675
6124.020, 163.1350
6125.948, 163.4546
6127.876, 162.2536
6129.805, 162.0422
6131.733, 162.4811
6133.662, 163.0401
6135.590, 163.5234
6137.519, 164.1649
6139.447, 167.7626
6141.376, 165.6131
6143.304, 165.3148
6145.233, 169.6262
6147.161, 168.1901
6149.090, 170.1287
6151.018, 173.5191
6152.947, 175.6812
6154.875, 177.2420
6156.804, 180.4223
6158.732, 179.0097
6160.661, 183.4962
6162.589, 184.9022
6164.518, 186.2333
6166.446, 191.2580
6168.375, 191.1174
6170.303, 187.9540
6172.231, 193.5780
6174.160, 199.0025
6176.088, 200.2308
6178.017, 203.3278
6179.945, 200.8524
6181.874, 202.9477
6183.802, 204.5621
6185.730, 205.6331
6187.659, 207.9671
6189.587, 207.7692
6191.516, 208.6471
6193.444, 207.2231
6195.373, 208.1256
6197.301, 211.5575
6199.230, 211.7282
6201.158, 210.1943
6203.087, 213.2439
6205.015, 215.0917
6206.944, 215.0159
6208.872, 215.4139
6210.801, 218.6342
6212.729, 222.0449
6214.658, 223.0087
6216.586, 225.0140
6218.515, 228.5431
6220.443, 231.2706
6222.372, 234.4597
6224.300, 236.8781
6226.229, 238.4209
6228.157, 242.3047
6230.085, 248.4129
6232.014, 251.6911
6233.942, 256.4865
6235.871, 261.7365
6237.799, 267.3068
6239.728, 273.7537
6241.656, 281.0172
6243.584, 287.3994
6245.513, 293.4507
6247.441, 298.4562
6249.370, 304.7560
6251.298, 311.6417
6253.227, 318.1899
6255.155, 331.3416
6257.084, 339.6767
6259.012, 347.4410
6260.941, 358.1593
6262.869, 369.1137
6264.798, 375.7345
6266.726, 388.0440
6268.655, 398.9052
6270.583, 409.2345
6272.512, 417.0939
6274.440, 422.7240
6276.369, 429.3324
6278.297, 431.4580
6280.226, 430.4435
6282.154, 433.4424
6284.083, 433.1389
6286.011, 427.9282
6287.939, 429.4936
6289.868, 422.8996
6291.796, 420.2313
6293.725, 414.3922
6295.653, 405.3909
6297.582, 396.4937
6299.510, 389.2114
6301.438, 382.6016
6303.367, 376.5530
6305.295, 372.1148
6307.224, 366.8066
6309.152, 359.3296
6311.081, 351.7064
6313.009, 347.0159
6314.938, 340.8122
6316.866, 337.2416
6318.795, 335.1429
6320.723, 333.2639
6322.652, 332.6897
6324.580, 329.7498
6326.509, 329.5334
6328.437, 330.2425
6330.366, 334.0345
6332.294, 338.8048
6334.223, 340.0654
6336.151, 347.6049
6338.080, 351.0622
6340.008, 361.0284
6341.937, 371.8842
6343.865, 381.3037
6345.793, 392.9445
6347.722, 406.7776
6349.650, 419.2915
6351.579, 431.0085
6353.507, 443.8692
6355.436, 456.9359
6357.364, 468.3590
6359.292, 478.1476
6361.221, 486.3324
6363.149, 490.6799
6365.078, 497.7538
6367.006, 505.7819
6368.935, 508.4174
6370.863, 500.2076
6372.792, 488.4346
6374.720, 486.5034
6376.649, 479.1136
6378.577, 466.9092
6380.506, 454.3337
6382.434, 442.6706
6384.363, 430.4251
6386.291, 425.6234
6388.220, 415.5585
6390.148, 411.3849
6392.077, 407.8684
6394.005, 400.9742
6395.934, 401.0534
6397.862, 401.7614
6399.791, 403.6630
6401.719, 401.8323
6403.647, 400.0298
6405.576, 402.1703
6407.504, 407.9460
6409.433, 410.8490
6411.361, 419.8394
6413.290, 423.4583
6415.218, 428.9316
6417.146, 439.6479
6419.075, 451.4902
6421.003, 458.6410
6422.932, 469.8470
6424.860, 480.4878
6426.789, 489.0521
6428.717, 500.6358
6430.646, 516.3972
6432.574, 531.7913
6434.503, 541.3623
6436.431, 554.5790
6438.360, 563.6013
6440.288, 572.7539
6442.217, 580.2452
6444.145, 586.4756
6446.074, 593.4708
6448.002, 600.1774
6449.931, 602.7029
6451.859, 607.2856
6453.788, 611.4182
6455.716, 609.0215
6457.645, 605.7776
6459.573, 607.4754
6461.501, 598.1816
6463.430, 590.6725
6465.358, 587.7426
6467.287, 583.5350
6469.215, 579.7355
6471.144, 574.7044
6473.072, 567.5153
6475.000, 567.3975
6476.929, 567.4925
6478.857, 563.1328
6480.786, 564.0173
6482.714, 567.4495
6484.643, 569.6243
6486.571, 571.3495
6488.500, 576.2602
6490.428, 583.2899
6492.357, 588.9377
6494.285, 596.8748
6496.214, 606.6591
6498.142, 612.6786
6500.071, 613.1175
6501.999, 613.7061
6503.928, 611.7665
6505.856, 611.2068
6507.785, 607.7802
6509.713, 602.2502
6511.642, 595.7552
6513.570, 586.4881
6515.499, 574.5906
6517.427, 574.0930
6519.355, 563.3818
6521.284, 562.6838
6523.212, 562.0481
6525.141, 559.2457
6527.069, 555.0627
6528.998, 550.0156
6530.926, 550.0509
6532.854, 552.1069
6534.783, 551.1023
6536.711, 548.4534
6538.640, 541.6308
6540.568, 535.3848
6542.497, 531.9789
6544.425, 525.8372
6546.354, 517.3404
6548.282, 512.8439
6550.211, 510.3580
6552.139, 503.4821
6554.068, 498.7716
6555.996, 499.3629
6557.925, 499.7661
6559.853, 490.9025
6561.782, 495.6549
6563.710, 490.2646
6565.639, 484.7643
6567.567, 484.9554
6569.496, 487.2345
6571.424, 486.3587
6573.353, 481.4929
6575.281, 476.2856
6577.209, 470.1789
6579.138, 462.2093
6581.066, 454.4348
6582.995, 448.0342
6584.923, 440.3891
6586.852, 432.4352
6588.780, 427.0747
6590.708, 419.6114
6592.637, 416.3515
6594.565, 414.8222
6596.494, 410.0462
6598.422, 411.8548
6600.351, 414.8551
6602.279, 415.3170
6604.208, 416.1028
6606.136, 414.1765
6608.065, 419.1402
6609.993, 420.7045
6611.922, 423.3380
6613.850, 422.7281
6615.779, 425.2623
6617.707, 428.8471
6619.636, 428.1645
6621.564, 429.9513
6623.493, 427.0365
6625.421, 427.7862
6627.350, 425.8157
6629.278, 424.9680
##END=



