##NAMES=Pyrope
##RRUFFID=R060448
##IDEAL CHEMISTRY=Mg_3_Al_2_(SiO_4_)_3_
##LOCALITY=India
##OWNER=RRUFF
##SOURCE=Gemological Institute of America
##DESCRIPTION=Deep red water worn pebble, variety rhodolite
##STATUS=The identification of this mineral has been confirmed by X-ray diffraction and chemical analysis
##URL=https://www.rruff.net/odr/rruff_sample/R060448
##MEASURED CHEMISTRY=(Mg_1.47_Fe_1.27_Ca_0.21_Mn_0.05_)Al_2.00_(Si_1.00_O_4_)_3_
##DIFFRACTION SAMPLE DESCRIPTION=Powder
##CELL PARAMETERS=a: 11.5268 b: 11.5268 c: 11.5268 alpha: 90 beta: 90 gamma: 90 volume: 1531.54 crystal system: cubic
##FILETYPE=Raman RAW
##RAMAN WAVELENGTH=532

87.21906, 14.79062
89.14753, 15.55565
91.07600, 15.98783
93.00446, 15.78260
94.93293, 15.30616
96.86140, 15.04924
98.78986, 14.87588
100.7183, 15.08993
102.6468, 15.52903
104.5753, 15.84321
106.5037, 17.97139
108.4322, 22.18255
110.3607, 28.33427
112.2891, 37.23013
114.2176, 49.34776
116.1461, 63.40871
118.0745, 78.92009
120.0030, 96.28346
121.9315, 113.9164
123.8599, 130.9608
125.7884, 147.7129
127.7169, 166.1991
129.6453, 187.6867
131.5738, 209.9095
133.5023, 231.5014
135.4307, 251.7601
137.3592, 271.9835
139.2877, 292.9135
141.2161, 303.1468
143.1446, 320.5248
145.0731, 317.5640
147.0015, 313.8455
148.9300, 311.3531
150.8585, 310.4420
152.7869, 309.3938
154.7154, 307.8311
156.6439, 305.8333
158.5723, 303.6337
160.5008, 300.5841
162.4293, 297.7067
164.3577, 295.7131
166.2862, 294.3572
168.2147, 294.0970
170.1431, 295.0711
172.0716, 297.4858
174.0001, 299.8696
175.9285, 302.7907
177.8570, 305.4365
179.7855, 307.1523
181.7139, 306.0698
183.6424, 305.9706
185.5709, 307.4667
187.4993, 310.4794
189.4278, 314.6324
191.3563, 319.9626
193.2847, 326.3793
195.2132, 334.0042
197.1417, 344.2013
199.0701, 353.7724
200.9986, 362.4122
202.9271, 370.2443
204.8555, 375.6010
206.7840, 377.9325
208.7125, 378.1573
210.6409, 377.2150
212.5694, 375.4600
214.4979, 372.1361
216.4263, 366.4587
218.3548, 357.9430
220.2833, 350.7045
222.2117, 345.2463
224.1402, 340.6788
226.0687, 335.9714
227.9971, 330.5197
229.9256, 326.0802
231.8541, 323.5164
233.7825, 322.9240
235.7110, 321.6777
237.6395, 318.9181
239.5679, 316.1508
241.4964, 314.4127
243.4249, 314.7327
245.3533, 314.9808
247.2818, 314.6049
249.2103, 313.9774
251.1387, 314.2132
253.0672, 316.3376
254.9957, 318.7508
256.9242, 320.4624
258.8526, 320.7567
260.7811, 321.6479
262.7096, 323.8506
264.6380, 326.8665
266.5665, 329.5009
268.4950, 331.6786
270.4234, 333.4422
272.3519, 334.3965
274.2804, 334.3407
276.2088, 335.1842
278.1373, 338.3020
280.0658, 342.5463
281.9942, 345.6537
283.9227, 345.7559
285.8512, 346.6227
287.7796, 350.0944
289.7081, 356.0796
291.6366, 361.6724
293.5650, 365.0228
295.4935, 368.1728
297.4220, 373.9807
299.3504, 382.3947
301.2789, 392.8063
303.2074, 405.3332
305.1358, 419.9247
307.0643, 435.2165
308.9928, 451.4221
310.9212, 468.1647
312.8497, 484.6924
314.7782, 500.4203
316.7066, 518.0780
318.6351, 537.8167
320.5636, 559.2893
322.4920, 583.6251
324.4205, 611.1112
326.3490, 640.6390
328.2774, 671.5472
330.2059, 703.1171
332.1344, 739.1736
334.0628, 777.0214
335.9913, 820.6923
337.9198, 874.5018
339.8482, 939.9323
341.7767, 1011.387
343.7052, 1090.856
345.6336, 1181.164
347.5621, 1257.819
349.4906, 1328.862
351.4190, 1383.593
353.3475, 1408.346
355.2760, 1400.763
357.2044, 1374.402
359.1329, 1329.600
361.0614, 1266.404
362.9898, 1199.993
364.9183, 1128.874
366.8468, 1057.329
368.7752, 989.6221
370.7037, 925.9255
372.6322, 867.4196
374.5606, 814.4007
376.4891, 765.7319
378.4176, 718.9534
380.3460, 674.1114
382.2745, 630.9802
384.2030, 588.4990
386.1314, 546.5346
388.0599, 509.3293
389.9884, 477.1375
391.9168, 449.7419
393.8453, 425.8869
395.7738, 405.2709
397.7022, 387.6399
399.6307, 374.1405
401.5592, 363.3713
403.4876, 352.5795
405.4161, 340.4647
407.3446, 330.2685
409.2730, 323.3854
411.2015, 319.3675
413.1300, 315.4947
415.0584, 311.4811
416.9869, 307.7393
418.9154, 304.7234
420.8438, 302.4294
422.7723, 300.2217
424.7008, 297.2387
426.6292, 294.6204
428.5577, 293.7369
430.4862, 296.2862
432.4146, 298.4275
434.3431, 299.0892
436.2716, 298.4904
438.2000, 298.0771
440.1285, 298.5345
442.0570, 299.2743
443.9854, 299.5401
445.9139, 298.7099
447.8424, 299.1352
449.7708, 302.2151
451.6993, 306.7003
453.6278, 310.9381
455.5562, 314.3611
457.4847, 318.2376
459.4132, 322.5631
461.3416, 327.5097
463.2701, 333.0751
465.1986, 338.8309
467.1270, 345.4074
469.0555, 353.1121
470.9840, 361.7607
472.9124, 372.3153
474.8409, 387.4988
476.7694, 403.1631
478.6978, 415.4977
480.6263, 423.7962
482.5548, 432.0830
484.4832, 439.1230
486.4117, 445.3451
488.3402, 452.6845
490.2686, 460.0623
492.1971, 469.1645
494.1256, 483.8310
496.0540, 503.9798
497.9825, 522.8378
499.9110, 541.5665
501.8394, 557.5620
503.7679, 565.0031
505.6964, 562.4983
507.6248, 557.5736
509.5533, 549.4105
511.4818, 536.6349
513.4103, 520.8666
515.3387, 502.1652
517.2672, 485.6119
519.1957, 472.1017
521.1241, 462.6048
523.0526, 457.7557
524.9811, 458.9811
526.9095, 463.0070
528.8380, 468.6426
530.7665, 475.9484
532.6949, 483.5526
534.6234, 489.8006
536.5519, 499.0063
538.4803, 512.1567
540.4088, 528.0432
542.3373, 549.7902
544.2657, 580.4611
546.1942, 618.1932
548.1227, 661.1708
550.0511, 711.9796
551.9796, 757.6800
553.9081, 793.7963
555.8365, 820.7918
557.7650, 837.3383
559.6935, 830.9844
561.6219, 810.1451
563.5504, 776.1638
565.4789, 730.1913
567.4073, 679.3470
569.3358, 629.2378
571.2643, 582.6039
573.1927, 540.3915
575.1212, 503.6705
577.0497, 475.2711
578.9781, 455.7009
580.9066, 442.7246
582.8351, 434.0367
584.7635, 427.6390
586.6920, 421.4587
588.6205, 413.1392
590.5490, 403.5718
592.4774, 394.2719
594.4059, 386.4955
596.3344, 380.3044
598.2628, 374.9564
600.1913, 370.2662
602.1198, 366.7281
604.0482, 365.4288
605.9767, 364.9688
607.9052, 365.2927
609.8336, 366.3385
611.7621, 366.7130
613.6906, 365.9710
615.6190, 366.2557
617.5475, 368.2962
619.4760, 371.8586
621.4044, 376.6842
623.3329, 382.2414
625.2614, 390.1898
627.1898, 402.5694
629.1183, 418.9836
631.0468, 433.9818
632.9752, 447.2935
634.9037, 459.2838
636.8322, 470.4635
638.7606, 478.4806
640.6891, 480.6384
642.6176, 475.4070
644.5460, 464.7134
646.4745, 449.9070
648.4030, 433.6746
650.3314, 416.8587
652.2599, 400.5607
654.1884, 386.1671
656.1168, 374.1780
658.0453, 363.6497
659.9738, 354.7759
661.9022, 348.0538
663.8307, 342.9416
665.7592, 338.5352
667.6876, 334.8946
669.6161, 331.5083
671.5446, 327.9402
673.4730, 323.8218
675.4015, 319.7689
677.3300, 316.1368
679.2584, 313.8871
681.1869, 314.1530
683.1154, 315.3073
685.0438, 315.6492
686.9723, 314.6646
688.9008, 313.2724
690.8292, 311.4465
692.7577, 309.3453
694.6862, 308.3403
696.6146, 309.1240
698.5431, 310.1837
700.4716, 310.6401
702.4000, 310.9489
704.3285, 311.8155
706.2570, 313.2485
708.1854, 314.3077
710.1139, 314.3328
712.0424, 313.2356
713.9708, 312.9396
715.8993, 314.5910
717.8278, 317.0970
719.7562, 319.8567
721.6847, 321.4396
723.6132, 321.9712
725.5416, 321.9127
727.4701, 321.9518
729.3986, 322.0644
731.3270, 321.4655
733.2555, 321.2349
735.1840, 321.8011
737.1124, 322.6900
739.0409, 323.1677
740.9694, 324.4661
742.8978, 326.1376
744.8263, 327.9289
746.7548, 328.9639
748.6832, 329.0638
750.6117, 328.5816
752.5402, 328.5525
754.4686, 329.6124
756.3971, 331.0585
758.3256, 332.0399
760.2540, 331.9939
762.1825, 332.3727
764.1110, 333.2705
766.0394, 334.2534
767.9679, 335.1581
769.8964, 336.5338
771.8248, 337.7491
773.7533, 338.3544
775.6818, 338.7148
777.6102, 339.3749
779.5387, 340.3906
781.4672, 341.7360
783.3956, 343.5969
785.3241, 345.2998
787.2526, 346.3845
789.1810, 347.4459
791.1095, 348.6625
793.0380, 349.9719
794.9664, 350.8517
796.8949, 351.5971
798.8234, 353.0600
800.7518, 355.3770
802.6803, 358.7480
804.6088, 362.4113
806.5372, 366.2054
808.4657, 370.3219
810.3942, 374.8031
812.3226, 379.4104
814.2511, 384.5189
816.1796, 390.3563
818.1080, 396.5346
820.0365, 403.9682
821.9650, 412.9796
823.8934, 422.8784
825.8219, 433.0040
827.7504, 443.3544
829.6788, 454.9662
831.6073, 467.6369
833.5358, 482.1351
835.4642, 497.9156
837.3927, 515.8223
839.3212, 537.9200
841.2496, 563.9177
843.1781, 593.7229
845.1066, 627.7184
847.0350, 665.5784
848.9635, 708.3202
850.8920, 758.7745
852.8204, 811.6019
854.7489, 866.9268
856.6774, 924.6354
858.6058, 975.5965
860.5343, 1022.750
862.4628, 1060.390
864.3912, 1084.629
866.3197, 1097.471
868.2482, 1102.364
870.1766, 1093.107
872.1051, 1086.215
874.0336, 1085.427
875.9620, 1090.625
877.8905, 1103.009
879.8190, 1117.943
881.7474, 1144.629
883.6759, 1185.783
885.6044, 1240.530
887.5328, 1304.889
889.4613, 1376.359
891.3898, 1463.041
893.3182, 1566.671
895.2467, 1685.991
897.1752, 1818.747
899.1036, 1951.288
901.0321, 2119.070
902.9606, 2320.329
904.8890, 2562.012
906.8175, 2856.577
908.7460, 3211.578
910.6744, 3566.591
912.6029, 3956.469
914.5314, 4308.917
916.4598, 4570.550
918.3883, 4761.251
920.3168, 4811.980
922.2452, 4693.162
924.1737, 4461.296
926.1022, 4122.540
928.0306, 3669.771
929.9591, 3226.251
931.8876, 2787.622
933.8160, 2386.999
935.7445, 2042.634
937.6730, 1755.687
939.6014, 1517.851
941.5299, 1342.257
943.4584, 1198.776
945.3868, 1081.876
947.3153, 991.0618
949.2438, 908.8425
951.1722, 836.8903
953.1007, 773.3588
955.0292, 715.9083
956.9576, 666.0907
958.8861, 625.9581
960.8146, 598.4987
962.7430, 575.9907
964.6715, 558.7684
966.6000, 544.6049
968.5284, 531.7128
970.4569, 519.9147
972.3854, 510.7272
974.3138, 505.7747
976.2423, 502.3815
978.1708, 498.0738
980.0992, 492.5916
982.0277, 487.7564
983.9562, 483.8764
985.8846, 480.7672
987.8131, 478.9620
989.7416, 479.3194
991.6700, 478.7655
993.5985, 476.1979
995.5270, 473.3636
997.4554, 471.3490
999.3839, 470.6269
1001.312, 471.8574
1003.241, 475.3359
1005.169, 479.4207
1007.098, 483.4582
1009.026, 488.8422
1010.955, 495.6800
1012.883, 504.6593
1014.812, 513.4995
1016.740, 520.6887
1018.669, 526.4620
1020.597, 535.4186
1022.526, 550.1566
1024.454, 565.1381
1026.382, 577.4509
1028.311, 588.7217
1030.239, 603.9406
1032.168, 623.9301
1034.096, 643.6205
1036.025, 660.7913
1037.953, 677.9803
1039.882, 697.6866
1041.810, 720.6721
1043.739, 742.0228
1045.667, 761.6324
1047.596, 774.1185
1049.524, 777.3307
1051.453, 774.1042
1053.381, 764.2970
1055.309, 747.2765
1057.238, 723.7006
1059.166, 690.4181
1061.095, 652.7267
1063.023, 615.9633
1064.952, 580.7260
1066.880, 549.5760
1068.809, 522.7220
1070.737, 499.4311
1072.666, 479.6396
1074.594, 464.5374
1076.523, 452.6498
1078.451, 444.6879
1080.380, 438.3909
1082.308, 432.5009
1084.236, 426.9257
1086.165, 421.6045
1088.093, 416.4215
1090.022, 412.0914
1091.950, 409.2852
1093.879, 407.7375
1095.807, 405.0726
1097.736, 399.7426
1099.664, 395.4772
1101.593, 393.3632
1103.521, 392.6018
1105.450, 392.0819
1107.378, 392.0507
1109.307, 391.6157
1111.235, 390.4077
1113.163, 389.2611
1115.092, 388.7368
1117.020, 388.5706
1118.949, 389.2159
1120.877, 392.1028
1122.806, 394.5847
1124.734, 394.6287
1126.663, 391.7768
1128.591, 389.4613
1130.520, 389.5009
1132.448, 390.5029
1134.377, 391.9142
1136.305, 392.9900
1138.234, 393.3233
1140.162, 393.8665
1142.090, 394.4692
1144.019, 394.0981
1145.947, 393.4822
1147.876, 393.6495
1149.804, 395.2622
1151.733, 397.6256
1153.661, 400.9053
1155.590, 403.5465
1157.518, 403.9639
1159.447, 402.6128
1161.375, 402.3104
1163.304, 405.6049
1165.232, 408.8783
1167.161, 411.1910
1169.089, 412.8876
1171.017, 414.5590
1172.946, 416.5329
1174.874, 419.0343
1176.803, 422.0399
1178.731, 424.4220
1180.660, 425.2167
1182.588, 424.6556
1184.517, 423.8548
1186.445, 424.0815
1188.374, 425.6215
1190.302, 427.3408
1192.231, 428.2448
1194.159, 428.0553
1196.088, 427.1953
1198.016, 427.4820
1199.944, 429.3094
1201.873, 430.8164
1203.801, 430.7602
1205.730, 429.5346
1207.658, 428.9049
1209.587, 428.5053
1211.515, 427.6523
1213.444, 428.0063
1215.372, 429.6637
1217.301, 431.2695
1219.229, 431.8167
1221.158, 431.9787
1223.086, 432.8292
1225.015, 433.2095
1226.943, 432.2831
1228.871, 430.6772
1230.800, 430.3711
1232.728, 432.0292
1234.657, 433.2749
1236.585, 434.0462
1238.514, 433.7327
1240.442, 432.5427
1242.371, 431.2777
1244.299, 432.3374
1246.228, 434.8000
1248.156, 436.6515
1250.085, 439.5355
1252.013, 442.8173
1253.942, 443.7387
1255.870, 441.0807
1257.798, 439.8517
1259.727, 442.0679
1261.655, 444.6054
1263.584, 446.6915
1265.512, 448.7866
1267.441, 450.6449
1269.369, 450.2620
1271.298, 450.4237
1273.226, 452.4642
1275.155, 455.3781
1277.083, 458.0349
1279.012, 460.5319
1280.940, 461.9145
1282.869, 461.5007
1284.797, 461.1505
1286.725, 461.6479
1288.654, 462.3919
1290.582, 462.0327
1292.511, 460.1874
1294.439, 458.6833
1296.368, 458.3949
1298.296, 458.7610
1300.225, 459.6700
1302.153, 461.1251
1304.082, 461.3343
1306.010, 458.7221
1307.939, 456.5499
1309.867, 456.5497
1311.796, 457.3173
1313.724, 457.4149
1315.652, 457.7543
1317.581, 458.3594
1319.509, 458.4671
1321.438, 459.5606
1323.366, 460.2534
1325.295, 461.1458
1327.223, 461.6248
1329.152, 461.0547
1331.080, 460.4358
1333.009, 460.3733
1334.937, 460.8539
1336.866, 462.0710
1338.794, 463.5821
1340.723, 464.6235
1342.651, 465.3189
1344.579, 466.1855
1346.508, 466.6907
1348.436, 466.2516
1350.365, 465.4371
1352.293, 464.2066
1354.222, 463.3255
1356.150, 462.8304
1358.079, 463.3821
1360.007, 464.8739
1361.936, 466.6304
1363.864, 468.4321
1365.793, 470.3928
1367.721, 472.8757
1369.650, 476.4285
1371.578, 479.2821
1373.506, 480.4657
1375.435, 480.6036
1377.363, 481.6835
1379.292, 484.1920
1381.220, 485.9918
1383.149, 486.1987
1385.077, 485.9308
1387.006, 485.7091
1388.934, 485.4760
1390.863, 486.4620
1392.791, 489.3005
1394.720, 491.4301
1396.648, 491.0463
1398.577, 490.6894
1400.505, 491.9737
1402.433, 494.3980
1404.362, 497.5478
1406.290, 502.2799
1408.219, 505.5539
1410.147, 505.2022
1412.076, 504.6982
1414.004, 506.2227
1415.933, 509.1903
1417.861, 511.1612
1419.790, 511.4063
1421.718, 511.6916
1423.647, 511.7730
1425.575, 512.5197
1427.504, 514.3149
1429.432, 516.5895
1431.360, 518.7798
1433.289, 520.9720
1435.217, 523.0504
1437.146, 525.2465
1439.074, 526.9484
1441.003, 527.2213
1442.931, 526.7728
1444.860, 527.9263
1446.788, 531.1866
1448.717, 534.3558
1450.645, 537.3253
1452.574, 539.6053
1454.502, 540.3094
1456.431, 540.0359
1458.359, 540.6205
1460.287, 542.3200
1462.216, 544.3893
1464.144, 546.8556
1466.073, 549.2817
1468.001, 551.4431
1469.930, 553.5912
1471.858, 556.4694
1473.787, 560.7619
1475.715, 563.6010
1477.644, 563.3619
1479.572, 562.9940
1481.501, 563.2747
1483.429, 564.2535
1485.358, 566.1533
1487.286, 569.0081
1489.214, 572.5522
1491.143, 578.4868
1493.071, 583.0229
1495.000, 584.1620
1496.928, 583.3341
1498.857, 582.7373
1500.785, 582.3350
1502.714, 582.9039
1504.642, 585.5660
1506.571, 587.8452
1508.499, 587.8650
1510.428, 587.6950
1512.356, 591.0106
1514.285, 597.6971
1516.213, 600.2098
1518.141, 595.1393
1520.070, 591.3792
1521.998, 592.6859
1523.927, 595.9272
1525.855, 598.6906
1527.784, 600.9228
1529.712, 602.1895
1531.641, 602.2540
1533.569, 602.1044
1535.498, 601.2927
1537.426, 601.1150
1539.355, 602.7386
1541.283, 605.6137
1543.212, 608.2618
1545.140, 610.6476
1547.068, 612.9977
1548.997, 616.2384
1550.925, 618.0499
1552.854, 615.7690
1554.782, 612.1031
1556.711, 612.5117
1558.639, 617.7072
1560.568, 621.1891
1562.496, 621.6912
1564.425, 621.1739
1566.353, 619.3639
1568.282, 617.8204
1570.210, 618.3900
1572.139, 621.1826
1574.067, 623.3586
1575.995, 624.8820
1577.924, 625.8285
1579.852, 625.3413
1581.781, 624.9820
1583.709, 625.9144
1585.638, 627.7393
1587.566, 629.3478
1589.495, 631.3123
1591.423, 632.3217
1593.352, 630.8960
1595.280, 630.2777
1597.209, 633.0257
1599.137, 636.8450
1601.066, 637.7474
1602.994, 634.8043
1604.922, 633.4044
1606.851, 635.2532
1608.779, 636.2274
1610.708, 634.5808
1612.636, 632.6995
1614.565, 632.8849
1616.493, 634.6838
1618.422, 635.6791
1620.350, 635.5549
1622.279, 635.6519
1624.207, 636.6739
1626.136, 637.1828
1628.064, 635.6165
1629.993, 633.4086
1631.921, 632.8971
1633.849, 634.1996
1635.778, 635.5197
1637.706, 637.3807
1639.635, 638.4549
1641.563, 638.0984
1643.492, 637.4013
1645.420, 637.1522
1647.349, 637.2466
1649.277, 637.1921
1651.206, 636.7654
1653.134, 637.0864
1655.063, 638.8207
1656.991, 640.4921
1658.920, 642.0803
1660.848, 643.0465
1662.776, 642.3384
1664.705, 640.2426
1666.633, 639.3109
1668.562, 639.7096
1670.490, 640.8699
1672.419, 644.1708
1674.347, 646.4135
1676.276, 644.8382
1678.204, 641.4786
1680.133, 639.8029
1682.061, 639.7692
1683.990, 639.7806
1685.918, 640.2372
1687.847, 639.9365
1689.775, 637.6653
1691.703, 635.6167
1693.632, 635.4634
1695.560, 636.6313
1697.489, 637.7028
1699.417, 638.6292
1701.346, 639.7982
1703.274, 641.7145
1705.203, 643.0112
1707.131, 642.8193
1709.060, 642.2482
1710.988, 641.8273
1712.917, 641.7919
1714.845, 643.1541
1716.774, 646.2812
1718.702, 648.3173
1720.630, 648.9465
1722.559, 648.2700
1724.487, 644.9091
1726.416, 641.3826
1728.344, 640.5865
1730.273, 641.8051
1732.201, 641.5350
1734.130, 639.2536
1736.058, 638.0981
1737.987, 639.3668
1739.915, 640.6217
1741.844, 640.9188
1743.772, 640.9009
1745.701, 641.2969
1747.629, 641.9673
1749.557, 642.0766
1751.486, 641.3312
1753.414, 641.1629
1755.343, 642.5751
1757.271, 643.3922
1759.200, 641.8491
1761.128, 640.1668
1763.057, 641.1808
1764.985, 644.0701
1766.914, 644.7161
1768.842, 642.3079
1770.771, 640.6139
1772.699, 639.7534
1774.628, 639.8498
1776.556, 641.5991
1778.484, 643.7241
1780.413, 644.8786
1782.341, 645.3800
1784.270, 646.6864
1786.198, 649.4171
1788.127, 650.7241
1790.055, 649.9770
1791.984, 648.8642
1793.912, 647.6010
1795.841, 646.4766
1797.769, 645.7791
1799.698, 645.4383
1801.626, 645.0425
1803.555, 644.3131
1805.483, 644.6848
1807.411, 646.5644
1809.340, 648.6563
1811.268, 651.9847
1813.197, 653.9644
1815.125, 651.6824
1817.054, 648.0594
1818.982, 648.2939
1820.911, 652.5962
1822.839, 654.1456
1824.768, 652.0243
1826.696, 649.6409
1828.625, 646.0994
1830.553, 644.0930
1832.482, 645.7405
1834.410, 648.2936
1836.339, 649.3429
1838.267, 648.9651
1840.195, 647.2237
1842.124, 643.7638
1844.052, 641.8801
1845.981, 642.5214
1847.909, 643.5941
1849.838, 644.7985
1851.766, 645.8490
1853.695, 646.3859
1855.623, 646.7079
1857.552, 647.6599
1859.480, 649.0349
1861.409, 648.6851
1863.337, 645.8416
1865.266, 644.0934
1867.194, 645.2300
1869.122, 646.0323
1871.051, 644.3115
1872.979, 642.1530
1874.908, 641.6917
1876.836, 642.3596
1878.765, 642.2743
1880.693, 641.2688
1882.622, 641.8788
1884.550, 645.6743
1886.479, 648.1898
1888.407, 648.2848
1890.336, 646.9392
1892.264, 643.0914
1894.193, 639.1928
1896.121, 639.2075
1898.049, 642.5082
1899.978, 643.9697
1901.906, 642.6654
1903.835, 641.7899
1905.763, 641.0048
1907.692, 641.0523
1909.620, 643.1756
1911.549, 644.9348
1913.477, 643.9915
1915.406, 642.1295
1917.334, 642.5624
1919.263, 645.2125
1921.191, 646.7319
1923.120, 647.2286
1925.048, 646.1574
1926.976, 641.9965
1928.905, 638.7933
1930.833, 637.5997
1932.762, 637.9427
1934.690, 640.8900
1936.619, 644.4423
1938.547, 644.9801
1940.476, 643.0384
1942.404, 642.1100
1944.333, 642.6249
1946.261, 642.4369
1948.190, 640.7399
1950.118, 639.4410
1952.047, 640.1093
1953.975, 640.4779
1955.904, 637.9033
1957.832, 634.7842
1959.760, 635.5469
1961.689, 639.3638
1963.617, 639.7151
1965.546, 635.1321
1967.474, 632.5883
1969.403, 633.8215
1971.331, 635.0323
1973.260, 635.7616
1975.188, 636.0739
1977.117, 635.7554
1979.045, 635.2253
1980.974, 634.6719
1982.902, 634.3024
1984.831, 635.5758
1986.759, 635.0634
1988.688, 634.6879
1990.616, 636.1873
1992.544, 634.0386
1994.473, 636.2193
1996.401, 637.7318
1998.330, 633.9553
2000.258, 631.0969
2002.187, 636.9208
2004.115, 645.6500
2006.044, 645.3389
2007.972, 637.2672
2009.901, 632.7720
2011.829, 632.8990
2013.758, 633.9509
2015.686, 636.5363
2017.615, 638.0055
2019.543, 636.9330
2021.471, 635.5150
2023.400, 634.6220
2025.328, 634.3795
2027.257, 634.8059
2029.185, 635.9384
2031.114, 638.5355
2033.042, 638.3796
2034.971, 638.1301
2036.899, 639.5391
2038.828, 638.7405
2040.756, 637.2788
2042.685, 637.9619
2044.613, 636.8969
2046.542, 635.9966
2048.470, 637.0475
2050.398, 638.5842
2052.327, 638.5461
2054.255, 637.3821
2056.184, 636.0942
2058.112, 634.6686
2060.041, 635.2115
2061.969, 638.7949
2063.898, 641.0961
2065.826, 641.2400
2067.755, 639.9889
2069.683, 635.5179
2071.612, 632.1059
2073.540, 633.3825
2075.469, 636.8820
2077.397, 639.7477
2079.325, 641.9252
2081.254, 643.3139
2083.182, 644.0026
2085.111, 642.7354
2087.039, 638.4405
2088.968, 636.0905
2090.896, 637.8983
2092.825, 638.4932
2094.753, 634.9517
2096.682, 631.2782
2098.610, 628.9801
2100.539, 628.4068
2102.467, 631.5208
2104.396, 636.0856
2106.324, 636.5812
2108.252, 633.2180
2110.181, 631.1394
2112.109, 630.7029
2114.038, 630.5538
2115.966, 631.3491
2117.895, 631.4388
2119.823, 630.2160
2121.752, 628.8597
2123.680, 627.6064
2125.609, 626.5269
2127.537, 625.0674
2129.466, 624.1385
2131.394, 625.8356
2133.323, 625.1994
2135.251, 625.8820
2137.179, 627.2935
2139.108, 627.2970
2141.036, 630.4280
2142.965, 631.9561
2144.893, 630.1639
2146.822, 628.7731
2148.750, 629.6593
2150.679, 629.9158
2152.607, 627.4934
2154.536, 624.7980
2156.464, 623.6877
2158.393, 623.5895
2160.321, 623.7117
2162.250, 624.0628
2164.178, 624.6707
2166.106, 625.5197
2168.035, 626.9222
2169.963, 629.0446
2171.892, 630.5759
2173.820, 631.8065
2175.749, 630.9164
2177.677, 624.6930
2179.606, 620.2526
2181.534, 621.3027
2183.463, 624.1531
2185.391, 627.4009
2187.320, 630.0493
2189.248, 630.3494
2191.177, 631.6817
2193.105, 629.4166
2195.033, 630.7877
2196.962, 630.1705
2198.890, 627.3329
2200.819, 626.0419
2202.747, 627.3319
2204.676, 626.9742
2206.604, 622.9240
2208.533, 620.2204
2210.461, 621.3517
2212.390, 623.2292
2214.318, 624.2250
2216.247, 625.4329
2218.175, 628.6886
2220.104, 631.8458
2222.032, 631.2885
2223.960, 628.2800
2225.889, 626.5509
2227.817, 626.1273
2229.746, 627.4218
2231.674, 630.7057
2233.603, 632.1640
2235.531, 631.1816
2237.460, 629.8688
2239.388, 628.0905
2241.317, 627.1975
2243.245, 627.7557
2245.174, 628.9630
2247.102, 631.4994
2249.031, 633.3719
2250.959, 632.6781
2252.887, 631.0475
2254.816, 629.9891
2256.744, 629.5592
2258.673, 630.1000
2260.601, 631.3517
2262.530, 632.5130
2264.458, 633.4423
2266.387, 632.0947
2268.315, 627.7827
2270.244, 626.1120
2272.172, 629.2665
2274.101, 631.5480
2276.029, 631.3917
2277.958, 631.3932
2279.886, 633.0443
2281.814, 633.7981
2283.743, 631.1842
2285.671, 628.7307
2287.600, 629.5518
2289.528, 627.9580
2291.457, 630.2543
2293.385, 628.6272
2295.314, 629.6711
2297.242, 632.4853
2299.171, 633.9857
2301.099, 634.1766
2303.028, 633.0941
2304.956, 630.1348
2306.885, 628.2836
2308.813, 627.4141
2310.741, 628.3008
2312.670, 632.4315
2314.598, 634.6786
2316.527, 632.5323
2318.455, 631.1860
2320.384, 632.8964
2322.312, 635.5350
2324.241, 639.2073
2326.169, 641.9158
2328.098, 641.2643
2330.026, 639.5410
2331.955, 639.6473
2333.883, 638.7018
2335.812, 637.7695
2337.740, 637.7102
2339.668, 636.5504
2341.597, 636.1347
2343.525, 636.5607
2345.454, 637.8400
2347.382, 636.7422
2349.311, 632.2264
2351.239, 629.6093
2353.168, 630.7797
2355.096, 631.3415
2357.025, 629.5057
2358.953, 629.2496
2360.882, 632.4084
2362.810, 635.5107
2364.739, 638.2670
2366.667, 639.5073
2368.595, 637.3193
2370.524, 634.7993
2372.452, 634.5816
2374.381, 634.8920
2376.309, 633.3615
2378.238, 631.3913
2380.166, 631.5555
2382.095, 633.1400
2384.023, 634.3089
2385.952, 635.0716
2387.880, 635.1440
2389.809, 634.6036
2391.737, 634.1671
2393.666, 633.8101
2395.594, 634.3669
2397.522, 634.0784
2399.451, 633.9359
2401.379, 634.9417
2403.308, 634.2148
2405.236, 636.0623
2407.165, 637.9982
2409.093, 640.4451
2411.022, 641.4016
2412.950, 639.2628
2414.879, 637.2399
2416.807, 636.8334
2418.736, 637.1686
2420.664, 638.6697
2422.593, 639.6036
2424.521, 636.9797
2426.449, 634.3905
2428.378, 637.0135
2430.306, 641.5341
2432.235, 643.0245
2434.163, 642.3350
2436.092, 640.2628
2438.020, 637.7593
2439.949, 638.9434
2441.877, 642.9929
2443.806, 641.9464
2445.734, 635.3057
2447.663, 634.0458
2449.591, 639.2719
2451.520, 642.5912
2453.448, 643.4489
2455.376, 644.2555
2457.305, 645.0399
2459.233, 646.7881
2461.162, 645.6238
2463.090, 642.7010
2465.019, 643.0073
2466.947, 635.8842
2468.876, 633.0077
2470.804, 633.4090
2472.733, 639.9551
2474.661, 644.5024
2476.590, 641.8991
2478.518, 639.0176
2480.447, 639.6450
2482.375, 641.3675
2484.303, 643.4401
2486.232, 644.8960
2488.160, 643.9598
2490.089, 642.9984
2492.017, 645.5847
2493.946, 649.0838
2495.874, 649.9354
2497.803, 649.0182
2499.731, 646.7220
2501.660, 644.2135
2503.588, 644.9160
2505.517, 647.6578
2507.445, 647.8655
2509.374, 645.9630
2511.302, 645.5380
2513.230, 646.4750
2515.159, 648.1057
2517.087, 650.2545
2519.016, 649.4044
2520.944, 645.0782
2522.873, 642.5281
2524.801, 642.0167
2526.730, 643.5796
2528.658, 648.3168
2530.587, 651.0535
2532.515, 651.2587
2534.444, 649.6580
2536.372, 645.1898
2538.301, 643.3500
2540.229, 646.9120
2542.157, 649.7311
2544.086, 650.5883
2546.014, 650.8556
2547.943, 650.2155
2549.871, 650.2438
2551.800, 651.7077
2553.728, 653.1080
2555.657, 653.8057
2557.585, 654.2699
2559.514, 654.7506
2561.442, 654.8717
2563.371, 654.2100
2565.299, 653.4501
2567.228, 653.1838
2569.156, 652.7292
2571.084, 650.4142
2573.013, 649.4189
2574.941, 654.3883
2576.870, 659.0325
2578.798, 656.5676
2580.727, 652.5375
2582.655, 652.0341
2584.584, 653.5558
2586.512, 656.5597
2588.441, 659.5566
2590.369, 660.6158
2592.298, 660.6439
2594.226, 660.7689
2596.155, 660.7201
2598.083, 659.7993
2600.011, 658.5605
2601.940, 658.0435
2603.868, 658.1843
2605.797, 659.4076
2607.725, 660.8871
2609.654, 660.3512
2611.582, 658.5031
2613.511, 657.0277
2615.439, 656.0001
2617.368, 655.9125
2619.296, 656.6171
2621.225, 658.0012
2623.153, 659.6388
2625.082, 659.0330
2627.010, 661.1922
2628.938, 658.3130
2630.867, 662.9615
2632.795, 664.3649
2634.724, 662.6941
2636.652, 664.1147
2638.581, 668.1768
2640.509, 669.6082
2642.438, 668.3646
2644.366, 667.2147
2646.295, 666.1807
2648.223, 664.9754
2650.152, 663.4031
2652.080, 663.7854
2654.009, 666.1775
2655.937, 664.1584
2657.865, 657.5233
2659.794, 655.1668
2661.722, 658.4404
2663.651, 660.6327
2665.579, 661.3700
2667.508, 662.1851
2669.436, 663.0123
2671.365, 663.8228
2673.293, 664.6122
2675.222, 664.5399
2677.150, 663.3373
2679.079, 662.7583
2681.007, 662.9081
2682.936, 663.7719
2684.864, 665.3510
2686.792, 668.3106
2688.721, 669.0632
2690.649, 669.9097
2692.578, 671.9015
2694.506, 670.8678
2696.435, 672.1746
2698.363, 673.8420
2700.292, 676.1859
2702.220, 676.2152
2704.149, 673.5059
2706.077, 671.6208
2708.006, 670.9548
2709.934, 670.9871
2711.863, 672.1506
2713.791, 671.9940
2715.719, 670.1363
2717.648, 670.2344
2719.576, 672.5993
2721.505, 675.9880
2723.433, 681.0962
2725.362, 681.8873
2727.290, 676.8762
2729.219, 673.2424
2731.147, 670.9930
2733.076, 671.2623
2735.004, 674.2095
2736.933, 675.8061
2738.861, 675.2977
2740.790, 676.7254
2742.718, 677.7740
2744.646, 678.0787
2746.575, 680.2719
2748.503, 679.8488
2750.432, 680.9042
2752.360, 682.7518
2754.289, 685.4534
2756.217, 685.1393
2758.146, 681.4960
2760.074, 680.6296
2762.003, 682.1935
2763.931, 682.9492
2765.860, 682.7310
2767.788, 680.3982
2769.717, 676.3383
2771.645, 674.9229
2773.573, 676.0137
2775.502, 678.7737
2777.430, 682.4738
2779.359, 683.8341
2781.287, 683.1617
2783.216, 681.4622
2785.144, 679.3759
2787.073, 680.2467
2789.001, 679.8283
2790.930, 682.9539
2792.858, 681.6037
2794.787, 682.2028
2796.715, 683.6306
2798.644, 683.0670
2800.572, 681.4785
2802.500, 680.7130
2804.429, 680.6406
2806.357, 680.9196
2808.286, 681.9796
2810.214, 685.2800
2812.143, 689.0758
2814.071, 691.5157
2816.000, 692.4822
2817.928, 690.8976
2819.857, 688.6766
2821.785, 686.9380
2823.714, 686.1365
2825.642, 686.9186
2827.571, 688.5183
2829.499, 692.3171
2831.427, 694.0895
2833.356, 688.7798
2835.284, 684.1509
2837.213, 685.8879
2839.141, 688.2269
2841.070, 687.9130
2842.998, 687.8394
2844.927, 689.2281
2846.855, 690.6234
2848.784, 691.1481
2850.712, 691.9215
2852.641, 694.2806
2854.569, 694.9574
2856.498, 692.3817
2858.426, 691.1351
2860.354, 693.0674
2862.283, 693.5880
2864.211, 689.9118
2866.140, 688.6006
2868.068, 690.6586
2869.997, 692.1659
2871.925, 692.7737
2873.854, 693.4371
2875.782, 694.1934
2877.711, 695.5470
2879.639, 695.7999
2881.568, 695.7964
2883.496, 696.4174
2885.425, 695.3682
2887.353, 694.9821
2889.281, 695.4920
2891.210, 696.8666
2893.138, 699.4125
2895.067, 698.9896
2896.995, 701.5369
2898.924, 698.8939
2900.852, 697.3279
2902.781, 696.6308
2904.709, 696.3054
2906.638, 696.8020
2908.566, 700.4896
2910.495, 703.5014
2912.423, 700.8060
2914.352, 697.3942
2916.280, 697.7174
2918.208, 698.6957
2920.137, 698.1520
2922.065, 697.6397
2923.994, 697.7909
2925.922, 698.1981
2927.851, 699.1772
2929.779, 699.5443
2931.708, 698.8363
2933.636, 698.2190
2935.565, 697.9071
2937.493, 698.0696
2939.422, 697.9343
2941.350, 700.7169
2943.279, 701.4074
2945.207, 701.5955
2947.135, 704.4989
2949.064, 701.8045
2950.992, 701.9884
2952.921, 702.3005
2954.849, 702.6771
2956.778, 700.0937
2958.706, 695.9848
2960.635, 695.7429
2962.563, 697.7896
2964.492, 698.3931
2966.420, 698.3080
2968.349, 698.4132
2970.277, 699.1440
2972.206, 702.0375
2974.134, 704.4495
2976.063, 703.7460
2977.991, 702.0177
2979.919, 700.1332
2981.848, 698.8108
2983.776, 698.1027
2985.705, 698.6058
2987.633, 701.2723
2989.562, 703.6060
2991.490, 704.6489
2993.419, 706.8356
2995.347, 711.2842
2997.276, 713.1527
2999.204, 711.3532
3001.133, 708.1450
3003.061, 703.5453
3004.990, 702.6987
3006.918, 701.0708
3008.846, 704.3679
3010.775, 701.6230
3012.703, 702.5169
3014.632, 705.4755
3016.560, 706.5677
3018.489, 707.2433
3020.417, 710.3444
3022.346, 713.2758
3024.274, 713.1620
3026.203, 711.7196
3028.131, 709.1495
3030.060, 707.3210
3031.988, 707.2988
3033.917, 708.0466
3035.845, 709.7401
3037.773, 710.9503
3039.702, 711.5528
3041.630, 711.0928
3043.559, 708.7894
3045.487, 707.9500
3047.416, 708.7983
3049.344, 708.7115
3051.273, 707.9161
3053.201, 709.8832
3055.130, 713.2573
3057.058, 711.1786
3058.987, 706.7475
3060.915, 707.4437
3062.844, 710.0183
3064.772, 710.7164
3066.700, 710.9476
3068.629, 711.4439
3070.557, 712.8672
3072.486, 716.8826
3074.414, 719.1119
3076.343, 716.1342
3078.271, 713.9135
3080.200, 714.1927
3082.128, 712.8745
3084.057, 709.0972
3085.985, 706.9562
3087.914, 706.9393
3089.842, 707.8173
3091.771, 709.5471
3093.699, 712.4290
3095.627, 715.6168
3097.556, 717.1541
3099.484, 717.0326
3101.413, 713.6626
3103.341, 710.5228
3105.270, 711.0592
3107.198, 712.9550
3109.127, 716.4097
3111.055, 717.7635
3112.984, 714.8130
3114.912, 712.1456
3116.841, 710.6164
3118.769, 710.8916
3120.698, 713.9965
3122.626, 715.1219
3124.554, 714.1893
3126.483, 712.4286
3128.411, 710.2935
3130.340, 710.4089
3132.268, 711.8303
3134.197, 712.0162
3136.125, 711.9442
3138.054, 713.5580
3139.982, 714.5167
3141.911, 711.0322
3143.839, 709.1559
3145.768, 713.1415
3147.696, 715.5026
3149.625, 711.5579
3151.553, 710.4778
3153.481, 713.8932
3155.410, 714.9947
3157.338, 713.2765
3159.267, 711.7598
3161.195, 710.7809
3163.124, 713.5809
3165.052, 712.0131
3166.981, 715.7916
3168.909, 712.8215
3170.838, 715.1866
3172.766, 717.8012
3174.695, 716.7169
3176.623, 715.2991
3178.552, 714.5006
3180.480, 714.6393
3182.408, 715.6896
3184.337, 718.3938
3186.265, 717.9379
3188.194, 718.2523
3190.122, 718.4559
3192.051, 716.6119
3193.979, 716.6456
3195.908, 714.9613
3197.836, 713.8444
3199.765, 718.0190
3201.693, 722.3073
3203.622, 720.8560
3205.550, 720.0355
3207.479, 723.7051
3209.407, 726.0791
3211.335, 725.5388
3213.264, 723.6139
3215.192, 720.4025
3217.121, 717.4980
3219.049, 715.3480
3220.978, 717.4969
3222.906, 716.0272
3224.835, 720.5012
3226.763, 718.4364
3228.692, 723.4469
3230.620, 728.2274
3232.549, 725.8233
3234.477, 724.1989
3236.406, 728.7889
3238.334, 728.4618
3240.262, 718.4331
3242.191, 714.1923
3244.119, 716.3448
3246.048, 720.9593
3247.976, 726.5023
3249.905, 725.8972
3251.833, 722.8230
3253.762, 724.2767
3255.690, 726.7453
3257.619, 726.9545
3259.547, 727.4766
3261.476, 730.5901
3263.404, 731.2062
3265.333, 726.3632
3267.261, 724.1381
3269.189, 725.3522
3271.118, 724.2280
3273.046, 724.4429
3274.975, 725.3106
3276.903, 725.2221
3278.832, 726.5981
3280.760, 727.1569
3282.689, 726.9521
3284.617, 726.9624
3286.546, 727.7139
3288.474, 728.7781
3290.403, 730.2606
3292.331, 730.2443
3294.260, 728.0912
3296.188, 729.2339
3298.116, 732.2401
3300.045, 728.2699
3301.973, 729.5941
3303.902, 724.5031
3305.830, 727.2114
3307.759, 724.1121
3309.687, 721.2638
3311.616, 722.0520
3313.544, 721.8444
3315.473, 719.4941
3317.401, 720.9506
3319.330, 726.2227
3321.258, 728.2609
3323.187, 727.7715
3325.115, 726.1921
3327.043, 724.7767
3328.972, 725.1237
3330.900, 726.0377
3332.829, 728.2458
3334.757, 727.4816
3336.686, 727.1976
3338.614, 719.1714
3340.543, 723.6112
3342.471, 722.5629
3344.400, 718.5372
3346.328, 722.4547
3348.257, 728.9417
3350.185, 729.8098
3352.114, 728.7286
3354.042, 727.0986
3355.970, 726.6394
3357.899, 726.6757
3359.827, 726.7171
3361.756, 728.0244
3363.684, 727.9281
3365.613, 729.3087
3367.541, 729.6599
3369.470, 729.2701
3371.398, 727.4784
3373.327, 726.9120
3375.255, 727.2944
3377.184, 726.6500
3379.112, 729.5593
3381.041, 727.5028
3382.969, 730.4993
3384.897, 732.5453
3386.826, 733.7421
3388.754, 734.6833
3390.683, 734.9525
3392.611, 732.9849
3394.540, 731.3725
3396.468, 732.4586
3398.397, 732.9116
3400.325, 731.4119
3402.254, 728.6322
3404.182, 724.7177
3406.111, 729.3696
3408.039, 738.8893
3409.968, 739.3041
3411.896, 735.4843
3413.824, 732.0896
3415.753, 729.7770
3417.681, 729.0827
3419.610, 729.7446
3421.538, 729.6297
3423.467, 732.8245
3425.395, 731.8824
3427.324, 733.0445
3429.252, 734.7241
3431.181, 733.2672
3433.109, 730.9510
3435.038, 729.2428
3436.966, 728.7969
3438.895, 730.8646
3440.823, 730.0205
3442.751, 729.9929
3444.680, 731.1927
3446.608, 729.5942
3448.537, 732.5768
3450.465, 734.0991
3452.394, 734.4323
3454.322, 733.5092
3456.251, 728.6749
3458.179, 728.4285
3460.108, 728.1348
3462.036, 727.8855
3463.965, 730.1337
3465.893, 729.7316
3467.822, 732.0276
3469.750, 731.5837
3471.678, 731.2711
3473.607, 734.2648
3475.535, 735.0789
3477.464, 735.7023
3479.392, 736.7952
3481.321, 735.8115
3483.249, 736.0688
3485.178, 733.6752
3487.106, 730.1069
3489.035, 727.6384
3490.963, 729.1689
3492.892, 730.6566
3494.820, 730.5570
3496.749, 733.3471
3498.677, 733.5508
3500.605, 734.0272
3502.534, 734.9559
3504.462, 733.9845
3506.391, 734.1946
3508.319, 733.2690
3510.248, 733.3815
3512.176, 733.0851
3514.105, 736.3563
3516.033, 733.7501
3517.962, 734.8697
3519.890, 737.6414
3521.819, 736.7130
3523.747, 734.7614
3525.676, 732.8797
3527.604, 733.3583
3529.532, 739.7950
3531.461, 741.7775
3533.389, 739.2223
3535.318, 734.1409
3537.246, 729.4124
3539.175, 731.3907
3541.103, 736.3986
3543.032, 744.9288
3544.960, 748.4985
3546.889, 743.2938
3548.817, 742.9796
3550.746, 747.4722
3552.674, 747.5020
3554.603, 745.2310
3556.531, 744.0415
3558.459, 743.3116
3560.388, 741.9644
3562.316, 743.1865
3564.245, 747.6939
3566.173, 750.3336
3568.102, 751.0985
3570.030, 750.7890
3571.959, 750.4528
3573.887, 750.4191
3575.816, 752.7440
3577.744, 753.4009
3579.673, 753.9573
3581.601, 756.7362
3583.530, 755.0023
3585.458, 756.1630
3587.386, 756.8292
3589.315, 759.5513
3591.243, 759.5929
3593.172, 760.8291
3595.100, 764.0607
3597.029, 763.6935
3598.957, 773.0231
3600.886, 778.1376
3602.814, 779.1779
3604.743, 772.6512
3606.671, 769.6352
3608.600, 776.5915
3610.528, 780.9086
3612.457, 780.3529
3614.385, 778.0956
3616.313, 776.0029
3618.242, 779.3259
3620.170, 783.3882
3622.099, 784.2068
3624.027, 784.9129
3625.956, 786.4551
3627.884, 784.1415
3629.813, 786.4737
3631.741, 782.8004
3633.670, 788.0385
3635.598, 787.8168
3637.527, 786.3221
3639.455, 784.5753
3641.384, 784.3696
3643.312, 785.7390
3645.240, 785.5355
3647.169, 784.7159
3649.097, 785.0947
3651.026, 785.1099
3652.954, 783.3979
3654.883, 784.1024
3656.811, 783.9056
3658.740, 782.6467
3660.668, 783.7823
3662.597, 780.6655
3664.525, 778.7056
3666.454, 777.8287
3668.382, 778.7761
3670.311, 778.1866
3672.239, 782.5778
3674.167, 779.7032
3676.096, 781.6415
3678.024, 783.7012
3679.953, 780.3948
3681.881, 778.2369
3683.810, 779.1382
3685.738, 781.2050
3687.667, 783.3711
3689.595, 778.6432
3691.524, 774.9886
3693.452, 785.1289
3695.381, 791.0507
3697.309, 786.4167
3699.238, 782.2682
3701.166, 779.5883
3703.094, 782.1196
3705.023, 785.4765
3706.951, 783.9232
3708.880, 783.2880
3710.808, 786.0285
3712.737, 785.1668
3714.665, 786.3746
3716.594, 786.8010
3718.522, 787.2175
3720.451, 786.5857
3722.379, 785.2357
3724.308, 783.8766
3726.236, 784.6462
3728.165, 787.2803
3730.093, 789.8046
3732.021, 791.6033
3733.950, 791.0696
3735.878, 791.3674
3737.807, 793.5385
3739.735, 795.3075
3741.664, 796.3613
3743.592, 795.0223
3745.521, 793.9208
3747.449, 795.0772
3749.378, 800.0848
3751.306, 795.7827
3753.235, 806.8438
3755.163, 793.3770
3757.092, 795.4345
3759.020, 801.5465
3760.948, 802.8002
3762.877, 803.1069
3764.805, 803.1001
3766.734, 806.0114
3768.662, 810.6532
3770.591, 815.0552
3772.519, 816.0367
3774.448, 807.3016
3776.376, 803.9044
3778.305, 807.7623
3780.233, 809.1295
3782.162, 809.2862
3784.090, 812.1502
3786.019, 814.4062
3787.947, 812.9815
3789.875, 813.0836
3791.804, 815.1730
3793.732, 821.2070
3795.661, 826.9396
3797.589, 824.4767
3799.518, 823.8571
3801.446, 830.6891
3803.375, 833.5934
3805.303, 833.3514
3807.232, 836.9391
3809.160, 840.6863
3811.089, 839.9655
3813.017, 842.1141
3814.946, 844.7669
3816.874, 846.4221
3818.802, 850.0609
3820.731, 851.6989
3822.659, 854.2376
3824.588, 856.4401
3826.516, 858.6110
3828.445, 860.7777
3830.373, 864.5696
3832.302, 868.1883
3834.230, 868.6119
3836.159, 868.8874
3838.087, 869.7804
3840.016, 872.6864
3841.944, 877.1154
3843.873, 881.3317
3845.801, 885.0029
3847.729, 887.6693
3849.658, 890.4205
3851.586, 893.5619
3853.515, 890.4840
3855.443, 885.7752
3857.372, 886.9567
3859.300, 890.2349
3861.229, 894.6694
3863.157, 895.8557
3865.086, 894.4100
3867.014, 896.5599
3868.943, 897.4039
3870.871, 890.6868
3872.800, 886.1569
3874.728, 885.4220
3876.656, 893.1567
3878.585, 902.5886
3880.513, 900.4581
3882.442, 897.1472
3884.370, 896.7855
3886.299, 896.9459
3888.227, 897.4535
3890.156, 897.8787
3892.084, 897.2246
3894.013, 896.2617
3895.941, 892.3511
3897.870, 892.8088
3899.798, 890.6840
3901.727, 888.2181
3903.655, 889.5995
3905.583, 890.0563
3907.512, 887.8820
3909.440, 886.6455
3911.369, 885.8742
3913.297, 885.0588
3915.226, 884.4174
3917.154, 884.5998
3919.083, 885.6061
3921.011, 886.4105
3922.940, 884.9753
3924.868, 881.9692
3926.797, 877.1879
3928.725, 873.4015
3930.654, 870.8776
3932.582, 870.1043
3934.510, 871.2666
3936.439, 874.7137
3938.367, 876.9933
3940.296, 876.9142
3942.224, 875.5671
3944.153, 874.2554
3946.081, 872.9987
3948.010, 874.7370
3949.938, 883.1774
3951.867, 886.1107
3953.795, 882.9316
3955.724, 880.2004
3957.652, 880.5728
3959.581, 877.3917
3961.509, 877.4190
3963.438, 876.1158
3965.366, 877.8890
3967.294, 883.1385
3969.223, 886.1173
3971.151, 886.0804
3973.080, 882.8812
3975.008, 882.1221
3976.937, 883.9404
3978.865, 890.1780
3980.794, 893.6365
3982.722, 889.7045
3984.651, 888.4122
3986.579, 889.8134
3988.508, 891.9541
3990.436, 892.6747
3992.365, 890.8701
3994.293, 891.0220
3996.221, 892.2313
3998.150, 888.6237
4000.078, 884.6765
4002.007, 882.8615
4003.935, 884.3617
4005.864, 888.4046
4007.792, 888.6432
4009.721, 887.0021
4011.649, 883.8723
4013.578, 883.5007
4015.506, 885.9301
4017.435, 885.4256
4019.363, 883.6294
4021.292, 880.5435
4023.220, 876.8927
4025.148, 873.9727
4027.077, 876.5386
4029.005, 879.6896
4030.934, 872.1151
4032.862, 866.7918
4034.791, 871.0204
4036.719, 873.0532
4038.648, 872.8530
4040.576, 873.0862
4042.505, 872.9304
4044.433, 868.7643
4046.362, 870.5660
4048.290, 866.0827
4050.219, 862.6642
4052.147, 860.9581
4054.075, 860.1882
4056.004, 858.7892
4057.932, 858.1089
4059.861, 857.1606
4061.789, 857.5502
4063.718, 855.7493
4065.646, 855.0986
4067.575, 854.9598
4069.503, 856.4551
4071.432, 857.6577
4073.360, 856.8463
4075.289, 857.1212
4077.217, 855.7757
4079.146, 850.8884
4081.074, 850.5283
4083.002, 859.7633
4084.931, 864.1899
4086.859, 858.3118
4088.788, 856.4155
4090.716, 858.4052
4092.645, 857.1508
4094.573, 858.1079
4096.502, 862.4940
4098.430, 860.1412
4100.359, 852.1154
4102.287, 850.4924
4104.216, 853.3716
4106.144, 855.5394
4108.073, 854.6574
4110.001, 854.5334
4111.930, 856.4912
4113.858, 855.8021
4115.787, 854.8513
4117.715, 856.2189
4119.644, 854.0068
4121.572, 852.6976
4123.500, 855.9147
4125.429, 855.8146
4127.357, 857.5568
4129.286, 861.8336
4131.214, 859.7059
4133.143, 855.9694
4135.071, 856.1971
4137.000, 857.4451
4138.928, 852.1152
4140.856, 849.2384
4142.785, 852.9443
4144.713, 859.4064
4146.642, 862.7819
4148.570, 859.9993
4150.499, 856.0352
4152.427, 853.3249
4154.356, 851.2828
4156.284, 848.2917
4158.213, 848.9479
4160.141, 845.2010
4162.070, 846.2659
4163.998, 848.5006
4165.927, 850.2208
4167.855, 851.6608
4169.784, 846.8711
4171.712, 843.2420
4173.641, 845.0192
4175.569, 845.2635
4177.498, 847.1180
4179.426, 846.9357
4181.354, 845.4082
4183.283, 850.3255
4185.211, 847.0773
4187.140, 835.9808
4189.068, 834.8434
4190.997, 837.5524
4192.925, 840.3685
4194.854, 840.4530
4196.782, 839.0186
4198.710, 844.4181
4200.639, 847.9304
4202.567, 843.1985
4204.496, 838.8743
4206.424, 836.0743
4208.353, 834.2334
4210.281, 832.6935
4212.210, 834.4463
4214.138, 833.9149
4216.067, 838.0425
4217.995, 837.0710
4219.924, 838.0378
4221.852, 838.4703
4223.781, 837.6024
4225.709, 838.2641
4227.638, 839.6663
4229.566, 837.5534
4231.495, 838.0385
4233.423, 836.0634
4235.352, 834.2191
4237.280, 837.5306
4239.208, 842.2029
4241.137, 847.5712
4243.065, 847.3427
4244.994, 844.9237
4246.922, 844.3986
4248.851, 843.0020
4250.779, 840.3184
4252.708, 837.7604
4254.636, 837.7715
4256.564, 843.8484
4258.493, 848.8583
4260.421, 851.6099
4262.350, 847.3836
4264.278, 845.4086
4266.207, 852.4860
4268.135, 855.0998
4270.064, 854.9802
4271.992, 858.9427
4273.921, 864.1442
4275.849, 870.2719
4277.778, 869.0524
4279.706, 866.4875
4281.635, 873.2772
4283.563, 879.3385
4285.492, 882.4946
4287.420, 888.8029
4289.349, 894.9114
4291.277, 896.7800
4293.206, 901.0836
4295.134, 908.2274
4297.063, 916.7737
4298.991, 924.9530
4300.919, 936.3280
4302.848, 944.1526
4304.776, 961.9343
4306.705, 973.8395
4308.633, 989.7905
4310.562, 1012.831
4312.490, 1039.015
4314.418, 1068.341
4316.347, 1100.599
4318.275, 1138.002
4320.204, 1181.176
4322.132, 1231.750
4324.061, 1294.383
4325.989, 1371.503
4327.918, 1465.767
4329.846, 1572.558
4331.775, 1677.259
4333.703, 1803.125
4335.632, 1956.445
4337.560, 2120.196
4339.489, 2308.426
4341.417, 2535.150
4343.346, 2794.260
4345.274, 3087.580
4347.203, 3435.633
4349.131, 3835.563
4351.060, 4285.157
4352.988, 4768.756
4354.917, 5272.127
4356.845, 5798.611
4358.773, 6276.608
4360.702, 6683.403
4362.630, 6943.741
4364.559, 7075.998
4366.487, 7084.669
4368.416, 7017.670
4370.344, 6911.665
4372.272, 6851.505
4374.201, 6861.619
4376.129, 6951.286
4378.058, 7146.655
4379.986, 7445.272
4381.915, 7858.032
4383.843, 8343.639
4385.772, 8886.790
4387.700, 9443.043
4389.629, 9909.097
4391.557, 10240.56
4393.486, 10326.32
4395.414, 10191.49
4397.343, 9849.176
4399.271, 9373.588
4401.200, 8788.967
4403.128, 8169.026
4405.057, 7559.180
4406.985, 6990.830
4408.914, 6441.649
4410.842, 5921.996
4412.771, 5459.293
4414.699, 5036.745
4416.627, 4650.194
4418.556, 4316.925
4420.484, 4021.343
4422.413, 3750.667
4424.341, 3499.696
4426.270, 3271.502
4428.198, 3074.980
4430.126, 2900.739
4432.055, 2746.949
4433.983, 2604.515
4435.912, 2471.923
4437.840, 2347.390
4439.769, 2233.749
4441.697, 2132.663
4443.626, 2050.989
4445.554, 1976.832
4447.483, 1906.711
4449.411, 1847.029
4451.340, 1793.524
4453.268, 1743.437
4455.197, 1693.533
4457.125, 1646.469
4459.054, 1611.464
4460.982, 1575.142
4462.911, 1535.394
4464.839, 1509.027
4466.768, 1486.405
4468.696, 1459.194
4470.625, 1433.217
4472.553, 1409.492
4474.481, 1392.859
4476.410, 1370.490
4478.338, 1352.400
4480.267, 1333.960
4482.195, 1315.051
4484.124, 1296.965
4486.052, 1275.535
4487.980, 1255.797
4489.909, 1244.160
4491.837, 1238.331
4493.766, 1236.419
4495.694, 1236.875
4497.623, 1228.311
4499.551, 1204.160
4501.480, 1194.914
4503.408, 1193.453
4505.337, 1194.740
4507.265, 1190.278
4509.194, 1180.561
4511.122, 1166.964
4513.051, 1155.382
4514.979, 1147.203
4516.908, 1137.783
4518.836, 1131.556
4520.765, 1126.754
4522.693, 1122.970
4524.622, 1122.155
4526.550, 1121.762
4528.479, 1124.647
4530.407, 1129.923
4532.335, 1136.841
4534.264, 1139.791
4536.192, 1144.180
4538.121, 1140.816
4540.049, 1147.368
4541.978, 1149.172
4543.906, 1143.997
4545.834, 1135.133
4547.763, 1127.140
4549.691, 1123.232
4551.620, 1112.447
4553.548, 1107.167
4555.477, 1093.680
4557.405, 1087.519
4559.334, 1078.202
4561.262, 1069.011
4563.191, 1063.130
4565.119, 1055.925
4567.048, 1050.042
4568.976, 1051.475
4570.905, 1058.534
4572.833, 1067.334
4574.762, 1059.304
4576.690, 1056.359
4578.619, 1069.170
4580.547, 1072.788
4582.476, 1072.815
4584.404, 1073.238
4586.333, 1077.232
4588.261, 1083.261
4590.189, 1089.013
4592.118, 1092.272
4594.046, 1095.466
4595.975, 1111.615
4597.903, 1122.386
4599.832, 1121.851
4601.760, 1127.758
4603.688, 1135.421
4605.617, 1142.487
4607.545, 1144.869
4609.474, 1147.221
4611.402, 1155.734
4613.331, 1161.345
4615.259, 1163.999
4617.188, 1165.185
4619.116, 1167.938
4621.045, 1168.346
4622.973, 1167.849
4624.902, 1168.468
4626.830, 1167.420
4628.759, 1165.901
4630.687, 1165.115
4632.616, 1164.763
4634.544, 1165.589
4636.473, 1166.540
4638.401, 1166.783
4640.330, 1167.512
4642.258, 1169.161
4644.187, 1173.298
4646.115, 1177.121
4648.043, 1179.368
4649.972, 1180.425
4651.900, 1180.476
4653.829, 1180.099
4655.757, 1180.340
4657.686, 1179.417
4659.614, 1184.185
4661.542, 1185.987
4663.471, 1183.851
4665.399, 1183.939
4667.328, 1173.969
4669.256, 1176.095
4671.185, 1176.212
4673.113, 1166.749
4675.042, 1151.962
4676.970, 1149.918
4678.899, 1145.298
4680.827, 1135.606
4682.756, 1136.499
4684.684, 1134.970
4686.613, 1126.632
4688.541, 1118.815
4690.470, 1112.883
4692.398, 1112.781
4694.327, 1095.557
4696.255, 1077.746
4698.184, 1076.139
4700.112, 1074.074
4702.041, 1069.774
4703.969, 1061.823
4705.897, 1055.695
4707.826, 1051.611
4709.754, 1049.285
4711.683, 1046.089
4713.611, 1041.545
4715.540, 1040.619
4717.468, 1038.032
4719.396, 1037.745
4721.325, 1036.438
4723.253, 1034.970
4725.182, 1036.969
4727.110, 1033.368
4729.039, 1033.600
4730.967, 1043.078
4732.896, 1045.133
4734.824, 1046.785
4736.753, 1055.340
4738.681, 1065.323
4740.610, 1072.287
4742.538, 1069.333
4744.467, 1072.175
4746.395, 1079.841
4748.324, 1088.759
4750.252, 1100.828
4752.181, 1114.594
4754.109, 1126.594
4756.038, 1138.503
4757.966, 1149.427
4759.895, 1160.015
4761.823, 1169.261
4763.751, 1178.500
4765.680, 1185.792
4767.608, 1191.449
4769.537, 1198.114
4771.465, 1208.624
4773.394, 1217.638
4775.322, 1223.330
4777.250, 1229.121
4779.179, 1231.082
4781.107, 1225.199
4783.036, 1238.151
4784.964, 1247.461
4786.893, 1239.647
4788.821, 1238.047
4790.750, 1238.426
4792.678, 1234.332
4794.607, 1239.842
4796.535, 1246.344
4798.464, 1245.269
4800.392, 1246.755
4802.321, 1247.264
4804.249, 1240.476
4806.178, 1238.529
4808.106, 1236.878
4810.035, 1227.328
4811.963, 1219.985
4813.892, 1216.206
4815.820, 1209.776
4817.749, 1212.055
4819.677, 1201.004
4821.605, 1205.299
4823.534, 1201.093
4825.462, 1189.993
4827.391, 1181.916
4829.319, 1173.842
4831.248, 1167.287
4833.176, 1160.634
4835.104, 1163.245
4837.033, 1147.840
4838.961, 1147.090
4840.890, 1139.038
4842.818, 1125.778
4844.747, 1134.031
4846.675, 1132.847
4848.604, 1120.341
4850.532, 1111.995
4852.461, 1103.517
4854.389, 1094.624
4856.318, 1088.384
4858.246, 1084.040
4860.175, 1080.499
4862.103, 1073.271
4864.032, 1068.409
4865.960, 1066.790
4867.889, 1066.021
4869.817, 1062.781
4871.746, 1057.086
4873.674, 1051.801
4875.603, 1046.963
4877.531, 1043.176
4879.459, 1045.053
4881.388, 1044.323
4883.316, 1039.470
4885.245, 1031.612
4887.173, 1025.408
4889.102, 1022.125
4891.030, 1016.212
4892.958, 1013.489
4894.887, 1008.133
4896.815, 1006.885
4898.744, 1003.974
4900.672, 997.8629
4902.601, 994.6317
4904.529, 994.2757
4906.458, 994.7716
4908.386, 990.0345
4910.315, 982.0933
4912.243, 973.4910
4914.172, 971.8205
4916.100, 970.5521
4918.029, 967.8956
4919.957, 962.3810
4921.886, 957.8831
4923.814, 952.0250
4925.743, 933.3084
4927.671, 924.9393
4929.600, 924.9700
4931.528, 921.5349
4933.457, 918.3102
4935.385, 914.9449
4937.313, 909.6411
4939.242, 903.3873
4941.170, 898.1320
4943.099, 897.5708
4945.027, 891.1214
4946.956, 883.9964
4948.884, 886.3018
4950.813, 886.3705
4952.741, 882.7662
4954.669, 874.3001
4956.598, 866.6865
4958.526, 860.9950
4960.455, 857.6170
4962.383, 859.3912
4964.312, 859.2090
4966.240, 851.3576
4968.169, 845.2698
4970.097, 842.5565
4972.026, 843.7070
4973.954, 833.7562
4975.883, 826.6696
4977.811, 830.0329
4979.740, 836.9188
4981.668, 838.6830
4983.597, 833.7785
4985.525, 836.7030
4987.454, 831.1105
4989.382, 832.1543
4991.311, 823.9113
4993.239, 828.6007
4995.167, 825.0207
4997.096, 814.1796
4999.024, 810.4252
5000.953, 813.0403
5002.881, 815.3805
5004.810, 817.5282
5006.738, 817.5671
5008.667, 817.6246
5010.595, 816.8320
5012.523, 814.5315
5014.452, 813.2100
5016.380, 809.5214
5018.309, 806.6035
5020.237, 807.1039
5022.166, 806.5402
5024.094, 805.6744
5026.023, 805.0653
5027.951, 803.2812
5029.880, 801.7000
5031.808, 800.8336
5033.737, 798.5494
5035.665, 798.0939
5037.594, 799.4175
5039.522, 798.5444
5041.451, 797.4599
5043.379, 795.7424
5045.308, 794.2909
5047.236, 791.8786
5049.165, 790.2117
5051.093, 786.8707
5053.021, 783.6852
5054.950, 781.5978
5056.878, 781.4824
5058.807, 780.8284
5060.735, 777.6421
5062.664, 770.8475
5064.592, 769.0253
5066.521, 766.4986
5068.449, 761.0101
5070.377, 757.8561
5072.306, 757.4847
5074.234, 758.8414
5076.163, 756.9752
5078.091, 756.5912
5080.020, 755.3884
5081.948, 743.1360
5083.877, 741.7304
5085.805, 743.8924
5087.734, 735.7422
5089.662, 735.7206
5091.591, 734.4070
5093.519, 724.5299
5095.448, 731.4156
5097.376, 736.2325
5099.305, 729.8159
5101.233, 727.0165
5103.162, 725.1389
5105.090, 723.5956
5107.019, 724.9889
5108.947, 717.6125
5110.875, 719.6125
5112.804, 712.6277
5114.732, 716.7921
5116.661, 717.1019
5118.589, 710.5053
5120.518, 712.8792
5122.446, 712.8450
5124.375, 705.3590
5126.303, 716.3885
5128.231, 718.5974
5130.160, 706.6849
5132.088, 702.7299
5134.017, 702.3406
5135.945, 704.1327
5137.874, 708.1696
5139.802, 706.9418
5141.731, 703.8920
5143.659, 703.2919
5145.588, 701.0294
5147.516, 702.8517
5149.445, 696.2432
5151.373, 693.5027
5153.302, 688.7659
5155.230, 682.5383
5157.159, 681.7795
5159.087, 684.3340
5161.016, 688.7672
5162.944, 696.1260
5164.873, 687.9385
5166.801, 679.4380
5168.729, 682.6114
5170.658, 677.5529
5172.586, 676.0693
5174.515, 681.1866
5176.443, 674.5663
5178.372, 666.9042
5180.300, 661.9292
5182.229, 662.2310
5184.157, 663.0756
5186.085, 663.6754
5188.014, 663.9567
5189.942, 663.3130
5191.871, 659.2512
5193.799, 659.4044
5195.728, 654.4483
5197.656, 656.7601
5199.585, 656.7957
5201.513, 655.5732
5203.442, 657.6891
5205.370, 657.6030
5207.299, 647.3066
5209.227, 643.3058
5211.156, 642.7227
5213.084, 643.6072
5215.013, 644.0006
5216.941, 643.6666
5218.870, 643.1085
5220.798, 642.1338
5222.727, 641.8874
5224.655, 638.6054
5226.583, 639.9558
5228.512, 640.8672
5230.440, 638.6053
5232.369, 633.0285
5234.297, 627.1760
5236.226, 625.9318
5238.154, 628.1381
5240.083, 631.8904
5242.011, 628.8970
5243.939, 626.1764
5245.868, 628.5370
5247.796, 624.2020
5249.725, 619.9412
5251.653, 618.2862
5253.582, 617.3618
5255.510, 620.7338
5257.439, 620.2513
5259.367, 622.0213
5261.296, 627.6746
5263.224, 628.6874
5265.153, 623.1454
5267.081, 625.4078
5269.010, 620.1741
5270.938, 610.9647
5272.867, 608.8157
5274.795, 606.1702
5276.724, 616.8344
5278.652, 606.4780
5280.581, 613.0772
5282.509, 616.7484
5284.438, 614.0792
5286.366, 610.9693
5288.294, 606.4642
5290.223, 603.8417
5292.151, 606.5222
5294.080, 611.0361
5296.008, 612.6454
5297.937, 610.5038
5299.865, 607.4941
5301.793, 605.2394
5303.722, 602.6591
5305.650, 597.9437
5307.579, 599.3104
5309.507, 600.1790
5311.436, 598.6388
5313.364, 602.8032
5315.293, 601.8235
5317.221, 598.4948
5319.150, 598.9146
5321.078, 594.2626
5323.007, 593.1129
5324.935, 592.8554
5326.864, 595.3677
5328.792, 593.6428
5330.721, 594.1150
5332.649, 596.6521
5334.578, 591.3549
5336.506, 590.8875
5338.435, 588.5692
5340.363, 586.9115
5342.292, 582.1196
5344.220, 584.1396
5346.148, 579.3500
5348.077, 585.1783
5350.005, 579.9060
5351.934, 580.4907
5353.862, 583.5548
5355.791, 582.1835
5357.719, 579.6464
5359.647, 581.3922
5361.576, 579.8278
5363.504, 578.7364
5365.433, 579.3087
5367.361, 578.6641
5369.290, 577.3429
5371.218, 575.4618
5373.147, 573.0840
5375.075, 573.1253
5377.004, 570.5914
5378.932, 566.7162
5380.861, 565.7567
5382.789, 568.4244
5384.718, 562.4767
5386.646, 564.1378
5388.575, 564.8498
5390.503, 563.1464
5392.432, 560.7402
5394.360, 562.1443
5396.289, 558.9593
5398.217, 556.3502
5400.146, 557.1068
5402.074, 554.0044
5404.002, 550.0212
5405.931, 546.6787
5407.859, 544.8895
5409.788, 543.8888
5411.716, 546.3428
5413.645, 545.6722
5415.573, 547.5159
5417.501, 552.0132
5419.430, 549.1738
5421.358, 550.8556
5423.287, 549.3721
5425.215, 546.5433
5427.144, 543.6615
5429.072, 541.9406
5431.001, 540.5082
5432.929, 541.8148
5434.858, 539.9818
5436.786, 538.9686
5438.715, 538.9383
5440.643, 535.1459
5442.572, 535.4485
5444.500, 532.1696
5446.429, 531.2589
5448.357, 534.6913
5450.286, 534.3845
5452.214, 540.4232
5454.143, 536.4733
5456.071, 538.9030
5458.000, 535.1648
5459.928, 536.4442
5461.856, 538.9655
5463.785, 537.0578
5465.713, 531.9618
5467.642, 529.0062
5469.570, 528.9457
5471.499, 530.5587
5473.427, 526.8014
5475.355, 524.6298
5477.284, 526.3106
5479.212, 523.8661
5481.141, 526.9645
5483.069, 530.5828
5484.998, 529.4271
5486.926, 526.0693
5488.855, 529.3256
5490.783, 534.9161
5492.712, 533.0828
5494.640, 527.1827
5496.569, 522.8341
5498.497, 521.4485
5500.426, 521.0035
5502.354, 523.0754
5504.283, 525.3520
5506.211, 526.2570
5508.140, 526.2062
5510.068, 525.8965
5511.997, 525.2953
5513.925, 522.7964
5515.854, 522.1614
5517.782, 519.4828
5519.710, 515.7169
5521.639, 511.2160
5523.567, 509.8179
5525.496, 512.0570
5527.424, 516.3162
5529.353, 519.3548
5531.281, 519.6708
5533.209, 516.9812
5535.138, 513.0313
5537.066, 516.7372
5538.995, 522.0016
5540.923, 521.9839
5542.852, 513.9359
5544.780, 514.2644
5546.709, 511.6076
5548.637, 507.2646
5550.566, 504.9891
5552.494, 508.6571
5554.423, 509.7459
5556.351, 508.0722
5558.280, 506.5982
5560.208, 505.4162
5562.137, 503.7813
5564.065, 502.5980
5565.994, 504.2069
5567.922, 507.1736
5569.851, 506.9477
5571.779, 506.1140
5573.708, 516.2306
5575.636, 507.1294
5577.564, 526.0748
5579.493, 499.0018
5581.421, 492.9715
5583.350, 498.4980
5585.278, 501.6208
5587.207, 496.1257
5589.135, 492.4697
5591.063, 497.5463
5592.992, 502.2160
5594.920, 499.1401
5596.849, 492.9507
5598.777, 492.6889
5600.706, 493.9799
5602.634, 491.7802
5604.563, 489.3609
5606.491, 487.6337
5608.420, 487.9398
5610.348, 491.2765
5612.277, 487.3807
5614.205, 488.4063
5616.134, 491.3565
5618.062, 488.8996
5619.991, 487.5100
5621.919, 484.3251
5623.848, 482.5316
5625.776, 486.5009
5627.705, 480.0300
5629.633, 477.0723
5631.562, 476.1330
5633.490, 469.9848
5635.418, 475.0396
5637.347, 480.2845
5639.275, 482.5025
5641.204, 482.9304
5643.132, 476.1268
5645.061, 469.9171
5646.989, 468.3519
5648.917, 473.9191
5650.846, 475.6351
5652.774, 475.9885
5654.703, 474.2122
5656.631, 468.3701
5658.560, 474.4290
5660.488, 472.1665
5662.417, 465.9326
5664.345, 469.6569
5666.274, 468.3861
5668.202, 464.7199
5670.131, 462.3275
5672.059, 465.3713
5673.988, 462.7958
5675.916, 464.2201
5677.845, 464.7376
5679.773, 462.9781
5681.702, 460.6769
5683.630, 461.5252
5685.559, 459.3817
5687.487, 460.4488
5689.416, 455.2888
5691.344, 449.8881
5693.272, 447.4193
5695.201, 448.8197
5697.129, 448.1780
5699.058, 450.7403
5700.986, 452.1418
5702.915, 448.8275
5704.843, 447.4907
5706.771, 451.2484
5708.700, 450.9662
5710.628, 451.5065
5712.557, 451.1813
5714.485, 451.6452
5716.414, 449.9994
5718.342, 448.7580
5720.271, 440.0278
5722.199, 448.1114
5724.128, 450.0821
5726.056, 442.1699
5727.985, 445.1266
5729.913, 441.5690
5731.842, 439.3215
5733.770, 440.0102
5735.699, 440.0374
5737.627, 439.4049
5739.556, 436.4630
5741.484, 435.1585
5743.413, 442.2555
5745.341, 436.4616
5747.270, 437.5631
5749.198, 439.5216
5751.126, 433.3139
5753.055, 430.8932
5754.983, 430.7135
5756.912, 430.9547
5758.840, 430.4578
5760.769, 428.5508
5762.697, 429.4312
5764.625, 428.5708
5766.554, 428.2353
5768.482, 428.4158
5770.411, 427.4486
5772.339, 427.6830
5774.268, 426.5169
5776.196, 426.6623
5778.125, 424.1073
5780.053, 426.8228
5781.982, 424.7946
5783.910, 424.9745
5785.839, 418.0095
5787.767, 421.9181
5789.696, 423.4330
5791.624, 422.9736
5793.553, 428.1627
5795.481, 420.9177
5797.410, 416.9536
5799.338, 419.9927
5801.267, 421.2751
5803.195, 420.0945
5805.124, 420.8639
5807.052, 422.9177
5808.980, 423.5003
5810.909, 413.7395
5812.837, 413.6086
5814.766, 416.3206
5816.694, 415.4487
5818.623, 416.9527
5820.551, 414.0219
5822.479, 413.3043
5824.408, 417.1173
5826.336, 412.8392
5828.265, 413.4898
5830.193, 409.6226
5832.122, 413.4668
5834.050, 415.4020
5835.979, 412.1660
5837.907, 411.4702
5839.836, 412.5909
5841.764, 413.4186
5843.693, 411.7070
5845.621, 415.1799
5847.550, 415.6799
5849.478, 411.0729
5851.407, 413.5425
5853.335, 407.4670
5855.264, 410.5495
5857.192, 407.4637
5859.121, 400.0038
5861.049, 406.2319
5862.978, 403.9321
5864.906, 400.8560
5866.834, 401.2921
5868.763, 406.0110
5870.691, 404.1102
5872.620, 404.3063
5874.548, 403.7834
5876.477, 399.9014
5878.405, 397.4194
5880.333, 398.0630
5882.262, 400.1074
5884.190, 400.7238
5886.119, 396.8779
5888.047, 390.6451
5889.976, 388.0973
5891.904, 390.7303
5893.833, 396.2846
5895.761, 396.5856
5897.690, 389.2326
5899.618, 386.5297
5901.547, 386.5129
5903.475, 381.0963
5905.404, 383.1194
5907.332, 380.6721
5909.261, 378.2087
5911.189, 378.6482
5913.118, 377.4971
5915.046, 377.8556
5916.975, 375.7852
5918.903, 373.9590
5920.832, 375.7538
5922.760, 372.4932
5924.688, 375.0084
5926.617, 374.2196
5928.545, 369.1808
5930.474, 368.9878
5932.402, 372.9108
5934.331, 373.3015
5936.259, 370.2328
5938.188, 365.5526
5940.116, 358.6454
5942.044, 358.2649
5943.973, 357.4636
5945.901, 356.9103
5947.830, 356.2192
5949.758, 354.3111
5951.687, 354.9849
5953.615, 357.3716
5955.544, 357.4812
5957.472, 354.9747
5959.401, 352.7529
5961.329, 347.0190
5963.258, 346.1122
5965.186, 353.1101
5967.115, 357.3941
5969.043, 352.9066
5970.972, 348.7744
5972.900, 347.3472
5974.829, 347.5088
5976.757, 346.5879
5978.686, 351.6641
5980.614, 359.8959
5982.542, 363.1014
5984.471, 354.7596
5986.399, 345.1968
5988.328, 341.4047
5990.256, 338.7890
5992.185, 335.8123
5994.113, 334.5204
5996.042, 328.5167
5997.970, 331.4538
5999.898, 330.3263
6001.827, 322.2701
6003.755, 323.2711
6005.684, 322.2082
6007.612, 319.2612
6009.541, 317.1890
6011.469, 316.8716
6013.398, 314.2958
6015.326, 321.2327
6017.255, 317.6164
6019.183, 314.7019
6021.112, 321.1605
6023.040, 313.5247
6024.969, 313.9203
6026.897, 313.3477
6028.826, 311.7332
6030.754, 312.0229
6032.683, 314.5146
6034.611, 314.5871
6036.540, 307.9446
6038.468, 301.2986
6040.396, 301.9776
6042.325, 308.6340
6044.253, 306.5947
6046.182, 306.4520
6048.110, 308.1043
6050.039, 307.0230
6051.967, 300.9807
6053.896, 304.8885
6055.824, 303.7018
6057.752, 300.6104
6059.681, 303.1259
6061.609, 301.1333
6063.538, 301.3830
6065.466, 296.5169
6067.395, 292.4145
6069.323, 295.3547
6071.252, 294.0117
6073.180, 298.0237
6075.109, 295.9592
6077.037, 292.9632
6078.966, 295.4623
6080.894, 295.9722
6082.823, 291.9030
6084.751, 288.3031
6086.680, 287.2876
6088.608, 288.2408
6090.537, 287.9414
6092.465, 288.9382
6094.394, 289.3191
6096.322, 289.9585
6098.250, 289.4380
6100.179, 282.3207
6102.107, 282.5650
6104.036, 281.7469
6105.964, 282.1594
6107.893, 284.0091
6109.821, 283.0727
6111.750, 283.0039
6113.678, 283.0207
6115.606, 281.2292
6117.535, 281.3156
6119.463, 280.4058
6121.392, 277.8783
6123.320, 278.0528
6125.249, 276.3382
6127.177, 276.4397
6129.106, 274.1596
6131.034, 272.4085
6132.963, 271.5329
6134.891, 272.7325
6136.820, 275.6300
6138.748, 276.4904
6140.677, 276.3811
6142.605, 275.9691
6144.534, 274.5536
6146.462, 272.3561
6148.391, 270.3028
6150.319, 267.6207
6152.248, 264.8788
6154.176, 264.9533
6156.104, 264.6447
6158.033, 262.1720
6159.961, 259.2134
6161.890, 266.1917
6163.818, 262.4999
6165.747, 260.5118
6167.675, 258.1010
6169.604, 255.3812
6171.532, 263.5681
6173.460, 255.9580
6175.389, 260.1388
6177.317, 258.8924
6179.246, 252.3119
6181.174, 254.9874
6183.103, 256.8708
6185.031, 257.5800
6186.960, 251.8284
6188.888, 247.5961
6190.817, 250.4497
6192.745, 246.1303
6194.674, 251.4281
6196.602, 245.9435
6198.531, 247.1618
6200.459, 252.0194
6202.388, 251.2067
6204.316, 251.4485
6206.245, 247.6353
6208.173, 248.6184
6210.102, 246.9940
6212.030, 244.7426
6213.958, 245.4150
6215.887, 243.0048
6217.815, 243.6065
6219.744, 240.6217
6221.672, 236.1954
6223.601, 232.3180
6225.529, 234.8897
6227.458, 237.1730
6229.386, 238.8808
6231.314, 239.3517
6233.243, 237.9886
6235.171, 234.8042
6237.100, 232.9531
6239.028, 227.9409
6240.957, 226.8048
6242.885, 231.8455
6244.814, 235.3895
6246.742, 234.2525
6248.671, 234.4005
6250.599, 231.9516
6252.528, 229.6492
6254.456, 228.3282
6256.385, 223.2306
6258.313, 224.4270
6260.242, 220.6824
6262.170, 218.7508
6264.099, 218.8146
6266.027, 220.3222
6267.956, 221.1935
6269.884, 220.7263
6271.813, 220.3474
6273.741, 218.6949
6275.669, 217.7124
6277.598, 216.7894
6279.526, 216.1963
6281.455, 215.1988
6283.383, 215.4063
6285.312, 215.6210
6287.240, 214.8553
6289.168, 213.0029
6291.097, 211.6350
6293.025, 212.2469
6294.954, 210.5292
6296.882, 206.1725
6298.811, 208.0629
6300.739, 207.7176
6302.668, 204.9641
6304.596, 208.0803
6306.525, 203.6605
6308.453, 206.7352
6310.382, 206.9627
6312.310, 202.9845
6314.239, 204.9699
6316.167, 203.8422
6318.096, 202.5292
6320.024, 204.9023
6321.953, 204.6198
6323.881, 200.8592
6325.810, 197.9601
6327.738, 195.4018
6329.667, 192.9895
6331.595, 195.6386
6333.523, 195.8416
6335.452, 193.6860
6337.380, 193.2684
6339.309, 191.1393
6341.237, 196.0390
6343.166, 191.6311
6345.094, 191.7966
6347.022, 194.2541
6348.951, 191.3579
6350.879, 188.3311
6352.808, 190.1719
6354.736, 191.4828
6356.665, 191.4002
6358.593, 188.3575
6360.522, 185.0526
6362.450, 188.0954
6364.379, 182.4632
6366.307, 186.0419
6368.236, 185.5570
6370.164, 183.2965
6372.093, 181.1032
6374.021, 181.1310
6375.950, 180.9692
6377.878, 181.1814
6379.807, 180.1563
6381.735, 181.2925
6383.664, 182.4419
6385.592, 181.3687
6387.521, 180.3074
6389.449, 180.2838
6391.377, 180.0410
6393.306, 180.2328
6395.234, 179.5809
6397.163, 177.3452
6399.091, 174.1761
6401.020, 171.1352
6402.948, 171.8412
6404.876, 174.7833
6406.805, 176.3146
6408.733, 173.7547
6410.662, 170.7939
6412.590, 177.5961
6414.519, 175.4504
6416.447, 172.6575
6418.376, 171.9781
6420.304, 170.2454
6422.233, 169.4998
6424.161, 168.7106
6426.090, 167.5251
6428.018, 168.7520
6429.947, 168.6648
6431.875, 171.6300
6433.804, 169.8441
6435.732, 165.8914
6437.661, 169.9456
6439.589, 169.1814
6441.518, 161.5761
6443.446, 162.6662
6445.375, 161.5704
6447.303, 161.3111
6449.231, 164.2057
6451.160, 163.5169
6453.088, 170.1173
6455.017, 160.2004
6456.945, 159.6859
6458.874, 162.5138
6460.802, 163.6589
6462.730, 162.9811
6464.659, 163.8253
6466.587, 162.4776
6468.516, 161.4997
6470.444, 159.9026
6472.373, 155.5000
6474.301, 154.7769
6476.230, 157.5884
6478.158, 160.1942
6480.087, 155.8665
6482.015, 156.4382
6483.944, 155.1820
6485.872, 153.4209
6487.801, 153.8613
6489.729, 154.4320
6491.658, 150.6229
6493.586, 151.8967
6495.515, 152.7215
6497.443, 151.4299
6499.372, 152.8576
6501.300, 151.5089
6503.229, 148.3696
6505.157, 150.0978
6507.085, 148.0067
6509.014, 148.5719
6510.942, 146.8942
6512.871, 148.6705
6514.799, 147.8685
6516.728, 145.1734
6518.656, 146.0464
6520.584, 147.5807
6522.513, 148.2222
6524.441, 146.9881
6526.370, 143.3557
6528.298, 143.4496
6530.227, 141.1297
6532.155, 140.0902
6534.084, 138.4466
6536.012, 138.9053
6537.941, 138.7316
6539.869, 139.2294
6541.798, 143.2831
6543.726, 145.0523
6545.655, 143.2033
6547.583, 141.7350
6549.512, 141.6382
6551.440, 140.6865
6553.369, 135.5456
6555.297, 134.1333
6557.226, 134.5190
6559.154, 136.8749
6561.083, 139.6452
6563.011, 139.1532
6564.939, 139.2631
6566.868, 135.1266
6568.796, 131.8839
6570.725, 132.6396
6572.653, 132.7883
6574.582, 132.1355
6576.510, 132.5289
6578.438, 133.0560
6580.367, 132.5177
6582.295, 131.6082
6584.224, 134.6717
6586.152, 132.1409
6588.081, 132.8430
6590.009, 132.2223
6591.938, 127.2408
6593.866, 128.7241
6595.795, 124.9625
6597.723, 129.4608
6599.652, 129.1571
6601.580, 127.4961
6603.509, 126.8911
6605.437, 127.3969
6607.366, 128.3555
6609.294, 128.7157
6611.223, 126.7341
6613.151, 124.0675
6615.080, 124.5108
6617.008, 125.1161
6618.937, 125.6167
6620.865, 124.6528
6622.793, 123.1778
6624.722, 124.7812
6626.650, 129.3980
6628.579, 123.7848
6630.507, 131.1788
##END=



