##NAMES=Pyrope
##RRUFFID=R050446
##IDEAL CHEMISTRY=Mg_3_Al_2_(SiO_4_)_3_
##LOCALITY=Sunset Crater, Arizona, USA
##OWNER=RRUFF
##SOURCE=Marcus Origlieri
##DESCRIPTION=Red fragment
##STATUS=The identification of this mineral has been confirmed by X-ray diffraction and chemical analysis
##URL=https://www.rruff.net/odr/rruff_sample/R050446
##MEASURED CHEMISTRY=(Mg_1.93_Fe^2+^_0.65_Ca_0.42_)Al_2.00_(Si_1.00_O_4_)_3_
##DIFFRACTION SAMPLE DESCRIPTION=Powder
##CELL PARAMETERS=a: 11.54112 b: 11.54112 c: 11.54112 alpha: 90 beta: 90 gamma: 90 volume: 1537.24 crystal system: cubic
##FILETYPE=Raman RAW
##RAMAN WAVELENGTH=532

86.91748, 8.542315
88.84595, 8.587529
90.77441, 8.209626
92.70288, 8.131390
94.63135, 8.032686
96.55981, 8.362414
98.48828, 9.482819
100.4167, 11.32564
102.3452, 14.20917
104.2737, 18.26985
106.2021, 23.53538
108.1306, 29.99169
110.0591, 38.27563
111.9875, 47.88104
113.9160, 57.72689
115.8445, 67.81432
117.7729, 78.13187
119.7014, 88.73832
121.6299, 99.66952
123.5583, 110.6170
125.4868, 121.7255
127.4153, 132.8621
129.3438, 143.3245
131.2722, 148.5638
133.2007, 149.2607
135.1292, 150.1361
137.0576, 151.9042
138.9861, 152.8371
140.9146, 152.5757
142.8430, 151.4566
144.7715, 150.4621
146.7000, 149.9494
148.6284, 149.3318
150.5569, 148.2127
152.4854, 146.3475
154.4138, 144.4187
156.3423, 142.3773
158.2708, 140.2487
160.1992, 138.4268
162.1277, 136.3953
164.0562, 134.8742
165.9846, 134.5198
167.9131, 135.1555
169.8416, 136.8581
171.7700, 139.3850
173.6985, 142.7378
175.6270, 147.5356
177.5554, 154.7641
179.4839, 162.7170
181.4124, 170.0765
183.3408, 176.6138
185.2693, 182.9853
187.1978, 189.3532
189.1262, 195.7767
191.0547, 201.8376
192.9832, 207.1422
194.9116, 212.1509
196.8401, 217.3518
198.7686, 223.8644
200.6970, 229.3807
202.6255, 233.3709
204.5540, 236.0453
206.4824, 237.8786
208.4109, 238.8832
210.3394, 239.1411
212.2678, 238.5058
214.1963, 236.9803
216.1248, 234.7341
218.0532, 231.5625
219.9817, 227.5087
221.9102, 223.4823
223.8386, 219.1000
225.7671, 214.8826
227.6956, 211.5149
229.6240, 209.1702
231.5525, 207.0584
233.4810, 204.7656
235.4094, 202.3665
237.3379, 200.6277
239.2664, 200.0510
241.1948, 199.7803
243.1233, 199.2718
245.0518, 198.4036
246.9802, 197.6357
248.9087, 196.8643
250.8372, 196.1652
252.7656, 195.8351
254.6941, 196.2087
256.6226, 196.6129
258.5510, 196.7336
260.4795, 196.3067
262.4080, 196.0645
264.3364, 195.9581
266.2649, 196.1024
268.1934, 196.5523
270.1218, 197.7097
272.0503, 198.7302
273.9788, 199.1923
275.9072, 198.9209
277.8357, 198.7347
279.7642, 198.6359
281.6926, 198.8102
283.6211, 199.5082
285.5496, 200.9299
287.4780, 202.8000
289.4065, 205.1297
291.3350, 207.8458
293.2634, 210.8681
295.1919, 214.3007
297.1204, 218.1331
299.0488, 222.4079
300.9773, 226.7611
302.9058, 232.1390
304.8342, 239.0635
306.7627, 247.2775
308.6912, 256.3737
310.6196, 266.3078
312.5481, 277.0590
314.4766, 288.7128
316.4050, 301.3267
318.3335, 314.5234
320.2620, 326.3954
322.1904, 338.3497
324.1189, 353.5381
326.0474, 371.9622
327.9758, 393.2621
329.9043, 419.3689
331.8328, 449.4622
333.7612, 479.9968
335.6897, 510.8672
337.6182, 542.7108
339.5467, 575.4750
341.4751, 607.1227
343.4036, 643.9437
345.3321, 688.9711
347.2605, 740.9205
349.1890, 795.7605
351.1175, 860.3437
353.0459, 922.0957
354.9744, 976.2139
356.9029, 1024.934
358.8313, 1058.373
360.7598, 1066.943
362.6883, 1057.489
364.6167, 1033.551
366.5452, 988.3209
368.4737, 933.6967
370.4021, 875.0735
372.3306, 813.8478
374.2591, 752.7761
376.1875, 693.5294
378.1160, 637.6260
380.0445, 585.8728
381.9729, 538.0485
383.9014, 494.2428
385.8299, 455.5052
387.7583, 420.2768
389.6868, 386.3710
391.6153, 352.6664
393.5437, 321.8526
395.4722, 293.9774
397.4007, 268.7044
399.3291, 246.3770
401.2576, 228.2143
403.1861, 212.5440
405.1145, 198.6975
407.0430, 187.0427
408.9715, 176.4942
410.8999, 166.9189
412.8284, 158.4341
414.7569, 151.2140
416.6853, 145.7889
418.6138, 140.7350
420.5423, 135.6676
422.4707, 130.7256
424.3992, 126.8065
426.3277, 124.2791
428.2561, 122.3912
430.1846, 120.6628
432.1131, 119.0433
434.0415, 118.0408
435.9700, 117.6426
437.8985, 117.6147
439.8269, 117.6180
441.7554, 117.7836
443.6839, 118.2776
445.6123, 118.8384
447.5408, 119.2951
449.4693, 120.0833
451.3977, 121.3878
453.3262, 123.3113
455.2547, 125.8928
457.1831, 129.2402
459.1116, 132.7153
461.0401, 136.4129
462.9685, 140.4254
464.8970, 144.7511
466.8255, 148.8443
468.7539, 153.4714
470.6824, 158.6762
472.6109, 164.4767
474.5393, 171.6812
476.4678, 180.8876
478.3963, 190.6212
480.3247, 201.0074
482.2532, 212.2642
484.1817, 221.7757
486.1101, 227.2874
488.0386, 231.1459
489.9671, 235.2140
491.8955, 237.7939
493.8240, 241.3643
495.7525, 247.5635
497.6809, 256.4493
499.6094, 266.7129
501.5379, 281.2431
503.4663, 295.2288
505.3948, 307.4418
507.3233, 315.9795
509.2517, 322.0695
511.1802, 322.4449
513.1086, 319.0254
515.0371, 313.3288
516.9656, 306.3944
518.8940, 300.4452
520.8225, 295.4621
522.7510, 292.7750
524.6794, 293.4099
526.6079, 297.0604
528.5364, 303.0039
530.4648, 312.3060
532.3933, 324.2672
534.3218, 336.2592
536.2502, 348.8022
538.1787, 362.7007
540.1072, 376.0141
542.0356, 390.1176
543.9641, 411.7221
545.8926, 444.2607
547.8210, 481.7803
549.7495, 524.1495
551.6780, 573.5208
553.6064, 616.7753
555.5349, 656.4085
557.4634, 682.2745
559.3918, 693.2390
561.3203, 679.4033
563.2488, 650.4499
565.1772, 606.4274
567.1057, 554.0447
569.0342, 493.8619
570.9626, 433.5259
572.8911, 380.6852
574.8196, 337.5491
576.7480, 302.3014
578.6765, 273.5301
580.6050, 252.0167
582.5335, 234.4303
584.4620, 221.9036
586.3904, 212.0045
588.3189, 202.1532
590.2474, 191.0958
592.1758, 180.6940
594.1043, 171.9102
596.0328, 164.4202
597.9612, 158.2254
599.8897, 153.3010
601.8182, 149.7240
603.7466, 147.5969
605.6751, 146.7285
607.6036, 146.6562
609.5320, 147.5469
611.4605, 149.0797
613.3890, 150.8278
615.3174, 153.1368
617.2459, 155.6407
619.1744, 157.8317
621.1028, 160.4891
623.0313, 164.1470
624.9598, 168.2213
626.8882, 174.6229
628.8167, 183.9589
630.7452, 196.1134
632.6736, 210.2347
634.6021, 227.9821
636.5306, 244.4482
638.4590, 259.6378
640.3875, 271.5005
642.3160, 278.5327
644.2444, 278.4022
646.1729, 272.8926
648.1014, 261.2655
650.0298, 246.2835
651.9583, 230.1270
653.8868, 211.6936
655.8152, 194.4812
657.7437, 179.1248
659.6722, 165.9664
661.6006, 154.2028
663.5291, 143.7336
665.4576, 134.3615
667.3860, 126.4780
669.3145, 119.8916
671.2430, 113.4158
673.1714, 106.3643
675.0999, 99.63235
677.0284, 94.01736
678.9568, 89.58411
680.8853, 85.67159
682.8138, 82.36980
684.7422, 79.67994
686.6707, 77.45855
688.5992, 75.70070
690.5276, 74.23640
692.4561, 73.17461
694.3846, 72.34768
696.3130, 71.39431
698.2415, 70.01713
700.1700, 68.91901
702.0984, 68.36169
704.0269, 68.11526
705.9554, 67.85769
707.8839, 67.54488
709.8123, 67.34869
711.7408, 67.36732
713.6693, 67.46544
715.5977, 67.54788
717.5262, 67.67974
719.4547, 67.80709
721.3831, 67.73849
723.3116, 67.68710
725.2401, 67.99413
727.1685, 69.12877
729.0970, 69.93258
731.0255, 69.98705
732.9539, 69.75627
734.8824, 70.00656
736.8109, 70.92503
738.7393, 71.79420
740.6678, 72.42262
742.5963, 72.86435
744.5247, 73.14029
746.4532, 72.87119
748.3817, 72.86304
750.3101, 73.43996
752.2386, 74.42571
754.1671, 75.18644
756.0955, 75.52956
758.0240, 76.00201
759.9525, 76.87360
761.8809, 78.08580
763.8094, 79.21838
765.7379, 80.17855
767.6663, 81.15815
769.5948, 82.16850
771.5233, 83.24416
773.4517, 84.45042
775.3802, 85.71797
777.3087, 87.23499
779.2371, 89.06953
781.1656, 91.19299
783.0941, 93.46636
785.0225, 95.77459
786.9510, 98.38491
788.8795, 101.4732
790.8079, 104.9512
792.7364, 108.3974
794.6649, 111.4989
796.5933, 115.1005
798.5218, 119.4661
800.4503, 124.5226
802.3787, 130.1601
804.3072, 135.8922
806.2357, 142.7020
808.1641, 150.9431
810.0926, 160.7054
812.0211, 171.5719
813.9495, 183.3770
815.8780, 196.8054
817.8065, 212.3172
819.7349, 229.7185
821.6634, 247.3042
823.5919, 264.6077
825.5203, 282.5952
827.4488, 301.4075
829.3773, 320.6199
831.3057, 340.0575
833.2342, 358.4443
835.1627, 378.8398
837.0911, 401.9917
839.0196, 428.2379
840.9481, 458.2867
842.8765, 491.8270
844.8050, 530.0931
846.7335, 574.8300
848.6619, 624.5533
850.5904, 676.9424
852.5189, 735.6403
854.4473, 788.2148
856.3758, 832.5479
858.3043, 868.2384
860.2327, 890.9786
862.1612, 897.3890
864.0897, 894.6163
866.0181, 877.8987
867.9466, 851.9788
869.8751, 830.8842
871.8035, 812.6926
873.7320, 804.4089
875.6605, 809.0101
877.5889, 826.5382
879.5174, 852.2740
881.4459, 887.3834
883.3743, 930.8317
885.3028, 979.6969
887.2313, 1035.630
889.1597, 1104.392
891.0882, 1177.932
893.0167, 1260.422
894.9451, 1351.581
896.8736, 1456.577
898.8021, 1573.362
900.7305, 1704.692
902.6590, 1873.702
904.5875, 2086.598
906.5159, 2331.247
908.4444, 2617.837
910.3729, 2936.242
912.3013, 3227.415
914.2298, 3515.600
916.1583, 3737.698
918.0867, 3836.887
920.0152, 3841.549
921.9437, 3742.563
923.8721, 3481.227
925.8006, 3157.151
927.7291, 2805.329
929.6575, 2424.275
931.5860, 2078.266
933.5145, 1769.613
935.4429, 1500.674
937.3714, 1280.536
939.2999, 1103.970
941.2283, 955.3234
943.1568, 839.4773
945.0853, 741.6467
947.0137, 656.3174
948.9422, 584.6199
950.8707, 519.3805
952.7991, 462.1161
954.7276, 414.7551
956.6561, 378.2146
958.5845, 349.7860
960.5130, 326.5195
962.4415, 307.6714
964.3699, 291.5583
966.2984, 278.6781
968.2269, 267.9077
970.1553, 259.1673
972.0838, 251.6445
974.0123, 244.6723
975.9407, 238.1629
977.8692, 232.6592
979.7977, 228.6662
981.7261, 225.5622
983.6546, 222.2395
985.5831, 218.7304
987.5115, 215.2514
989.4400, 211.3741
991.3685, 207.1914
993.2969, 203.3680
995.2254, 200.0664
997.1539, 197.3146
999.0823, 194.9052
1001.011, 192.9606
1002.939, 192.7189
1004.868, 194.3643
1006.796, 197.4752
1008.725, 201.7556
1010.653, 207.5772
1012.582, 215.2381
1014.510, 224.6245
1016.439, 234.7849
1018.367, 245.9532
1020.295, 258.0239
1022.224, 269.6869
1024.152, 279.5141
1026.081, 289.7498
1028.009, 301.0158
1029.938, 312.7295
1031.866, 323.9894
1033.795, 335.7347
1035.723, 348.6061
1037.652, 362.8280
1039.580, 378.0515
1041.509, 394.5301
1043.437, 410.3343
1045.365, 424.6051
1047.294, 436.5445
1049.222, 443.7019
1051.151, 445.7664
1053.079, 442.5260
1055.008, 430.9422
1056.936, 410.7866
1058.865, 384.8624
1060.793, 353.8471
1062.722, 320.2904
1064.650, 288.0237
1066.579, 256.0843
1068.507, 227.0383
1070.436, 201.9606
1072.364, 181.1824
1074.292, 164.2916
1076.221, 150.7031
1078.150, 138.9959
1080.078, 128.8720
1082.006, 120.0203
1083.935, 112.4803
1085.863, 106.8136
1087.792, 101.7497
1089.720, 96.89183
1091.649, 92.44948
1093.577, 88.67159
1095.506, 85.71877
1097.434, 83.34512
1099.363, 81.05900
1101.291, 78.74502
1103.220, 76.71985
1105.148, 74.99346
1107.077, 73.38454
1109.005, 71.77834
1110.933, 70.53814
1112.862, 69.48333
1114.790, 68.36219
1116.719, 67.12789
1118.647, 65.87160
1120.576, 64.74150
1122.504, 63.85005
1124.433, 63.30987
1126.361, 62.89943
1128.290, 62.43947
1130.218, 61.93232
1132.147, 61.56123
1134.075, 61.32867
1136.004, 61.13274
1137.932, 61.02702
1139.860, 61.04712
1141.789, 61.17609
1143.717, 61.02751
1145.646, 60.60713
1147.574, 60.50898
1149.503, 60.99653
1151.431, 61.97564
1153.360, 62.65926
1155.288, 62.94617
1157.217, 63.25761
1159.145, 63.51988
1161.074, 63.78421
1163.002, 64.32813
1164.931, 65.31554
1166.859, 66.34820
1168.787, 66.97528
1170.716, 67.55294
1172.644, 68.57577
1174.573, 70.17114
1176.501, 71.52135
1178.430, 72.21996
1180.358, 72.68399
1182.287, 73.03696
1184.215, 73.33395
1186.144, 73.66562
1188.072, 74.04952
1190.001, 74.30381
1191.929, 74.67648
1193.858, 75.06587
1195.786, 74.97395
1197.714, 74.36533
1199.643, 73.75121
1201.571, 73.32540
1203.500, 72.98892
1205.428, 72.63469
1207.357, 72.17243
1209.285, 71.75424
1211.214, 71.52504
1213.142, 71.45158
1215.071, 71.31168
1216.999, 70.97730
1218.928, 70.54556
1220.856, 70.03957
1222.785, 69.51481
1224.713, 68.86233
1226.641, 68.38752
1228.570, 68.29012
1230.498, 68.23837
1232.427, 67.79713
1234.355, 66.92049
1236.284, 66.35623
1238.212, 66.39584
1240.141, 66.51253
1242.069, 66.63395
1243.998, 66.82902
1245.926, 66.86510
1247.855, 66.42439
1249.783, 66.08521
1251.712, 66.08955
1253.640, 66.29906
1255.568, 66.56609
1257.497, 66.87637
1259.425, 67.42105
1261.354, 68.49057
1263.282, 69.47573
1265.211, 69.87016
1267.139, 69.74065
1269.068, 69.94240
1270.996, 70.69836
1272.925, 71.35816
1274.853, 71.47603
1276.782, 71.44510
1278.710, 71.78968
1280.639, 72.52085
1282.567, 72.82251
1284.495, 72.25330
1286.424, 71.71409
1288.352, 71.68235
1290.281, 71.79290
1292.209, 71.55717
1294.138, 70.82828
1296.066, 70.21883
1297.995, 69.83340
1299.923, 69.51662
1301.852, 69.15190
1303.780, 68.69210
1305.709, 68.23673
1307.637, 67.78844
1309.566, 67.25990
1311.494, 66.57143
1313.422, 65.93485
1315.351, 65.33001
1317.279, 64.63454
1319.208, 63.93902
1321.136, 63.31706
1323.065, 62.73480
1324.993, 62.19312
1326.922, 61.59364
1328.850, 60.81333
1330.779, 59.78537
1332.707, 59.05821
1334.636, 58.94121
1336.564, 58.85872
1338.493, 58.56923
1340.421, 58.12308
1342.349, 57.75222
1344.278, 57.47699
1346.206, 57.30799
1348.135, 57.44165
1350.063, 57.43721
1351.992, 56.98772
1353.920, 56.29591
1355.849, 55.92294
1357.777, 55.97983
1359.706, 56.01582
1361.634, 55.91693
1363.563, 55.77401
1365.491, 55.58820
1367.420, 55.46223
1369.348, 55.65442
1371.276, 56.30199
1373.205, 56.69531
1375.133, 56.42559
1377.062, 56.11460
1378.990, 56.04222
1380.919, 56.19350
1382.847, 56.53269
1384.776, 57.22386
1386.704, 57.82528
1388.633, 58.31947
1390.561, 58.66290
1392.490, 58.79533
1394.418, 58.73485
1396.347, 58.71012
1398.275, 58.62206
1400.203, 58.71366
1402.132, 59.20350
1404.060, 59.74083
1405.989, 59.98406
1407.917, 59.98497
1409.846, 60.13741
1411.774, 60.56569
1413.703, 60.87621
1415.631, 60.73171
1417.560, 60.59926
1419.488, 60.90504
1421.417, 61.57545
1423.345, 62.20037
1425.274, 62.75055
1427.202, 63.24624
1429.130, 63.54063
1431.059, 63.88548
1432.987, 64.57918
1434.916, 65.60886
1436.844, 66.38520
1438.773, 66.77864
1440.701, 67.11122
1442.630, 67.30875
1444.558, 67.58737
1446.487, 68.25285
1448.415, 69.27693
1450.344, 69.97354
1452.272, 69.95986
1454.201, 70.35627
1456.129, 71.70989
1458.057, 73.00547
1459.986, 73.56614
1461.914, 73.72462
1463.843, 74.18790
1465.771, 75.10128
1467.700, 75.85021
1469.628, 76.16252
1471.557, 76.40305
1473.485, 76.86876
1475.414, 77.53712
1477.342, 78.27836
1479.271, 79.16326
1481.199, 79.85778
1483.128, 80.14700
1485.056, 80.38857
1486.984, 80.74694
1488.913, 81.18967
1490.841, 81.83846
1492.770, 82.80036
1494.698, 83.59786
1496.627, 84.14962
1498.555, 84.44520
1500.484, 84.25468
1502.412, 83.84013
1504.341, 84.06504
1506.269, 85.16152
1508.198, 85.56615
1510.126, 84.36797
1512.055, 83.36120
1513.983, 83.29145
1515.911, 83.82735
1517.840, 84.42227
1519.768, 85.02000
1521.697, 85.54223
1523.625, 85.95313
1525.554, 86.38084
1527.482, 87.06020
1529.411, 87.62694
1531.339, 87.47366
1533.268, 86.57622
1535.196, 86.39181
1537.125, 87.31487
1539.053, 88.05315
1540.982, 88.30697
1542.910, 88.60017
1544.839, 89.23344
1546.767, 90.08083
1548.695, 91.06140
1550.624, 92.46915
1552.552, 93.36729
1554.481, 93.56733
1556.409, 93.35569
1558.338, 92.61827
1560.266, 91.66221
1562.195, 91.18994
1564.123, 91.22324
1566.052, 91.11298
1567.980, 90.55405
1569.909, 90.30093
1571.837, 90.99070
1573.766, 91.80862
1575.694, 91.74698
1577.622, 90.98067
1579.551, 90.48302
1581.479, 90.34628
1583.408, 90.39810
1585.336, 90.73460
1587.265, 91.13648
1589.193, 91.43956
1591.122, 91.66938
1593.050, 91.95288
1594.979, 92.34609
1596.907, 92.69788
1598.836, 92.94871
1600.764, 93.12639
1602.693, 93.14765
1604.621, 93.13028
1606.549, 93.28275
1608.478, 93.63783
1610.406, 93.91610
1612.335, 93.96320
1614.263, 94.18028
1616.192, 94.79067
1618.120, 95.59632
1620.049, 96.70779
1621.977, 97.85830
1623.906, 98.14624
1625.834, 97.38712
1627.763, 96.81209
1629.691, 96.55434
1631.620, 96.54182
1633.548, 96.83092
1635.476, 97.26369
1637.405, 97.69260
1639.333, 98.12762
1641.262, 98.55059
1643.190, 99.06917
1645.119, 99.32394
1647.047, 99.05347
1648.976, 98.69756
1650.904, 98.37851
1652.833, 98.15823
1654.761, 98.21209
1656.690, 98.58024
1658.618, 98.97950
1660.547, 99.66933
1662.475, 99.94542
1664.403, 99.23463
1666.332, 98.42675
1668.260, 98.33852
1670.189, 98.82685
1672.117, 99.04344
1674.046, 98.88079
1675.974, 98.73537
1677.903, 98.51457
1679.831, 98.44930
1681.760, 98.70993
1683.688, 99.08231
1685.617, 99.28008
1687.545, 99.31138
1689.474, 99.65793
1691.402, 100.7097
1693.330, 101.2298
1695.259, 100.6074
1697.187, 99.98097
1699.116, 99.79418
1701.044, 99.93462
1702.973, 100.3567
1704.901, 101.1246
1706.830, 101.3001
1708.758, 100.4636
1710.687, 99.80001
1712.615, 99.32069
1714.544, 99.24512
1716.472, 100.1021
1718.401, 101.2814
1720.329, 101.5190
1722.257, 100.6531
1724.186, 100.3236
1726.114, 101.0346
1728.043, 101.4057
1729.971, 100.6557
1731.900, 100.0507
1733.828, 100.6584
1735.757, 101.7804
1737.685, 101.8553
1739.614, 100.7230
1741.542, 100.1524
1743.471, 100.5702
1745.399, 100.8809
1747.328, 100.6426
1749.256, 100.4729
1751.184, 100.8335
1753.113, 101.4429
1755.041, 101.6751
1756.970, 101.4782
1758.898, 101.5856
1760.827, 102.2253
1762.755, 102.6799
1764.684, 102.7800
1766.612, 102.6521
1768.541, 102.0861
1770.469, 101.5012
1772.398, 101.7191
1774.326, 102.7165
1776.255, 103.3828
1778.183, 103.5542
1780.111, 103.7129
1782.040, 104.1717
1783.968, 104.3383
1785.897, 103.4138
1787.825, 102.3460
1789.754, 102.5825
1791.682, 103.8679
1793.611, 104.5110
1795.539, 104.3688
1797.468, 103.8446
1799.396, 102.5911
1801.325, 101.7091
1803.253, 102.0908
1805.182, 102.7799
1807.110, 102.9067
1809.038, 102.6128
1810.967, 102.3147
1812.895, 102.0208
1814.824, 101.7519
1816.752, 101.4294
1818.681, 101.2989
1820.609, 101.5971
1822.538, 101.9753
1824.466, 102.2814
1826.395, 102.4505
1828.323, 102.2667
1830.252, 101.7367
1832.180, 101.4632
1834.109, 101.6390
1836.037, 101.6631
1837.965, 101.3923
1839.894, 100.9348
1841.822, 100.0467
1843.751, 99.19858
1845.679, 99.08022
1847.608, 99.60348
1849.536, 100.0880
1851.465, 100.7515
1853.393, 100.7491
1855.322, 99.43312
1857.250, 98.28094
1859.179, 97.58218
1861.107, 97.26946
1863.036, 97.44147
1864.964, 97.90618
1866.892, 98.32906
1868.821, 98.76165
1870.749, 98.70500
1872.678, 97.61986
1874.606, 97.03272
1876.535, 97.56910
1878.463, 97.98710
1880.392, 97.60979
1882.320, 97.04562
1884.249, 96.92986
1886.177, 97.13912
1888.106, 97.13395
1890.034, 96.82561
1891.963, 96.92643
1893.891, 97.89583
1895.819, 98.30677
1897.748, 97.38721
1899.676, 96.39528
1901.605, 95.99719
1903.533, 95.87282
1905.462, 95.51716
1907.390, 95.09807
1909.319, 95.44485
1911.247, 96.67714
1913.176, 97.35381
1915.104, 97.10848
1917.033, 96.67727
1918.961, 96.05999
1920.890, 95.60874
1922.818, 95.81773
1924.746, 96.13794
1926.675, 95.68938
1928.603, 94.64156
1930.532, 94.01941
1932.460, 93.88944
1934.389, 93.88066
1936.317, 94.19724
1938.246, 94.29203
1940.174, 93.96468
1942.103, 93.50748
1944.031, 92.95969
1945.960, 92.46279
1947.888, 92.22929
1949.817, 92.22200
1951.745, 92.21264
1953.673, 92.16049
1955.602, 92.22636
1957.530, 92.57191
1959.459, 92.73615
1961.387, 92.59917
1963.316, 92.31478
1965.244, 91.95257
1967.173, 91.49020
1969.101, 90.72926
1971.030, 89.87486
1972.958, 89.64391
1974.887, 90.04007
1976.815, 90.30551
1978.744, 90.40960
1980.672, 90.18678
1982.600, 89.43148
1984.529, 88.59586
1986.457, 87.61547
1988.386, 86.89077
1990.314, 86.94276
1992.243, 87.40231
1994.171, 87.54214
1996.100, 87.38148
1998.028, 87.37447
1999.957, 87.59175
2001.885, 87.79086
2003.814, 88.26566
2005.742, 88.27490
2007.671, 87.30286
2009.599, 86.26038
2011.527, 85.48734
2013.456, 85.03622
2015.384, 85.12749
2017.313, 85.59412
2019.241, 85.84959
2021.170, 85.90164
2023.098, 85.41393
2025.027, 84.07767
2026.955, 83.34060
2028.884, 83.79436
2030.812, 84.27556
2032.741, 84.41946
2034.669, 84.32613
2036.598, 83.84396
2038.526, 83.31508
2040.454, 83.30630
2042.383, 83.68053
2044.311, 83.77116
2046.240, 83.51089
2048.168, 83.42481
2050.097, 83.73318
2052.025, 83.82280
2053.954, 83.54876
2055.882, 83.15520
2057.811, 82.53969
2059.739, 82.04508
2061.667, 82.07019
2063.596, 82.28796
2065.525, 82.13957
2067.453, 81.72056
2069.382, 81.62720
2071.310, 81.87259
2073.239, 81.92152
2075.167, 81.59703
2077.095, 81.62990
2079.024, 82.68993
2080.952, 83.06321
2082.881, 81.41843
2084.809, 79.61406
2086.738, 78.78986
2088.666, 78.53438
2090.595, 78.54126
2092.523, 78.67371
2094.452, 78.36733
2096.380, 77.54419
2098.309, 77.19571
2100.237, 77.60642
2102.166, 77.83863
2104.094, 77.84534
2106.022, 77.69195
2107.951, 77.26015
2109.879, 76.85659
2111.808, 76.77502
2113.736, 76.64041
2115.665, 76.03676
2117.593, 75.22179
2119.522, 74.66032
2121.450, 74.26783
2123.379, 73.60859
2125.307, 72.63479
2127.236, 72.03374
2129.164, 72.00020
2131.093, 71.97367
2133.021, 71.76283
2134.949, 71.72741
2136.878, 72.22440
2138.806, 72.60656
2140.735, 72.40257
2142.663, 71.99073
2144.592, 71.80656
2146.520, 71.67382
2148.449, 71.08775
2150.377, 70.16924
2152.306, 69.78487
2154.234, 69.98146
2156.163, 69.97794
2158.091, 69.61365
2160.020, 69.43610
2161.948, 69.77376
2163.876, 69.88668
2165.805, 69.29796
2167.733, 68.70155
2169.662, 68.43889
2171.590, 68.37041
2173.519, 68.52852
2175.447, 68.71069
2177.376, 68.40313
2179.304, 67.75546
2181.233, 67.77013
2183.161, 68.46854
2185.090, 68.62820
2187.018, 68.07375
2188.947, 67.66022
2190.875, 67.56937
2192.803, 67.47685
2194.732, 67.34694
2196.660, 67.12868
2198.589, 66.83807
2200.517, 66.42432
2202.446, 65.61420
2204.374, 64.86024
2206.303, 64.75381
2208.231, 65.07860
2210.160, 65.43414
2212.088, 65.78859
2214.017, 65.74599
2215.945, 65.28799
2217.874, 64.79158
2219.802, 64.22340
2221.730, 63.98531
2223.659, 64.28503
2225.587, 64.52281
2227.516, 64.53123
2229.444, 64.41649
2231.373, 64.15643
2233.301, 63.86367
2235.230, 63.50028
2237.158, 63.25390
2239.087, 63.49585
2241.015, 63.91959
2242.944, 63.87896
2244.872, 63.45571
2246.801, 63.12037
2248.729, 62.86621
2250.657, 62.64190
2252.586, 62.44972
2254.514, 62.18844
2256.443, 61.80039
2258.371, 61.48417
2260.300, 61.27098
2262.228, 61.15556
2264.157, 61.25909
2266.085, 61.29799
2268.014, 60.99031
2269.942, 60.73919
2271.871, 61.01551
2273.799, 61.37519
2275.728, 61.26128
2277.656, 60.86086
2279.584, 60.39932
2281.513, 59.98297
2283.441, 60.15271
2285.370, 60.88752
2287.298, 61.11523
2289.227, 60.62139
2291.155, 60.29198
2293.084, 60.31461
2295.012, 60.22518
2296.941, 59.87598
2298.869, 59.64540
2300.798, 59.75843
2302.726, 59.75444
2304.655, 59.36793
2306.583, 58.93920
2308.511, 58.51470
2310.440, 58.30949
2312.368, 58.62267
2314.297, 59.19695
2316.225, 59.80803
2318.154, 60.34377
2320.082, 60.26914
2322.011, 59.76842
2323.939, 60.53706
2325.868, 62.64110
2327.796, 63.56421
2329.725, 63.17310
2331.653, 62.22350
2333.582, 60.55421
2335.510, 59.50410
2337.438, 59.63478
2339.367, 59.68315
2341.295, 59.30653
2343.224, 58.85059
2345.152, 58.26426
2347.081, 57.84830
2349.009, 57.97239
2350.938, 58.07048
2352.866, 57.56269
2354.795, 57.00409
2356.723, 57.09140
2358.652, 57.37514
2360.580, 57.17119
2362.509, 56.67276
2364.437, 56.33544
2366.365, 56.13836
2368.294, 55.89120
2370.222, 55.56711
2372.151, 55.83790
2374.079, 56.86165
2376.008, 57.24683
2377.936, 56.82664
2379.865, 56.33531
2381.793, 55.77951
2383.722, 55.54057
2385.650, 55.90486
2387.579, 56.20839
2389.507, 56.40777
2391.436, 56.31733
2393.364, 55.30909
2395.292, 54.73204
2397.221, 55.83641
2399.149, 56.92980
2401.078, 56.64756
2403.006, 56.02583
2404.935, 55.89824
2406.863, 56.05032
2408.792, 56.41574
2410.720, 56.75016
2412.649, 56.43981
2414.577, 55.70752
2416.506, 55.25149
2418.434, 55.08169
2420.363, 55.47306
2422.291, 56.37621
2424.219, 56.85865
2426.148, 56.88025
2428.076, 56.54767
2430.005, 55.75007
2431.933, 55.33777
2433.862, 55.60243
2435.790, 55.86110
2437.719, 56.21377
2439.647, 56.28383
2441.576, 55.81409
2443.504, 55.49229
2445.433, 55.61764
2447.361, 55.66463
2449.290, 55.39492
2451.218, 55.01741
2453.146, 54.38434
2455.075, 53.99896
2457.003, 54.33891
2458.932, 54.89085
2460.860, 55.43982
2462.789, 55.77724
2464.717, 55.50346
2466.646, 55.02924
2468.574, 54.86941
2470.503, 54.90405
2472.431, 55.00274
2474.360, 55.11167
2476.288, 55.04272
2478.217, 54.85749
2480.145, 54.83523
2482.073, 54.96864
2484.002, 55.23867
2485.930, 55.61327
2487.859, 55.66607
2489.787, 55.37535
2491.716, 54.91706
2493.644, 54.15483
2495.573, 54.06618
2497.501, 55.25709
2499.430, 55.81563
2501.358, 55.50352
2503.287, 55.32388
2505.215, 55.45782
2507.144, 55.44618
2509.072, 55.07947
2511.000, 54.84169
2512.929, 54.99996
2514.857, 55.08047
2516.786, 54.95864
2518.714, 54.74640
2520.643, 54.12357
2522.571, 53.97837
2524.500, 55.22875
2526.428, 56.12522
2528.357, 55.35358
2530.285, 54.41204
2532.214, 54.28135
2534.142, 54.29485
2536.071, 53.70005
2537.999, 53.27706
2539.927, 54.02053
2541.856, 55.03441
2543.784, 55.46521
2545.713, 55.55402
2547.641, 55.39963
2549.570, 55.22525
2551.498, 55.50325
2553.427, 55.89644
2555.355, 55.67873
2557.284, 55.12373
2559.212, 54.86447
2561.141, 54.82780
2563.069, 54.73848
2564.998, 54.70082
2566.926, 55.22029
2568.854, 56.10995
2570.783, 56.35530
2572.711, 56.01404
2574.640, 55.75090
2576.568, 55.56227
2578.497, 55.38084
2580.425, 55.21759
2582.354, 55.26471
2584.282, 55.53192
2586.211, 55.56134
2588.139, 55.25261
2590.068, 55.28994
2591.996, 55.85512
2593.925, 55.76989
2595.853, 54.88495
2597.781, 54.56623
2599.710, 54.97951
2601.638, 55.59258
2603.567, 56.46782
2605.495, 57.06331
2607.424, 57.31603
2609.352, 57.28561
2611.281, 56.85960
2613.209, 56.58355
2615.138, 56.59290
2617.066, 56.48094
2618.995, 56.04450
2620.923, 55.84796
2622.852, 56.06822
2624.780, 56.42150
2626.708, 57.03335
2628.637, 57.42199
2630.565, 57.56582
2632.494, 57.25255
2634.422, 55.95006
2636.351, 55.33296
2638.279, 56.58118
2640.208, 57.44697
2642.136, 57.03909
2644.065, 56.77715
2645.993, 57.06585
2647.922, 57.30031
2649.850, 57.27686
2651.779, 57.19362
2653.707, 56.96600
2655.635, 56.95116
2657.564, 57.48678
2659.492, 57.91996
2661.421, 58.00404
2663.349, 58.04558
2665.278, 58.19413
2667.206, 58.24137
2669.135, 57.87883
2671.063, 57.72626
2672.992, 58.27534
2674.920, 58.71997
2676.849, 58.65162
2678.777, 58.55364
2680.706, 58.64545
2682.634, 58.68127
2684.563, 58.47385
2686.491, 58.29535
2688.419, 58.11076
2690.348, 58.22485
2692.276, 59.21235
2694.205, 59.84932
2696.133, 59.34459
2698.062, 58.91840
2699.990, 59.47879
2701.919, 59.80007
2703.847, 58.92977
2705.776, 58.26184
2707.704, 58.54396
2709.633, 58.98067
2711.561, 59.33843
2713.490, 59.66304
2715.418, 60.05424
2717.346, 60.29033
2719.275, 60.10383
2721.203, 59.98361
2723.132, 60.34562
2725.060, 60.38856
2726.989, 59.31142
2728.917, 58.80512
2730.846, 60.27502
2732.774, 61.45044
2734.703, 61.29667
2736.631, 60.95614
2738.560, 60.60722
2740.488, 60.50405
2742.417, 60.91394
2744.345, 61.20489
2746.273, 61.00248
2748.202, 60.84547
2750.130, 60.80645
2752.059, 61.01257
2753.987, 61.69428
2755.916, 62.12407
2757.844, 61.93534
2759.773, 61.81554
2761.701, 61.99406
2763.630, 62.22451
2765.558, 62.52058
2767.487, 62.72601
2769.415, 62.79088
2771.344, 62.83067
2773.272, 62.85844
2775.200, 62.89979
2777.129, 62.89010
2779.057, 63.04551
2780.986, 63.41857
2782.914, 63.89325
2784.843, 64.56370
2786.771, 64.76614
2788.700, 64.12036
2790.628, 63.85872
2792.557, 64.25923
2794.485, 64.31407
2796.414, 63.88948
2798.342, 63.88544
2800.271, 64.43386
2802.199, 64.89355
2804.127, 65.30699
2806.056, 64.99288
2807.984, 63.82220
2809.913, 63.61026
2811.841, 64.35765
2813.770, 64.93385
2815.698, 65.28268
2817.627, 65.57846
2819.555, 65.81905
2821.484, 65.84109
2823.412, 65.67490
2825.341, 65.42457
2827.269, 65.20077
2829.198, 65.55616
2831.126, 66.29152
2833.054, 66.75544
2834.983, 66.96284
2836.911, 66.76385
2838.840, 66.46962
2840.768, 66.79633
2842.697, 67.44393
2844.625, 68.10181
2846.554, 68.55674
2848.482, 68.23380
2850.411, 67.74557
2852.339, 67.81450
2854.268, 68.17941
2856.196, 68.70577
2858.125, 69.26380
2860.053, 69.94434
2861.981, 70.31461
2863.910, 69.58912
2865.838, 69.11613
2867.767, 70.17209
2869.695, 71.05449
2871.624, 70.58959
2873.552, 70.10457
2875.481, 70.13557
2877.409, 70.24219
2879.338, 70.30257
2881.266, 70.38241
2883.195, 70.44166
2885.123, 70.66080
2887.052, 71.13380
2888.980, 71.60391
2890.908, 72.08396
2892.837, 72.27624
2894.765, 71.93005
2896.694, 72.04365
2898.622, 72.86882
2900.551, 73.13478
2902.479, 72.79935
2904.408, 72.95409
2906.336, 73.64651
2908.265, 73.40786
2910.193, 72.33000
2912.122, 72.31099
2914.050, 73.11594
2915.979, 73.65517
2917.907, 74.00549
2919.835, 74.46638
2921.764, 74.92134
2923.692, 75.08791
2925.621, 75.07811
2927.549, 74.93436
2929.478, 74.86613
2931.406, 75.12227
2933.335, 75.55312
2935.263, 76.23938
2937.192, 76.74438
2939.120, 76.69544
2941.049, 76.50180
2942.977, 76.26694
2944.906, 76.14555
2946.834, 76.16940
2948.762, 76.40196
2950.691, 77.00643
2952.619, 77.32915
2954.548, 77.01613
2956.476, 76.98843
2958.405, 77.68704
2960.333, 78.01747
2962.262, 77.89344
2964.190, 78.08096
2966.119, 78.65072
2968.047, 79.06660
2969.976, 79.30460
2971.904, 79.39758
2973.833, 79.41967
2975.761, 80.06022
2977.689, 80.96677
2979.618, 81.07390
2981.546, 80.78902
2983.475, 80.89781
2985.403, 81.16666
2987.332, 81.26712
2989.260, 81.35902
2991.189, 81.67479
2993.117, 81.91817
2995.046, 81.60262
2996.974, 81.56728
2998.903, 82.41081
3000.831, 83.11556
3002.760, 82.94663
3004.688, 83.17181
3006.616, 84.33742
3008.545, 85.20327
3010.473, 85.59281
3012.402, 86.03883
3014.330, 86.69850
3016.259, 86.92615
3018.187, 86.68676
3020.116, 86.36872
3022.044, 86.01392
3023.973, 85.74007
3025.901, 85.71294
3027.830, 86.98328
3029.758, 88.56632
3031.687, 88.08080
3033.615, 87.01871
3035.543, 87.10053
3037.472, 87.54775
3039.400, 87.79321
3041.329, 87.96228
3043.257, 88.00135
3045.186, 88.25456
3047.114, 89.07963
3049.043, 89.78117
3050.971, 90.20383
3052.900, 90.39055
3054.828, 90.28843
3056.757, 90.13783
3058.685, 89.85197
3060.614, 90.60939
3062.542, 92.46297
3064.470, 92.90478
3066.399, 92.25978
3068.327, 91.59196
3070.256, 91.07380
3072.184, 91.06783
3074.113, 91.41528
3076.041, 91.96419
3077.970, 92.64005
3079.898, 93.56649
3081.827, 94.31935
3083.755, 94.53276
3085.684, 94.64996
3087.612, 94.83772
3089.541, 94.88981
3091.469, 94.43352
3093.397, 94.60934
3095.326, 95.63660
3097.254, 96.40296
3099.183, 96.84925
3101.111, 97.15104
3103.040, 97.32255
3104.968, 97.35175
3106.897, 97.26744
3108.825, 97.06801
3110.754, 96.91579
3112.682, 96.97097
3114.611, 97.30122
3116.539, 98.63387
3118.468, 99.26826
3120.396, 97.39029
3122.324, 96.25378
3124.253, 97.74452
3126.181, 99.05024
3128.110, 99.79575
3130.038, 100.1283
3131.967, 99.97236
3133.895, 100.2725
3135.824, 101.0508
3137.752, 101.5685
3139.681, 101.8718
3141.609, 102.1231
3143.538, 102.3206
3145.466, 102.3645
3147.395, 102.4725
3149.323, 102.9856
3151.251, 103.5207
3153.180, 103.9610
3155.108, 104.1508
3157.037, 103.9114
3158.965, 103.6505
3160.894, 103.3536
3162.822, 103.4630
3164.751, 104.1579
3166.679, 104.6192
3168.608, 104.8824
3170.536, 105.3122
3172.465, 105.8407
3174.393, 106.1708
3176.322, 106.5094
3178.250, 107.2903
3180.178, 108.1238
3182.107, 108.7832
3184.035, 109.2425
3185.964, 109.3553
3187.892, 109.5321
3189.821, 109.9072
3191.749, 110.1592
3193.678, 110.0884
3195.606, 110.5431
3197.535, 111.4961
3199.463, 111.8327
3201.392, 111.6657
3203.320, 111.3534
3205.249, 111.0963
3207.177, 111.2264
3209.105, 111.6427
3211.034, 112.4614
3212.962, 113.1959
3214.891, 113.6539
3216.819, 113.7897
3218.748, 113.4172
3220.676, 113.5840
3222.605, 114.6968
3224.533, 115.2480
3226.462, 115.2526
3228.390, 115.3812
3230.319, 115.7319
3232.247, 116.8857
3234.176, 118.0636
3236.104, 117.7871
3238.032, 117.5178
3239.961, 118.7290
3241.889, 119.5549
3243.818, 118.6667
3245.746, 118.2915
3247.675, 118.7627
3249.603, 119.3017
3251.532, 119.7967
3253.460, 120.5898
3255.389, 121.5453
3257.317, 122.0172
3259.246, 122.1274
3261.174, 121.6738
3263.103, 121.4736
3265.031, 122.6122
3266.959, 123.6635
3268.888, 123.8228
3270.816, 123.9836
3272.745, 124.3221
3274.673, 124.7960
3276.602, 125.4034
3278.530, 124.8043
3280.459, 123.4124
3282.387, 123.7624
3284.316, 124.9148
3286.244, 125.1334
3288.173, 125.4025
3290.101, 127.1118
3292.030, 128.2843
3293.958, 127.8240
3295.886, 127.7263
3297.815, 129.1422
3299.743, 129.2099
3301.672, 127.9986
3303.600, 128.7409
3305.529, 130.7001
3307.457, 130.9135
3309.386, 130.3572
3311.314, 130.2037
3313.243, 130.4367
3315.171, 131.3396
3317.100, 132.1436
3319.028, 132.6395
3320.957, 132.9747
3322.885, 133.1357
3324.813, 133.7627
3326.742, 134.8053
3328.670, 135.3558
3330.599, 135.5376
3332.527, 135.3515
3334.456, 135.3301
3336.384, 136.4909
3338.313, 137.2294
3340.241, 136.3166
3342.170, 136.1959
3344.098, 137.6909
3346.027, 138.7917
3347.955, 139.4168
3349.884, 139.3778
3351.812, 139.0978
3353.740, 139.8139
3355.669, 141.0163
3357.597, 142.4640
3359.526, 143.5715
3361.454, 143.9642
3363.383, 143.8504
3365.311, 143.0501
3367.240, 143.1890
3369.168, 144.4788
3371.097, 144.9981
3373.025, 145.1645
3374.954, 146.4773
3376.882, 147.9138
3378.811, 147.8446
3380.739, 148.0540
3382.667, 149.9539
3384.596, 151.0228
3386.524, 150.0454
3388.453, 149.5122
3390.381, 149.4863
3392.310, 150.0610
3394.238, 151.0832
3396.167, 152.2294
3398.095, 153.6024
3400.024, 155.8856
3401.952, 157.3948
3403.881, 156.4021
3405.809, 156.2325
3407.738, 157.4561
3409.666, 158.0160
3411.594, 157.9160
3413.523, 159.2928
3415.451, 161.3090
3417.380, 162.6082
3419.308, 163.2446
3421.237, 162.6003
3423.165, 162.4837
3425.094, 163.6955
3427.022, 164.4706
3428.951, 164.4094
3430.879, 164.8060
3432.808, 165.5939
3434.736, 166.7705
3436.665, 167.8047
3438.593, 167.4749
3440.521, 167.4705
3442.450, 169.4100
3444.378, 170.2424
3446.307, 168.8427
3448.235, 169.6426
3450.164, 172.4590
3452.092, 172.9666
3454.021, 172.5222
3455.949, 174.7623
3457.878, 176.7353
3459.806, 175.5693
3461.735, 174.6983
3463.663, 175.0708
3465.592, 176.0388
3467.520, 177.5753
3469.448, 177.7885
3471.377, 177.1452
3473.305, 176.7804
3475.234, 176.8946
3477.162, 178.2608
3479.091, 179.1653
3481.019, 178.8847
3482.948, 178.6257
3484.876, 178.5972
3486.805, 178.6453
3488.733, 178.9636
3490.662, 180.8057
3492.590, 182.4446
3494.519, 180.8813
3496.447, 179.8793
3498.375, 181.4664
3500.304, 182.5933
3502.232, 182.6656
3504.161, 183.4521
3506.089, 184.5415
3508.018, 183.9351
3509.946, 183.0439
3511.875, 184.0485
3513.803, 184.8276
3515.732, 183.5081
3517.660, 183.9292
3519.589, 186.5413
3521.517, 188.4440
3523.446, 189.6931
3525.374, 191.3855
3527.302, 192.6582
3529.231, 192.0099
3531.159, 191.6619
3533.088, 192.5797
3535.016, 194.5919
3536.945, 197.7161
3538.873, 198.5640
3540.802, 198.0523
3542.730, 200.0585
3544.659, 202.1223
3546.587, 200.8224
3548.516, 200.9690
3550.444, 204.6174
3552.373, 206.9168
3554.301, 207.2005
3556.229, 207.5139
3558.158, 207.6913
3560.086, 206.7751
3562.015, 206.3751
3563.943, 208.4229
3565.872, 210.1741
3567.800, 210.9603
3569.729, 211.5799
3571.657, 212.0829
3573.586, 211.8956
3575.514, 211.6718
3577.443, 212.5055
3579.371, 213.5278
3581.300, 214.3139
3583.228, 215.1140
3585.156, 216.1035
3587.085, 215.8968
3589.013, 215.1216
3590.942, 215.9963
3592.870, 217.2760
3594.799, 217.5498
3596.727, 217.9944
3598.656, 219.2402
3600.584, 219.7754
3602.513, 219.5818
3604.441, 219.3886
3606.370, 219.2426
3608.298, 219.0232
3610.227, 219.1710
3612.155, 219.9930
3614.083, 221.0034
3616.012, 222.2084
3617.940, 222.7195
3619.869, 222.6816
3621.797, 222.1211
3623.726, 222.1456
3625.654, 224.1290
3627.583, 226.0816
3629.511, 227.0648
3631.440, 228.6307
3633.368, 230.5128
3635.297, 230.8208
3637.225, 230.4437
3639.154, 230.3051
3641.082, 230.7529
3643.010, 232.2651
3644.939, 233.7692
3646.867, 235.1574
3648.796, 235.8575
3650.724, 236.1201
3652.653, 235.8762
3654.581, 236.3654
3656.510, 239.2016
3658.438, 240.8921
3660.367, 240.9024
3662.295, 240.6026
3664.224, 240.4010
3666.152, 241.2779
3668.081, 242.8332
3670.009, 245.1896
3671.938, 246.8882
3673.866, 247.4321
3675.794, 247.8350
3677.723, 248.3931
3679.651, 250.4935
3681.580, 252.7196
3683.508, 253.4966
3685.437, 254.3914
3687.365, 256.2881
3689.294, 256.5724
3691.222, 255.8213
3693.151, 258.0687
3695.079, 260.9127
3697.008, 261.0056
3698.936, 261.6589
3700.865, 264.6999
3702.793, 267.3060
3704.721, 269.3932
3706.650, 271.5838
3708.578, 272.8527
3710.507, 270.6411
3712.435, 269.4975
3714.364, 271.9967
3716.292, 274.6407
3718.221, 277.2041
3720.149, 279.0851
3722.078, 280.5175
3724.006, 281.6514
3725.935, 282.7791
3727.863, 284.3273
3729.792, 285.0175
3731.720, 285.0910
3733.648, 285.7683
3735.577, 287.1786
3737.505, 290.0297
3739.434, 292.4619
3741.362, 293.2560
3743.291, 294.7816
3745.219, 296.8654
3747.148, 298.2181
3749.076, 299.6157
3751.005, 302.2816
3752.933, 304.6502
3754.862, 305.8449
3756.790, 307.9514
3758.719, 310.5944
3760.647, 312.0376
3762.575, 313.3386
3764.504, 315.8780
3766.432, 317.5786
3768.361, 316.9800
3770.289, 320.0899
3772.218, 324.9796
3774.146, 325.7742
3776.075, 325.7465
3778.003, 326.9332
3779.932, 329.5130
3781.860, 333.9897
3783.789, 334.5352
3785.717, 334.2437
3787.646, 340.5462
3789.574, 346.2948
3791.502, 347.5844
3793.431, 347.7691
3795.359, 347.4110
3797.288, 349.2668
3799.216, 352.0368
3801.145, 353.9215
3803.073, 355.9282
3805.002, 358.5714
3806.930, 359.4845
3808.859, 359.2929
3810.787, 363.6494
3812.716, 368.9179
3814.644, 371.8616
3816.573, 373.8430
3818.501, 375.1172
3820.429, 378.6895
3822.358, 383.5213
3824.286, 386.5954
3826.215, 389.1238
3828.143, 391.7521
3830.072, 393.7971
3832.000, 395.3329
3833.929, 398.0828
3835.857, 401.6080
3837.786, 405.4407
3839.714, 409.4153
3841.643, 413.5854
3843.571, 417.8826
3845.500, 421.8202
3847.428, 422.5940
3849.356, 424.1339
3851.285, 430.3856
3853.213, 434.4547
3855.142, 435.1226
3857.070, 437.6271
3858.999, 441.1849
3860.927, 444.7933
3862.856, 447.7903
3864.784, 449.6164
3866.713, 452.0067
3868.641, 455.1582
3870.570, 460.1289
3872.498, 464.9902
3874.427, 468.2595
3876.355, 470.6307
3878.283, 471.9426
3880.212, 476.6155
3882.140, 482.9901
3884.069, 489.1300
3885.997, 493.6070
3887.926, 495.6432
3889.854, 499.0175
3891.783, 503.8238
3893.711, 507.0449
3895.640, 511.0537
3897.568, 519.9276
3899.497, 526.5351
3901.425, 530.2438
3903.354, 533.8685
3905.282, 537.4590
3907.210, 540.8893
3909.139, 544.8300
3911.067, 549.8137
3912.996, 553.9791
3914.924, 557.4442
3916.853, 561.3757
3918.781, 566.3063
3920.710, 572.1716
3922.638, 575.0619
3924.567, 577.0248
3926.495, 582.3649
3928.424, 588.1947
3930.352, 592.1727
3932.281, 594.4792
3934.209, 595.0280
3936.137, 596.7255
3938.066, 600.5106
3939.994, 606.9487
3941.923, 613.6379
3943.851, 618.5208
3945.780, 621.1080
3947.708, 623.4342
3949.637, 626.8943
3951.565, 630.7747
3953.494, 634.8553
3955.422, 639.0049
3957.351, 643.5468
3959.279, 649.5169
3961.208, 654.7061
3963.136, 657.0814
3965.064, 659.2268
3966.993, 661.6031
3968.921, 666.9014
3970.850, 672.0433
3972.778, 673.7135
3974.707, 674.9504
3976.635, 675.8114
3978.564, 679.2420
3980.492, 682.6326
3982.421, 682.5928
3984.349, 684.7512
3986.278, 691.5259
3988.206, 694.5142
3990.135, 693.9844
3992.063, 695.4297
3993.991, 699.1258
3995.920, 705.1193
3997.848, 706.4786
3999.777, 705.3170
4001.705, 708.7667
4003.634, 711.4180
4005.562, 711.6837
4007.491, 714.6055
4009.419, 717.9542
4011.348, 719.6621
4013.276, 722.4924
4015.205, 726.2910
4017.133, 727.6101
4019.062, 728.6556
4020.990, 734.0701
4022.918, 738.7314
4024.847, 739.5148
4026.775, 740.8364
4028.704, 742.7429
4030.632, 745.0367
4032.561, 747.7325
4034.489, 751.0118
4036.418, 752.4377
4038.346, 752.0136
4040.275, 753.7904
4042.203, 756.2003
4044.132, 756.5975
4046.060, 757.9990
4047.989, 760.5985
4049.917, 762.0839
4051.845, 763.6153
4053.774, 766.2904
4055.702, 765.7283
4057.631, 762.5724
4059.559, 761.0904
4061.488, 760.9925
4063.416, 762.9202
4065.345, 763.9328
4067.273, 763.7615
4069.202, 763.8392
4071.130, 764.6975
4073.059, 768.8055
4074.987, 769.6478
4076.916, 765.4605
4078.844, 764.8748
4080.772, 766.6995
4082.701, 769.0441
4084.629, 771.8861
4086.558, 776.0250
4088.486, 777.0768
4090.415, 776.1690
4092.343, 775.0263
4094.272, 775.2001
4096.200, 777.6456
4098.129, 779.3046
4100.057, 779.7018
4101.986, 778.3026
4103.914, 777.4225
4105.843, 777.1609
4107.771, 775.9754
4109.700, 774.7512
4111.628, 774.1036
4113.557, 773.8634
4115.485, 773.5082
4117.414, 771.4492
4119.342, 769.5176
4121.271, 771.7302
4123.199, 773.5245
4125.127, 772.3483
4127.056, 774.5038
4128.984, 779.9100
4130.913, 785.8327
4132.841, 791.6232
4134.770, 796.8146
4136.698, 805.8597
4138.626, 818.3718
4140.555, 831.6069
4142.483, 843.9968
4144.412, 855.3948
4146.340, 868.8109
4148.269, 882.8895
4150.197, 896.5652
4152.126, 911.2153
4154.054, 926.3036
4155.983, 940.3834
4157.911, 953.5319
4159.840, 963.8945
4161.768, 972.9628
4163.697, 981.2713
4165.625, 986.7949
4167.554, 990.0387
4169.482, 994.5211
4171.411, 997.5585
4173.339, 999.0674
4175.268, 1000.355
4177.196, 1001.040
4179.125, 1002.833
4181.053, 1007.908
4182.981, 1018.349
4184.910, 1029.719
4186.838, 1042.701
4188.767, 1064.859
4190.695, 1092.378
4192.624, 1121.184
4194.552, 1156.642
4196.480, 1199.456
4198.409, 1245.088
4200.337, 1291.697
4202.266, 1339.738
4204.194, 1390.186
4206.123, 1442.267
4208.051, 1500.154
4209.980, 1553.387
4211.908, 1595.259
4213.837, 1640.522
4215.765, 1682.705
4217.694, 1711.904
4219.622, 1734.979
4221.551, 1753.490
4223.479, 1762.402
4225.408, 1761.878
4227.336, 1750.643
4229.265, 1734.244
4231.193, 1713.896
4233.122, 1692.761
4235.050, 1670.427
4236.979, 1644.376
4238.907, 1621.282
4240.835, 1602.843
4242.764, 1590.582
4244.692, 1585.207
4246.621, 1585.782
4248.549, 1593.957
4250.478, 1612.177
4252.406, 1647.537
4254.334, 1692.147
4256.263, 1740.865
4258.191, 1800.397
4260.120, 1869.143
4262.048, 1942.904
4263.977, 2018.021
4265.905, 2092.832
4267.834, 2169.437
4269.762, 2247.515
4271.691, 2330.468
4273.619, 2405.832
4275.548, 2471.319
4277.476, 2526.866
4279.405, 2575.968
4281.333, 2624.496
4283.262, 2660.215
4285.190, 2681.479
4287.119, 2692.021
4289.047, 2691.960
4290.976, 2684.668
4292.904, 2654.362
4294.833, 2606.929
4296.761, 2558.350
4298.689, 2506.018
4300.618, 2448.875
4302.546, 2382.935
4304.475, 2314.233
4306.403, 2251.055
4308.332, 2188.363
4310.260, 2126.094
4312.188, 2072.406
4314.117, 2029.863
4316.045, 2002.661
4317.974, 1980.105
4319.902, 1964.626
4321.831, 1964.313
4323.759, 1977.901
4325.688, 2007.955
4327.616, 2041.093
4329.545, 2079.856
4331.473, 2128.390
4333.402, 2185.089
4335.330, 2249.376
4337.259, 2306.246
4339.187, 2362.853
4341.116, 2429.105
4343.044, 2483.648
4344.973, 2528.800
4346.901, 2581.293
4348.830, 2627.305
4350.758, 2660.735
4352.687, 2691.114
4354.615, 2713.625
4356.543, 2719.973
4358.472, 2717.042
4360.400, 2706.000
4362.329, 2680.748
4364.257, 2648.437
4366.186, 2614.106
4368.114, 2570.519
4370.042, 2518.754
4371.971, 2459.532
4373.899, 2398.255
4375.828, 2336.008
4377.756, 2268.189
4379.685, 2196.817
4381.613, 2121.630
4383.542, 2052.856
4385.470, 1994.111
4387.399, 1953.687
4389.327, 1918.078
4391.256, 1880.786
4393.184, 1860.019
4395.113, 1848.478
4397.041, 1834.148
4398.970, 1830.552
4400.898, 1838.465
4402.827, 1849.945
4404.755, 1863.275
4406.684, 1876.303
4408.612, 1898.283
4410.541, 1924.634
4412.469, 1949.743
4414.397, 1969.833
4416.326, 1984.984
4418.254, 2003.802
4420.183, 2022.481
4422.111, 2039.221
4424.040, 2053.018
4425.968, 2061.816
4427.896, 2060.585
4429.825, 2055.959
4431.753, 2049.821
4433.682, 2046.880
4435.610, 2039.888
4437.539, 2024.697
4439.467, 2002.811
4441.396, 1975.433
4443.324, 1943.257
4445.253, 1910.531
4447.181, 1878.335
4449.110, 1848.075
4451.038, 1819.667
4452.967, 1793.637
4454.895, 1765.820
4456.824, 1738.016
4458.752, 1711.731
4460.681, 1693.773
4462.609, 1684.237
4464.538, 1675.374
4466.466, 1668.483
4468.395, 1664.068
4470.323, 1664.016
4472.251, 1665.910
4474.180, 1665.159
4476.108, 1668.709
4478.037, 1676.042
4479.965, 1679.381
4481.894, 1685.397
4483.822, 1698.828
4485.750, 1708.000
4487.679, 1714.729
4489.607, 1719.955
4491.536, 1726.572
4493.464, 1733.831
4495.393, 1738.559
4497.321, 1743.103
4499.250, 1747.896
4501.178, 1749.276
4503.107, 1752.124
4505.035, 1761.369
4506.964, 1764.318
4508.892, 1763.338
4510.821, 1764.015
4512.749, 1764.984
4514.678, 1765.765
4516.606, 1764.066
4518.535, 1762.115
4520.463, 1760.759
4522.392, 1761.562
4524.320, 1760.879
4526.249, 1753.730
4528.177, 1750.216
4530.105, 1750.446
4532.034, 1752.062
4533.962, 1753.180
4535.891, 1753.511
4537.819, 1757.874
4539.748, 1760.311
4541.676, 1754.774
4543.604, 1756.127
4545.533, 1758.400
4547.461, 1751.241
4549.390, 1749.375
4551.318, 1752.486
4553.247, 1753.185
4555.175, 1750.951
4557.104, 1746.255
4559.032, 1743.854
4560.961, 1743.553
4562.889, 1746.291
4564.818, 1746.915
4566.746, 1744.491
4568.675, 1735.261
4570.603, 1731.770
4572.532, 1732.844
4574.460, 1726.469
4576.389, 1726.768
4578.317, 1735.523
4580.246, 1728.818
4582.174, 1722.164
4584.103, 1727.536
4586.031, 1727.691
4587.959, 1724.613
4589.888, 1720.328
4591.816, 1717.971
4593.745, 1716.915
4595.673, 1715.243
4597.602, 1711.913
4599.530, 1707.800
4601.458, 1710.702
4603.387, 1711.836
4605.315, 1706.432
4607.244, 1703.584
4609.172, 1700.836
4611.101, 1695.696
4613.029, 1688.348
4614.958, 1681.547
4616.886, 1682.073
4618.815, 1676.548
4620.743, 1665.340
4622.672, 1654.059
4624.600, 1648.173
4626.529, 1648.750
4628.457, 1640.679
4630.386, 1633.863
4632.314, 1634.541
4634.243, 1627.146
4636.171, 1618.902
4638.100, 1617.631
4640.028, 1610.716
4641.957, 1601.486
4643.885, 1598.061
4645.813, 1592.355
4647.742, 1585.458
4649.670, 1589.642
4651.599, 1586.685
4653.527, 1573.631
4655.456, 1568.616
4657.384, 1562.277
4659.313, 1550.353
4661.241, 1549.133
4663.169, 1548.756
4665.098, 1539.115
4667.026, 1534.741
4668.955, 1531.706
4670.883, 1523.940
4672.812, 1517.861
4674.740, 1512.711
4676.669, 1504.808
4678.597, 1498.023
4680.526, 1492.443
4682.454, 1484.015
4684.383, 1477.501
4686.311, 1473.882
4688.240, 1469.634
4690.168, 1462.439
4692.097, 1451.586
4694.025, 1444.687
4695.954, 1438.641
4697.882, 1430.419
4699.811, 1424.605
4701.739, 1418.904
4703.667, 1410.301
4705.596, 1403.426
4707.524, 1398.139
4709.453, 1394.009
4711.381, 1388.585
4713.310, 1382.033
4715.238, 1375.616
4717.167, 1369.371
4719.095, 1363.032
4721.023, 1355.021
4722.952, 1348.688
4724.880, 1344.311
4726.809, 1333.257
4728.737, 1321.518
4730.666, 1311.695
4732.594, 1311.795
4734.523, 1310.028
4736.451, 1299.242
4738.380, 1292.754
4740.308, 1286.234
4742.237, 1272.938
4744.165, 1266.612
4746.094, 1261.774
4748.022, 1251.404
4749.951, 1241.102
4751.879, 1231.578
4753.808, 1222.812
4755.736, 1214.476
4757.665, 1206.905
4759.593, 1202.034
4761.521, 1194.022
4763.450, 1183.385
4765.378, 1174.901
4767.307, 1167.466
4769.235, 1159.856
4771.164, 1145.604
4773.092, 1134.442
4775.021, 1128.544
4776.949, 1120.881
4778.877, 1114.834
4780.806, 1111.211
4782.734, 1102.701
4784.663, 1093.738
4786.591, 1086.516
4788.520, 1079.874
4790.448, 1073.731
4792.377, 1068.098
4794.305, 1064.050
4796.234, 1059.145
4798.162, 1051.301
4800.091, 1043.245
4802.019, 1035.485
4803.948, 1028.552
4805.876, 1018.211
4807.805, 1008.442
4809.733, 1004.931
4811.662, 996.9667
4813.590, 988.1281
4815.519, 983.2145
4817.447, 979.6214
4819.375, 974.7086
4821.304, 964.1822
4823.232, 954.8105
4825.161, 946.6970
4827.089, 939.4554
4829.018, 931.6994
4830.946, 922.6163
4832.875, 909.3115
4834.803, 901.7531
4836.731, 897.4233
4838.660, 888.5126
4840.588, 882.5599
4842.517, 878.1584
4844.445, 869.5959
4846.374, 861.3422
4848.302, 853.7277
4850.231, 845.7111
4852.159, 839.1502
4854.088, 833.5312
4856.016, 825.9069
4857.945, 821.2460
4859.873, 818.9231
4861.802, 816.4420
4863.730, 807.4518
4865.659, 795.1867
4867.587, 792.2089
4869.516, 789.3561
4871.444, 785.1185
4873.373, 780.6806
4875.301, 773.9030
4877.229, 765.2745
4879.158, 755.5889
4881.086, 751.1101
4883.015, 750.2269
4884.943, 745.3106
4886.872, 739.2903
4888.800, 732.8511
4890.729, 725.6854
4892.657, 720.6318
4894.585, 716.6318
4896.514, 709.3802
4898.442, 700.9796
4900.371, 693.5275
4902.299, 692.6049
4904.228, 688.9889
4906.156, 682.0455
4908.085, 672.3984
4910.013, 665.9935
4911.942, 661.6130
4913.870, 654.4106
4915.799, 649.0408
4917.727, 644.7090
4919.656, 638.1222
4921.584, 633.9881
4923.513, 631.1554
4925.441, 626.8038
4927.370, 622.7641
4929.298, 619.4006
4931.227, 617.6847
4933.155, 613.0730
4935.083, 607.7087
4937.012, 604.9361
4938.940, 600.8704
4940.869, 596.1981
4942.797, 591.8043
4944.726, 590.1134
4946.654, 587.5637
4948.583, 580.0245
4950.511, 576.1511
4952.439, 573.1048
4954.368, 568.4492
4956.296, 565.9013
4958.225, 563.2484
4960.153, 558.6980
4962.082, 552.9730
4964.010, 548.4105
4965.939, 545.9151
4967.867, 541.0358
4969.796, 536.5675
4971.724, 533.8868
4973.653, 532.9503
4975.581, 530.2421
4977.510, 525.0026
4979.438, 519.6708
4981.367, 517.8917
4983.295, 519.0422
4985.224, 516.8929
4987.152, 511.8716
4989.081, 506.2336
4991.009, 506.8524
4992.938, 505.7740
4994.866, 502.2455
4996.794, 496.5950
4998.723, 493.5316
5000.651, 492.6374
5002.580, 493.2586
5004.508, 490.7684
5006.437, 486.4731
5008.365, 481.8119
5010.293, 480.9298
5012.222, 481.3549
5014.150, 481.2721
5016.079, 478.0956
5018.007, 475.6240
5019.936, 475.7702
5021.864, 474.4734
5023.793, 472.5556
5025.721, 470.5005
5027.650, 469.4196
5029.578, 468.6710
5031.507, 467.6234
5033.435, 463.4795
5035.364, 462.3987
5037.292, 463.6767
5039.221, 462.2380
5041.149, 461.5894
5043.078, 461.5788
5045.006, 461.2828
5046.935, 458.6122
5048.863, 456.8858
5050.792, 460.5165
5052.720, 460.2248
5054.648, 459.0111
5056.577, 459.3584
5058.505, 458.0457
5060.434, 457.7685
5062.362, 459.2343
5064.291, 458.0233
5066.219, 457.0842
5068.147, 457.2681
5070.076, 457.9763
5072.004, 458.6360
5073.933, 459.1676
5075.861, 459.5958
5077.790, 460.8084
5079.718, 461.7671
5081.647, 460.5556
5083.575, 460.5009
5085.504, 460.6916
5087.432, 460.2833
5089.361, 459.6423
5091.289, 457.6835
5093.218, 454.4286
5095.146, 455.7372
5097.075, 456.6972
5099.003, 456.2145
5100.932, 456.6323
5102.860, 457.5563
5104.789, 458.1078
5106.717, 456.5465
5108.646, 454.6060
5110.574, 454.2130
5112.502, 458.8455
5114.431, 456.3078
5116.359, 453.9766
5118.288, 456.2496
5120.216, 458.2403
5122.145, 459.2747
5124.073, 459.2129
5126.001, 457.4123
5127.930, 457.6696
5129.858, 458.7589
5131.787, 455.5504
5133.715, 455.9791
5135.644, 457.9909
5137.572, 458.4487
5139.501, 454.9670
5141.429, 451.6260
5143.358, 450.9557
5145.286, 452.4101
5147.215, 452.8263
5149.143, 451.5028
5151.072, 450.3521
5153.000, 445.9776
5154.929, 440.8265
5156.857, 441.0499
5158.786, 438.6556
5160.714, 437.7389
5162.643, 442.3831
5164.571, 439.0146
5166.500, 434.0577
5168.428, 431.1371
5170.356, 430.9545
5172.285, 431.5234
5174.213, 432.2013
5176.142, 433.2039
5178.070, 431.4176
5179.999, 428.2148
5181.927, 425.3781
5183.855, 426.2723
5185.784, 427.3645
5187.712, 426.5222
5189.641, 424.8138
5191.569, 423.3388
5193.498, 422.1495
5195.426, 420.8083
5197.355, 416.1339
5199.283, 411.9662
5201.212, 414.3226
5203.140, 414.0966
5205.069, 412.2272
5206.997, 409.5981
5208.926, 408.6750
5210.854, 406.0383
5212.783, 402.0408
5214.711, 400.4463
5216.640, 396.9586
5218.568, 393.7392
5220.497, 394.7113
5222.425, 392.4831
5224.354, 390.5679
5226.282, 390.3283
5228.210, 387.0220
5230.139, 385.1586
5232.067, 384.9430
5233.996, 384.5833
5235.924, 384.0465
5237.853, 381.9365
5239.781, 376.8578
5241.709, 374.4632
5243.638, 373.5773
5245.566, 372.9825
5247.495, 369.9077
5249.423, 366.4022
5251.352, 364.0455
5253.280, 365.5128
5255.209, 364.3897
5257.137, 361.7818
5259.066, 358.9196
5260.994, 359.5018
5262.923, 359.2072
5264.851, 357.3960
5266.780, 355.2248
5268.708, 353.8452
5270.637, 351.2407
5272.565, 345.1859
5274.494, 343.1467
5276.422, 341.7569
5278.351, 339.6963
5280.279, 336.7042
5282.208, 334.8507
5284.136, 333.8409
5286.064, 333.5462
5287.993, 329.4041
5289.921, 326.4784
5291.850, 326.5908
5293.778, 325.4274
5295.707, 324.0566
5297.635, 322.5463
5299.563, 320.4534
5301.492, 320.6851
5303.420, 320.1121
5305.349, 317.0793
5307.277, 316.9829
5309.206, 313.5208
5311.134, 309.6598
5313.063, 314.2129
5314.991, 309.6311
5316.920, 305.7042
5318.848, 309.1164
5320.777, 308.9628
5322.705, 305.8723
5324.634, 302.4505
5326.562, 304.0103
5328.491, 302.3404
5330.419, 299.4530
5332.348, 297.2597
5334.276, 295.5258
5336.205, 294.8867
5338.133, 294.7728
5340.062, 294.1785
5341.990, 290.7279
5343.918, 287.4007
5345.847, 286.0497
5347.775, 283.1254
5349.704, 284.1358
5351.632, 286.7980
5353.561, 284.8953
5355.489, 282.8215
5357.417, 279.2343
5359.346, 273.7877
5361.274, 275.8437
5363.203, 275.9935
5365.131, 274.2577
5367.060, 273.9435
5368.988, 273.1747
5370.917, 271.3790
5372.845, 268.8427
5374.774, 268.1280
5376.702, 265.8727
5378.631, 263.7210
5380.559, 264.7116
5382.488, 265.2367
5384.416, 264.4698
5386.345, 262.8104
5388.273, 262.5269
5390.202, 261.8670
5392.130, 261.1669
5394.059, 260.8598
5395.987, 258.5472
5397.916, 256.3881
5399.844, 255.0165
5401.772, 254.4031
5403.701, 253.5212
5405.629, 252.5235
5407.558, 251.7273
5409.486, 252.8118
5411.415, 252.3862
5413.343, 250.5991
5415.271, 248.3853
5417.200, 246.6062
5419.128, 245.9590
5421.057, 246.0944
5422.985, 244.5823
5424.914, 245.0349
5426.842, 244.7339
5428.771, 241.6522
5430.699, 239.9973
5432.628, 240.6600
5434.556, 242.0180
5436.485, 241.4153
5438.413, 238.5997
5440.342, 236.9744
5442.270, 237.3298
5444.199, 236.1523
5446.127, 235.2585
5448.056, 234.8552
5449.984, 234.8615
5451.913, 235.3661
5453.841, 235.6664
5455.770, 235.2744
5457.698, 233.5641
5459.626, 231.9484
5461.555, 231.4314
5463.483, 231.5342
5465.412, 228.3011
5467.340, 226.0972
5469.269, 227.5100
5471.197, 232.7417
5473.125, 230.1770
5475.054, 228.0447
5476.982, 227.3230
5478.911, 226.4446
5480.839, 228.8771
5482.768, 229.3846
5484.696, 227.3268
5486.625, 226.5417
5488.553, 225.8909
5490.482, 224.4880
5492.410, 222.2818
5494.339, 221.3762
5496.267, 219.9143
5498.196, 219.5257
5500.124, 221.7081
5502.053, 220.1533
5503.981, 218.9340
5505.910, 218.9290
5507.838, 219.9715
5509.767, 219.6572
5511.695, 217.6881
5513.624, 215.3274
5515.552, 215.9635
5517.480, 214.6568
5519.409, 213.6517
5521.337, 214.3472
5523.266, 216.2259
5525.194, 216.8559
5527.123, 215.4898
5529.051, 211.9921
5530.979, 212.0994
5532.908, 211.5524
5534.836, 210.9759
5536.765, 212.1207
5538.693, 208.4943
5540.622, 207.2091
5542.550, 208.3366
5544.479, 208.6085
5546.407, 207.4883
5548.336, 207.5672
5550.264, 208.6582
5552.193, 206.9470
5554.121, 207.5577
5556.050, 206.8421
5557.978, 204.2805
5559.907, 206.4419
5561.835, 206.1259
5563.764, 204.3658
5565.692, 202.7696
5567.621, 202.3128
5569.549, 203.1379
5571.478, 202.9697
5573.406, 200.3574
5575.334, 200.1178
5577.263, 200.1404
5579.191, 200.1261
5581.120, 200.3161
5583.048, 199.0348
5584.977, 199.0311
5586.905, 199.1852
5588.833, 197.3609
5590.762, 196.4699
5592.690, 197.1543
5594.619, 198.1233
5596.547, 197.3879
5598.476, 197.5181
5600.404, 196.3187
5602.333, 194.7032
5604.261, 196.4871
5606.190, 195.7701
5608.118, 195.0260
5610.047, 194.3276
5611.975, 191.3958
5613.904, 192.3735
5615.832, 192.7712
5617.761, 191.4760
5619.689, 190.5591
5621.618, 190.3186
5623.546, 189.8052
5625.475, 189.1078
5627.403, 189.9036
5629.332, 188.8926
5631.260, 188.6561
5633.188, 189.3668
5635.117, 187.4290
5637.045, 186.7239
5638.974, 186.7126
5640.902, 186.6951
5642.831, 185.9035
5644.759, 185.3973
5646.688, 184.7818
5648.616, 184.2041
5650.544, 184.6763
5652.473, 185.5792
5654.401, 185.7100
5656.330, 184.7998
5658.258, 183.4883
5660.187, 181.9334
5662.115, 180.6150
5664.044, 180.0267
5665.972, 181.3152
5667.901, 180.6586
5669.829, 179.8955
5671.758, 179.5322
5673.686, 178.7617
5675.615, 177.7444
5677.543, 176.7967
5679.472, 176.2565
5681.400, 176.5500
5683.329, 175.0083
5685.257, 174.7334
5687.186, 175.2707
5689.114, 173.6329
5691.042, 174.5780
5692.971, 175.4942
5694.899, 175.1478
5696.828, 172.8675
5698.756, 172.4673
5700.685, 173.2865
5702.613, 173.3387
5704.542, 170.9070
5706.470, 169.5723
5708.398, 170.4363
5710.327, 171.7650
5712.255, 171.6626
5714.184, 168.9031
5716.112, 167.4483
5718.041, 167.7559
5719.969, 168.9711
5721.898, 166.2805
5723.826, 167.8861
5725.755, 168.2822
5727.683, 165.2055
5729.612, 165.2086
5731.540, 165.5204
5733.469, 165.8845
5735.397, 165.8208
5737.326, 164.0540
5739.254, 165.2865
5741.183, 166.0208
5743.111, 165.1651
5745.040, 163.3362
5746.968, 164.3870
5748.896, 163.0542
5750.825, 161.9181
5752.753, 164.6879
5754.682, 159.7684
5756.610, 159.5944
5758.539, 160.1881
5760.467, 157.1419
5762.396, 156.7905
5764.324, 156.9671
5766.252, 157.2945
5768.181, 157.3244
5770.109, 155.6484
5772.038, 154.0628
5773.966, 154.5895
5775.895, 155.7094
5777.823, 153.7614
5779.752, 152.5317
5781.680, 152.0212
5783.609, 151.6857
5785.537, 151.1787
5787.466, 152.0485
5789.394, 152.4494
5791.323, 151.8288
5793.251, 150.5533
5795.180, 151.1450
5797.108, 149.9720
5799.037, 149.4077
5800.965, 149.8602
5802.894, 149.2474
5804.822, 148.8838
5806.750, 148.5513
5808.679, 148.5744
5810.607, 149.3287
5812.536, 147.4519
5814.464, 147.7923
5816.393, 146.9485
5818.321, 143.5909
5820.250, 144.7291
5822.178, 145.0310
5824.106, 144.6326
5826.035, 144.4225
5827.963, 145.1974
5829.892, 144.0575
5831.820, 143.3245
5833.749, 142.5461
5835.677, 141.0688
5837.606, 142.0710
5839.534, 142.0750
5841.463, 141.3777
5843.391, 140.4417
5845.320, 139.0318
5847.248, 139.2621
5849.177, 139.6508
5851.105, 139.5367
5853.034, 138.7714
5854.962, 137.0690
5856.891, 137.1501
5858.819, 137.9106
5860.748, 137.7038
5862.676, 134.5161
5864.604, 135.8510
5866.533, 135.9026
5868.461, 134.6750
5870.390, 134.8920
5872.318, 135.0404
5874.247, 134.4848
5876.175, 134.6320
5878.104, 135.3648
5880.032, 133.4263
5881.960, 133.4382
5883.889, 132.5826
5885.817, 131.4644
5887.746, 131.8305
5889.674, 129.4615
5891.603, 129.7535
5893.531, 130.0623
5895.460, 129.0112
5897.388, 128.4511
5899.317, 129.8710
5901.245, 128.8583
5903.174, 127.3707
5905.102, 128.4403
5907.031, 127.1942
5908.959, 126.2679
5910.888, 126.5346
5912.816, 127.3160
5914.745, 126.9530
5916.673, 127.0938
5918.602, 125.1822
5920.530, 124.2188
5922.458, 125.9334
5924.387, 125.8235
5926.315, 124.8508
5928.244, 123.8459
5930.172, 123.6543
5932.101, 124.6236
5934.029, 123.7209
5935.958, 124.6005
5937.886, 124.3180
5939.814, 122.8672
5941.743, 123.9307
5943.671, 122.9574
5945.600, 122.1992
5947.528, 122.0947
5949.457, 122.1258
5951.385, 120.5318
5953.314, 121.7053
5955.242, 121.2849
5957.171, 119.7572
5959.099, 119.4270
5961.028, 120.0063
5962.956, 120.7311
5964.885, 121.4623
5966.813, 122.2477
5968.742, 123.3277
5970.670, 121.9695
5972.599, 121.4280
5974.527, 121.1996
5976.456, 121.7852
5978.384, 126.4847
5980.313, 130.2334
5982.241, 131.5367
5984.169, 129.2948
5986.098, 124.1675
5988.026, 119.4039
5989.955, 119.4731
5991.883, 119.9118
5993.812, 118.6916
5995.740, 116.0003
5997.668, 115.1902
5999.597, 115.5313
6001.525, 115.3745
6003.454, 114.9209
6005.382, 114.9837
6007.311, 115.5088
6009.239, 113.2293
6011.168, 112.0842
6013.096, 112.2765
6015.025, 111.9482
6016.953, 112.1432
6018.882, 113.7013
6020.810, 113.3088
6022.739, 111.8425
6024.667, 112.3217
6026.596, 111.2306
6028.524, 111.2414
6030.453, 111.5614
6032.381, 111.5653
6034.310, 111.2397
6036.238, 109.6441
6038.167, 110.8538
6040.095, 110.7605
6042.023, 109.1475
6043.952, 109.3230
6045.880, 110.4894
6047.809, 107.1580
6049.737, 106.5110
6051.666, 108.7832
6053.594, 108.1861
6055.522, 108.2317
6057.451, 107.9388
6059.379, 107.3899
6061.308, 107.3978
6063.236, 108.6564
6065.165, 106.9182
6067.093, 108.1075
6069.022, 107.5644
6070.950, 105.4978
6072.879, 105.4993
6074.807, 106.0313
6076.736, 105.7386
6078.664, 103.9220
6080.593, 102.7982
6082.521, 104.5578
6084.450, 103.5024
6086.378, 103.6812
6088.307, 103.8643
6090.235, 103.5721
6092.164, 103.1122
6094.092, 103.2748
6096.021, 103.1974
6097.949, 103.8013
6099.877, 104.3988
6101.806, 103.7628
6103.734, 99.48851
6105.663, 100.1659
6107.591, 100.9884
6109.520, 100.1213
6111.448, 98.76052
6113.376, 100.7769
6115.305, 101.4316
6117.233, 101.2687
6119.162, 100.2778
6121.090, 98.87230
6123.019, 97.83369
6124.947, 96.31335
6126.876, 96.56436
6128.804, 97.00783
6130.733, 97.10032
6132.661, 97.15199
6134.590, 97.44804
6136.518, 97.22986
6138.447, 97.37341
6140.375, 96.90386
6142.304, 95.55419
6144.232, 95.35780
6146.161, 96.80711
6148.089, 95.52282
6150.018, 94.43460
6151.946, 94.68375
6153.875, 94.41915
6155.803, 95.21241
6157.731, 92.60007
6159.660, 92.42081
6161.588, 93.51012
6163.517, 92.69582
6165.445, 93.33028
6167.374, 93.48374
6169.302, 92.39610
6171.230, 92.54520
6173.159, 93.78625
6175.087, 92.15435
6177.016, 90.85401
6178.944, 91.20448
6180.873, 92.02003
6182.801, 92.31169
6184.730, 91.93324
6186.658, 92.73783
6188.587, 90.40878
6190.515, 89.45142
6192.444, 89.37925
6194.372, 88.94933
6196.301, 88.17773
6198.229, 88.69324
6200.158, 89.13957
6202.086, 89.62054
6204.015, 89.36943
6205.943, 88.27275
6207.872, 89.67596
6209.800, 86.74415
6211.729, 87.21953
6213.657, 88.93475
6215.585, 88.93140
6217.514, 87.02526
6219.442, 88.61227
6221.371, 87.34823
6223.299, 86.95672
6225.228, 86.97857
6227.156, 86.30491
6229.084, 85.79671
6231.013, 86.57767
6232.941, 87.18890
6234.870, 86.94820
6236.798, 85.77164
6238.727, 84.46745
6240.655, 85.09570
6242.584, 83.58170
6244.512, 82.40295
6246.441, 82.24834
6248.369, 82.92265
6250.298, 83.90688
6252.226, 84.35819
6254.155, 84.19643
6256.083, 81.94678
6258.012, 81.28831
6259.940, 82.59310
6261.869, 82.96578
6263.797, 84.48647
6265.726, 83.18551
6267.654, 82.03411
6269.583, 82.22374
6271.511, 82.76611
6273.439, 82.03640
6275.368, 82.52482
6277.296, 81.92101
6279.225, 80.25857
6281.153, 79.11708
6283.082, 78.70633
6285.010, 77.49404
6286.938, 78.38731
6288.867, 78.18838
6290.795, 78.30458
6292.724, 78.07327
6294.652, 77.87537
6296.581, 80.46849
6298.509, 79.99708
6300.438, 78.61546
6302.366, 78.80896
6304.295, 79.18079
6306.223, 78.78378
6308.152, 78.68796
6310.080, 76.73563
6312.009, 76.62275
6313.937, 76.45188
6315.866, 76.03477
6317.794, 75.86812
6319.723, 76.22652
6321.651, 78.47664
6323.580, 76.24155
6325.508, 76.26254
6327.437, 76.82880
6329.365, 76.09289
6331.293, 74.69264
6333.222, 72.72385
6335.150, 74.30299
6337.079, 74.26990
6339.007, 74.25762
6340.936, 74.41838
6342.864, 73.85725
6344.792, 74.56849
6346.721, 74.28295
6348.649, 73.71129
6350.578, 73.02818
6352.506, 73.51512
6354.435, 74.81796
6356.363, 73.64069
6358.292, 73.95335
6360.220, 72.07610
6362.149, 72.58952
6364.077, 73.15909
6366.006, 72.19914
6367.934, 71.55232
6369.863, 73.08735
6371.791, 72.08046
6373.720, 72.96162
6375.648, 72.90894
6377.577, 71.83079
6379.505, 71.62717
6381.434, 72.10440
6383.362, 72.06675
6385.291, 71.67750
6387.219, 71.05229
6389.147, 70.35521
6391.076, 70.05840
6393.004, 70.41743
6394.933, 69.94788
6396.861, 70.92210
6398.790, 70.13037
6400.718, 70.56750
6402.646, 70.77705
6404.575, 68.96047
6406.503, 68.56332
6408.432, 68.59373
6410.360, 69.24409
6412.289, 69.38459
6414.217, 70.26421
6416.146, 70.50460
6418.074, 68.28022
6420.003, 69.45662
6421.931, 67.42280
6423.860, 67.55779
6425.788, 67.13133
6427.717, 66.29951
6429.645, 66.80193
6431.574, 68.64177
6433.502, 66.88262
6435.431, 68.37183
6437.359, 67.70665
6439.288, 66.80110
6441.216, 66.83586
6443.145, 67.37760
6445.073, 67.56877
6447.001, 66.00716
6448.930, 64.47068
6450.858, 65.05568
6452.787, 65.16080
6454.715, 65.96167
6456.644, 67.51762
6458.572, 65.66884
6460.500, 66.27162
6462.429, 67.93826
6464.357, 66.56805
6466.286, 65.06486
6468.214, 65.40553
6470.143, 65.92809
6472.071, 63.83688
6474.000, 64.49078
6475.928, 63.71525
6477.857, 65.54758
6479.785, 65.27923
6481.714, 63.85237
6483.642, 63.61802
6485.571, 64.11192
6487.499, 66.04096
6489.428, 64.22487
6491.356, 61.77206
6493.285, 62.65400
6495.213, 63.76641
6497.142, 63.19778
6499.070, 62.50616
6500.999, 61.49475
6502.927, 62.44790
6504.855, 61.00453
6506.784, 61.01122
6508.712, 62.45848
6510.641, 62.64605
6512.569, 60.90551
6514.498, 60.38969
6516.426, 61.36956
6518.354, 62.00132
6520.283, 61.29036
6522.211, 59.94827
6524.140, 59.20247
6526.068, 59.26044
6527.997, 59.36230
6529.925, 59.56155
6531.854, 61.08617
6533.782, 59.90858
6535.711, 60.56750
6537.639, 61.11192
6539.568, 60.29649
6541.496, 59.23025
6543.425, 58.23578
6545.353, 58.97297
6547.282, 59.70968
6549.210, 60.21796
6551.139, 58.87671
6553.067, 57.26645
6554.996, 57.88931
6556.924, 59.91090
6558.853, 56.89402
6560.781, 57.45712
6562.709, 57.84402
6564.638, 58.91848
6566.566, 59.11670
6568.495, 58.39722
6570.423, 57.81311
6572.352, 57.87801
6574.280, 58.37103
6576.208, 56.29716
6578.137, 58.06193
6580.065, 56.09571
6581.994, 55.35030
6583.922, 55.83050
6585.851, 55.55697
6587.779, 55.91041
6589.708, 57.38477
6591.636, 54.50901
6593.565, 54.62978
6595.493, 56.02646
6597.422, 56.23780
6599.350, 55.81599
6601.279, 55.84221
6603.207, 55.98658
6605.136, 55.33617
6607.064, 55.25013
6608.993, 55.35793
6610.921, 55.67741
6612.850, 55.36403
6614.778, 55.80502
6616.707, 55.98307
6618.635, 54.91948
6620.563, 56.47490
6622.492, 54.29810
6624.420, 53.86566
6626.349, 53.86595
6628.277, 52.78067
6630.206, 53.33458
##END=



