##NAMES=Pyrochlore
##RRUFFID=R080058
##IDEAL CHEMISTRY=Ca_2_Nb_2_O_7_
##LOCALITY=Samiresy, Madagascar
##OWNER=RRUFF
##SOURCE=Michael Scott
##DESCRIPTION=Orange octahedron, amorphous
##STATUS=The identification of this mineral is not yet confirmed
##URL=https://www.rruff.net/odr/rruff_sample/R080058
##DIFFRACTION SAMPLE DESCRIPTION=Powder
##FILETYPE=Raman Processed
##RAMAN WAVELENGTH=780

99.24365, 4369.383
101.1721, 4330.159
103.1006, 4302.579
105.0291, 4283.009
106.9575, 4263.146
108.8860, 4237.507
110.8145, 4216.902
112.7429, 4195.160
114.6714, 4178.865
116.5999, 4171.817
118.5283, 4169.572
120.4568, 4165.486
122.3853, 4155.240
124.3137, 4149.592
126.2422, 4148.913
128.1707, 4150.811
130.0991, 4152.000
132.0276, 4154.253
133.9561, 4162.276
135.8845, 4178.304
137.8130, 4192.016
139.7415, 4199.677
141.6699, 4207.666
143.5984, 4220.993
145.5269, 4235.663
147.4553, 4245.412
149.3838, 4248.461
151.3123, 4252.255
153.2407, 4259.650
155.1692, 4264.811
157.0977, 4266.217
159.0261, 4263.686
160.9546, 4256.347
162.8831, 4243.302
164.8115, 4228.616
166.7400, 4210.558
168.6685, 4193.526
170.5969, 4180.833
172.5254, 4167.820
174.4539, 4150.378
176.3823, 4128.683
178.3108, 4106.272
180.2393, 4081.534
182.1677, 4061.250
184.0962, 4050.026
186.0247, 4040.594
187.9531, 4028.563
189.8816, 4014.539
191.8101, 4000.247
193.7385, 3985.027
195.6670, 3972.161
197.5955, 3962.486
199.5239, 3954.194
201.4524, 3946.658
203.3809, 3939.560
205.3093, 3932.761
207.2378, 3926.303
209.1663, 3918.489
211.0947, 3908.443
213.0232, 3899.303
214.9517, 3891.925
216.8801, 3886.255
218.8086, 3884.203
220.7371, 3884.262
222.6655, 3877.627
224.5940, 3862.503
226.5225, 3851.071
228.4509, 3850.746
230.3794, 3850.151
232.3079, 3843.453
234.2363, 3834.038
236.1648, 3828.865
238.0933, 3827.392
240.0217, 3823.240
241.9502, 3814.624
243.8787, 3805.029
245.8071, 3795.008
247.7356, 3784.669
249.6641, 3772.782
251.5925, 3760.759
253.5210, 3753.635
255.4495, 3753.417
257.3779, 3747.845
259.3064, 3730.786
261.2349, 3713.197
263.1633, 3697.389
265.0918, 3684.204
267.0203, 3675.898
268.9487, 3671.453
270.8772, 3664.448
272.8057, 3652.084
274.7341, 3641.682
276.6626, 3638.490
278.5911, 3632.697
280.5195, 3614.199
282.4480, 3591.717
284.3765, 3578.696
286.3049, 3576.431
288.2334, 3571.685
290.1619, 3561.468
292.0903, 3552.053
294.0188, 3545.480
295.9473, 3538.982
297.8757, 3530.197
299.8042, 3520.329
301.7327, 3511.997
303.6611, 3505.670
305.5896, 3499.471
307.5181, 3493.154
309.4465, 3487.160
311.3750, 3481.166
313.3035, 3475.844
315.2319, 3472.611
317.1604, 3470.213
319.0889, 3464.124
321.0173, 3451.995
322.9458, 3444.180
324.8743, 3443.563
326.8027, 3441.486
328.7312, 3432.283
330.6597, 3423.341
332.5882, 3421.296
334.5166, 3423.849
336.4451, 3422.971
338.3736, 3417.934
340.3020, 3413.648
342.2305, 3410.580
344.1590, 3407.426
346.0874, 3402.901
348.0159, 3398.837
349.9444, 3397.652
351.8728, 3392.593
353.8013, 3393.559
355.7298, 3385.363
357.6582, 3379.485
359.5867, 3377.207
361.5152, 3374.991
363.4436, 3369.119
365.3721, 3365.659
367.3006, 3372.028
369.2290, 3381.011
371.1575, 3377.514
373.0860, 3363.020
375.0144, 3350.361
376.9429, 3340.033
378.8714, 3332.498
380.7998, 3332.289
382.7283, 3329.824
384.6568, 3319.967
386.5852, 3307.156
388.5137, 3296.260
390.4422, 3286.979
392.3706, 3278.482
394.2991, 3270.852
396.2276, 3262.407
398.1560, 3251.392
400.0845, 3241.355
402.0130, 3233.982
403.9414, 3227.078
405.8699, 3218.619
407.7984, 3209.725
409.7268, 3202.721
411.6553, 3197.588
413.5838, 3191.282
415.5122, 3181.436
417.4407, 3174.742
419.3692, 3173.126
421.2976, 3172.932
423.2261, 3174.014
425.1546, 3174.365
427.0830, 3171.090
429.0115, 3165.555
430.9400, 3162.242
432.8684, 3162.027
434.7969, 3161.501
436.7254, 3162.130
438.6538, 3160.276
440.5823, 3153.936
442.5108, 3146.491
444.4392, 3137.247
446.3677, 3129.773
448.2962, 3130.636
450.2246, 3138.648
452.1531, 3139.689
454.0816, 3128.787
456.0100, 3123.560
457.9385, 3127.561
459.8670, 3130.316
461.7954, 3127.341
463.7239, 3124.097
465.6524, 3124.848
467.5808, 3126.802
469.5093, 3126.310
471.4378, 3123.407
473.3662, 3118.535
475.2947, 3111.045
477.2232, 3104.586
479.1516, 3099.324
481.0801, 3095.271
483.0086, 3093.190
484.9370, 3091.213
486.8655, 3088.561
488.7940, 3085.198
490.7224, 3080.893
492.6509, 3075.777
494.5794, 3071.102
496.5078, 3067.042
498.4363, 3059.920
500.3648, 3047.640
502.2932, 3038.984
504.2217, 3038.990
506.1502, 3040.108
508.0786, 3039.105
510.0071, 3037.716
511.9356, 3038.442
513.8640, 3039.857
515.7925, 3037.761
517.7209, 3032.589
519.6494, 3027.289
521.5779, 3021.749
523.5063, 3018.021
525.4348, 3018.175
527.3633, 3017.580
529.2917, 3012.869
531.2202, 3009.499
533.1487, 3013.308
535.0771, 3018.897
537.0056, 3016.929
538.9341, 3010.794
540.8625, 3010.720
542.7910, 3017.008
544.7195, 3020.290
546.6479, 3017.548
548.5764, 3016.882
550.5049, 3020.478
552.4333, 3024.869
554.3618, 3029.383
556.2903, 3034.013
558.2188, 3039.247
560.1472, 3044.281
562.0757, 3047.144
564.0042, 3048.883
565.9326, 3053.965
567.8611, 3063.139
569.7896, 3069.976
571.7180, 3070.738
573.6465, 3074.420
575.5750, 3084.750
577.5035, 3092.994
579.4319, 3095.952
581.3604, 3096.539
583.2889, 3095.864
585.2173, 3094.651
587.1458, 3092.047
589.0743, 3089.814
591.0027, 3095.063
592.9312, 3108.947
594.8597, 3119.057
596.7881, 3126.109
598.7166, 3126.816
600.6451, 3115.716
602.5735, 3110.809
604.5020, 3121.895
606.4305, 3132.614
608.3589, 3132.546
610.2874, 3129.924
612.2159, 3129.494
614.1443, 3131.437
616.0728, 3138.284
618.0013, 3136.961
619.9297, 3138.198
621.8582, 3139.966
623.7867, 3136.153
625.7151, 3139.966
627.6436, 3138.642
629.5721, 3127.436
631.5005, 3117.751
633.4290, 3114.758
635.3575, 3113.125
637.2859, 3112.344
639.2144, 3110.139
641.1429, 3104.789
643.0714, 3096.609
644.9998, 3084.121
646.9283, 3077.105
648.8568, 3067.924
650.7852, 3057.287
652.7137, 3050.282
654.6422, 3038.421
656.5706, 3026.512
658.4991, 3015.833
660.4276, 3003.493
662.3560, 2986.188
664.2845, 2970.891
666.2130, 2961.705
668.1414, 2953.257
670.0699, 2943.353
671.9984, 2931.679
673.9268, 2915.122
675.8553, 2898.062
677.7838, 2889.460
679.7122, 2886.953
681.6407, 2882.052
683.5692, 2874.388
685.4976, 2869.623
687.4261, 2868.952
689.3546, 2867.583
691.2830, 2865.500
693.2115, 2861.470
695.1400, 2852.943
697.0684, 2845.981
698.9969, 2843.439
700.9254, 2842.059
702.8538, 2842.263
704.7823, 2840.637
706.7108, 2830.831
708.6392, 2819.681
710.5677, 2817.578
712.4962, 2821.534
714.4246, 2821.502
716.3531, 2817.598
718.2816, 2815.593
720.2100, 2816.907
722.1385, 2813.943
724.0670, 2802.518
725.9954, 2798.151
727.9239, 2805.799
729.8524, 2810.362
731.7808, 2806.142
733.7093, 2803.122
735.6378, 2806.871
737.5662, 2810.279
739.4947, 2809.003
741.4232, 2805.726
743.3516, 2801.242
745.2801, 2796.885
747.2086, 2795.476
749.1370, 2794.999
751.0655, 2790.552
752.9940, 2782.808
754.9224, 2775.038
756.8509, 2767.237
758.7794, 2760.675
760.7078, 2755.482
762.6363, 2748.021
764.5648, 2737.647
766.4932, 2727.610
768.4217, 2719.117
770.3502, 2708.372
772.2786, 2691.913
774.2071, 2678.169
776.1356, 2672.371
778.0640, 2666.658
779.9925, 2658.797
781.9210, 2648.889
783.8494, 2635.655
785.7779, 2621.813
787.7064, 2609.270
789.6348, 2598.397
791.5633, 2590.813
793.4918, 2584.773
795.4202, 2576.926
797.3487, 2567.292
799.2772, 2554.859
801.2056, 2545.041
803.1341, 2533.285
805.0626, 2520.690
806.9910, 2509.468
808.9195, 2494.292
810.8480, 2480.908
812.7764, 2470.499
814.7049, 2460.410
816.6334, 2452.391
818.5618, 2441.099
820.4903, 2423.901
822.4188, 2406.532
824.3472, 2389.299
826.2757, 2373.534
828.2042, 2361.411
830.1326, 2348.657
832.0611, 2331.531
833.9896, 2314.812
835.9180, 2302.505
837.8465, 2291.699
839.7750, 2281.638
841.7034, 2269.803
843.6319, 2250.509
845.5604, 2239.901
847.4888, 2217.016
849.4173, 2209.846
851.3458, 2194.800
853.2742, 2174.421
855.2027, 2163.504
857.1312, 2161.290
859.0596, 2152.622
860.9881, 2136.993
862.9166, 2120.698
864.8450, 2102.866
866.7735, 2089.487
868.7020, 2081.440
870.6304, 2073.807
872.5589, 2066.720
874.4874, 2057.831
876.4158, 2045.823
878.3443, 2037.004
880.2728, 2034.945
882.2012, 2027.452
884.1297, 2007.055
886.0582, 1991.918
887.9866, 1992.000
889.9151, 1990.368
891.8436, 1979.559
893.7720, 1966.987
895.7005, 1955.133
897.6290, 1943.310
899.5574, 1930.025
901.4859, 1918.189
903.4144, 1910.313
905.3428, 1903.788
907.2713, 1898.480
909.1998, 1891.234
911.1282, 1875.727
913.0567, 1859.639
914.9852, 1854.680
916.9136, 1841.453
918.8421, 1840.847
920.7706, 1825.254
922.6990, 1817.762
924.6275, 1813.383
926.5560, 1800.360
928.4844, 1783.346
930.4129, 1773.399
932.3414, 1767.776
934.2698, 1759.126
936.1983, 1748.080
938.1268, 1737.235
940.0552, 1726.765
941.9837, 1717.702
943.9122, 1709.833
945.8406, 1700.078
947.7691, 1688.644
949.6976, 1681.061
951.6260, 1670.941
953.5545, 1660.719
955.4830, 1653.403
957.4114, 1641.250
959.3399, 1633.585
961.2684, 1626.103
963.1968, 1618.815
965.1253, 1611.274
967.0538, 1603.716
968.9822, 1594.957
970.9107, 1583.879
972.8392, 1574.381
974.7676, 1566.393
976.6961, 1560.419
978.6246, 1557.731
980.5530, 1552.966
982.4815, 1544.935
984.4100, 1537.430
986.3384, 1531.148
988.2669, 1524.734
990.1954, 1517.807
992.1238, 1511.818
994.0523, 1507.651
995.9808, 1501.762
997.9092, 1492.481
999.8377, 1485.103
1001.766, 1481.286
1003.695, 1477.668
1005.623, 1473.884
1007.552, 1468.438
1009.480, 1459.849
1011.409, 1453.567
1013.337, 1451.767
1015.265, 1449.898
1017.194, 1446.271
1019.122, 1443.882
1021.051, 1444.092
1022.979, 1444.028
1024.908, 1443.718
1026.836, 1440.961
1028.765, 1433.663
1030.693, 1427.596
1032.622, 1425.050
1034.550, 1422.097
1036.479, 1417.010
1038.407, 1413.233
1040.335, 1412.975
1042.264, 1411.301
1044.192, 1405.829
1046.121, 1401.173
1048.049, 1398.087
1049.978, 1395.915
1051.906, 1395.211
1053.835, 1394.179
1055.763, 1393.121
1057.692, 1390.805
1059.620, 1386.640
1061.549, 1382.079
1063.477, 1375.224
1065.406, 1371.903
1067.334, 1377.258
1069.262, 1378.071
1071.191, 1368.015
1073.120, 1362.009
1075.048, 1364.714
1076.976, 1365.884
1078.905, 1364.743
1080.833, 1361.777
1082.762, 1355.524
1084.690, 1351.019
1086.619, 1349.831
1088.547, 1347.033
1090.476, 1340.672
1092.404, 1336.984
1094.333, 1337.337
1096.261, 1336.689
1098.190, 1334.405
1100.118, 1332.759
1102.047, 1332.173
1103.975, 1330.548
1105.903, 1327.686
1107.832, 1326.389
1109.760, 1327.162
1111.689, 1324.526
1113.617, 1317.892
1115.546, 1314.586
1117.474, 1314.730
1119.403, 1316.838
1121.331, 1320.783
1123.260, 1321.440
1125.188, 1319.162
1127.117, 1317.913
1129.045, 1317.592
1130.974, 1317.505
1132.902, 1317.768
1134.830, 1319.498
1136.759, 1321.954
1138.687, 1321.532
1140.616, 1319.797
1142.544, 1321.522
1144.473, 1325.229
1146.401, 1328.210
1148.330, 1330.912
1150.258, 1334.904
1152.187, 1337.751
1154.115, 1334.701
1156.044, 1330.783
1157.972, 1330.054
1159.901, 1333.072
1161.829, 1343.420
1163.757, 1354.291
1165.686, 1359.590
1167.614, 1363.131
1169.543, 1366.589
1171.471, 1370.872
1173.400, 1377.537
1175.328, 1383.048
1177.257, 1383.368
1179.185, 1387.593
1181.114, 1400.957
1183.042, 1413.887
1184.971, 1423.536
1186.899, 1434.670
1188.828, 1449.733
1190.756, 1462.031
1192.684, 1468.360
1194.613, 1477.237
1196.541, 1489.128
1198.470, 1502.073
1200.398, 1516.550
1202.327, 1530.320
1204.255, 1544.404
1206.184, 1559.063
1208.112, 1573.362
1210.041, 1588.323
1211.969, 1603.689
1213.898, 1618.282
1215.826, 1638.319
1217.755, 1656.437
1219.683, 1673.256
1221.611, 1690.050
1223.540, 1706.391
1225.468, 1721.265
1227.397, 1735.212
1229.325, 1749.439
1231.254, 1763.123
1233.182, 1776.154
1235.111, 1788.103
1237.039, 1796.600
1238.968, 1807.337
1240.896, 1823.624
1242.825, 1838.917
1244.753, 1851.219
1246.682, 1863.526
1248.610, 1873.457
1250.538, 1886.655
1252.467, 1890.327
1254.395, 1895.249
1256.324, 1902.504
1258.252, 1910.159
1260.181, 1917.421
1262.109, 1924.360
1264.038, 1931.517
1265.966, 1935.945
1267.895, 1942.977
1269.823, 1945.189
1271.752, 1953.671
1273.680, 1957.480
1275.609, 1959.498
1277.537, 1961.316
1279.465, 1963.059
1281.394, 1966.519
1283.322, 1970.662
1285.251, 1974.816
1287.179, 1977.332
1289.108, 1976.886
1291.036, 1977.704
1292.965, 1979.773
1294.893, 1983.635
1296.822, 1992.694
1298.750, 1998.602
1300.679, 1998.707
1302.607, 2001.269
1304.536, 2007.369
1306.464, 2012.043
1308.392, 2018.130
1310.321, 2022.217
1312.249, 2031.915
1314.178, 2039.185
1316.106, 2046.788
1318.035, 2061.858
1319.963, 2076.172
1321.892, 2081.388
1323.820, 2085.765
1325.749, 2091.792
1327.677, 2101.123
1329.606, 2109.946
1331.534, 2120.644
1333.463, 2135.325
1335.391, 2145.475
1337.319, 2165.543
1339.248, 2181.358
1341.176, 2191.528
1343.105, 2200.845
1345.033, 2209.898
1346.962, 2221.078
1348.890, 2232.966
1350.819, 2243.082
1352.747, 2253.095
1354.676, 2263.878
1356.604, 2274.563
1358.533, 2288.130
1360.461, 2298.735
1362.390, 2298.149
1364.318, 2301.852
1366.246, 2316.052
1368.175, 2326.239
1370.103, 2329.510
1372.032, 2333.624
1373.960, 2339.610
1375.889, 2337.721
1377.817, 2339.617
1379.746, 2339.648
1381.674, 2336.277
1383.603, 2335.553
1385.531, 2330.646
1387.460, 2323.562
1389.388, 2318.923
1391.317, 2320.860
1393.245, 2320.555
1395.173, 2312.833
1397.102, 2304.054
1399.030, 2297.516
1400.959, 2288.892
1402.887, 2276.194
1404.816, 2264.653
1406.744, 2254.846
1408.673, 2243.231
1410.601, 2231.414
1412.530, 2221.390
1414.458, 2212.332
1416.387, 2208.370
1418.315, 2203.554
1420.244, 2191.199
1422.172, 2178.605
1424.100, 2167.845
1426.029, 2155.906
1427.957, 2145.226
1429.886, 2132.833
1431.814, 2124.923
1433.743, 2116.081
1435.671, 2107.533
1437.600, 2096.726
1439.528, 2082.526
1441.457, 2068.964
1443.385, 2058.305
1445.314, 2052.261
1447.242, 2044.819
1449.171, 2031.329
1451.099, 2020.209
1453.027, 2015.329
1454.956, 2006.956
1456.884, 1992.496
1458.813, 1982.111
1460.741, 1976.529
1462.670, 1968.809
1464.598, 1959.613
1466.527, 1950.972
1468.455, 1941.825
1470.384, 1928.891
1472.312, 1916.670
1474.241, 1908.624
1476.169, 1904.277
1478.098, 1904.647
1480.026, 1901.059
1481.954, 1893.110
1483.883, 1884.501
1485.811, 1875.088
1487.740, 1872.202
1489.668, 1864.246
1491.597, 1863.307
1493.525, 1854.507
1495.454, 1854.124
1497.382, 1852.923
1499.311, 1845.352
1501.239, 1840.409
1503.168, 1842.271
1505.096, 1838.468
1507.025, 1828.156
1508.953, 1823.013
1510.881, 1822.106
1512.810, 1817.839
1514.738, 1812.941
1516.667, 1811.538
1518.595, 1811.650
1520.524, 1814.729
1522.452, 1816.308
1524.381, 1812.179
1526.309, 1808.098
1528.238, 1806.648
1530.166, 1803.777
1532.095, 1802.013
1534.023, 1797.546
1535.952, 1799.605
1537.880, 1797.898
1539.808, 1797.734
1541.737, 1804.366
1543.665, 1808.466
1545.594, 1807.509
1547.522, 1805.262
1549.451, 1801.229
1551.379, 1802.367
1553.308, 1807.680
1555.236, 1809.683
1557.165, 1808.905
1559.093, 1805.686
1561.022, 1804.595
1562.950, 1808.851
1564.879, 1811.684
1566.807, 1812.351
1568.735, 1812.050
1570.664, 1814.519
1572.592, 1812.616
1574.521, 1817.179
1576.449, 1819.604
1578.378, 1819.773
1580.306, 1817.278
1582.235, 1815.206
1584.163, 1813.354
1586.092, 1814.986
1588.020, 1820.282
1589.949, 1819.730
1591.877, 1815.540
1593.806, 1809.934
1595.734, 1805.076
1597.662, 1805.461
1599.591, 1805.578
1601.519, 1802.382
1603.448, 1800.965
1605.376, 1801.415
1607.305, 1796.334
1609.233, 1788.394
1611.162, 1784.072
1613.090, 1781.922
1615.019, 1781.213
1616.947, 1777.343
1618.876, 1768.927
1620.804, 1762.359
1622.733, 1757.661
1624.661, 1752.952
1626.589, 1748.078
1628.518, 1745.571
1630.446, 1744.396
1632.375, 1739.673
1634.303, 1733.557
1636.232, 1728.057
1638.160, 1722.594
1640.089, 1718.928
1642.017, 1714.007
1643.946, 1708.482
1645.874, 1700.768
1647.803, 1697.452
1649.731, 1690.151
1651.660, 1684.963
1653.588, 1684.063
1655.516, 1681.390
1657.445, 1675.153
1659.373, 1670.061
1661.302, 1666.675
1663.230, 1658.642
1665.159, 1655.588
1667.087, 1648.326
1669.016, 1646.901
1670.944, 1639.650
1672.873, 1634.273
1674.801, 1632.337
1676.730, 1627.562
1678.658, 1620.563
1680.587, 1615.214
1682.515, 1610.204
1684.443, 1608.036
1686.372, 1606.542
1688.300, 1601.351
1690.229, 1596.574
1692.157, 1592.663
1694.086, 1589.031
1696.014, 1585.240
1697.943, 1578.048
1699.871, 1570.941
1701.800, 1567.507
1703.728, 1563.555
1705.657, 1559.192
1707.585, 1551.922
1709.514, 1549.363
1711.442, 1542.662
1713.370, 1541.561
1715.299, 1535.565
1717.227, 1529.921
1719.156, 1524.269
1721.084, 1519.233
1723.013, 1515.111
1724.941, 1508.700
1726.870, 1503.035
1728.798, 1498.002
1730.727, 1489.926
1732.655, 1477.137
1734.584, 1466.850
1736.512, 1463.705
1738.441, 1462.862
1740.369, 1461.033
1742.297, 1455.660
1744.226, 1449.624
1746.154, 1444.498
1748.083, 1437.916
1750.011, 1431.382
1751.940, 1424.733
1753.868, 1417.760
1755.797, 1410.807
1757.725, 1403.295
1759.654, 1396.414
1761.582, 1388.431
1763.511, 1380.961
1765.439, 1376.083
1767.368, 1367.594
1769.296, 1361.620
1771.224, 1352.564
1773.153, 1344.494
1775.081, 1336.806
1777.010, 1335.322
1778.938, 1329.937
1780.867, 1320.476
1782.795, 1313.351
1784.724, 1307.801
1786.652, 1300.473
1788.581, 1291.686
1790.509, 1283.912
1792.438, 1276.621
1794.366, 1269.849
1796.295, 1263.183
1798.223, 1255.668
1800.151, 1247.057
1802.080, 1237.718
1804.008, 1229.282
1805.937, 1221.567
1807.865, 1214.032
1809.794, 1207.224
1811.722, 1200.360
1813.651, 1194.289
1815.579, 1187.589
1817.508, 1179.030
1819.436, 1169.339
1821.365, 1162.928
1823.293, 1159.762
1825.222, 1155.427
1827.150, 1145.761
1829.078, 1135.408
1831.007, 1129.284
1832.935, 1123.945
1834.864, 1116.434
1836.792, 1103.256
1838.721, 1090.515
1840.649, 1087.664
1842.578, 1083.076
1844.506, 1070.963
1846.435, 1064.286
1848.363, 1061.082
1850.292, 1052.167
1852.220, 1042.529
1854.149, 1033.598
1856.077, 1026.208
1858.005, 1019.054
1859.934, 1012.877
1861.862, 1007.367
1863.791, 1002.628
1865.719, 998.0969
1867.648, 993.0588
1869.576, 987.2726
1871.505, 981.5684
1873.433, 972.7452
1875.362, 969.0895
1877.290, 960.7399
1879.219, 954.2980
1881.147, 950.0452
1883.076, 940.4760
1885.004, 931.1217
1886.932, 926.6918
1888.861, 921.9628
1890.789, 918.2195
1892.718, 915.5155
1894.646, 911.2274
1896.575, 902.1981
1898.503, 892.0619
1900.432, 887.6883
1902.360, 885.4362
1904.289, 881.3833
1906.217, 876.5433
1908.146, 871.5033
1910.074, 866.8423
1912.003, 861.4608
1913.931, 855.8169
1915.859, 851.2557
1917.788, 843.4716
1919.716, 839.2278
1921.645, 836.8459
1923.573, 831.7301
1925.502, 824.0967
1927.430, 817.7194
1929.359, 814.4089
1931.287, 810.6260
1933.216, 804.6190
1935.144, 798.4037
1937.073, 793.3124
1939.001, 788.7438
1940.930, 783.3475
1942.858, 778.2029
1944.786, 774.1046
1946.715, 768.4428
1948.643, 763.0699
1950.572, 758.3135
1952.500, 754.2787
1954.429, 750.8058
1956.357, 746.2755
1958.286, 739.5607
1960.214, 732.2279
1962.143, 726.4750
1964.071, 720.1580
1966.000, 714.7577
1967.928, 711.5245
1969.857, 708.1095
1971.785, 704.1491
1973.714, 700.0868
1975.642, 695.7655
1977.570, 691.6788
1979.499, 687.6662
1981.427, 683.2064
1983.356, 679.0593
1985.284, 674.7571
1987.213, 669.5917
1989.141, 667.2345
1991.070, 661.7863
1992.998, 653.2227
1994.927, 650.1244
1996.855, 647.0599
1998.784, 642.3276
2000.712, 639.6100
2002.641, 635.4941
2004.569, 631.3363
2006.497, 627.5411
2008.426, 623.3543
2010.354, 619.4901
2012.283, 616.1293
2014.211, 612.6019
2016.140, 608.3986
2018.068, 605.0424
2019.997, 600.9613
2021.925, 597.6275
2023.854, 596.8260
2025.782, 594.8387
2027.711, 588.9490
2029.639, 584.2861
2031.568, 581.4813
2033.496, 577.5413
2035.424, 573.5052
2037.353, 570.2689
2039.281, 568.0116
2041.210, 566.6073
2043.138, 563.1093
2045.067, 561.3849
2046.995, 556.3284
2048.924, 555.9310
2050.852, 551.8468
2052.781, 546.9448
2054.709, 544.1074
2056.638, 541.3583
2058.566, 538.5220
2060.495, 537.5533
2062.423, 534.7132
2064.352, 533.0921
2066.280, 532.1321
2068.208, 528.3155
2070.137, 524.0126
2072.065, 523.2032
2073.994, 521.7881
2075.922, 518.6710
2077.851, 516.6481
2079.779, 515.0172
2081.708, 512.4108
2083.636, 510.9535
2085.565, 508.2379
2087.493, 503.8913
2089.422, 499.2340
2091.350, 495.1225
2093.279, 492.1282
2095.207, 490.0871
2097.135, 487.4733
2099.064, 485.0960
2100.992, 482.8818
2102.921, 480.1054
2104.849, 479.5390
2106.778, 477.3534
2108.706, 473.9210
2110.635, 473.7192
2112.563, 472.8535
2114.492, 472.8084
2116.420, 470.6011
2118.349, 465.5289
2120.277, 462.2289
2122.206, 461.0872
2124.134, 459.3869
2126.063, 456.3324
2127.991, 455.1607
2129.919, 455.2976
2131.848, 453.8834
2133.776, 450.7433
2135.705, 448.1241
2137.633, 447.5296
2139.562, 445.8038
2141.490, 442.9604
2143.419, 440.5909
2145.347, 437.9615
2147.276, 435.5164
2149.204, 433.2333
2151.133, 433.6972
2153.061, 432.9504
2154.990, 428.5937
2156.918, 425.4907
2158.846, 424.2138
2160.775, 423.2943
2162.703, 422.4731
2164.632, 419.5081
2166.560, 417.2108
2168.489, 418.0251
2170.417, 416.8685
2172.346, 413.8408
2174.274, 412.8069
2176.203, 411.3038
2178.131, 407.7918
2180.060, 406.4785
2181.988, 405.5795
2183.917, 401.9727
2185.845, 400.5998
2187.773, 401.0514
2189.702, 399.9610
2191.630, 397.1503
2193.559, 395.2414
2195.487, 393.7072
2197.416, 390.6020
2199.344, 388.8412
2201.273, 387.6388
2203.201, 384.6054
2205.130, 382.2781
2207.058, 380.5641
2208.987, 380.1889
2210.915, 380.1490
2212.844, 377.8502
2214.772, 376.9572
2216.700, 374.9799
2218.629, 373.1080
2220.557, 371.2458
2222.486, 368.4543
2224.414, 367.8291
2226.343, 364.8359
2228.271, 363.0359
2230.200, 362.5603
2232.128, 360.5396
2234.057, 359.3947
2235.985, 358.6519
2237.914, 358.0980
2239.842, 354.7684
2241.771, 354.3088
2243.699, 350.9846
2245.627, 351.1083
2247.556, 348.1608
2249.484, 345.6235
2251.413, 346.7104
2253.341, 346.5430
2255.270, 343.5454
2257.198, 342.3984
2259.127, 342.6865
2261.055, 341.3647
2262.984, 339.8761
2264.912, 338.4044
2266.841, 336.5876
2268.769, 334.9250
2270.698, 332.8120
2272.626, 331.3700
2274.554, 329.6059
2276.483, 327.9660
2278.411, 326.3893
2280.340, 326.4724
2282.268, 325.3495
2284.197, 324.5234
2286.125, 324.6738
2288.054, 323.1392
2289.982, 321.0254
2291.911, 319.1678
2293.839, 315.9878
2295.768, 313.6334
2297.696, 314.8401
2299.625, 314.6545
2301.553, 310.4337
2303.481, 307.6872
2305.410, 306.9821
2307.338, 304.9124
2309.267, 302.8409
2311.195, 303.0166
2313.124, 301.7189
2315.052, 299.8113
2316.981, 299.6035
2318.909, 299.6226
2320.838, 299.0409
2322.766, 297.5643
2324.695, 295.2849
2326.623, 292.1700
2328.552, 289.8893
2330.480, 288.7858
2332.408, 288.9054
2334.337, 287.9996
2336.265, 285.3792
2338.194, 283.0948
2340.122, 282.0488
2342.051, 282.3150
2343.979, 283.0815
2345.908, 282.0185
2347.836, 280.6600
2349.765, 277.6395
2351.693, 274.8950
2353.622, 275.1527
2355.550, 274.5982
2357.479, 272.7255
2359.407, 272.3516
2361.335, 272.6258
2363.264, 272.0838
2365.192, 269.2778
2367.121, 266.6713
2369.049, 266.0263
2370.978, 263.9982
2372.906, 261.6242
2374.835, 260.9073
2376.763, 261.3972
2378.692, 262.3738
2380.620, 260.9714
2382.549, 259.5339
2384.477, 257.4821
2386.406, 255.8983
2388.334, 255.9920
2390.262, 255.1017
2392.191, 253.7556
2394.119, 252.3872
2396.048, 250.3460
2397.976, 248.9975
2399.905, 247.5900
2401.833, 244.8773
2403.762, 245.0564
2405.690, 244.7143
2407.619, 243.6492
2409.547, 244.9768
2411.476, 241.2723
2413.404, 240.6921
2415.333, 239.0870
2417.261, 235.6167
2419.189, 235.2758
2421.118, 235.1357
2423.046, 233.5984
2424.975, 231.0929
2426.903, 229.2976
2428.832, 227.8535
2430.760, 227.9787
2432.689, 229.2887
2434.617, 228.0135
2436.546, 225.9194
2438.474, 223.9836
2440.403, 222.9241
2442.331, 222.4427
2444.260, 221.7786
2446.188, 220.9892
2448.116, 219.0455
2450.045, 216.8025
2451.973, 216.3559
2453.902, 215.9891
2455.830, 213.5471
2457.759, 211.8906
2459.687, 211.1669
2461.616, 209.9271
2463.544, 210.2995
2465.473, 209.7069
2467.401, 208.0965
2469.330, 206.3147
2471.258, 204.4426
2473.187, 203.6457
2475.115, 202.9481
2477.043, 201.7519
2478.972, 201.3756
2480.900, 201.6332
2482.829, 201.1627
2484.757, 199.3098
2486.686, 197.5353
2488.614, 197.0743
2490.543, 195.6622
2492.471, 193.0815
2494.400, 191.9167
2496.328, 191.0107
2498.257, 190.3701
2500.185, 189.9850
2502.114, 189.1077
2504.042, 187.9058
2505.970, 185.8161
2507.899, 184.9698
2509.827, 185.3823
2511.756, 185.4977
2513.684, 183.8351
2515.613, 181.6610
2517.541, 181.1274
2519.470, 179.9154
2521.398, 180.3519
2523.327, 180.5964
2525.255, 179.4925
2527.184, 177.4435
2529.112, 177.2064
2531.041, 174.2899
2532.969, 175.6342
2534.897, 173.6722
2536.826, 173.4001
2538.754, 175.1697
2540.683, 173.2229
2542.611, 170.7474
2544.540, 170.4033
2546.468, 169.5728
2548.397, 167.7293
2550.325, 166.5692
2552.254, 165.5963
2554.182, 165.0305
2556.111, 164.2275
2558.039, 164.1982
2559.968, 162.9554
2561.896, 163.4770
2563.824, 162.6432
2565.753, 162.5806
2567.681, 161.1765
2569.610, 160.7077
2571.538, 160.4245
2573.467, 156.7868
2575.395, 154.9470
2577.324, 154.9592
2579.252, 155.3362
2581.181, 155.7003
2583.109, 155.5799
2585.038, 154.5904
2586.966, 153.0457
2588.895, 151.8209
2590.823, 150.7866
2592.751, 149.3357
2594.680, 148.4823
2596.608, 147.1407
2598.537, 146.3369
2600.465, 146.1307
2602.394, 145.2275
2604.322, 144.5327
2606.251, 143.6590
2608.179, 142.6149
2610.108, 142.2572
2612.036, 142.2190
2613.965, 141.4714
2615.893, 140.4379
2617.822, 138.7906
2619.750, 137.4610
2621.678, 137.1693
2623.607, 136.7732
2625.535, 135.7756
2627.464, 134.7587
2629.392, 134.2646
2631.321, 133.1554
2633.249, 132.4817
2635.178, 132.4648
2637.106, 132.7646
2639.035, 132.4535
2640.963, 131.1148
2642.892, 131.0867
2644.820, 129.8494
2646.749, 129.9233
2648.677, 127.8539
2650.605, 127.1223
2652.534, 126.5150
2654.462, 123.7838
2656.391, 123.1165
2658.319, 123.1005
2660.248, 123.0148
2662.176, 122.6188
2664.105, 122.2855
2666.033, 120.5542
2667.962, 120.4403
2669.890, 120.6680
2671.819, 119.4776
2673.747, 116.7333
2675.676, 114.9420
2677.604, 114.7661
2679.532, 114.7880
2681.461, 115.0930
2683.389, 115.6573
2685.318, 113.0233
2687.246, 111.3603
2689.175, 111.5867
2691.103, 109.8148
2693.032, 109.5859
2694.960, 110.6431
2696.889, 110.0474
2698.817, 109.4392
2700.746, 108.7056
2702.674, 107.3848
2704.603, 106.9445
2706.531, 106.4576
2708.459, 105.8917
2710.388, 105.7667
2712.316, 105.3156
2714.245, 104.3534
2716.173, 104.3713
2718.102, 104.4093
2720.030, 103.4250
2721.959, 102.6393
2723.887, 101.6988
2725.816, 100.7419
2727.744, 100.2410
2729.673, 99.57201
2731.601, 98.33316
2733.530, 97.65321
2735.458, 97.39000
2737.386, 97.68499
2739.315, 98.10058
2741.243, 97.58224
2743.172, 96.35063
2745.100, 94.61815
2747.029, 93.84155
2748.957, 93.62944
2750.886, 94.27259
2752.814, 93.68186
2754.743, 92.50433
2756.671, 92.72026
2758.600, 92.25808
2760.528, 91.04951
2762.457, 89.73411
2764.385, 88.86284
2766.313, 88.46346
2768.242, 88.90102
2770.170, 88.29561
2772.099, 88.18072
2774.027, 88.22018
2775.956, 85.83891
2777.884, 85.67551
2779.813, 86.14783
2781.741, 83.48901
2783.670, 82.94121
2785.598, 83.28258
2787.527, 83.25793
2789.455, 82.92570
2791.384, 82.11819
2793.312, 80.50914
2795.240, 81.04876
2797.169, 80.82549
2799.097, 79.80392
2801.026, 80.03561
2802.954, 79.73861
2804.883, 79.26567
2806.811, 78.89318
2808.740, 78.66226
2810.668, 78.45093
2812.597, 78.16827
2814.525, 76.96616
2816.454, 76.23252
2818.382, 76.31228
2820.311, 76.00130
2822.239, 76.08890
2824.167, 76.31965
2826.096, 75.27975
2828.024, 73.37636
2829.953, 72.24065
2831.881, 73.73573
2833.810, 73.78209
2835.738, 73.86748
2837.667, 74.57191
2839.595, 72.69503
2841.524, 72.00350
2843.452, 73.14478
2845.381, 72.01022
2847.309, 72.33272
2849.238, 73.08316
2851.166, 71.57005
2853.094, 70.46069
2855.023, 70.45423
2856.951, 69.16611
2858.880, 69.22906
2860.808, 67.93494
2862.737, 68.83069
2864.665, 69.00838
2866.594, 68.38050
2868.522, 67.52596
2870.451, 67.19904
2872.379, 67.45850
2874.308, 67.05648
2876.236, 65.37022
2878.165, 64.32631
2880.093, 64.80263
2882.021, 66.10005
2883.950, 65.04819
2885.878, 64.20374
2887.807, 63.62880
2889.735, 63.07817
2891.664, 61.84772
2893.592, 61.16831
2895.521, 61.66761
2897.449, 61.94849
2899.378, 61.16981
2901.306, 59.96329
2903.235, 59.90111
2905.163, 59.04462
2907.092, 58.46201
2909.020, 59.04244
2910.948, 59.09121
2912.877, 58.08855
2914.805, 58.03696
2916.734, 56.75582
2918.662, 56.71898
2920.591, 56.26522
2922.519, 55.49949
2924.448, 55.65605
2926.376, 55.95476
2928.305, 55.89597
2930.233, 55.81551
2932.162, 55.81266
2934.090, 55.19520
2936.019, 55.22656
2937.947, 54.52239
2939.875, 53.45171
2941.804, 52.29531
2943.732, 51.55734
2945.661, 50.99503
2947.589, 50.54857
2949.518, 50.32513
2951.446, 50.42426
2953.375, 50.36351
2955.303, 49.95073
2957.232, 49.94904
2959.160, 48.78792
2961.089, 49.25401
2963.017, 48.12110
2964.946, 46.96590
2966.874, 46.59314
2968.802, 46.04791
2970.731, 46.34453
2972.659, 45.79331
2974.588, 45.54499
2976.516, 45.66334
2978.445, 44.93371
2980.373, 44.17620
2982.302, 43.80198
2984.230, 43.63851
2986.159, 43.30770
2988.087, 42.78503
2990.016, 42.24474
2991.944, 41.82204
2993.873, 41.43798
2995.801, 41.13871
2997.729, 41.28180
2999.658, 40.73480
3001.586, 40.39846
3003.515, 40.86802
3005.443, 39.61521
3007.372, 38.80322
3009.300, 38.78895
3011.229, 39.37534
3013.157, 39.53838
3015.086, 39.65450
3017.014, 39.82342
3018.943, 39.52209
3020.871, 38.82616
3022.800, 38.18853
3024.728, 38.18684
3026.656, 37.35793
3028.585, 37.64130
3030.513, 36.84675
3032.442, 36.83347
3034.370, 35.76946
3036.299, 35.41503
3038.227, 35.39711
3040.156, 36.32460
3042.084, 36.26879
3044.013, 35.62437
3045.941, 35.11979
3047.870, 34.84583
3049.798, 34.51315
3051.727, 34.00324
3053.655, 34.12412
3055.583, 33.53117
3057.512, 33.23510
3059.440, 33.62868
3061.369, 32.50954
3063.297, 32.72286
3065.226, 33.37097
3067.154, 33.15110
3069.083, 33.33132
3071.011, 33.36605
3072.940, 32.90872
3074.868, 33.02674
3076.797, 32.34586
3078.725, 31.71666
3080.654, 32.17912
3082.582, 31.72634
3084.510, 31.26855
3086.439, 30.93667
3088.367, 30.74805
3090.296, 30.71743
3092.224, 30.05289
3094.153, 29.31170
3096.081, 29.73316
3098.010, 28.37588
3099.938, 28.86884
3101.867, 28.73411
3103.795, 28.54569
3105.724, 29.19274
3107.652, 28.72328
3109.581, 29.40686
3111.509, 29.45403
3113.438, 28.41619
3115.366, 28.41805
3117.294, 30.37995
3119.223, 28.00483
3121.151, 28.24372
3123.080, 29.01378
3125.008, 27.80302
3126.937, 27.39632
3128.865, 27.64030
3130.794, 28.34783
3132.722, 28.00534
3134.651, 28.37275
3136.579, 27.88253
3138.508, 28.16692
3140.436, 27.99005
3142.365, 26.37162
3144.293, 26.00418
3146.221, 26.80815
3148.150, 26.64102
3150.078, 26.89985
3152.007, 27.20071
3153.935, 27.25579
3155.864, 27.35105
3157.792, 27.29302
3159.721, 27.28801
3161.649, 26.87176
3163.578, 26.70373
3165.506, 26.18558
3167.435, 26.50429
3169.363, 25.87093
3171.292, 25.95807
3173.220, 26.65317
3175.148, 27.37310
3177.077, 27.56791
3179.005, 27.09412
3180.934, 27.35987
3182.862, 27.27821
3184.791, 26.17127
3186.719, 25.64804
3188.648, 26.44345
3190.576, 27.04720
3192.505, 26.56717
3194.433, 26.55042
3196.362, 26.59928
3198.290, 26.48013
3200.219, 26.55784
3202.147, 26.48996
3204.075, 26.69797
3206.004, 26.53796
3207.932, 26.24481
3209.861, 27.51263
3211.789, 28.29354
3213.718, 28.16796
3215.646, 27.53957
3217.575, 28.42675
3219.503, 28.49283
3221.432, 28.52415
3223.360, 28.70575
3225.289, 28.44354
3227.217, 28.51293
3229.146, 29.20418
3231.074, 30.01449
3233.002, 28.59459
3234.931, 29.35401
3236.859, 29.76151
3238.788, 29.38865
3240.716, 29.60217
3242.645, 29.38288
3244.573, 29.15703
3246.502, 29.23145
3248.430, 29.38560
3250.359, 29.65666
3252.287, 30.90733
3254.216, 30.21099
3256.144, 31.57987
3258.073, 31.30114
3260.001, 31.98182
3261.929, 32.52180
3263.858, 32.08140
3265.786, 31.77678
3267.715, 32.51502
3269.643, 32.56657
3271.572, 32.78146
3273.500, 32.63763
3275.429, 33.40062
3277.357, 33.97374
3279.286, 34.59997
3281.214, 35.14582
3283.143, 36.01887
3285.071, 35.96751
3287.000, 36.70717
3288.928, 36.76181
3290.856, 36.83088
3292.785, 37.33052
3294.713, 37.75939
3296.642, 37.67971
3298.570, 38.89944
3300.499, 39.79767
3302.427, 40.09586
3304.356, 40.19022
3306.284, 41.73147
3308.213, 40.75676
3310.141, 42.18145
3312.070, 44.91938
3313.998, 42.63551
3315.927, 43.40710
3317.855, 45.76892
3319.783, 47.27793
3321.712, 46.65260
3323.640, 47.53077
3325.569, 48.17170
3327.497, 48.04041
3329.426, 47.56474
3331.354, 48.91039
3333.283, 49.15376
3335.211, 49.72996
3337.140, 50.68280
3339.068, 50.79971
3340.997, 49.81835
3342.925, 51.20648
3344.854, 53.34199
3346.782, 54.27294
3348.710, 53.27402
3350.639, 53.65409
3352.567, 54.41529
3354.496, 55.06345
3356.424, 55.56448
3358.353, 56.14336
3360.281, 56.03162
3362.210, 55.56713
3364.138, 55.57302
3366.067, 56.03632
3367.995, 56.47932
3369.924, 55.87470
3371.852, 55.17524
3373.781, 56.03938
3375.709, 54.52809
3377.637, 54.25520
3379.566, 55.49505
3381.494, 57.15150
3383.423, 54.14271
3385.351, 54.26394
3387.280, 53.63015
3389.208, 52.29771
3391.137, 53.75162
3393.065, 53.79619
3394.994, 53.77147
3396.922, 53.19498
3398.851, 52.24363
3400.779, 52.55119
3402.708, 52.95646
3404.636, 51.46520
3406.564, 50.18076
3408.493, 51.28962
3410.421, 49.23225
3412.350, 48.95300
3414.278, 49.88467
3416.207, 50.47451
3418.135, 49.38175
3420.064, 47.94533
3421.992, 47.02171
3423.921, 46.55277
3425.849, 46.45849
3427.778, 46.05407
3429.706, 46.35687
3431.635, 45.81036
3433.563, 45.74509
3435.491, 45.55882
3437.420, 45.15572
3439.348, 44.56510
3441.277, 42.65562
3443.205, 42.63735
3445.134, 40.40134
3447.062, 41.39997
3448.991, 41.14652
3450.919, 40.02444
3452.848, 38.88402
3454.776, 38.65624
3456.705, 39.11214
3458.633, 39.74930
3460.562, 38.34001
3462.490, 35.73272
3464.418, 37.50595
3466.347, 35.27549
3468.275, 35.18767
3470.204, 34.46972
3472.132, 32.12453
3474.061, 34.42995
3475.989, 32.66785
3477.918, 30.80871
3479.846, 30.24056
3481.775, 30.45497
3483.703, 29.84493
3485.632, 30.44361
3487.560, 30.33666
3489.489, 28.53444
3491.417, 26.08611
3493.345, 27.81058
3495.274, 27.82382
3497.202, 28.39808
3499.131, 28.50634
3501.059, 27.11775
3502.988, 26.54988
3504.916, 25.93373
3506.845, 25.77289
3508.773, 25.81841
3510.702, 25.68665
3512.630, 25.20433
3514.559, 25.68406
3516.487, 24.83527
3518.416, 23.63439
3520.344, 23.26765
3522.272, 23.36974
3524.201, 22.73497
3526.129, 22.68451
3528.058, 22.64820
3529.986, 22.12063
3531.915, 21.45397
3533.843, 21.16977
3535.772, 20.78064
3537.700, 20.43365
3539.629, 20.30112
3541.557, 19.85849
3543.486, 19.68489
3545.414, 19.31386
3547.343, 18.69990
3549.271, 18.24763
3551.199, 18.38176
3553.128, 18.74353
3555.056, 16.99804
3556.985, 16.33091
3558.913, 16.62664
3560.842, 16.42632
3562.770, 15.87497
3564.699, 15.90121
3566.627, 15.22952
3568.556, 15.70282
3570.484, 15.59036
3572.413, 14.83064
3574.341, 15.57583
3576.270, 15.42435
3578.198, 14.72078
3580.126, 14.47586
3582.055, 13.97876
3583.983, 13.97436
3585.912, 13.22134
3587.840, 13.52542
3589.769, 13.66967
3591.697, 12.90740
3593.626, 12.91444
3595.554, 13.13314
3597.483, 12.21072
3599.411, 11.73481
3601.340, 11.83559
3603.268, 11.16225
3605.197, 11.78095
3607.125, 12.41285
3609.053, 11.97085
3610.982, 11.19471
3612.910, 11.00747
3614.839, 11.04504
3616.767, 9.848955
3618.696, 10.52566
3620.624, 10.42653
3622.553, 9.258762
3624.481, 9.018851
3626.410, 9.867707
3628.338, 10.07421
3630.267, 10.31721
3632.195, 9.531498
3634.124, 9.754611
3636.052, 9.460561
3637.980, 9.494712
3639.909, 9.004285
3641.837, 8.922346
3643.766, 9.002179
3645.694, 8.785678
3647.623, 8.641583
3649.551, 8.080295
3651.480, 7.848530
3653.408, 7.495277
3655.337, 7.672709
3657.265, 7.158977
3659.194, 8.280588
3661.122, 8.989423
3663.051, 8.183850
3664.979, 8.024359
3666.907, 8.700672
3668.836, 8.533866
3670.764, 8.337308
3672.693, 8.277975
3674.621, 7.428867
3676.550, 7.658748
3678.478, 6.765327
3680.407, 6.529439
3682.335, 6.710973
3684.264, 6.764596
3686.192, 6.592845
3688.121, 6.390769
3690.049, 6.468176
3691.978, 7.033428
3693.906, 8.160748
3695.834, 8.130816
3697.763, 5.995859
3699.691, 4.549170
3701.620, 5.007016
3703.548, 6.198127
3705.477, 5.971550
3707.405, 5.047117
3709.334, 5.518888
3711.262, 5.309031
3713.191, 5.356265
3715.119, 6.914250
3717.048, 4.608238
3718.976, 5.212783
3720.905, 6.543777
3722.833, 5.935450
3724.761, 5.293155
3726.690, 6.181440
3728.618, 5.673542
3730.547, 4.637555
3732.475, 5.641351
3734.404, 4.975513
3736.332, 4.264235
3738.261, 4.577774
3740.189, 4.068434
3742.118, 3.634524
3744.046, 2.966511
3745.975, 3.840477
3747.903, 4.967609
3749.832, 5.049012
3751.760, 4.287837
3753.688, 4.673579
3755.617, 4.877074
3757.545, 4.535757
3759.474, 4.449288
3761.402, 4.924047
3763.331, 5.181780
3765.259, 5.103427
3767.188, 5.574990
3769.116, 4.880698
3771.045, 4.942260
3772.973, 4.540780
3774.902, 3.938220
3776.830, 4.425975
3778.759, 4.164557
3780.687, 4.281676
3782.615, 4.405198
3784.544, 4.512715
3786.472, 4.641198
3788.401, 4.400433
3790.329, 3.554158
3792.258, 4.373523
3794.186, 3.425717
3796.115, 3.317124
3798.043, 4.284495
3799.972, 4.501668
3801.900, 3.667788
3803.829, 3.326093
3805.757, 3.374969
3807.686, 3.755552
3809.614, 3.449339
3811.542, 4.452991
3813.471, 4.767352
3815.399, 4.294641
3817.328, 4.414733
3819.256, 4.340757
3821.185, 3.266459
3823.113, 4.143631
3825.042, 3.501338
3826.970, 3.216863
3828.899, 3.571613
3830.827, 2.888949
3832.756, 2.539944
3834.684, 2.742802
3836.613, 3.256035
3838.541, 4.226399
3840.469, 4.333596
3842.398, 3.586682
3844.326, 2.916412
3846.255, 2.408052
3848.183, 2.552583
3850.112, 3.492350
3852.040, 2.867520
3853.969, 3.638349
3855.897, 3.742679
3857.826, 2.560815
3859.754, 3.958977
3861.683, 4.087024
3863.611, 2.219385
3865.540, 3.251917
3867.468, 4.094654
3869.396, 3.936242
3871.325, 3.352685
3873.253, 2.948888
3875.182, 3.820446
3877.110, 3.781282
3879.039, 3.433672
3880.967, 3.887360
3882.896, 3.852150
3884.824, 3.291166
3886.753, 2.864885
3888.681, 2.832987
3890.610, 2.999685
3892.538, 2.821997
3894.467, 2.572039
3896.395, 3.290238
3898.323, 2.228789
3900.252, 2.536638
3902.180, 3.245297
3904.109, 3.648201
3906.037, 3.588200
3907.966, 2.879690
3909.894, 3.288985
3911.823, 3.154818
3913.751, 3.653804
3915.680, 3.551209
3917.608, 1.756656
3919.537, 3.341572
3921.465, 3.285078
3923.394, 2.925087
3925.322, 4.019358
3927.250, 4.107528
3929.179, 3.253650
3931.107, 2.847121
3933.036, 2.730621
3934.964, 2.439830
3936.893, 3.409237
3938.821, 3.807464
3940.750, 3.117311
3942.678, 3.446211
3944.607, 3.206200
3946.535, 3.222741
3948.464, 3.325741
3950.392, 2.775455
3952.321, 2.190784
3954.249, 3.048268
3956.177, 3.160007
3958.106, 3.809884
3960.034, 3.861932
3961.963, 3.012514
3963.891, 3.666815
3965.820, 3.276370
3967.748, 2.749671
3969.677, 2.765692
3971.605, 2.095915
3973.534, 2.931912
3975.462, 2.120066
3977.391, 2.203804
3979.319, 2.917766
3981.248, 2.975356
3983.176, 2.171971
3985.104, 2.094152
3987.033, 3.044980
3988.961, 1.631828
3990.890, 1.534883
3992.818, 2.754405
3994.747, 1.395725
3996.675, 1.884748
3998.604, 2.256528
4000.532, 1.931341
4002.461, 1.451630
4004.389, 1.344859
4006.318, 2.319311
4008.246, 0.9375446
4010.175, 2.363484
4012.103, 1.336739
4014.031, 2.249995
4015.960, 2.020181
4017.888, 1.254955
4019.817, 1.297038
4021.745, 1.338611
4023.674, 0.9624077
4025.602, 0.9898512
4027.531, 1.097834
4029.459, 1.051837
4031.388, 1.524192
4033.316, 2.291619
4035.245, 2.699181
4037.173, 2.013681
4039.102, 1.145209
4041.030, 1.336155
4042.958, 1.779011
4044.887, 1.513591
4046.815, 2.375848
4048.744, 1.767876
4050.672, 1.176821
4052.601, 1.595332
4054.529, 1.952338
4056.458, 2.171624
4058.386, 2.192267
4060.315, 2.122230
4062.243, 2.693853
4064.172, 2.941652
4066.100, 2.534304
4068.029, 2.034649
4069.957, 1.874206
4071.885, 1.503715
4073.814, 1.622394
4075.742, 1.855032
4077.671, 1.640782
4079.599, 1.158110
4081.528, 1.435767
4083.456, 1.179883
4085.385, 0.8804633
4087.313, 1.298930
4089.242, 1.686442
4091.170, 2.187724
4093.099, 1.605288
4095.027, 1.190691
4096.956, 2.090662
4098.884, 2.687796
4100.813, 2.594704
4102.741, 2.510190
4104.669, 1.616813
4106.598, 2.526547
4108.526, 2.666984
4110.455, 1.616514
4112.383, 1.395486
4114.312, 2.385856
4116.240, 2.506292
4118.169, 2.313264
4120.097, 1.996970
4122.026, 1.999003
4123.954, 2.279503
4125.883, 2.109155
4127.811, 2.212390
4129.740, 1.357090
4131.668, 1.336795
4133.597, 1.220019
4135.525, 1.271655
4137.454, 1.223620
4139.382, 1.655788
4141.311, 1.849459
4143.239, 2.197915
4145.167, 2.069411
4147.096, 1.918702
4149.024, 2.209498
4150.953, 1.338223
4152.881, 1.271727
4154.810, 0.9843613
4156.738, 2.850479
4158.667, 1.867642
4160.595, 2.492091
4162.523, 2.167049
4164.452, 0.7089928
4166.380, 0.7731257
4168.309, 1.445919
4170.237, 1.811544
4172.166, 2.206503
4174.094, 2.568130
4176.023, 2.281771
4177.951, 1.321877
4179.880, 2.991602
4181.808, 1.654758
4183.737, 2.650414
4185.665, 2.366728
4187.594, 0.1920502
4189.522, 0.3975832
4191.451, 1.758155
4193.379, 1.505272
4195.308, 1.767426
4197.236, 1.346569
4199.165, 1.398286
4201.093, 1.504055
4203.021, 2.148224
4204.950, 1.613264
4206.878, 2.107950
4208.807, 1.915716
4210.735, 0.8449507
4212.664, 1.758779
4214.592, 1.223738
4216.521, 2.024742
4218.449, 1.935162
4220.377, 2.191397
4222.306, 1.823360
4224.234, 1.917954
4226.163, 1.727372
4228.091, 2.286355
4230.020, 2.866349
4231.948, 1.700727
4233.877, 1.451578
4235.805, 2.406797
4237.734, 2.641353
4239.662, 2.301995
4241.591, 2.311235
4243.519, 1.608628
4245.448, 2.568094
4247.376, 1.885931
4249.305, 2.368943
4251.233, 0.7608018
4253.162, 0.9784206
4255.090, 2.004156
4257.019, 0.1437825
4258.947, 0.9195805
4260.875, 2.600171
4262.804, 1.615109
4264.732, 1.099492
4266.661, 1.828469
4268.589, 1.799248
4270.518, 1.987941
4272.446, 1.738625
4274.375, 1.709693
4276.303, 3.040123
4278.231, 2.227916
4280.160, 2.556374
4282.088, 2.038493
4284.017, 1.567801
4285.945, 1.410798
4287.874, 2.158390
4289.802, 0.8971540
4291.731, 0.7081672
4293.659, 2.250433
4295.588, 2.439358
4297.516, 1.513054
4299.445, 1.039898
4301.373, 1.258112
4303.302, 1.516267
4305.230, 0.8082620
4307.159, 3.8125388E-02
4309.087, 1.042755
4311.016, 1.652532
4312.944, 1.563493
4314.873, 0.7308750
4316.801, 0.7932361
4318.729, 0.5310262
4320.658, 1.211792
4322.586, 2.568099
4324.515, 1.001166
4326.443, 1.760095
4328.372, 0.1613713
4330.300, 1.504704
4332.229, 2.619008
4334.157, 1.513735
4336.085, 1.367193
4338.014, 0.5966405
4339.942, 0.6583034
4341.871, 0.9443958
4343.799, 1.059912
4345.728, 1.809612
4347.656, 2.162093
4349.585, 2.207211
4351.513, 1.481773
4353.442, 0.4176446
4355.370, 1.048921
4357.299, 0.7985334
4359.227, 1.736152
4361.156, 1.804331
4363.084, 1.227894
4365.013, 1.479639
4366.941, 2.121025
4368.870, 1.4991710E-02
4370.798, 1.874018
4372.727, 1.802129
4374.655, 0.8553459
4376.583, 2.383870
4378.512, 1.491608
##END=



