##NAMES=Pyrochroite
##RRUFFID=R100045
##IDEAL CHEMISTRY=Mn^2+^(OH)_2_
##LOCALITY=N'Chwaning II mine, Kalahari Manganese Field, Northern Cape Province, South Africa
##OWNER=RRUFF
##SOURCE=Marcus Origlieri
##DESCRIPTION=Red platy crystals frozen in matrix
##STATUS=The identification of this mineral has been confirmed by single-crystal X-ray diffraction
##URL=https://www.rruff.net/odr/rruff_sample/R100045
##DIFFRACTION SAMPLE DESCRIPTION=Single crystal, powder profile is calculated
##CELL PARAMETERS=a: 3.308 b: 3.308 c: 4.727 alpha: 90 beta: 90 gamma: 120 volume: 44.8 crystal system: hexagonal
##FILETYPE=Raman RAW
##RAMAN WAVELENGTH=780

83.70679, 107.9812
85.63525, 110.0431
87.56372, 116.4139
89.49219, 121.9656
91.42065, 125.8962
93.34912, 126.9090
95.27759, 119.6269
97.20605, 113.2997
99.13452, 107.8135
101.0630, 102.9553
102.9915, 98.74168
104.9199, 94.53217
106.8484, 91.35357
108.7769, 89.49619
110.7053, 88.12926
112.6338, 86.54967
114.5623, 84.72975
116.4907, 83.45020
118.4192, 82.60494
120.3477, 82.19637
122.2761, 82.62801
124.2046, 83.02998
126.1331, 82.67918
128.0615, 81.64086
129.9900, 80.95083
131.9185, 80.61223
133.8469, 80.50599
135.7754, 80.70964
137.7039, 81.03242
139.6323, 81.48891
141.5608, 81.99881
143.4893, 81.93719
145.4177, 81.06242
147.3462, 80.48045
149.2747, 80.49545
151.2031, 80.73830
153.1316, 81.09867
155.0601, 81.50070
156.9885, 81.63745
158.9170, 81.45499
160.8455, 81.34577
162.7739, 81.50892
164.7024, 81.55166
166.6309, 81.05830
168.5593, 80.39285
170.4878, 80.48270
172.4163, 81.41024
174.3447, 81.88669
176.2732, 81.52168
178.2017, 81.13867
180.1301, 81.07978
182.0586, 81.17189
183.9871, 81.20037
185.9155, 81.16716
187.8440, 81.14330
189.7725, 81.16460
191.7009, 81.11925
193.6294, 80.82727
195.5579, 80.58448
197.4863, 80.67287
199.4148, 81.05004
201.3433, 81.44685
203.2717, 81.90920
205.2002, 82.16673
207.1287, 81.85267
209.0571, 81.62614
210.9856, 82.06252
212.9141, 82.75359
214.8425, 82.61410
216.7710, 81.62093
218.6995, 81.20193
220.6279, 82.10702
222.5564, 82.96880
224.4849, 83.39054
226.4133, 83.56820
228.3418, 83.58819
230.2703, 83.53272
232.1987, 83.85091
234.1272, 84.83595
236.0557, 85.57312
237.9841, 85.62373
239.9126, 85.66464
241.8411, 86.38438
243.7695, 87.30872
245.6980, 87.37792
247.6265, 86.39079
249.5549, 86.00704
251.4834, 87.00988
253.4119, 87.91330
255.3403, 88.16908
257.2688, 88.25251
259.1973, 88.77659
261.1257, 89.59090
263.0542, 89.92364
264.9827, 89.28660
266.9111, 89.05607
268.8396, 89.73367
270.7681, 90.40392
272.6965, 90.49029
274.6250, 90.31927
276.5535, 90.34641
278.4819, 90.60352
280.4104, 90.80571
282.3389, 91.00510
284.2673, 91.06544
286.1958, 90.83810
288.1243, 90.59131
290.0527, 90.42670
291.9812, 90.39156
293.9097, 90.66772
295.8381, 91.45148
297.7666, 91.98446
299.6951, 92.20213
301.6235, 92.28494
303.5520, 92.23969
305.4805, 92.11507
307.4089, 91.87226
309.3374, 91.57293
311.2659, 91.54042
313.1943, 91.88480
315.1228, 92.25394
317.0513, 92.54570
318.9797, 93.02995
320.9082, 94.07665
322.8367, 95.15872
324.7651, 95.80909
326.6936, 96.06719
328.6221, 96.21262
330.5505, 96.20610
332.4790, 96.25339
334.4075, 96.46575
336.3359, 96.56528
338.2644, 96.33498
340.1929, 96.00692
342.1213, 95.70009
344.0498, 95.45139
345.9783, 95.69802
347.9067, 96.62725
349.8352, 96.71168
351.7637, 95.34938
353.6921, 93.89600
355.6206, 92.92282
357.5491, 92.11968
359.4775, 91.16663
361.4060, 90.15614
363.3345, 89.58916
365.2629, 89.49930
367.1914, 89.09044
369.1199, 88.04468
371.0483, 87.14191
372.9768, 86.61099
374.9053, 86.35603
376.8337, 86.47474
378.7622, 86.78658
380.6907, 86.79452
382.6191, 86.52024
384.5476, 86.24589
386.4761, 86.01791
388.4045, 85.74721
390.3330, 85.14052
392.2615, 84.79887
394.1899, 85.33276
396.1184, 86.18046
398.0469, 86.39070
399.9753, 86.08991
401.9038, 85.75071
403.8323, 85.32252
405.7607, 85.23257
407.6892, 86.00327
409.6177, 86.56301
411.5461, 86.31406
413.4746, 85.92642
415.4031, 86.15156
417.3315, 86.72400
419.2600, 87.02984
421.1885, 87.04826
423.1169, 86.97030
425.0454, 86.60005
426.9739, 86.53482
428.9023, 87.13475
430.8308, 87.75724
432.7593, 88.00021
434.6877, 88.08770
436.6162, 88.32795
438.5447, 88.67405
440.4731, 88.90123
442.4016, 88.95628
444.3301, 89.02282
446.2585, 89.15071
448.1870, 89.23807
450.1155, 89.18498
452.0439, 89.16145
453.9724, 89.33377
455.9009, 89.59253
457.8293, 89.83508
459.7578, 90.05569
461.6863, 90.00454
463.6147, 89.36248
465.5432, 89.04678
467.4717, 89.26266
469.4001, 89.53159
471.3286, 89.72131
473.2571, 89.90516
475.1855, 90.17268
477.1140, 90.45071
479.0425, 90.62089
480.9709, 90.68026
482.8994, 90.58379
484.8279, 90.13000
486.7563, 90.01892
488.6848, 90.42632
490.6133, 90.90847
492.5417, 91.39059
494.4702, 91.79741
496.3987, 92.07840
498.3271, 92.26810
500.2556, 92.42197
502.1841, 92.53848
504.1125, 92.53329
506.0410, 92.32576
507.9695, 92.42099
509.8979, 92.96837
511.8264, 93.51262
513.7549, 93.96748
515.6833, 94.28957
517.6118, 94.44698
519.5403, 94.48103
521.4688, 94.35651
523.3972, 94.14926
525.3257, 94.15125
527.2542, 94.36782
529.1826, 94.73513
531.1111, 95.28744
533.0396, 95.86031
534.9680, 96.63106
536.8965, 96.99809
538.8250, 96.29204
540.7534, 95.59028
542.6819, 95.70452
544.6104, 96.27656
546.5388, 96.84196
548.4673, 97.34361
550.3958, 97.33315
552.3242, 96.78889
554.2527, 97.00296
556.1812, 98.44074
558.1096, 99.69962
560.0381, 100.3669
561.9666, 100.8057
563.8950, 100.9304
565.8235, 101.0689
567.7520, 101.4623
569.6804, 102.0622
571.6089, 102.8502
573.5374, 103.7713
575.4658, 104.6391
577.3943, 105.4474
579.3228, 106.2814
581.2512, 107.2107
583.1797, 108.0334
585.1082, 108.3039
587.0366, 109.0528
588.9651, 110.9340
590.8936, 113.0804
592.8220, 114.6318
594.7505, 116.2046
596.6790, 118.9153
598.6074, 122.2781
600.5359, 124.9048
602.4644, 126.7350
604.3928, 128.8379
606.3213, 131.2361
608.2498, 134.0547
610.1782, 137.9198
612.1067, 141.2163
614.0352, 143.2315
615.9636, 145.0627
617.8921, 147.4445
619.8206, 149.7503
621.7490, 151.5024
623.6775, 152.7343
625.6060, 153.4228
627.5344, 153.5958
629.4629, 153.5555
631.3914, 153.4595
633.3198, 152.4725
635.2483, 150.1492
637.1768, 147.8236
639.1052, 145.6611
641.0337, 143.3317
642.9622, 140.8011
644.8906, 137.9845
646.8191, 134.6120
648.7476, 131.1482
650.6760, 128.0099
652.6045, 125.0288
654.5330, 121.7189
656.4614, 118.2657
658.3899, 115.8689
660.3184, 114.6954
662.2468, 113.0802
664.1753, 110.7987
666.1038, 109.0888
668.0322, 108.1193
669.9607, 107.6689
671.8892, 108.2916
673.8176, 108.2572
675.7461, 106.0008
677.6746, 103.7191
679.6030, 102.7440
681.5315, 102.4049
683.4600, 102.0520
685.3884, 101.7270
687.3169, 101.6238
689.2454, 101.6707
691.1738, 101.2475
693.1023, 100.3713
695.0308, 99.95539
696.9592, 100.1248
698.8877, 100.0496
700.8162, 99.41621
702.7446, 99.16605
704.6731, 99.96043
706.6016, 100.4731
708.5300, 99.98430
710.4585, 99.44044
712.3870, 99.44210
714.3154, 99.54028
716.2439, 99.20077
718.1724, 98.76262
720.1008, 98.86986
722.0293, 99.29468
723.9578, 99.36939
725.8862, 99.15514
727.8147, 98.93229
729.7432, 98.71132
731.6716, 98.61227
733.6001, 98.64597
735.5286, 98.82510
737.4570, 99.43183
739.3855, 99.59353
741.3140, 98.81155
743.2424, 98.13199
745.1709, 97.77760
747.0994, 97.71060
749.0278, 98.14018
750.9563, 98.59556
752.8848, 98.59919
754.8132, 98.48257
756.7417, 98.74175
758.6702, 99.10009
760.5986, 99.00891
762.5271, 98.63625
764.4556, 98.62905
766.3840, 98.95975
768.3125, 98.88500
770.2410, 98.26717
772.1694, 97.91463
774.0979, 97.84092
776.0264, 98.08627
777.9548, 99.10308
779.8833, 99.63281
781.8118, 99.17236
783.7402, 98.81933
785.6687, 98.88099
787.5972, 99.04567
789.5256, 99.18690
791.4541, 99.37620
793.3826, 99.83675
795.3110, 100.1632
797.2395, 99.74820
799.1680, 99.28502
801.0964, 99.83120
803.0249, 100.7711
804.9534, 100.8149
806.8818, 100.2561
808.8103, 100.1156
810.7388, 100.3714
812.6672, 100.8711
814.5957, 101.6740
816.5242, 101.7701
818.4526, 100.9913
820.3811, 100.7349
822.3096, 101.1400
824.2380, 101.6172
826.1665, 102.1621
828.0950, 102.4801
830.0234, 102.5070
831.9519, 102.2728
833.8804, 101.5831
835.8088, 101.0752
837.7373, 100.9860
839.6658, 101.1723
841.5942, 101.8445
843.5227, 102.4093
845.4512, 102.3935
847.3796, 102.2809
849.3081, 102.5030
851.2366, 102.7981
853.1650, 102.9732
855.0935, 102.9631
857.0220, 102.4358
858.9504, 101.7750
860.8789, 101.8281
862.8074, 102.3972
864.7358, 103.0878
866.6643, 103.7548
868.5928, 103.6218
870.5212, 102.8772
872.4497, 102.7775
874.3782, 103.3243
876.3066, 103.8442
878.2351, 104.2956
880.1636, 104.3644
882.0920, 103.9894
884.0205, 103.4288
885.9490, 102.5852
887.8774, 102.0505
889.8059, 102.0098
891.7344, 102.0369
893.6628, 102.0604
895.5913, 102.1668
897.5198, 102.4325
899.4482, 102.6667
901.3767, 102.8572
903.3052, 102.9528
905.2336, 102.7996
907.1621, 102.7523
909.0906, 102.9440
911.0190, 103.3085
912.9475, 104.1356
914.8760, 104.7042
916.8044, 104.4143
918.7329, 103.8616
920.6614, 103.2296
922.5898, 102.8269
924.5183, 103.0505
926.4468, 103.5095
928.3752, 103.9297
930.3037, 104.2688
932.2322, 104.4879
934.1606, 104.5794
936.0891, 104.3684
938.0176, 104.1301
939.9460, 104.4708
941.8745, 105.1032
943.8030, 105.4547
945.7314, 105.5447
947.6599, 105.3018
949.5884, 104.8674
951.5168, 104.7346
953.4453, 104.8877
955.3738, 105.3739
957.3022, 106.0953
959.2307, 106.2028
961.1592, 105.7570
963.0876, 105.5991
965.0161, 105.7185
966.9446, 105.7685
968.8730, 105.7426
970.8015, 106.1517
972.7300, 107.0027
974.6584, 107.4284
976.5869, 107.4093
978.5154, 107.2038
980.4438, 106.8211
982.3723, 106.5915
984.3008, 106.5392
986.2292, 106.5822
988.1577, 106.7125
990.0862, 107.1017
992.0146, 107.8017
993.9431, 107.9351
995.8716, 107.3215
997.8000, 107.4422
999.7285, 108.6069
1001.657, 109.0713
1003.585, 108.4817
1005.514, 108.2087
1007.442, 108.4868
1009.371, 108.7784
1011.299, 109.0827
1013.228, 108.9222
1015.156, 107.9641
1017.085, 107.8214
1019.013, 109.0667
1020.942, 109.7577
1022.870, 109.3473
1024.799, 109.3928
1026.727, 110.3649
1028.656, 110.9580
1030.584, 110.8973
1032.512, 110.7874
1034.441, 110.7462
1036.369, 110.5225
1038.298, 109.8592
1040.226, 109.5450
1042.155, 109.5903
1044.083, 110.0943
1046.012, 111.8524
1047.940, 112.5288
1049.869, 111.1691
1051.797, 110.3587
1053.726, 110.2814
1055.654, 110.6019
1057.583, 111.8053
1059.511, 112.4038
1061.439, 111.9866
1063.368, 111.7763
1065.296, 111.9440
1067.225, 112.0381
1069.153, 111.9889
1071.082, 112.0072
1073.010, 112.1456
1074.939, 112.2192
1076.867, 112.2415
1078.796, 112.0367
1080.724, 111.4127
1082.653, 111.3588
1084.581, 112.0647
1086.510, 112.6827
1088.438, 113.2200
1090.366, 113.2770
1092.295, 112.7207
1094.223, 112.7502
1096.152, 113.4904
1098.080, 113.8870
1100.009, 113.8580
1101.937, 114.5315
1103.866, 115.9635
1105.794, 116.0751
1107.723, 114.8585
1109.651, 114.5232
1111.580, 115.0463
1113.508, 115.4481
1115.437, 115.7152
1117.365, 115.7188
1119.293, 115.5520
1121.222, 115.9405
1123.150, 116.6889
1125.079, 116.8425
1127.007, 116.5881
1128.936, 116.5522
1130.864, 116.6582
1132.793, 116.5841
1134.721, 116.5653
1136.650, 117.4411
1138.578, 118.5701
1140.507, 118.6756
1142.435, 118.2174
1144.364, 117.5802
1146.292, 117.1930
1148.220, 118.0377
1150.149, 119.0426
1152.077, 118.8003
1154.006, 118.2443
1155.934, 118.1699
1157.863, 118.3714
1159.791, 118.8605
1161.720, 119.3097
1163.648, 119.4748
1165.577, 119.5298
1167.505, 119.5445
1169.434, 119.5697
1171.362, 119.5595
1173.291, 119.6821
1175.219, 120.1056
1177.147, 120.4918
1179.076, 120.7397
1181.004, 120.9115
1182.933, 121.1233
1184.861, 121.0454
1186.790, 120.1945
1188.718, 120.0469
1190.647, 121.3514
1192.575, 121.7160
1194.504, 120.4728
1196.432, 120.1836
1198.361, 121.1060
1200.289, 121.5050
1202.218, 121.3280
1204.146, 121.4144
1206.074, 121.7466
1208.003, 122.2139
1209.931, 122.7526
1211.860, 122.9530
1213.788, 122.8780
1215.717, 122.6070
1217.645, 122.3722
1219.574, 122.8045
1221.502, 123.4199
1223.431, 123.3551
1225.359, 123.1633
1227.288, 123.5961
1229.216, 124.0631
1231.145, 123.9397
1233.073, 123.7947
1235.001, 124.1120
1236.930, 124.3264
1238.858, 123.9133
1240.787, 123.9706
1242.715, 125.1211
1244.644, 125.9815
1246.572, 126.2514
1248.501, 126.0969
1250.429, 125.3965
1252.358, 125.2567
1254.286, 125.8423
1256.215, 126.4090
1258.143, 126.8893
1260.072, 126.9729
1262.000, 126.7224
1263.928, 126.7103
1265.857, 126.9165
1267.785, 127.1367
1269.714, 127.3876
1271.642, 127.9198
1273.571, 128.3819
1275.499, 127.9169
1277.428, 127.3987
1279.356, 127.9497
1281.285, 128.6837
1283.213, 128.8049
1285.142, 128.9619
1287.070, 129.7084
1288.999, 130.2576
1290.927, 130.1876
1292.855, 130.1283
1294.784, 130.2711
1296.712, 130.3633
1298.641, 130.2390
1300.569, 130.4907
1302.498, 131.2422
1304.426, 131.6499
1306.355, 131.7214
1308.283, 131.7839
1310.212, 131.8395
1312.140, 131.9128
1314.069, 131.9886
1315.997, 132.0252
1317.926, 132.0685
1319.854, 132.2485
1321.782, 132.3611
1323.711, 132.0681
1325.639, 131.9366
1327.568, 132.3748
1329.496, 132.9360
1331.425, 133.4525
1333.353, 133.9469
1335.282, 134.5582
1337.210, 134.5755
1339.139, 133.7637
1341.067, 133.8351
1342.996, 134.8290
1344.924, 134.9610
1346.853, 134.4591
1348.781, 134.1442
1350.709, 134.0490
1352.638, 134.5155
1354.566, 135.1182
1356.495, 135.0753
1358.423, 134.9870
1360.352, 135.5777
1362.280, 135.9648
1364.209, 135.4600
1366.137, 135.4378
1368.066, 136.4013
1369.994, 137.0352
1371.923, 137.0849
1373.851, 137.0432
1375.780, 137.0382
1377.708, 136.9534
1379.636, 136.8151
1381.565, 137.3042
1383.493, 138.0694
1385.422, 138.0180
1387.350, 137.7130
1389.279, 137.9269
1391.207, 138.4903
1393.136, 139.5821
1395.064, 140.2127
1396.993, 139.6505
1398.921, 139.1948
1400.850, 139.0479
1402.778, 139.2608
1404.707, 139.8528
1406.635, 139.9998
1408.563, 139.8188
1410.492, 140.1959
1412.420, 140.8761
1414.349, 141.1501
1416.277, 141.2331
1418.206, 141.4037
1420.134, 141.6821
1422.063, 141.9558
1423.991, 142.2697
1425.920, 142.7306
1427.848, 143.1820
1429.777, 143.7334
1431.705, 144.0687
1433.634, 144.0098
1435.562, 143.8178
1437.490, 143.6566
1439.419, 143.6827
1441.347, 143.7490
1443.276, 143.5413
1445.204, 143.5112
1447.133, 144.5416
1449.061, 145.3520
1450.990, 145.1700
1452.918, 145.0276
1454.847, 145.2028
1456.775, 145.5401
1458.704, 146.0410
1460.632, 146.1261
1462.561, 145.8755
1464.489, 145.8035
1466.417, 145.7606
1468.346, 145.4793
1470.274, 145.3588
1472.203, 145.9153
1474.131, 146.6239
1476.060, 147.5856
1477.988, 147.9394
1479.917, 147.1498
1481.845, 146.7524
1483.774, 146.9742
1485.702, 147.1371
1487.631, 147.1998
1489.559, 147.1695
1491.488, 147.3431
1493.416, 148.0129
1495.344, 148.6349
1497.273, 149.1528
1499.201, 149.3031
1501.130, 148.6402
1503.058, 148.1771
1504.987, 148.0089
1506.915, 148.3489
1508.844, 149.0544
1510.772, 149.5662
1512.701, 150.0271
1514.629, 150.1090
1516.558, 149.9305
1518.486, 149.6036
1520.415, 149.5743
1522.343, 150.2691
1524.271, 151.0166
1526.200, 151.9127
1528.128, 151.8798
1530.057, 150.7922
1531.985, 150.4825
1533.914, 150.8335
1535.842, 151.3508
1537.771, 152.0487
1539.699, 153.0782
1541.628, 153.6525
1543.556, 152.9069
1545.485, 152.7925
1547.413, 154.4660
1549.342, 154.6751
1551.270, 152.9933
1553.198, 153.3486
1555.127, 154.8794
1557.055, 154.8739
1558.984, 154.5827
1560.912, 155.5761
1562.841, 156.1953
1564.769, 155.8254
1566.698, 155.7123
1568.626, 156.0017
1570.555, 155.9779
1572.483, 155.6871
1574.412, 155.8900
1576.340, 156.3316
1578.269, 157.0110
1580.197, 157.5023
1582.125, 156.8194
1584.054, 156.6242
1585.982, 157.7089
1587.911, 157.8393
1589.839, 156.7431
1591.768, 156.4810
1593.696, 157.0057
1595.625, 156.8559
1597.553, 156.5786
1599.482, 156.8536
1601.410, 157.3316
1603.339, 158.4715
1605.267, 159.1320
1607.196, 158.7155
1609.124, 158.6985
1611.052, 159.2132
1612.981, 158.8424
1614.909, 158.2469
1616.838, 158.4427
1618.766, 159.0169
1620.695, 159.9566
1622.623, 160.5145
1624.552, 160.6306
1626.480, 160.7280
1628.409, 160.5884
1630.337, 160.4097
1632.266, 160.5358
1634.194, 161.5047
1636.123, 162.0247
1638.051, 161.2734
1639.979, 161.1681
1641.908, 162.1799
1643.836, 162.0287
1645.765, 161.0995
1647.693, 161.5734
1649.622, 162.5627
1651.550, 162.4192
1653.479, 162.3564
1655.407, 163.3345
1657.336, 163.7912
1659.264, 163.3150
1661.193, 163.0469
1663.121, 163.0980
1665.050, 164.0320
1666.978, 164.8364
1668.906, 164.1101
1670.835, 163.7655
1672.763, 164.4936
1674.692, 164.6511
1676.620, 164.1055
1678.549, 164.8486
1680.477, 166.3406
1682.406, 166.3842
1684.334, 165.9145
1686.263, 165.4748
1688.191, 165.4907
1690.120, 166.5280
1692.048, 166.9315
1693.977, 166.5939
1695.905, 167.1849
1697.833, 168.1078
1699.762, 167.6253
1701.690, 167.0375
1703.619, 167.7855
1705.547, 168.2441
1707.476, 167.8425
1709.404, 167.8496
1711.333, 168.5017
1713.261, 168.4413
1715.190, 167.9397
1717.118, 167.8847
1719.047, 167.9910
1720.975, 167.9027
1722.904, 168.0935
1724.832, 168.3038
1726.760, 169.3798
1728.689, 171.0519
1730.617, 170.7156
1732.546, 169.6168
1734.474, 169.2668
1736.403, 169.5245
1738.331, 170.1183
1740.260, 170.7222
1742.188, 171.0547
1744.117, 170.2758
1746.045, 169.9021
1747.974, 171.0482
1749.902, 171.6135
1751.831, 170.9373
1753.759, 170.4923
1755.688, 170.4099
1757.616, 171.2324
1759.544, 172.1642
1761.473, 171.9901
1763.401, 172.0075
1765.330, 172.7127
1767.258, 173.0171
1769.187, 172.8741
1771.115, 172.9361
1773.044, 173.1179
1774.972, 172.8952
1776.901, 172.7602
1778.829, 173.2652
1780.758, 173.6025
1782.686, 173.4222
1784.615, 173.7184
1786.543, 174.4396
1788.471, 174.4924
1790.400, 174.4990
1792.328, 175.0306
1794.257, 175.1947
1796.185, 175.1400
1798.114, 175.3787
1800.042, 175.5040
1801.971, 175.0162
1803.899, 174.9379
1805.828, 176.0696
1807.756, 176.2692
1809.685, 175.5200
1811.613, 175.5270
1813.542, 175.9370
1815.470, 175.6861
1817.398, 175.4397
1819.327, 176.1644
1821.255, 177.0219
1823.184, 177.4208
1825.112, 177.7614
1827.041, 177.9835
1828.969, 178.1446
1830.898, 178.0818
1832.826, 177.4304
1834.755, 177.3598
1836.683, 177.3965
1838.612, 177.2334
1840.540, 177.3067
1842.469, 177.5899
1844.397, 177.9151
1846.325, 178.2457
1848.254, 178.6079
1850.182, 178.9286
1852.111, 179.5111
1854.039, 179.3730
1855.968, 177.9810
1857.896, 177.4573
1859.825, 177.9622
1861.753, 178.1291
1863.682, 177.7229
1865.610, 177.7712
1867.539, 178.5234
1869.467, 178.9618
1871.396, 178.4738
1873.324, 177.8391
1875.252, 178.5313
1877.181, 179.2918
1879.109, 178.9071
1881.038, 178.6104
1882.966, 178.5381
1884.895, 177.9151
1886.823, 177.0828
1888.752, 178.0744
1890.680, 179.3790
1892.609, 179.1649
1894.537, 179.2601
1896.466, 180.1483
1898.394, 179.9121
1900.323, 179.4731
1902.251, 180.5071
1904.179, 180.7574
1906.108, 180.4667
1908.036, 181.1681
1909.965, 181.4211
1911.893, 181.1573
1913.822, 181.5531
1915.750, 182.3215
1917.679, 182.2270
1919.607, 181.4651
1921.536, 181.4155
1923.464, 181.7863
1925.393, 181.2547
1927.321, 180.4675
1929.250, 180.3348
1931.178, 181.5090
1933.106, 182.5908
1935.035, 182.0300
1936.963, 181.2110
1938.892, 181.5983
1940.820, 181.6553
1942.749, 180.8996
1944.677, 181.4154
1946.606, 182.3351
1948.534, 182.1495
1950.463, 182.1201
1952.391, 182.6629
1954.320, 182.7529
1956.248, 183.0752
1958.177, 182.9640
1960.105, 182.7361
1962.033, 183.0326
1963.962, 182.4550
1965.890, 181.8753
1967.819, 182.1811
1969.747, 182.8304
1971.676, 183.9231
1973.604, 183.9227
1975.533, 183.4290
1977.461, 183.3175
1979.390, 183.1493
1981.318, 182.6386
1983.247, 182.4629
1985.175, 182.7723
1987.104, 182.2988
1989.032, 181.8835
1990.960, 182.1988
1992.889, 182.5195
1994.817, 182.8652
1996.746, 184.1161
1998.674, 184.6900
2000.603, 183.5206
2002.531, 182.7009
2004.460, 182.6212
2006.388, 183.4323
2008.317, 183.9471
2010.245, 183.9199
2012.174, 184.0886
2014.102, 183.7851
2016.031, 183.5749
2017.959, 184.1350
2019.887, 184.2834
2021.816, 183.8825
2023.744, 183.4692
2025.673, 184.1416
2027.601, 184.9413
2029.530, 184.2626
2031.458, 183.5283
2033.387, 183.7215
2035.315, 184.1839
2037.244, 184.0745
2039.172, 183.7558
2041.101, 184.0870
2043.029, 184.1392
2044.958, 183.6625
2046.886, 183.5079
2048.814, 183.5950
2050.743, 184.1231
2052.671, 184.4494
2054.600, 184.8293
2056.528, 185.0164
2058.457, 183.4673
2060.385, 182.6754
2062.314, 183.6955
2064.242, 184.6853
2066.171, 184.9840
2068.099, 184.8282
2070.028, 184.5498
2071.956, 184.5843
2073.885, 184.2133
2075.813, 184.4115
2077.741, 185.1650
2079.670, 184.9678
2081.598, 185.3889
2083.527, 185.6713
2085.455, 184.8707
2087.384, 185.2489
2089.312, 185.1013
2091.241, 183.8282
2093.169, 183.9010
2095.098, 184.3238
2097.026, 184.7841
2098.955, 185.2235
2100.883, 185.2252
2102.812, 185.1759
2104.740, 185.0877
2106.668, 184.0844
2108.597, 183.3159
2110.525, 183.6401
2112.454, 183.8196
2114.382, 184.2568
2116.311, 184.6151
2118.239, 184.4328
2120.168, 184.0776
2122.096, 183.9303
2124.025, 184.0523
2125.953, 184.5855
2127.882, 185.0497
2129.810, 184.7800
2131.739, 184.3801
2133.667, 184.3895
2135.595, 184.6185
2137.524, 184.6254
2139.452, 184.3693
2141.381, 183.7285
2143.309, 183.6726
2145.238, 184.8716
2147.166, 185.0230
2149.095, 183.7375
2151.023, 183.1108
2152.952, 183.7976
2154.880, 184.4742
2156.809, 184.3947
2158.737, 184.2796
2160.666, 184.9794
2162.594, 185.6248
2164.522, 185.2422
2166.451, 184.6218
2168.379, 184.0401
2170.308, 183.0467
2172.236, 183.6129
2174.165, 184.4150
2176.093, 184.2502
2178.022, 184.1193
2179.950, 183.3512
2181.879, 183.0893
2183.807, 183.5647
2185.736, 184.3724
2187.664, 184.5181
2189.593, 184.0642
2191.521, 184.1543
2193.449, 184.3502
2195.378, 184.2511
2197.306, 183.5943
2199.235, 183.3774
2201.163, 182.9979
2203.092, 182.6871
2205.020, 182.9839
2206.949, 183.1794
2208.877, 183.3815
2210.806, 183.2802
2212.734, 183.7031
2214.663, 184.4534
2216.591, 183.9244
2218.520, 183.4739
2220.448, 183.2365
2222.376, 183.9131
2224.305, 184.8517
2226.233, 184.0741
2228.162, 182.9483
2230.090, 182.7348
2232.019, 182.5309
2233.947, 181.8923
2235.876, 182.0171
2237.804, 182.4729
2239.733, 183.9205
2241.661, 184.9820
2243.590, 183.5458
2245.518, 182.3586
2247.447, 182.1176
2249.375, 181.9377
2251.303, 182.2534
2253.232, 182.2218
2255.160, 182.0226
2257.089, 181.6214
2259.017, 181.4779
2260.946, 182.0341
2262.874, 182.4905
2264.803, 182.2181
2266.731, 181.9701
2268.660, 182.8227
2270.588, 183.0360
2272.517, 182.2971
2274.445, 181.6871
2276.374, 181.9827
2278.302, 181.3439
2280.230, 180.8902
2282.159, 182.0261
2284.087, 182.6398
2286.016, 181.9301
2287.944, 181.4639
2289.873, 181.9252
2291.801, 182.5535
2293.730, 181.8633
2295.658, 181.3766
2297.587, 181.9920
2299.515, 181.2793
2301.444, 180.4410
2303.372, 180.3076
2305.301, 180.0469
2307.229, 179.7048
2309.157, 179.8009
2311.086, 180.3353
2313.014, 179.9375
2314.943, 179.6497
2316.871, 179.3035
2318.800, 179.1263
2320.728, 179.6072
2322.657, 180.1047
2324.585, 179.8074
2326.514, 179.0825
2328.442, 178.9014
2330.371, 178.5871
2332.299, 178.7355
2334.228, 178.7256
2336.156, 178.9809
2338.084, 178.3000
2340.013, 176.8959
2341.941, 177.6275
2343.870, 178.0910
2345.798, 177.8215
2347.727, 178.0271
2349.655, 178.1169
2351.584, 177.8768
2353.512, 178.4272
2355.441, 179.2654
2357.369, 178.4008
2359.298, 177.5923
2361.226, 177.4716
2363.155, 177.8653
2365.083, 178.2429
2367.011, 177.2325
2368.940, 176.4991
2370.868, 177.4074
2372.797, 177.5759
2374.725, 176.9998
2376.654, 177.0723
2378.582, 177.0816
2380.511, 177.0694
2382.439, 177.2647
2384.368, 176.3770
2386.296, 175.5898
2388.225, 176.4742
2390.153, 176.8586
2392.082, 176.8326
2394.010, 176.6292
2395.938, 175.5639
2397.867, 174.7988
2399.795, 174.3504
2401.724, 174.9233
2403.652, 176.5262
2405.581, 176.0160
2407.509, 175.1280
2409.438, 175.4484
2411.366, 175.4711
2413.295, 174.5793
2415.223, 173.7414
2417.152, 173.3778
2419.080, 173.2905
2421.009, 174.1912
2422.937, 174.0537
2424.865, 173.2541
2426.794, 172.9340
2428.722, 172.3491
2430.651, 171.8420
2432.579, 171.8884
2434.508, 171.6500
2436.436, 170.9246
2438.365, 170.8426
2440.293, 171.4132
2442.222, 171.9798
2444.150, 170.8218
2446.079, 170.0537
2448.007, 170.4612
2449.936, 169.7682
2451.864, 169.6908
2453.792, 169.7632
2455.721, 169.7304
2457.649, 169.9948
2459.578, 169.5456
2461.506, 169.5069
2463.435, 170.1701
2465.363, 170.0723
2467.292, 169.3856
2469.220, 168.8333
2471.149, 168.3509
2473.077, 167.5869
2475.006, 167.4330
2476.934, 166.8941
2478.863, 166.5931
2480.791, 167.2785
2482.719, 167.0275
2484.648, 166.2162
2486.576, 165.6371
2488.505, 165.4453
2490.433, 165.7818
2492.362, 166.3648
2494.290, 166.0196
2496.219, 165.3573
2498.147, 164.9010
2500.076, 165.1349
2502.004, 165.6220
2503.933, 164.5486
2505.861, 164.3013
2507.790, 165.2498
2509.718, 165.1316
2511.646, 164.5281
2513.575, 164.3730
2515.503, 163.9162
2517.432, 164.1788
2519.360, 165.7592
2521.289, 163.9066
2523.217, 162.1139
2525.146, 162.3667
2527.074, 162.1380
2529.003, 161.8044
2530.931, 161.5687
2532.860, 160.8491
2534.788, 160.2363
2536.717, 160.9765
2538.645, 161.5907
2540.573, 161.5446
2542.502, 160.8042
2544.430, 160.9323
2546.359, 161.2590
2548.287, 160.4209
2550.216, 160.1570
2552.144, 159.7264
2554.073, 159.6048
2556.001, 160.0401
2557.930, 159.6037
2559.858, 158.9722
2561.787, 158.4334
2563.715, 157.8094
2565.644, 157.6892
2567.572, 157.5129
2569.500, 157.1015
2571.429, 157.1097
2573.357, 157.4084
2575.286, 157.3770
2577.214, 156.2069
2579.143, 155.3732
2581.071, 155.3098
2583.000, 154.9967
2584.928, 154.9668
2586.857, 155.0725
2588.785, 154.7462
2590.714, 154.8917
2592.642, 155.3096
2594.571, 154.8079
2596.499, 154.3671
2598.427, 154.7931
2600.356, 154.6196
2602.284, 153.8573
2604.213, 153.1279
2606.141, 153.0034
2608.070, 153.1985
2609.998, 153.0097
2611.927, 152.4749
2613.855, 152.5591
2615.784, 152.4174
2617.712, 151.5861
2619.641, 151.3023
2621.569, 150.8410
2623.498, 150.4800
2625.426, 149.9187
2627.354, 148.7878
2629.283, 148.6758
2631.211, 148.8227
2633.140, 148.5124
2635.068, 148.4486
2636.997, 148.7471
2638.925, 148.6372
2640.854, 147.6631
2642.782, 147.1378
2644.711, 147.0424
2646.639, 147.4588
2648.568, 147.4751
2650.496, 146.9203
2652.425, 145.7929
2654.353, 145.5588
2656.281, 145.8419
2658.210, 145.4318
2660.138, 144.4602
2662.067, 143.0686
2663.995, 142.4576
2665.924, 142.0613
2667.852, 141.5682
2669.781, 141.6189
2671.709, 142.1963
2673.638, 142.2329
2675.566, 142.1936
2677.495, 142.2761
2679.423, 142.0346
2681.352, 140.9782
2683.280, 140.4332
2685.208, 140.1269
2687.137, 139.2444
2689.065, 138.4322
2690.994, 138.3455
2692.922, 138.9899
2694.851, 138.0456
2696.779, 137.1267
2698.708, 137.1066
2700.636, 137.7733
2702.565, 137.7538
2704.493, 136.7236
2706.422, 136.0269
2708.350, 135.7725
2710.279, 135.8205
2712.207, 134.7735
2714.135, 134.4578
2716.064, 134.9041
2717.992, 134.2161
2719.921, 134.0228
2721.849, 133.9468
2723.778, 133.5369
2725.706, 133.2587
2727.635, 132.7458
2729.563, 132.0654
2731.492, 131.2606
2733.420, 130.5022
2735.349, 131.1916
2737.277, 131.7445
2739.206, 131.6190
2741.134, 130.7875
2743.063, 130.2134
2744.991, 129.9925
2746.919, 129.8667
2748.848, 129.2237
2750.776, 128.6829
2752.705, 128.4052
2754.633, 127.9083
2756.562, 127.3748
2758.490, 126.8946
2760.419, 126.5839
2762.347, 126.5406
2764.276, 126.7457
2766.204, 126.8917
2768.133, 126.3304
2770.061, 125.4790
2771.990, 124.7007
2773.918, 125.3099
2775.846, 125.3435
2777.775, 124.4325
2779.703, 123.7402
2781.632, 123.0071
2783.560, 122.3671
2785.489, 121.9529
2787.417, 121.0836
2789.346, 120.2380
2791.274, 120.3270
2793.203, 120.3240
2795.131, 120.1111
2797.060, 119.6067
2798.988, 118.4176
2800.917, 117.9310
2802.845, 118.5152
2804.773, 118.2783
2806.702, 117.8460
2808.630, 117.4289
2810.559, 117.5594
2812.487, 117.2030
2814.416, 116.6218
2816.344, 116.3283
2818.273, 115.2700
2820.201, 114.6021
2822.130, 114.9385
2824.058, 114.3012
2825.987, 114.0201
2827.915, 114.2598
2829.844, 113.4223
2831.772, 113.0912
2833.700, 113.0998
2835.629, 112.4916
2837.557, 112.4092
2839.486, 112.1470
2841.414, 111.0997
2843.343, 110.1724
2845.271, 109.7811
2847.200, 109.7879
2849.128, 108.6838
2851.057, 108.3810
2852.985, 108.5401
2854.914, 107.7405
2856.842, 107.1973
2858.771, 106.8429
2860.699, 106.4900
2862.627, 106.9399
2864.556, 106.8621
2866.484, 105.8162
2868.413, 104.3003
2870.341, 103.7644
2872.270, 103.9574
2874.198, 104.3311
2876.127, 104.3495
2878.055, 103.6686
2879.984, 102.1273
2881.912, 101.0504
2883.841, 100.8535
2885.769, 101.1140
2887.698, 99.78767
2889.626, 99.93303
2891.554, 100.6842
2893.483, 100.6370
2895.411, 100.7036
2897.340, 100.0916
2899.268, 98.69884
2901.197, 99.04736
2903.125, 98.62517
2905.054, 97.55588
2906.982, 97.81531
2908.911, 96.72084
2910.839, 95.62498
2912.768, 95.59641
2914.696, 96.03087
2916.625, 96.17991
2918.553, 95.86306
2920.481, 95.15039
2922.410, 94.71539
2924.338, 94.16919
2926.267, 92.88649
2928.195, 92.23051
2930.124, 92.23425
2932.052, 92.18118
2933.981, 91.11052
2935.909, 90.77504
2937.838, 90.94540
2939.766, 91.02798
2941.695, 90.85726
2943.623, 90.79131
2945.552, 90.77531
2947.480, 90.22851
2949.408, 89.76881
2951.337, 89.12254
2953.265, 87.94106
2955.194, 87.38937
2957.122, 86.92220
2959.051, 86.32558
2960.979, 86.55013
2962.908, 86.70912
2964.836, 86.40708
2966.765, 85.14377
2968.693, 85.37718
2970.622, 85.03168
2972.550, 83.46900
2974.479, 83.15463
2976.407, 83.18501
2978.335, 82.98539
2980.264, 82.36907
2982.192, 82.11572
2984.121, 82.19282
2986.049, 82.07784
2987.978, 81.16467
2989.906, 81.12754
2991.835, 80.79322
2993.763, 79.44816
2995.692, 78.94299
2997.620, 78.81080
2999.549, 78.67790
3001.477, 78.73279
3003.406, 78.00504
3005.334, 77.68015
3007.262, 78.17361
3009.191, 76.48174
3011.119, 76.34480
3013.048, 76.76728
3014.976, 76.11922
3016.905, 75.92319
3018.833, 75.75210
3020.762, 75.40856
3022.690, 74.48748
3024.619, 73.38711
3026.547, 72.99191
3028.476, 73.70628
3030.404, 73.28526
3032.333, 73.18015
3034.261, 72.93724
3036.189, 71.93031
3038.118, 71.96181
3040.046, 71.66447
3041.975, 70.93088
3043.903, 71.16038
3045.832, 71.12330
3047.760, 70.05515
3049.689, 68.67912
3051.617, 69.18311
3053.546, 69.43058
3055.474, 68.83906
3057.403, 67.24215
3059.331, 66.82104
3061.260, 66.78191
3063.188, 66.76227
3065.116, 66.89072
3067.045, 66.40009
3068.973, 65.89112
3070.902, 66.27812
3072.830, 65.31813
3074.759, 65.19443
3076.687, 65.27579
3078.616, 63.65710
3080.544, 62.95334
3082.473, 63.38322
3084.401, 63.78615
3086.330, 62.53325
3088.258, 62.08710
3090.187, 62.22060
3092.115, 62.65703
3094.043, 62.31522
3095.972, 61.57815
3097.900, 60.94600
3099.829, 60.52741
3101.757, 60.38782
3103.686, 59.92622
3105.614, 59.59255
3107.543, 59.41058
3109.471, 58.82361
3111.400, 58.31987
3113.328, 57.69281
3115.257, 57.00261
3117.185, 57.29378
3119.114, 56.83728
3121.042, 55.88358
3122.970, 55.50270
3124.899, 54.84031
3126.827, 54.76927
3128.756, 54.99902
3130.684, 54.85535
3132.613, 54.49976
3134.541, 54.13467
3136.470, 53.92655
3138.398, 54.10559
3140.327, 53.01745
3142.255, 52.18346
3144.184, 52.20475
3146.112, 52.00565
3148.041, 51.83729
3149.969, 51.67413
3151.897, 51.71189
3153.826, 50.80609
3155.754, 50.51552
3157.683, 50.64177
3159.611, 50.26781
3161.540, 50.66620
3163.468, 50.10776
3165.397, 49.24928
3167.325, 48.58231
3169.254, 48.75112
3171.182, 48.46828
3173.111, 47.86606
3175.039, 47.63777
3176.968, 47.16714
3178.896, 46.56539
3180.824, 46.12832
3182.753, 46.07917
3184.681, 45.89369
3186.610, 45.87304
3188.538, 45.65304
3190.467, 45.20000
3192.395, 44.59813
3194.324, 44.25323
3196.252, 43.99631
3198.181, 43.27107
3200.109, 42.68038
3202.038, 42.48446
3203.966, 42.26171
3205.895, 42.19535
3207.823, 41.53559
3209.751, 41.08118
3211.680, 40.70441
3213.608, 40.33338
3215.537, 40.12371
3217.465, 40.07280
3219.394, 40.23574
3221.322, 40.75544
3223.251, 39.38460
3225.179, 38.65184
3227.108, 38.53774
3229.036, 38.48979
3230.965, 38.41682
3232.893, 37.93270
3234.822, 37.65619
3236.750, 37.92652
3238.678, 37.24820
3240.607, 37.20477
3242.535, 36.73143
3244.464, 35.66322
3246.392, 36.17609
3248.321, 35.76537
3250.249, 35.44893
3252.178, 35.49734
3254.106, 35.09575
3256.035, 34.58755
3257.963, 34.17901
3259.892, 33.84948
3261.820, 34.16898
3263.749, 33.55964
3265.677, 33.05221
3267.605, 33.00976
3269.534, 33.36086
3271.462, 33.25334
3273.391, 32.77005
3275.319, 32.67772
3277.248, 33.21014
3279.176, 32.63430
3281.105, 32.38557
3283.033, 32.45477
3284.962, 32.32303
3286.890, 31.36533
3288.819, 31.63258
3290.747, 31.85059
3292.676, 31.63537
3294.604, 31.38182
3296.532, 31.33092
3298.461, 31.78165
3300.389, 32.06390
3302.318, 31.69596
3304.246, 31.81105
3306.175, 31.45227
3308.103, 31.12843
3310.032, 30.85307
3311.960, 29.90436
3313.889, 29.63161
3315.817, 29.49250
3317.746, 29.40718
3319.674, 29.86427
3321.603, 28.82810
3323.531, 28.90130
3325.459, 29.32207
3327.388, 28.67624
3329.316, 28.23396
3331.245, 28.18682
3333.173, 28.21284
3335.102, 28.14078
3337.030, 27.40598
3338.959, 26.82226
3340.887, 26.83727
3342.816, 27.22930
3344.744, 27.15257
3346.673, 26.83155
3348.601, 26.34462
3350.530, 26.23124
3352.458, 26.52134
3354.386, 26.01966
3356.315, 26.46013
3358.243, 26.18989
3360.172, 25.41627
3362.100, 25.56478
3364.029, 25.52765
3365.957, 25.69044
3367.886, 25.47891
3369.814, 24.98894
3371.743, 26.11183
3373.671, 25.21283
3375.600, 24.55175
3377.528, 24.67652
3379.457, 24.96615
3381.385, 24.68695
3383.313, 24.95444
3385.242, 24.62282
3387.170, 23.54815
3389.099, 23.94482
3391.027, 23.71115
3392.956, 23.93370
3394.884, 24.13181
3396.813, 23.57987
3398.741, 23.21527
3400.670, 23.47929
3402.598, 23.33375
3404.527, 22.71581
3406.455, 22.60528
3408.384, 22.50031
3410.312, 22.13860
3412.240, 22.06372
3414.169, 22.48661
3416.097, 22.41660
3418.026, 21.79182
3419.954, 22.20245
3421.883, 22.35592
3423.811, 20.90869
3425.740, 21.84903
3427.668, 22.37158
3429.597, 22.14969
3431.525, 22.04907
3433.454, 22.99730
3435.382, 22.36296
3437.311, 21.75809
3439.239, 21.69972
3441.167, 21.86339
3443.096, 21.41668
3445.024, 21.06577
3446.953, 21.12577
3448.881, 21.18097
3450.810, 20.98561
3452.738, 20.90711
3454.667, 20.40814
3456.595, 20.36044
3458.524, 20.19118
3460.452, 19.42676
3462.381, 18.98173
3464.309, 19.71632
3466.238, 19.72037
3468.166, 18.99181
3470.094, 18.27804
3472.023, 18.07528
3473.951, 18.03536
3475.880, 19.80573
3477.808, 20.69883
3479.737, 18.17522
3481.665, 18.12836
3483.594, 17.89184
3485.522, 17.35413
3487.451, 17.03765
3489.379, 17.29983
3491.308, 17.53492
3493.236, 17.12864
3495.165, 16.76612
3497.093, 16.54346
3499.021, 16.39595
3500.950, 17.41828
3502.878, 17.53219
3504.807, 16.81591
3506.735, 16.51126
3508.664, 17.42224
3510.592, 17.43675
3512.521, 16.13487
3514.449, 15.89893
3516.378, 16.54991
3518.306, 17.07663
3520.235, 17.29722
3522.163, 16.65574
3524.092, 16.42281
3526.020, 16.52901
3527.948, 16.49101
3529.877, 16.06178
3531.805, 16.01357
3533.734, 16.16575
3535.662, 15.95192
3537.591, 15.36080
3539.519, 15.10154
3541.448, 14.94030
3543.376, 15.11151
3545.305, 14.88547
3547.233, 14.58018
3549.162, 15.17850
3551.090, 14.70391
3553.019, 14.66344
3554.947, 14.59033
3556.875, 14.37536
3558.804, 14.22727
3560.732, 13.90806
3562.661, 14.06710
3564.589, 14.21731
3566.518, 14.35734
3568.446, 14.44483
3570.375, 13.71905
3572.303, 14.05991
3574.232, 14.21633
3576.160, 14.03541
3578.089, 13.72380
3580.017, 13.50879
3581.946, 13.96200
3583.874, 14.19174
3585.802, 14.21794
3587.731, 13.92473
3589.659, 13.26830
3591.588, 12.79217
3593.516, 13.11536
3595.445, 12.78264
3597.373, 12.95207
3599.302, 13.45225
3601.230, 12.59502
3603.159, 12.29026
3605.087, 12.24107
3607.016, 12.11680
3608.944, 11.74586
3610.873, 11.26010
3612.801, 11.29456
3614.729, 11.26819
3616.658, 11.04688
3618.586, 10.51611
3620.515, 10.30177
3622.443, 11.16370
3624.372, 11.47641
3626.300, 11.26395
3628.229, 10.60931
3630.157, 10.45208
3632.086, 10.92564
3634.014, 10.78004
3635.943, 10.36352
3637.871, 10.44559
3639.800, 10.98611
3641.728, 11.27149
3643.656, 10.94323
3645.585, 10.80860
3647.513, 10.54452
3649.442, 11.33306
3651.370, 11.04320
3653.299, 10.34596
3655.227, 10.96011
3657.156, 11.20319
3659.084, 11.11871
3661.013, 10.71873
3662.941, 11.08146
3664.870, 11.43169
3666.798, 10.53167
3668.727, 10.40788
3670.655, 10.32291
3672.583, 9.933514
3674.512, 9.862393
3676.440, 9.921086
3678.369, 9.445938
3680.297, 9.085435
3682.226, 9.574770
3684.154, 9.075082
3686.083, 8.330013
3688.011, 8.287121
3689.940, 8.928151
3691.868, 8.352039
3693.797, 8.561131
3695.725, 8.256104
3697.654, 7.851121
3699.582, 7.610383
3701.510, 7.555846
3703.439, 8.303530
3705.367, 8.329295
3707.296, 8.431439
3709.224, 8.586152
3711.153, 8.709730
3713.081, 8.655853
3715.010, 8.028706
3716.938, 8.555039
3718.867, 8.335642
3720.795, 7.689124
3722.724, 7.591317
3724.652, 7.893625
3726.581, 7.191633
3728.509, 7.402366
3730.438, 7.304780
3732.366, 7.235846
3734.294, 7.435157
3736.223, 7.711194
3738.151, 7.681809
3740.080, 7.259319
3742.008, 7.879792
3743.937, 7.752311
3745.865, 6.957180
3747.794, 6.426972
3749.722, 6.810486
3751.651, 7.799281
3753.579, 6.419146
3755.508, 6.157153
3757.436, 6.651371
3759.365, 6.472637
3761.293, 6.125844
3763.221, 6.771063
3765.150, 6.702522
3767.078, 5.768126
3769.007, 5.759521
3770.935, 6.228078
3772.864, 6.379159
3774.792, 6.253559
3776.721, 6.549191
3778.649, 6.649890
3780.578, 6.854509
3782.506, 6.387110
3784.435, 6.284600
3786.363, 6.640578
3788.292, 6.668444
3790.220, 5.794480
3792.148, 6.338048
3794.077, 6.062101
3796.005, 6.593851
3797.934, 6.472364
3799.862, 5.798669
3801.791, 5.733528
3803.719, 6.125343
3805.648, 5.527210
3807.576, 5.179617
3809.505, 5.459491
3811.433, 5.210328
3813.362, 4.827179
3815.290, 4.802087
3817.219, 4.215783
3819.147, 4.473566
3821.075, 4.724310
3823.004, 4.257028
3824.932, 4.080813
3826.861, 4.204884
3828.789, 4.299911
3830.718, 4.576448
3832.646, 4.130935
3834.575, 4.241499
3836.503, 4.413030
3838.432, 4.246200
3840.360, 4.062554
3842.289, 4.020997
3844.217, 4.014745
3846.146, 4.680058
3848.074, 4.521824
3850.002, 4.842424
3851.931, 4.754954
3853.859, 4.425064
3855.788, 4.443595
3857.716, 4.669302
3859.645, 4.217471
3861.573, 4.346496
3863.502, 3.756135
3865.430, 4.436242
3867.359, 4.600616
3869.287, 4.198951
3871.216, 4.206334
3873.144, 4.643037
3875.073, 4.003074
3877.001, 4.452652
3878.929, 3.551968
3880.858, 3.756508
3882.786, 3.965226
3884.715, 3.820320
3886.643, 3.417862
3888.572, 2.641674
3890.500, 3.526848
3892.429, 3.632863
3894.357, 3.223317
3896.286, 3.174627
3898.214, 3.285297
3900.143, 3.098607
3902.071, 2.733179
3904.000, 2.615934
3905.928, 2.326015
3907.856, 2.625085
3909.785, 3.023458
3911.713, 3.274315
3913.642, 2.793743
3915.570, 2.825104
3917.499, 3.273797
3919.427, 2.735410
3921.356, 3.202576
3923.284, 3.002254
3925.213, 3.041368
3927.141, 2.576025
3929.070, 2.976104
3930.998, 3.304169
3932.927, 2.827841
3934.855, 2.266663
3936.783, 2.482236
3938.712, 2.775286
3940.640, 2.815225
3942.569, 2.958745
3944.497, 2.608972
3946.426, 2.498289
3948.354, 2.359262
3950.283, 2.190946
3952.211, 2.389082
3954.140, 1.928419
3956.068, 1.849454
3957.997, 1.829925
3959.925, 1.997810
3961.854, 2.224470
3963.782, 2.149121
3965.710, 2.157415
3967.639, 2.342654
3969.567, 2.285400
3971.496, 2.156134
3973.424, 2.313999
3975.353, 2.364030
3977.281, 2.667546
3979.210, 2.564912
3981.138, 2.338087
3983.067, 2.189371
3984.995, 2.277896
3986.924, 2.499796
3988.852, 2.154348
3990.781, 1.740931
3992.709, 2.403498
3994.637, 2.362219
3996.566, 1.689930
3998.494, 1.954631
4000.423, 2.176917
4002.351, 1.821618
4004.280, 1.877398
4006.208, 2.446706
4008.137, 1.822816
4010.065, 2.083044
4011.994, 1.845104
4013.922, 1.605949
4015.851, 1.851441
4017.779, 1.873763
4019.708, 1.442258
4021.636, 1.286029
4023.564, 1.757045
4025.493, 1.691185
4027.421, 1.862641
4029.350, 1.643359
4031.278, 1.455499
4033.207, 1.653218
4035.135, 1.342452
4037.064, 0.8399952
4038.992, 1.002251
4040.921, 1.570110
4042.849, 1.450904
4044.778, 1.025982
4046.706, 0.6323957
4048.635, 1.578909
4050.563, 1.246535
4052.491, 1.238473
4054.420, 1.032074
4056.348, 1.098183
4058.277, 1.419654
4060.205, 1.307329
4062.134, 1.051102
4064.062, 1.343054
4065.991, 1.291400
4067.919, 1.322420
4069.848, 0.9452430
4071.776, 0.9927470
4073.705, 1.059862
4075.633, 1.160412
4077.562, 0.9943174
4079.490, 0.7036957
4081.418, 0.7717965
4083.347, 0.7553424
4085.275, 0.6935847
4087.204, 1.398718
4089.132, 1.062697
4091.061, 0.9562437
4092.989, 0.1441894
4094.918, 0.4770737
4096.846, 0.3853933
4098.774, 0.1040337
4100.703, 0.5778848
4102.632, 0.8202277
4104.560, 0.3616328
4106.488, 0.3854800
4108.417, 0.3823571
4110.346, 0.4263757
4112.274, 0.7859903
4114.202, 0.4855198
4116.131, 0.4338275
4118.060, 0.4177310
4119.988, 0.4630862
4121.916, 0.4747947
4123.845, 0.2413919
4125.773, 6.6036120E-02
4127.702, 0.2570380
4129.630, 1.2396100E-02
4131.559, 0.1563383
4133.487, 0.1746561
4135.416, -0.1783797
4137.344, -0.2226267
4139.272, 0.1649296
4141.201, 0.1337900
4143.129, 0.1998539
4145.058, 0.3279631
4146.986, -5.8157451E-02
4148.915, -0.3551361
4150.843, 0.1372398
4152.771, -0.4734758
4154.700, -4.2489748E-02
4156.629, -0.1130264
4158.557, 0.3662066
4160.485, -0.1498429
4162.414, -0.2126520
4164.343, 2.6568560E-02
4166.271, -3.8771860E-02
4168.199, -0.1014642
4170.128, 5.8242369E-02
4172.057, -0.2202682
4173.985, -0.6012038
4175.913, -2.9813711E-02
4177.842, -3.2290071E-02
4179.771, 0.1695503
4181.699, 8.4335253E-02
4183.627, -0.3247274
4185.556, -0.4302685
4187.484, -0.5273308
4189.413, 0.1028389
4191.341, 0.2875391
4193.270, 0.3631932
4195.198, 0.2297957
4197.126, -0.4146782
4199.055, -0.7293785
4200.983, -0.3126830
4202.912, -0.1403547
4204.840, -0.3788500
4206.769, -8.8428751E-02
4208.697, -0.5561400
4210.626, -0.2178511
4212.554, -0.2223711
4214.482, -0.1418664
4216.411, -0.1407487
4218.340, -0.6444792
4220.268, -0.5048208
4222.196, 8.5387103E-02
4224.125, -0.1573111
4226.054, -0.1858118
4227.982, -0.2573087
4229.910, -0.5012321
4231.839, -0.2822320
4233.768, -0.2684284
4235.696, 0.2307652
4237.624, -2.8347600E-02
4239.553, -0.1247048
4241.481, -0.3393897
4243.410, -0.3513015
4245.338, 0.1152589
4247.267, -0.4119783
4249.195, -0.3490062
4251.124, -0.4703779
4253.052, -0.2419532
4254.980, -0.4562002
4256.909, -0.4995380
4258.837, -0.6027323
4260.766, -0.5751517
4262.694, -0.5180576
4264.623, -0.3836017
4266.551, 1.0796660E-02
4268.479, -0.1011366
4270.408, 7.6038837E-02
4272.337, -0.4810054
4274.265, -0.5008178
4276.193, -0.2355797
4278.122, -0.3904384
4280.051, -0.3229543
4281.979, -0.3950025
4283.907, 8.7510534E-02
4285.836, -0.6152493
4287.765, -0.6129717
4289.693, -0.3616057
4291.621, -0.1805830
4293.550, -0.1394794
4295.479, -0.2938858
4297.407, -0.2565930
4299.335, -0.2513017
4301.264, -0.3469036
4303.192, -0.5365064
4305.121, -0.6268705
4307.049, -0.3131331
4308.978, -0.1721035
4310.906, 2.4734361E-03
4312.834, -0.3378780
4314.763, -0.2444067
4316.691, -0.3851074
4318.620, -0.1471206
4320.548, -0.8370695
4322.477, 0.3399279
4324.405, 3.5983808E-02
4326.334, -8.3184943E-02
4328.262, -0.4785402
4330.190, -0.4109164
4332.119, -0.3301448
4334.048, -0.2918514
4335.976, -0.5531973
4337.904, 5.3376169E-03
4339.833, -0.3183160
4341.762, -0.6657571
4343.690, 2.9150441E-03
4345.618, 0.1467535
4347.547, -7.2318889E-02
4349.476, -0.2035601
4351.404, -0.1100233
4353.332, 0.1059335
4355.261, -0.1397338
4357.189, -0.3344778
4359.118, -0.3835540
4361.046, -0.5566466
4362.975, -0.5050060
4364.903, -0.7639044
4366.832, -0.4948018
4368.760, -0.1859320
4370.688, -0.2705143
4372.617, -0.2661364
4374.545, -0.7877747
4376.474, -1.013144
4378.402, -0.5557929
##END=



