##NAMES=Pyrrhotite
##RRUFFID=R060440
##IDEAL CHEMISTRY=Fe_7_S_8_
##LOCALITY=Dal 'Negorsk, Primorskiy Kray, far eastern Russia
##OWNER=RRUFF
##SOURCE=Michael Scott
##DESCRIPTION=Bronze-yellow metallic tabular hexagonal prisms
##STATUS=The identification of this mineral has been confirmed by X-ray diffraction and chemical analysis
##URL=https://www.rruff.net/odr/rruff_sample/R060440
##MEASURED CHEMISTRY=Fe_7.1_S_8.0_
##DIFFRACTION SAMPLE DESCRIPTION=Powder, cell parameters are from single crystal
##CELL PARAMETERS=a: 11.896 b: 6.865 c: 22.779 alpha: 90 beta: 90.34 gamma: 90 volume: 1860 crystal system: monoclinic
##FILETYPE=Raman RAW
##RAMAN WAVELENGTH=780

191.8992, 114.3468
193.8276, 113.8413
195.7561, 112.8431
197.6846, 111.8347
199.6130, 110.8601
201.5415, 109.9263
203.4700, 108.9070
205.3984, 108.5693
207.3269, 109.4884
209.2554, 110.0590
211.1838, 109.6405
213.1123, 108.7532
215.0408, 107.6561
216.9692, 106.3872
218.8977, 105.6960
220.8262, 105.8658
222.7546, 105.7306
224.6831, 104.6422
226.6116, 103.8473
228.5400, 104.1700
230.4685, 105.1826
232.3970, 105.9973
234.3254, 106.5847
236.2539, 107.0931
238.1824, 107.4388
240.1108, 107.8910
242.0393, 108.5344
243.9678, 109.3464
245.8962, 110.4114
247.8247, 111.6774
249.7532, 112.6903
251.6816, 113.3798
253.6101, 114.2656
255.5386, 115.7796
257.4670, 117.0643
259.3955, 117.6230
261.3240, 117.7694
263.2524, 118.0019
265.1809, 118.3077
267.1094, 118.4462
269.0378, 118.2699
270.9663, 118.3296
272.8948, 118.7207
274.8232, 119.4711
276.7517, 120.5005
278.6802, 121.9501
280.6086, 124.1659
282.5371, 127.1209
284.4656, 130.5019
286.3940, 134.6731
288.3225, 138.5317
290.2510, 141.5993
292.1794, 144.3945
294.1079, 146.8214
296.0364, 149.4314
297.9648, 153.8305
299.8933, 160.3332
301.8218, 166.7048
303.7502, 173.6211
305.6787, 178.9373
307.6072, 182.5061
309.5356, 183.8376
311.4641, 181.3965
313.3926, 176.3419
315.3210, 171.4904
317.2495, 166.8253
319.1780, 163.0488
321.1064, 160.5658
323.0349, 158.4526
324.9634, 156.8542
326.8918, 155.1348
328.8203, 152.4215
330.7488, 149.0630
332.6772, 146.3584
334.6057, 144.3969
336.5342, 143.0802
338.4626, 143.1136
340.3911, 142.7922
342.3196, 141.4087
344.2480, 139.5261
346.1765, 137.4327
348.1050, 135.2471
350.0334, 133.5263
351.9619, 132.1402
353.8904, 131.6766
355.8188, 133.3943
357.7473, 133.9996
359.6758, 131.8675
361.6042, 128.7990
363.5327, 125.9648
365.4612, 123.3385
367.3896, 120.8358
369.3181, 118.4410
371.2466, 116.3206
373.1750, 114.7402
375.1035, 112.7745
377.0320, 109.7666
378.9604, 106.7797
380.8889, 104.4777
382.8174, 102.6096
384.7458, 100.7470
386.6743, 98.88917
388.6028, 97.20889
390.5313, 95.74158
392.4597, 94.29912
394.3882, 92.76840
396.3167, 91.37980
398.2451, 90.30583
400.1736, 89.35958
402.1021, 88.39616
404.0305, 87.39880
405.9590, 86.22054
407.8875, 84.84925
409.8159, 83.59927
411.7444, 82.49490
413.6729, 81.56768
415.6013, 80.99759
417.5298, 80.41158
419.4583, 79.57531
421.3867, 78.57508
423.3152, 77.50510
425.2437, 76.39334
427.1721, 75.42529
429.1006, 74.60201
431.0291, 73.97775
432.9575, 73.79288
434.8860, 73.48830
436.8145, 72.75035
438.7429, 71.96299
440.6714, 71.47950
442.5999, 71.19204
444.5283, 70.87289
446.4568, 70.51994
448.3853, 70.05563
450.3137, 69.33668
452.2422, 68.88929
454.1707, 68.85450
456.0991, 69.01322
458.0276, 69.64816
459.9561, 70.12719
461.8845, 69.50577
463.8130, 68.37692
465.7415, 68.03941
467.6699, 68.53632
469.5984, 68.59637
471.5269, 67.72722
473.4553, 67.16216
475.3838, 67.38047
477.3123, 67.43178
479.2407, 66.74358
481.1692, 65.90710
483.0977, 65.41702
485.0261, 65.16898
486.9546, 65.00904
488.8831, 64.94580
490.8115, 64.80817
492.7400, 64.31190
494.6685, 64.22842
496.5969, 65.06217
498.5254, 65.57676
500.4539, 64.91145
502.3823, 64.28997
504.3108, 64.94475
506.2393, 65.99025
508.1677, 65.89771
510.0962, 64.74418
512.0247, 64.02355
513.9531, 63.82877
515.8816, 63.83941
517.8101, 64.11292
519.7385, 64.45798
521.6670, 64.90970
523.5955, 65.28991
525.5239, 65.52695
527.4524, 65.62585
529.3809, 65.42887
531.3093, 65.11836
533.2378, 65.38184
535.1663, 66.28403
537.0947, 66.58061
539.0232, 66.10641
540.9517, 65.91698
542.8801, 66.34419
544.8086, 66.72968
546.7371, 66.84837
548.6655, 66.79590
550.5940, 66.51215
552.5225, 66.16647
554.4509, 66.02715
556.3794, 66.00777
558.3079, 65.61572
560.2363, 65.79618
562.1648, 66.09006
564.0933, 66.05760
566.0217, 66.91582
567.9502, 67.20773
569.8787, 67.36810
571.8071, 67.53194
573.7356, 67.62406
575.6641, 67.66037
577.5925, 67.55823
579.5210, 66.94194
581.4495, 66.18440
583.3779, 66.46468
585.3064, 67.57246
587.2349, 67.87625
589.1633, 67.08017
591.0918, 66.64373
593.0203, 67.09975
594.9487, 67.39378
596.8772, 67.18141
598.8057, 66.97514
600.7341, 67.03738
602.6626, 67.16453
604.5911, 67.16355
606.5195, 67.12101
608.4480, 67.17345
610.3765, 67.29578
612.3049, 67.40604
614.2334, 67.50336
616.1619, 67.55681
618.0903, 67.46840
620.0188, 67.55223
621.9473, 67.94241
623.8757, 68.31884
625.8042, 68.72936
627.7327, 68.95313
629.6611, 68.61084
631.5896, 68.28512
633.5181, 68.62778
635.4465, 69.22974
637.3750, 69.37879
639.3035, 69.17037
641.2319, 69.23393
643.1604, 69.64700
645.0889, 69.86868
647.0173, 69.90966
648.9458, 69.70340
650.8743, 68.95914
652.8027, 68.63010
654.7312, 69.32420
656.6597, 69.83024
658.5881, 69.20477
660.5166, 68.59401
662.4451, 68.80976
664.3735, 69.44965
666.3020, 70.12313
668.2305, 70.79593
670.1589, 71.43275
672.0874, 72.02053
674.0159, 72.20815
675.9443, 71.97195
677.8728, 71.64266
679.8013, 71.14948
681.7297, 71.05098
683.6582, 71.63354
685.5867, 72.07864
687.5151, 71.87051
689.4436, 71.85099
691.3721, 72.80131
693.3005, 73.55603
695.2290, 73.07650
697.1575, 72.19089
699.0859, 71.58950
701.0144, 71.45307
702.9429, 72.64462
704.8713, 74.70754
706.7998, 75.27711
708.7283, 74.47417
710.6567, 73.88564
712.5852, 73.61999
714.5137, 73.64307
716.4421, 74.02049
718.3706, 74.45908
720.2991, 74.93676
722.2275, 75.40440
724.1560, 75.81229
726.0845, 76.26634
728.0129, 77.00393
729.9414, 77.58916
731.8699, 77.46136
733.7983, 77.20242
735.7268, 77.46263
737.6553, 78.08537
739.5837, 79.02440
741.5122, 80.03175
743.4407, 80.23946
745.3691, 79.73546
747.2976, 79.63888
749.2261, 80.06101
751.1545, 80.45139
753.0830, 80.88508
755.0115, 80.99483
756.9399, 80.10545
758.8684, 80.01822
760.7969, 81.91478
762.7253, 83.13834
764.6538, 82.37767
766.5823, 81.53468
768.5107, 81.51849
770.4392, 81.73619
772.3677, 82.06129
774.2961, 82.13232
776.2246, 81.36332
778.1531, 80.33725
780.0815, 79.98007
782.0100, 80.01089
783.9385, 79.67818
785.8669, 79.04483
787.7954, 78.47350
789.7239, 77.95407
791.6523, 77.89484
793.5808, 78.46133
795.5093, 78.64045
797.4377, 78.30032
799.3662, 78.18709
801.2947, 78.47408
803.2231, 78.56501
805.1516, 78.22865
807.0801, 78.02769
809.0085, 78.20679
810.9370, 78.40175
812.8655, 78.37098
814.7939, 78.46719
816.7224, 78.96206
818.6509, 79.50706
820.5793, 80.00731
822.5078, 80.31909
824.4363, 80.22782
826.3647, 79.93763
828.2932, 79.65279
830.2217, 79.39403
832.1501, 79.38697
834.0786, 79.38454
836.0071, 78.45043
837.9355, 76.89269
839.8640, 76.18226
841.7925, 76.17228
843.7209, 75.96970
845.6494, 75.52952
847.5779, 74.60445
849.5063, 73.14016
851.4348, 72.24967
853.3633, 72.15208
855.2917, 72.03149
857.2202, 71.81917
859.1487, 71.43664
861.0771, 70.89623
863.0056, 70.12894
864.9341, 68.83667
866.8625, 67.79424
868.7910, 67.32595
870.7195, 66.89204
872.6479, 66.29377
874.5764, 65.71986
876.5049, 65.17818
878.4333, 64.79222
880.3618, 64.88454
882.2903, 64.85603
884.2188, 64.20534
886.1472, 63.29911
888.0757, 62.20236
890.0042, 61.27331
891.9326, 61.11365
893.8611, 61.15459
895.7896, 60.53269
897.7180, 59.72964
899.6465, 59.81718
901.5750, 59.04953
903.5034, 58.52533
905.4319, 58.16534
907.3604, 57.39803
909.2888, 57.15501
911.2173, 56.86969
913.1458, 56.53252
915.0742, 55.94278
917.0027, 55.65308
918.9312, 55.32593
920.8596, 54.84938
922.7881, 54.73185
924.7166, 54.32159
926.6450, 53.88406
928.5735, 53.34538
930.5020, 53.40297
932.4304, 54.22895
934.3589, 54.64599
936.2874, 54.52906
938.2158, 54.12373
940.1443, 53.36029
942.0728, 52.93379
944.0012, 53.04679
945.9297, 53.01811
947.8582, 52.66387
949.7866, 52.38854
951.7151, 52.28780
953.6436, 52.28000
955.5720, 52.44300
957.5005, 52.38959
959.4290, 51.78745
961.3574, 51.49268
963.2859, 52.05886
965.2144, 52.36748
967.1428, 51.81231
969.0713, 51.39946
970.9998, 51.46594
972.9282, 51.65115
974.8567, 52.06968
976.7852, 52.23215
978.7136, 51.82444
980.6421, 51.30859
982.5706, 50.70842
984.4990, 50.30110
986.4275, 50.32606
988.3560, 50.42685
990.2844, 50.34909
992.2129, 50.39700
994.1414, 51.20453
996.0698, 51.55319
997.9983, 49.88888
999.9268, 48.63868
1001.855, 49.98170
1003.784, 51.40580
1005.712, 51.06657
1007.641, 50.42981
1009.569, 50.42286
1011.498, 50.60316
1013.426, 50.70996
1015.354, 50.82378
1017.283, 51.17551
1019.211, 51.34396
1021.140, 50.86385
1023.068, 50.28402
1024.997, 50.03379
1026.925, 49.81021
1028.854, 49.16649
1030.782, 48.74757
1032.711, 49.37081
1034.639, 49.97233
1036.568, 49.44975
1038.496, 48.99246
1040.425, 49.90037
1042.353, 50.67152
1044.281, 50.06560
1046.210, 49.12130
1048.138, 48.01490
1050.067, 47.52339
1051.995, 48.83762
1053.924, 50.10761
1055.852, 50.04912
1057.781, 49.55528
1059.709, 49.08078
1061.638, 48.55064
1063.566, 47.75486
1065.495, 47.11412
1067.423, 46.90657
1069.352, 46.91476
1071.280, 47.24259
1073.208, 47.42408
1075.137, 46.95440
1077.065, 46.61046
1078.994, 47.01491
1080.922, 47.33279
1082.851, 47.00972
1084.779, 46.71842
1086.708, 46.76884
1088.636, 46.91502
1090.565, 47.18718
1092.493, 47.33108
1094.422, 47.26268
1096.350, 47.02733
1098.279, 46.50565
1100.207, 46.03413
1102.135, 45.54581
1104.064, 45.39902
1105.992, 46.14341
1107.921, 46.44641
1109.849, 45.64492
1111.778, 45.05014
1113.706, 44.86111
1115.635, 44.94871
1117.563, 45.73130
1119.492, 45.95242
1121.420, 45.27168
1123.349, 44.47558
1125.277, 43.26841
1127.206, 42.79818
1129.134, 43.37177
1131.063, 44.07030
1132.991, 45.12299
1134.919, 45.42481
1136.848, 44.61795
1138.776, 44.36046
1140.705, 44.80448
1142.633, 45.02885
1144.562, 45.03245
1146.490, 44.74694
1148.419, 44.16535
1150.347, 44.13719
1152.276, 44.61877
1154.204, 45.11297
1156.133, 45.51050
1158.061, 44.76060
1159.990, 45.20508
1161.918, 45.03539
1163.846, 44.95650
1165.775, 44.95054
1167.703, 44.32137
1169.632, 44.20453
1171.560, 44.47087
1173.489, 45.19764
1175.417, 45.89826
1177.346, 45.95796
1179.274, 45.68283
1181.203, 45.02378
1183.131, 44.61486
1185.060, 45.36782
1186.988, 45.98114
1188.917, 45.52370
1190.845, 44.86291
1192.773, 43.97660
1194.702, 43.71729
1196.630, 45.01228
1198.559, 45.64441
1200.487, 44.59381
1202.416, 43.85517
1204.344, 43.80628
1206.273, 44.44495
1208.201, 46.07538
1210.130, 46.71141
1212.058, 45.98752
1213.987, 45.23920
1215.915, 44.59144
1217.844, 44.72481
1219.772, 44.51152
1221.700, 45.64641
1223.629, 45.07307
1225.557, 45.35552
1227.486, 46.14508
1229.414, 45.92008
1231.343, 46.19455
1233.271, 45.45162
1235.200, 45.96838
1237.128, 45.52267
1239.057, 44.87499
1240.985, 44.82127
1242.914, 45.12268
1244.842, 46.03173
1246.771, 46.54079
1248.699, 45.44289
1250.627, 44.57905
1252.556, 45.16502
1254.484, 45.62645
1256.413, 45.19564
1258.341, 45.08146
1260.270, 45.76592
1262.198, 46.24734
1264.127, 46.31041
1266.055, 46.46301
1267.984, 46.81541
1269.912, 46.73974
1271.841, 46.19146
1273.769, 46.54346
1275.698, 46.39675
1277.626, 46.39619
1279.554, 46.67380
1281.483, 46.62837
1283.411, 47.00804
1285.340, 47.34597
1287.268, 47.52522
1289.197, 47.23893
1291.125, 46.94365
1293.054, 46.85040
1294.982, 47.14411
1296.911, 47.25520
1298.839, 47.39468
1300.768, 48.18624
1302.696, 47.89587
1304.625, 48.81292
1306.553, 49.42200
1308.481, 49.46402
1310.410, 49.31327
1312.338, 49.03068
1314.267, 49.17692
1316.195, 49.64789
1318.124, 49.42965
1320.052, 48.85704
1321.981, 49.16650
1323.909, 49.73895
1325.838, 49.23291
1327.766, 49.82389
1329.695, 49.39413
1331.623, 50.21006
1333.552, 50.14417
1335.480, 49.92737
1337.408, 50.02733
1339.337, 49.81567
1341.265, 49.89737
1343.194, 50.32047
1345.122, 50.00082
1347.051, 50.94423
1348.979, 50.99269
1350.908, 50.42533
1352.836, 49.39849
1354.765, 48.91097
1356.693, 48.85077
1358.622, 49.01574
1360.550, 49.23613
1362.479, 49.09678
1364.407, 49.15208
1366.335, 50.42396
1368.264, 51.07611
1370.192, 49.51833
1372.121, 48.41961
1374.049, 48.83059
1375.978, 49.34008
1377.906, 49.83221
1379.835, 49.87471
1381.763, 49.38799
1383.692, 49.31071
1385.620, 49.57429
1387.549, 49.70672
1389.477, 49.75663
1391.406, 49.90765
1393.334, 49.97145
1395.262, 49.28918
1397.191, 49.04462
1399.119, 50.58489
1401.048, 51.58823
1402.976, 51.02085
1404.905, 50.40428
1406.833, 50.04984
1408.762, 50.01149
1410.690, 49.69135
1412.619, 50.11879
1414.547, 49.57590
1416.476, 49.40902
1418.404, 49.57660
1420.333, 50.35756
1422.261, 50.96791
1424.189, 49.99435
1426.118, 49.09299
1428.046, 49.64830
1429.975, 50.12902
1431.903, 49.98112
1433.832, 49.92703
1435.760, 50.10203
1437.689, 49.97572
1439.617, 49.59497
1441.546, 50.27759
1443.474, 51.51012
1445.403, 51.35469
1447.331, 50.59878
1449.260, 50.09861
1451.188, 49.98107
1453.116, 50.73215
1455.045, 51.24231
1456.973, 50.87590
1458.902, 50.42299
1460.830, 49.85909
1462.759, 49.77478
1464.687, 50.23964
1466.616, 50.13520
1468.544, 49.59554
1470.473, 49.17271
1472.401, 48.84912
1474.330, 48.44416
1476.258, 48.36036
1478.187, 49.28297
1480.115, 49.75105
1482.043, 48.76384
1483.972, 48.47546
1485.900, 49.60837
1487.829, 49.93202
1489.757, 49.41274
1491.686, 49.19604
1493.614, 49.18052
1495.543, 49.16694
1497.471, 49.04941
1499.400, 48.40279
1501.328, 48.11509
1503.257, 48.95209
1505.185, 49.27019
1507.114, 48.50628
1509.042, 47.91856
1510.970, 47.67176
1512.899, 47.70612
1514.827, 47.99240
1516.756, 48.74044
1518.684, 49.39224
1520.613, 48.86553
1522.541, 48.17351
1524.470, 47.69267
1526.398, 48.05147
1528.327, 48.11824
1530.255, 48.37151
1532.184, 49.15220
1534.112, 48.90098
1536.041, 49.35207
1537.969, 48.99053
1539.897, 48.46818
1541.826, 48.87495
1543.754, 49.40784
1545.683, 49.71306
1547.611, 49.51214
1549.540, 49.48462
1551.468, 49.24331
1553.397, 48.70097
1555.325, 48.61131
1557.254, 47.98724
1559.182, 47.79781
1561.111, 47.90348
1563.039, 48.40580
1564.968, 48.67059
1566.896, 48.14309
1568.824, 47.65639
1570.753, 47.35275
1572.681, 47.18153
1574.610, 47.14826
1576.538, 48.31912
1578.467, 49.66482
1580.395, 48.00423
1582.324, 46.26278
1584.252, 47.14539
1586.181, 47.81531
1588.109, 46.95587
1590.038, 46.59273
1591.966, 47.15486
1593.895, 47.08613
1595.823, 46.51864
1597.751, 45.75826
1599.680, 45.14300
1601.608, 45.19902
1603.537, 45.44621
1605.465, 45.73830
1607.394, 45.94124
1609.322, 46.02436
1611.251, 45.92820
1613.179, 45.76817
1615.108, 46.42001
1617.036, 47.21820
1618.965, 47.22820
1620.893, 46.70264
1622.822, 45.38376
1624.750, 44.67490
1626.678, 44.88810
1628.607, 45.12581
1630.535, 45.25545
1632.464, 44.88039
1634.392, 44.44712
1636.321, 44.96477
1638.249, 45.29689
1640.178, 44.34185
1642.106, 43.73036
1644.035, 43.74517
1645.963, 44.17299
1647.892, 44.90356
1649.820, 45.79527
1651.749, 46.22361
1653.677, 44.81166
1655.605, 43.39735
1657.534, 42.90136
1659.462, 43.20671
1661.391, 44.56759
1663.319, 44.78012
1665.248, 44.10526
1667.176, 44.00679
1669.105, 44.05651
1671.033, 43.76326
1672.962, 43.39029
1674.890, 42.78634
1676.819, 42.97930
1678.747, 42.88389
1680.676, 42.63046
1682.604, 43.17049
1684.532, 42.61942
1686.461, 42.51391
1688.389, 43.13522
1690.318, 43.35640
1692.246, 43.49211
1694.175, 43.76831
1696.103, 43.62318
1698.032, 43.73519
1699.960, 43.35502
1701.889, 42.71939
1703.817, 42.38622
1705.746, 42.73598
1707.674, 42.95745
1709.603, 42.89410
1711.531, 42.80935
1713.459, 42.78954
1715.388, 43.29075
1717.316, 43.64627
1719.245, 43.07303
1721.173, 42.36036
1723.102, 41.59513
1725.030, 41.93287
1726.959, 43.11153
1728.887, 43.03529
1730.816, 42.51067
1732.744, 42.67628
1734.673, 42.79394
1736.601, 42.45308
1738.530, 42.30039
1740.458, 42.38844
1742.386, 42.67767
1744.315, 42.99104
1746.243, 43.08276
1748.172, 42.96082
1750.100, 42.54619
1752.029, 42.05006
1753.957, 41.47258
1755.886, 41.46438
1757.814, 41.71907
1759.743, 41.33435
1761.671, 40.96326
1763.600, 41.34856
1765.528, 41.28835
1767.457, 40.32414
1769.385, 39.93352
1771.313, 39.94806
1773.242, 39.63421
1775.170, 39.61798
1777.099, 39.67846
1779.027, 39.40047
1780.956, 39.83105
1782.884, 39.13313
1784.813, 39.00328
1786.741, 39.08757
1788.670, 39.15655
1790.598, 38.92947
1792.527, 38.99720
1794.455, 38.93922
1796.384, 39.01998
1798.312, 39.00062
1800.240, 39.18782
1802.169, 39.48001
1804.097, 39.36194
1806.026, 39.18841
1807.954, 39.01328
1809.883, 39.86511
1811.811, 39.45956
1813.740, 40.41705
1815.668, 39.39387
1817.597, 39.12339
1819.525, 39.16824
1821.454, 39.45300
1823.382, 38.95710
1825.311, 38.31013
1827.239, 39.43075
1829.167, 40.39787
1831.096, 39.59368
1833.024, 39.05596
1834.953, 38.95521
1836.881, 38.81192
1838.810, 38.66364
1840.738, 38.58795
1842.667, 38.57671
1844.595, 38.64267
1846.524, 38.86845
1848.452, 39.13048
1850.381, 37.98292
1852.309, 36.77723
1854.238, 37.31501
1856.166, 37.79167
1858.094, 37.38154
1860.023, 37.62642
1861.951, 38.22017
1863.880, 37.70078
1865.808, 37.09034
1867.737, 37.09210
1869.665, 37.33378
1871.594, 37.78686
1873.522, 37.67366
1875.451, 37.89695
1877.379, 37.71106
1879.308, 37.88279
1881.236, 37.46250
1883.165, 37.14891
1885.093, 37.00102
1887.021, 37.12894
1888.950, 36.98057
1890.878, 35.63050
1892.807, 35.04171
1894.735, 35.70321
1896.664, 35.86498
1898.592, 35.71392
1900.521, 35.58025
1902.449, 36.02174
1904.378, 36.09681
1906.306, 37.74869
1908.235, 36.63364
1910.163, 36.55454
1912.092, 36.56780
1914.020, 35.06673
1915.948, 34.86404
1917.877, 36.44678
1919.805, 36.36808
1921.734, 35.37857
1923.662, 34.96113
1925.591, 35.04100
1927.519, 34.74871
1929.448, 35.76174
1931.376, 34.92554
1933.305, 34.84093
1935.233, 34.87165
1937.162, 34.34595
1939.090, 34.14511
1941.019, 34.36371
1942.947, 34.70872
1944.875, 34.97290
1946.804, 35.23397
1948.732, 34.73034
1950.661, 35.55931
1952.589, 35.82021
1954.518, 35.55442
1956.446, 34.60490
1958.375, 33.70630
1960.303, 33.16093
1962.232, 33.04372
1964.160, 33.23228
1966.089, 33.13280
1968.017, 33.11326
1969.946, 33.43998
1971.874, 33.91932
1973.802, 34.43544
1975.731, 33.52902
1977.659, 32.66514
1979.588, 33.89468
1981.516, 33.92469
1983.445, 32.08381
1985.373, 32.42997
1987.302, 33.60921
1989.230, 33.29412
1991.159, 32.91802
1993.087, 32.85894
1995.016, 32.83025
1996.944, 32.70981
1998.873, 32.05551
2000.801, 31.74080
2002.729, 32.10226
2004.658, 32.56254
2006.586, 32.88102
2008.515, 33.02723
2010.443, 31.99983
2012.372, 32.82261
2014.300, 32.56324
2016.229, 31.62120
2018.157, 31.91347
2020.086, 32.46725
2022.014, 32.85228
2023.943, 32.56398
2025.871, 31.71652
2027.800, 30.48066
2029.728, 29.97865
2031.656, 31.83121
2033.585, 32.44713
2035.513, 31.79194
2037.442, 31.83044
2039.370, 31.74620
2041.299, 30.61455
2043.227, 30.19671
2045.156, 30.56009
2047.084, 31.00669
2049.013, 31.33645
2050.941, 31.43101
2052.870, 31.25174
2054.798, 30.83542
2056.727, 30.32305
2058.655, 29.96988
2060.583, 30.00932
2062.512, 29.92399
2064.440, 29.65888
2066.369, 29.29223
2068.297, 29.14760
2070.226, 29.48942
2072.154, 29.97055
2074.083, 30.36378
2076.011, 29.49209
2077.940, 28.70650
2079.868, 28.99923
2081.797, 29.04538
2083.725, 28.84365
2085.654, 29.28744
2087.582, 29.47587
2089.510, 29.49042
2091.439, 28.76130
2093.367, 29.51190
2095.296, 29.85299
2097.224, 29.58520
2099.153, 28.34409
2101.081, 28.26556
2103.010, 28.92750
2104.938, 29.15341
2106.867, 29.01473
2108.795, 28.40494
2110.724, 28.58102
2112.652, 29.14185
2114.581, 29.42981
2116.509, 29.47308
2118.438, 29.33503
2120.366, 27.95416
2122.294, 26.58131
2124.223, 26.73059
2126.151, 27.66364
2128.080, 29.18026
2130.008, 28.79048
2131.937, 27.61132
2133.865, 26.12993
2135.794, 26.70902
2137.722, 28.97827
2139.651, 28.66312
2141.579, 27.59047
2143.508, 26.66916
2145.436, 26.85414
2147.365, 27.51870
2149.293, 26.20330
2151.221, 25.56020
2153.150, 26.62085
2155.078, 26.96147
2157.007, 26.97717
2158.935, 27.87380
2160.864, 27.94113
2162.792, 26.92134
2164.721, 26.20250
2166.649, 26.09453
2168.578, 25.93474
2170.506, 27.39835
2172.435, 26.38278
2174.363, 26.88345
2176.292, 27.07260
2178.220, 25.69526
2180.148, 26.10424
2182.077, 27.19878
2184.005, 25.75818
2185.934, 25.41903
2187.862, 27.04701
2189.791, 26.96158
2191.719, 26.24044
2193.648, 26.14974
2195.576, 25.76465
2197.505, 25.10167
2199.433, 24.71814
2201.362, 24.64752
2203.290, 25.15263
2205.219, 25.04204
2207.147, 24.86220
2209.075, 25.04990
2211.004, 25.01193
2212.932, 25.01842
2214.861, 24.82346
2216.789, 24.74742
2218.718, 23.83736
2220.646, 23.58967
2222.575, 23.94232
2224.503, 24.30796
2226.432, 24.82187
2228.360, 25.56610
2230.289, 24.84262
2232.217, 23.79348
2234.146, 23.95181
2236.074, 23.83764
2238.002, 23.31441
2239.931, 22.77990
2241.859, 22.86318
2243.788, 23.87747
2245.716, 23.99924
2247.645, 23.64032
2249.573, 23.47948
2251.502, 23.52329
2253.430, 23.70555
2255.359, 23.56205
2257.287, 23.55639
2259.216, 24.05669
2261.144, 23.94648
2263.073, 23.45025
2265.001, 23.10238
2266.929, 22.22795
2268.858, 21.09405
2270.786, 23.46743
2272.715, 25.34919
2274.643, 23.53658
2276.572, 22.04241
2278.500, 21.44364
2280.429, 23.00220
2282.357, 23.63070
2284.286, 22.95135
2286.214, 22.65108
2288.143, 22.61524
2290.071, 22.92132
2292.000, 22.73014
2293.928, 22.40792
2295.856, 22.55765
2297.785, 22.54199
2299.713, 22.29251
2301.642, 22.02366
2303.570, 21.78967
2305.499, 21.60736
2307.427, 21.66390
2309.356, 21.96397
2311.284, 21.72022
2313.213, 22.50979
2315.141, 21.74911
2317.070, 21.66960
2318.998, 22.22838
2320.927, 21.41755
2322.855, 22.05728
2324.783, 20.80864
2326.712, 21.18684
2328.640, 21.53250
2330.569, 21.66783
2332.497, 21.51084
2334.426, 21.22569
2336.354, 20.98039
2338.283, 21.68732
2340.211, 21.98330
2342.140, 21.24192
2344.068, 20.53724
2345.997, 20.19287
2347.925, 19.90348
2349.854, 19.60412
2351.782, 19.94474
2353.710, 19.72456
2355.639, 20.21350
2357.567, 21.24189
2359.496, 20.26283
2361.424, 19.54190
2363.353, 20.74068
2365.281, 21.07619
2367.210, 21.01019
2369.138, 21.03240
2371.067, 21.07376
2372.995, 20.97220
2374.924, 20.14482
2376.852, 19.65993
2378.781, 19.75109
2380.709, 19.14919
2382.637, 19.10663
2384.566, 18.94943
2386.494, 19.09141
2388.423, 19.83945
2390.351, 20.40353
2392.280, 20.07917
2394.208, 19.32788
2396.137, 18.83350
2398.065, 19.44064
2399.994, 18.69119
2401.922, 19.34915
2403.851, 18.34080
2405.779, 18.45824
2407.708, 18.80244
2409.636, 19.04420
2411.564, 19.01070
2413.493, 18.74003
2415.421, 18.63490
2417.350, 18.49141
2419.278, 19.35691
2421.207, 18.55550
2423.135, 18.34553
2425.064, 19.13114
2426.992, 18.54634
2428.921, 19.17548
2430.849, 18.42711
2432.778, 18.96210
2434.706, 18.98355
2436.635, 18.97326
2438.563, 19.31507
2440.491, 19.29694
2442.420, 19.08630
2444.348, 18.70850
2446.277, 19.12589
2448.205, 19.65161
2450.134, 19.15740
2452.062, 18.54980
2453.991, 18.11910
2455.919, 18.30026
2457.848, 18.80036
2459.776, 19.38753
2461.705, 19.12201
2463.633, 18.55986
2465.562, 17.90503
2467.490, 17.16283
2469.418, 16.91050
2471.347, 17.38444
2473.275, 17.89762
2475.204, 18.06208
2477.132, 17.54504
2479.061, 18.51391
2480.989, 19.21745
2482.918, 16.99643
2484.846, 16.04405
2486.775, 16.15392
2488.703, 16.54210
2490.632, 16.76052
2492.560, 16.71804
2494.489, 16.25561
2496.417, 15.99196
2498.345, 15.91762
2500.274, 15.41277
2502.202, 15.34414
2504.131, 15.82396
2506.059, 16.27673
2507.988, 16.62272
2509.916, 16.82998
2511.845, 16.80121
2513.773, 16.64211
2515.702, 16.34678
2517.630, 16.06040
2519.559, 15.54830
2521.487, 15.44923
2523.416, 15.69161
2525.344, 16.01794
2527.272, 16.27748
2529.201, 15.74687
2531.129, 15.25303
2533.058, 15.67702
2534.986, 15.46501
2536.915, 15.29660
2538.843, 16.25822
2540.772, 16.99684
2542.700, 17.22336
2544.629, 16.59805
2546.557, 15.81565
2548.486, 15.27946
2550.414, 15.80085
2552.343, 16.34877
2554.271, 16.59414
2556.199, 15.81882
2558.128, 15.68883
2560.056, 15.99454
2561.985, 15.10925
2563.913, 15.67192
2565.842, 16.96373
2567.770, 14.87519
2569.699, 14.79998
2571.627, 16.53297
2573.556, 15.79243
2575.484, 14.59176
2577.413, 13.72512
2579.341, 14.68755
2581.270, 14.93586
2583.198, 14.22871
2585.126, 14.42105
2587.055, 14.72795
2588.983, 14.90531
2590.912, 14.61504
2592.840, 14.88039
2594.769, 15.64563
2596.697, 14.33341
2598.626, 13.82499
2600.554, 14.46593
2602.483, 13.11120
2604.411, 12.49246
2606.340, 13.07557
2608.268, 12.82582
2610.197, 13.43026
2612.125, 13.38058
2614.053, 13.87430
2615.982, 13.27649
2617.910, 13.50496
2619.839, 13.18762
2621.767, 13.24985
2623.696, 13.78279
2625.624, 14.29260
2627.553, 14.41403
2629.481, 14.14367
2631.410, 13.74145
2633.338, 13.24167
2635.267, 12.83195
2637.195, 13.26872
2639.124, 12.70297
2641.052, 11.70980
2642.980, 12.86659
2644.909, 13.28651
2646.837, 13.11843
2648.766, 13.97334
2650.694, 14.06483
2652.623, 13.60229
2654.551, 13.36328
2656.480, 13.48870
2658.408, 13.48103
2660.337, 13.22891
2662.265, 13.28912
2664.194, 12.72490
2666.122, 13.01547
2668.051, 12.70303
2669.979, 12.24212
2671.907, 12.12596
2673.836, 11.52027
2675.764, 11.03534
2677.693, 11.16133
2679.621, 12.13173
2681.550, 12.71492
2683.478, 12.24044
2685.407, 12.93312
2687.335, 11.73218
2689.264, 12.98692
2691.192, 12.62255
2693.121, 11.92130
2695.049, 11.46713
2696.978, 11.22802
2698.906, 11.63248
2700.834, 12.38978
2702.763, 11.77643
2704.691, 11.92966
2706.620, 12.60418
2708.548, 11.75536
2710.477, 11.40787
2712.405, 11.34284
2714.334, 10.43323
2716.262, 9.794661
2718.191, 9.843785
2720.119, 11.25794
2722.048, 12.24344
2723.976, 12.38680
2725.905, 11.04416
2727.833, 10.94108
2729.761, 11.41562
2731.690, 12.07339
2733.618, 11.35987
2735.547, 10.48344
2737.475, 9.990783
2739.404, 10.52109
2741.332, 10.12882
2743.261, 9.139429
2745.189, 11.10000
2747.118, 11.56417
2749.046, 10.71766
2750.975, 10.10930
2752.903, 10.83498
2754.832, 11.58046
2756.760, 10.79175
2758.688, 10.84915
2760.617, 11.08606
2762.545, 10.97349
2764.474, 11.15695
2766.402, 10.86370
2768.331, 10.05513
2770.259, 10.31137
2772.188, 10.30903
2774.116, 10.06088
2776.045, 10.78354
2777.973, 11.12561
2779.902, 10.97959
2781.830, 10.44436
2783.759, 10.19532
2785.687, 9.613951
2787.615, 9.558887
2789.544, 7.989618
2791.472, 9.326913
2793.401, 10.81124
2795.329, 10.57745
2797.258, 10.16937
2799.186, 9.872982
2801.115, 8.902695
2803.043, 9.261883
2804.972, 10.16843
2806.900, 10.16191
2808.829, 8.831221
2810.757, 8.131249
2812.686, 9.359592
2814.614, 10.24953
2816.542, 10.29657
2818.471, 9.535471
2820.399, 9.098079
2822.328, 8.922647
2824.256, 9.114301
2826.185, 8.933151
2828.113, 9.070310
2830.042, 9.024442
2831.970, 9.109964
2833.899, 9.177994
2835.827, 8.787681
2837.756, 7.929339
2839.684, 7.635648
2841.613, 7.630208
2843.541, 7.667351
2845.469, 7.315450
2847.398, 7.242876
2849.326, 7.405922
2851.255, 7.786747
2853.183, 7.496341
2855.112, 7.346097
2857.040, 7.714763
2858.969, 7.523253
2860.897, 8.031253
2862.826, 9.011220
2864.754, 9.363440
2866.683, 8.921451
2868.611, 8.259898
2870.540, 7.876630
2872.468, 9.070006
2874.396, 8.980603
2876.325, 9.267635
2878.253, 8.622757
2880.182, 9.196460
2882.110, 8.535339
2884.039, 7.316908
2885.967, 7.301608
2887.896, 7.923530
2889.824, 8.566727
2891.753, 7.491049
2893.681, 7.855191
2895.610, 9.473894
2897.538, 9.467625
2899.467, 7.988223
2901.395, 6.763585
2903.323, 7.457782
2905.252, 6.191625
2907.180, 6.462425
2909.109, 8.531727
2911.037, 8.053562
2912.966, 7.597923
2914.894, 7.611201
2916.823, 8.184746
2918.751, 8.627028
2920.680, 8.286853
2922.608, 7.078039
2924.537, 6.775428
2926.465, 7.076562
2928.394, 7.351494
2930.322, 6.787332
2932.250, 6.375018
2934.179, 6.435108
2936.107, 6.998883
2938.036, 7.179765
2939.964, 6.836565
2941.893, 6.324003
2943.821, 6.231115
2945.750, 6.353362
2947.678, 6.440310
2949.607, 6.413655
2951.535, 6.857786
2953.464, 5.780885
2955.392, 6.478692
2957.321, 6.204862
2959.249, 6.913944
2961.177, 6.935244
2963.106, 6.671799
2965.034, 6.605064
2966.963, 6.674577
2968.891, 6.892922
2970.820, 6.836001
2972.748, 6.804239
2974.677, 6.888943
2976.605, 6.561482
2978.534, 6.553283
2980.462, 6.416510
2982.391, 6.523427
2984.319, 6.367304
2986.248, 6.315382
2988.176, 6.125645
2990.104, 5.867230
2992.033, 6.001740
2993.961, 6.423214
2995.890, 6.703099
2997.818, 6.537652
2999.747, 6.754786
3001.675, 6.665917
3003.604, 6.786241
3005.532, 6.483640
3007.461, 6.553396
3009.389, 6.453591
3011.318, 5.961270
3013.246, 5.557033
3015.175, 5.153192
3017.103, 5.015361
3019.031, 5.391518
3020.960, 5.364418
3022.888, 5.836196
3024.817, 5.536357
3026.745, 5.672338
3028.674, 5.071067
3030.602, 4.751606
3032.531, 4.736629
3034.459, 5.552548
3036.388, 5.493582
3038.316, 5.078090
3040.245, 5.378404
3042.173, 4.629234
3044.102, 4.413100
3046.030, 4.686796
3047.958, 4.187981
3049.887, 4.409908
3051.815, 4.828560
3053.744, 4.995984
3055.672, 4.484359
3057.601, 4.037677
3059.529, 3.785939
3061.458, 3.768234
3063.386, 4.979148
3065.315, 5.346842
3067.243, 4.845365
3069.172, 4.292603
3071.100, 5.088820
3073.029, 5.623915
3074.957, 5.437640
3076.885, 5.070166
3078.814, 5.576185
3080.742, 5.616035
3082.671, 4.861528
3084.599, 5.713873
3086.528, 5.847429
3088.456, 5.870257
3090.385, 6.574883
3092.313, 6.171129
3094.242, 6.242112
3096.170, 6.144852
3098.099, 6.269183
3100.027, 6.050814
3101.956, 6.540144
3103.884, 5.070434
3105.813, 4.670456
3107.741, 4.901140
3109.669, 4.838928
3111.598, 4.601133
3113.526, 5.759356
3115.455, 5.230464
3117.383, 5.274918
3119.312, 4.800536
3121.240, 4.790130
3123.169, 4.123861
3125.097, 3.902884
3127.026, 4.720225
3128.954, 3.922227
3130.883, 3.586540
3132.811, 4.303450
3134.740, 4.073487
3136.668, 5.072480
3138.596, 4.569168
3140.525, 4.497385
3142.453, 4.372395
3144.382, 4.021904
3146.310, 4.357893
3148.239, 5.210297
3150.167, 6.126122
3152.096, 5.597656
3154.024, 4.558838
3155.953, 4.231669
3157.881, 4.276791
3159.810, 5.239675
3161.738, 4.487401
3163.667, 4.650047
3165.595, 4.016735
3167.523, 4.939321
3169.452, 4.831263
3171.380, 3.861045
3173.309, 3.717447
3175.237, 4.490838
3177.166, 4.964688
3179.094, 4.844502
3181.023, 4.374105
3182.951, 3.711488
3184.880, 3.460491
3186.808, 3.612568
3188.737, 3.809216
3190.665, 3.728225
3192.594, 3.937775
3194.522, 3.616986
3196.450, 4.164676
3198.379, 4.388983
3200.307, 4.468768
3202.236, 4.292343
3204.164, 3.532570
3206.093, 3.753013
3208.021, 3.401538
3209.950, 3.923768
3211.878, 3.254207
3213.807, 3.782331
3215.735, 4.012092
3217.664, 4.149590
3219.592, 4.873143
3221.521, 4.407686
3223.449, 4.800995
3225.377, 5.097750
3227.306, 4.127901
3229.234, 3.618107
3231.163, 3.809683
3233.091, 3.986838
3235.020, 3.788184
3236.948, 4.669514
3238.877, 5.146671
3240.805, 4.662024
3242.734, 5.315261
3244.662, 3.414890
3246.591, 5.087746
3248.519, 5.199267
3250.448, 3.800309
3252.376, 5.191648
3254.304, 3.968961
3256.233, 4.145543
3258.161, 5.529066
3260.090, 5.070267
3262.018, 4.844259
3263.947, 5.013891
3265.875, 4.900233
3267.804, 3.758048
3269.732, 3.210497
3271.661, 4.345785
3273.589, 5.162702
3275.518, 4.304286
3277.446, 5.039956
3279.375, 5.136863
3281.303, 5.395421
3283.231, 5.998175
3285.160, 5.606423
3287.088, 6.125900
3289.017, 4.846123
3290.945, 6.558329
3292.874, 5.040251
3294.802, 4.937872
3296.731, 4.784883
3298.659, 4.900942
3300.588, 5.781405
3302.516, 5.898928
3304.445, 5.225077
3306.373, 4.128696
3308.302, 3.460876
3310.230, 3.366924
3312.158, 3.589974
3314.087, 2.965760
3316.015, 3.946790
3317.944, 2.748675
3319.872, 4.529544
3321.801, 4.596936
3323.729, 3.973861
3325.658, 4.391587
3327.586, 4.867188
3329.515, 5.846519
3331.443, 5.973375
3333.372, 4.928789
3335.300, 3.463597
3337.229, 3.678519
3339.157, 4.255052
3341.085, 4.549569
3343.014, 4.406205
3344.942, 4.341413
3346.871, 3.303819
3348.799, 4.343734
3350.728, 4.340097
3352.656, 4.155873
3354.585, 5.216265
3356.513, 6.383442
3358.442, 6.299345
3360.370, 5.126777
3362.299, 3.543046
3364.227, 5.124150
3366.156, 5.774741
3368.084, 4.535795
3370.012, 4.512826
3371.941, 3.561313
3373.869, 3.378343
3375.798, 4.369890
3377.726, 5.911056
3379.655, 4.189554
3381.583, 4.622581
3383.512, 4.842588
3385.440, 4.344970
3387.369, 4.589597
3389.297, 4.846909
3391.226, 4.541820
3393.154, 4.136204
3395.083, 3.980068
3397.011, 3.910841
3398.939, 5.246676
3400.868, 5.566962
3402.796, 4.015516
3404.725, 1.430466
3406.653, 2.710179
3408.582, 3.728630
3410.510, 4.528606
3412.439, 4.839176
3414.367, 3.929853
3416.296, 3.226245
3418.224, 3.527225
3420.153, 3.833463
3422.081, 3.874994
3424.010, 5.027295
3425.938, 5.273429
3427.866, 4.212169
3429.795, 3.635586
3431.723, 4.587931
3433.652, 4.690243
3435.580, 3.535058
3437.509, 3.196350
3439.437, 4.050130
3441.366, 5.283864
3443.294, 3.316017
3445.223, 3.518508
3447.151, 3.170647
3449.080, 3.185187
3451.008, 6.099262
3452.937, 5.048543
3454.865, 4.132258
3456.793, 4.404831
3458.722, 5.119770
##END=



