##NAMES=Quartz
##RRUFFID=R150091
##IDEAL CHEMISTRY=SiO_2_
##LOCALITY=unknown
##OWNER=RRUFF
##SOURCE=Michael Scott
##DESCRIPTION=Colorless polished spheres and fragments
##STATUS=The identification of this mineral has been determined only by Raman spectroscopy
##URL=https://www.rruff.net/odr/rruff_sample/R150091
##FILETYPE=Raman RAW
##RAMAN WAVELENGTH=780

7.687793e+001, 2.615142e+002
7.880640e+001, 2.483694e+002
8.073486e+001, 2.434748e+002
8.266333e+001, 2.479340e+002
8.459180e+001, 2.596604e+002
8.652026e+001, 2.751725e+002
8.844873e+001, 2.941796e+002
9.037720e+001, 3.208293e+002
9.230566e+001, 3.544659e+002
9.423413e+001, 3.777558e+002
9.616260e+001, 3.960389e+002
9.809106e+001, 4.229667e+002
1.000195e+002, 4.591088e+002
1.019480e+002, 5.037009e+002
1.038765e+002, 5.422901e+002
1.058049e+002, 5.746705e+002
1.077334e+002, 6.018441e+002
1.096619e+002, 6.177026e+002
1.115903e+002, 6.327162e+002
1.135188e+002, 6.537478e+002
1.154473e+002, 6.796786e+002
1.173757e+002, 7.346456e+002
1.193042e+002, 8.132838e+002
1.212327e+002, 9.319565e+002
1.231611e+002, 1.077785e+003
1.250896e+002, 1.280472e+003
1.270181e+002, 1.607652e+003
1.289465e+002, 2.058150e+003
1.308750e+002, 2.395097e+003
1.328035e+002, 2.667054e+003
1.347319e+002, 2.724009e+003
1.366604e+002, 2.387701e+003
1.385889e+002, 1.912522e+003
1.405173e+002, 1.527536e+003
1.424458e+002, 1.230528e+003
1.443743e+002, 1.003477e+003
1.463027e+002, 8.746700e+002
1.482312e+002, 7.764813e+002
1.501597e+002, 7.113866e+002
1.520881e+002, 6.653265e+002
1.540166e+002, 6.272211e+002
1.559451e+002, 5.969518e+002
1.578735e+002, 5.751992e+002
1.598020e+002, 5.650109e+002
1.617305e+002, 5.594656e+002
1.636589e+002, 5.564424e+002
1.655874e+002, 5.600099e+002
1.675159e+002, 5.726163e+002
1.694443e+002, 5.933436e+002
1.713728e+002, 6.197452e+002
1.733013e+002, 6.521864e+002
1.752297e+002, 6.907374e+002
1.771582e+002, 7.348386e+002
1.790867e+002, 7.858185e+002
1.810151e+002, 8.442518e+002
1.829436e+002, 9.098337e+002
1.848721e+002, 9.818817e+002
1.868005e+002, 1.059194e+003
1.887290e+002, 1.150218e+003
1.906575e+002, 1.253790e+003
1.925859e+002, 1.372213e+003
1.945144e+002, 1.505221e+003
1.964429e+002, 1.655804e+003
1.983713e+002, 1.833937e+003
2.002998e+002, 2.040534e+003
2.022283e+002, 2.240696e+003
2.041567e+002, 2.443584e+003
2.060852e+002, 2.615853e+003
2.080137e+002, 2.765551e+003
2.099421e+002, 2.858255e+003
2.118706e+002, 2.871534e+003
2.137991e+002, 2.811957e+003
2.157275e+002, 2.694229e+003
2.176560e+002, 2.514005e+003
2.195845e+002, 2.316463e+003
2.215129e+002, 2.093947e+003
2.234414e+002, 1.878560e+003
2.253699e+002, 1.677570e+003
2.272983e+002, 1.494214e+003
2.292268e+002, 1.333239e+003
2.311553e+002, 1.195827e+003
2.330837e+002, 1.076574e+003
2.350122e+002, 9.766919e+002
2.369407e+002, 8.925724e+002
2.388691e+002, 8.284094e+002
2.407976e+002, 7.743026e+002
2.427261e+002, 7.254344e+002
2.446545e+002, 6.823004e+002
2.465830e+002, 6.460009e+002
2.485115e+002, 6.162457e+002
2.504399e+002, 5.923254e+002
2.523684e+002, 5.762097e+002
2.542969e+002, 5.629434e+002
2.562253e+002, 5.487430e+002
2.581538e+002, 5.377192e+002
2.600823e+002, 5.346741e+002
2.620107e+002, 5.392833e+002
2.639392e+002, 5.528159e+002
2.658677e+002, 5.815986e+002
2.677961e+002, 5.955609e+002
2.697246e+002, 5.866052e+002
2.716531e+002, 5.628891e+002
2.735815e+002, 5.185078e+002
2.755100e+002, 4.657243e+002
2.774385e+002, 4.243376e+002
2.793669e+002, 3.936816e+002
2.812954e+002, 3.702496e+002
2.832239e+002, 3.564328e+002
2.851523e+002, 3.448360e+002
2.870808e+002, 3.339521e+002
2.890093e+002, 3.246279e+002
2.909377e+002, 3.179087e+002
2.928662e+002, 3.130828e+002
2.947947e+002, 3.089111e+002
2.967231e+002, 3.054571e+002
2.986516e+002, 3.016638e+002
3.005801e+002, 2.966063e+002
3.025085e+002, 2.922928e+002
3.044370e+002, 2.894420e+002
3.063655e+002, 2.872182e+002
3.082939e+002, 2.845987e+002
3.102224e+002, 2.821435e+002
3.121509e+002, 2.814489e+002
3.140793e+002, 2.831969e+002
3.160078e+002, 2.841354e+002
3.179363e+002, 2.835403e+002
3.198647e+002, 2.828703e+002
3.217932e+002, 2.824736e+002
3.237217e+002, 2.821884e+002
3.256501e+002, 2.812601e+002
3.275786e+002, 2.803627e+002
3.295071e+002, 2.818770e+002
3.314355e+002, 2.870324e+002
3.333640e+002, 2.914905e+002
3.352925e+002, 2.958285e+002
3.372209e+002, 2.986591e+002
3.391494e+002, 2.970912e+002
3.410779e+002, 2.962924e+002
3.430063e+002, 2.993142e+002
3.449348e+002, 3.060789e+002
3.468633e+002, 3.160947e+002
3.487917e+002, 3.285408e+002
3.507202e+002, 3.474443e+002
3.526487e+002, 3.704532e+002
3.545771e+002, 4.044615e+002
3.565056e+002, 4.728152e+002
3.584341e+002, 5.284095e+002
3.603625e+002, 5.406664e+002
3.622910e+002, 5.180868e+002
3.642195e+002, 4.751024e+002
3.661479e+002, 4.050015e+002
3.680764e+002, 3.552893e+002
3.700049e+002, 3.293546e+002
3.719333e+002, 3.135406e+002
3.738618e+002, 3.082830e+002
3.757903e+002, 3.069987e+002
3.777188e+002, 3.053192e+002
3.796472e+002, 3.052077e+002
3.815757e+002, 3.100157e+002
3.835042e+002, 3.198424e+002
3.854326e+002, 3.310050e+002
3.873611e+002, 3.425144e+002
3.892896e+002, 3.592977e+002
3.912180e+002, 3.799123e+002
3.931465e+002, 4.108286e+002
3.950750e+002, 4.682498e+002
3.970034e+002, 5.250287e+002
3.989319e+002, 5.589659e+002
4.008604e+002, 5.692238e+002
4.027888e+002, 5.468599e+002
4.047173e+002, 4.915427e+002
4.066458e+002, 4.380334e+002
4.085742e+002, 3.874247e+002
4.105027e+002, 3.475754e+002
4.124312e+002, 3.231390e+002
4.143596e+002, 3.077511e+002
4.162881e+002, 3.002839e+002
4.182166e+002, 2.985316e+002
4.201450e+002, 2.988898e+002
4.220735e+002, 3.015081e+002
4.240020e+002, 3.070095e+002
4.259304e+002, 3.149448e+002
4.278589e+002, 3.285229e+002
4.297874e+002, 3.462150e+002
4.317158e+002, 3.736210e+002
4.336443e+002, 4.076582e+002
4.355728e+002, 4.563682e+002
4.375012e+002, 5.295247e+002
4.394297e+002, 6.222432e+002
4.413582e+002, 7.234821e+002
4.432866e+002, 8.330403e+002
4.452151e+002, 9.463947e+002
4.471436e+002, 1.055358e+003
4.490720e+002, 1.190618e+003
4.510005e+002, 1.331937e+003
4.529290e+002, 1.531525e+003
4.548574e+002, 1.784695e+003
4.567859e+002, 2.126255e+003
4.587144e+002, 2.573747e+003
4.606428e+002, 3.146080e+003
4.625713e+002, 3.941299e+003
4.644998e+002, 4.967729e+003
4.664282e+002, 5.874741e+003
4.683567e+002, 6.880284e+003
4.702852e+002, 7.244145e+003
4.722136e+002, 6.611962e+003
4.741421e+002, 5.713484e+003
4.760706e+002, 4.639281e+003
4.779990e+002, 3.611330e+003
4.799275e+002, 2.832215e+003
4.818560e+002, 2.252077e+003
4.837844e+002, 1.797974e+003
4.857129e+002, 1.473961e+003
4.876414e+002, 1.212418e+003
4.895698e+002, 1.033060e+003
4.914983e+002, 8.857191e+002
4.934268e+002, 7.760524e+002
4.953552e+002, 6.892770e+002
4.972837e+002, 6.281454e+002
4.992122e+002, 5.807145e+002
5.011406e+002, 5.398418e+002
5.030691e+002, 5.050660e+002
5.049976e+002, 4.764490e+002
5.069260e+002, 4.540033e+002
5.088545e+002, 4.340591e+002
5.107830e+002, 4.165410e+002
5.127114e+002, 4.021214e+002
5.146399e+002, 3.925614e+002
5.165684e+002, 3.824411e+002
5.184968e+002, 3.691417e+002
5.204253e+002, 3.563351e+002
5.223538e+002, 3.462388e+002
5.242822e+002, 3.377584e+002
5.262107e+002, 3.298530e+002
5.281392e+002, 3.226093e+002
5.300676e+002, 3.164029e+002
5.319961e+002, 3.113946e+002
5.339246e+002, 3.064979e+002
5.358530e+002, 3.016911e+002
5.377815e+002, 2.971180e+002
5.397100e+002, 2.928201e+002
5.416384e+002, 2.887151e+002
5.435669e+002, 2.844347e+002
5.454954e+002, 2.806968e+002
5.474238e+002, 2.787566e+002
5.493523e+002, 2.771197e+002
5.512808e+002, 2.732280e+002
5.532092e+002, 2.675373e+002
5.551377e+002, 2.626460e+002
5.570662e+002, 2.585354e+002
5.589946e+002, 2.546671e+002
5.609231e+002, 2.508667e+002
5.628516e+002, 2.479717e+002
5.647800e+002, 2.468367e+002
5.667085e+002, 2.454626e+002
5.686370e+002, 2.425967e+002
5.705654e+002, 2.398585e+002
5.724939e+002, 2.384956e+002
5.744224e+002, 2.377916e+002
5.763508e+002, 2.368791e+002
5.782793e+002, 2.357273e+002
5.802078e+002, 2.339965e+002
5.821362e+002, 2.317834e+002
5.840647e+002, 2.307145e+002
5.859932e+002, 2.311996e+002
5.879216e+002, 2.315025e+002
5.898501e+002, 2.312981e+002
5.917786e+002, 2.308137e+002
5.937070e+002, 2.302133e+002
5.956355e+002, 2.292457e+002
5.975640e+002, 2.272023e+002
5.994924e+002, 2.252316e+002
6.014209e+002, 2.250020e+002
6.033494e+002, 2.255590e+002
6.052778e+002, 2.249632e+002
6.072063e+002, 2.234119e+002
6.091348e+002, 2.217537e+002
6.110632e+002, 2.199235e+002
6.129917e+002, 2.190555e+002
6.149202e+002, 2.201646e+002
6.168486e+002, 2.204047e+002
6.187771e+002, 2.186925e+002
6.207056e+002, 2.171604e+002
6.226340e+002, 2.169625e+002
6.245625e+002, 2.165995e+002
6.264910e+002, 2.147362e+002
6.284194e+002, 2.124786e+002
6.303479e+002, 2.109005e+002
6.322764e+002, 2.098925e+002
6.342048e+002, 2.092240e+002
6.361333e+002, 2.089134e+002
6.380618e+002, 2.093839e+002
6.399902e+002, 2.112025e+002
6.419187e+002, 2.117517e+002
6.438472e+002, 2.097758e+002
6.457756e+002, 2.086436e+002
6.477041e+002, 2.091415e+002
6.496326e+002, 2.096027e+002
6.515610e+002, 2.098756e+002
6.534895e+002, 2.095300e+002
6.554180e+002, 2.074968e+002
6.573464e+002, 2.055628e+002
6.592749e+002, 2.055892e+002
6.612034e+002, 2.065256e+002
6.631318e+002, 2.065601e+002
6.650603e+002, 2.058910e+002
6.669888e+002, 2.054811e+002
6.689172e+002, 2.052964e+002
6.708457e+002, 2.057541e+002
6.727742e+002, 2.069046e+002
6.747026e+002, 2.084075e+002
6.766311e+002, 2.102311e+002
6.785596e+002, 2.123644e+002
6.804880e+002, 2.144950e+002
6.824165e+002, 2.175800e+002
6.843450e+002, 2.220871e+002
6.862734e+002, 2.276204e+002
6.882019e+002, 2.330882e+002
6.901304e+002, 2.402744e+002
6.920588e+002, 2.515999e+002
6.939873e+002, 2.652576e+002
6.959158e+002, 2.803879e+002
6.978442e+002, 2.950844e+002
6.997727e+002, 3.021237e+002
7.017012e+002, 3.012669e+002
7.036296e+002, 2.918275e+002
7.055581e+002, 2.732290e+002
7.074866e+002, 2.564509e+002
7.094150e+002, 2.423588e+002
7.113435e+002, 2.315547e+002
7.132720e+002, 2.250005e+002
7.152004e+002, 2.195810e+002
7.171289e+002, 2.140414e+002
7.190574e+002, 2.098702e+002
7.209858e+002, 2.085400e+002
7.229143e+002, 2.076339e+002
7.248428e+002, 2.052988e+002
7.267712e+002, 2.029245e+002
7.286997e+002, 2.018537e+002
7.306282e+002, 2.018032e+002
7.325566e+002, 2.028588e+002
7.344851e+002, 2.043994e+002
7.364136e+002, 2.044787e+002
7.383420e+002, 2.033373e+002
7.402705e+002, 2.021741e+002
7.421990e+002, 2.010434e+002
7.441274e+002, 2.006118e+002
7.460559e+002, 2.012311e+002
7.479844e+002, 2.008972e+002
7.499128e+002, 1.983782e+002
7.518413e+002, 1.970262e+002
7.537698e+002, 1.983996e+002
7.556982e+002, 1.993850e+002
7.576267e+002, 1.986553e+002
7.595552e+002, 1.982048e+002
7.614836e+002, 1.994249e+002
7.634121e+002, 2.006528e+002
7.653406e+002, 2.001412e+002
7.672690e+002, 1.996304e+002
7.691975e+002, 2.012678e+002
7.711260e+002, 2.037030e+002
7.730544e+002, 2.047804e+002
7.749829e+002, 2.053774e+002
7.769114e+002, 2.074262e+002
7.788398e+002, 2.107876e+002
7.807683e+002, 2.147935e+002
7.826968e+002, 2.194623e+002
7.846252e+002, 2.235710e+002
7.865537e+002, 2.265460e+002
7.884822e+002, 2.310708e+002
7.904106e+002, 2.380582e+002
7.923391e+002, 2.448682e+002
7.942676e+002, 2.510296e+002
7.961960e+002, 2.580942e+002
7.981245e+002, 2.676327e+002
8.000530e+002, 2.755145e+002
8.019814e+002, 2.813998e+002
8.039099e+002, 2.840586e+002
8.058384e+002, 2.827903e+002
8.077668e+002, 2.783773e+002
8.096953e+002, 2.693232e+002
8.116238e+002, 2.596672e+002
8.135522e+002, 2.520995e+002
8.154807e+002, 2.454871e+002
8.174092e+002, 2.388544e+002
8.193376e+002, 2.324002e+002
8.212661e+002, 2.257472e+002
8.231946e+002, 2.198274e+002
8.251230e+002, 2.171347e+002
8.270515e+002, 2.169590e+002
8.289800e+002, 2.166763e+002
8.309084e+002, 2.162896e+002
8.328369e+002, 2.157097e+002
8.347654e+002, 2.149397e+002
8.366938e+002, 2.142737e+002
8.386223e+002, 2.137402e+002
8.405508e+002, 2.125125e+002
8.424792e+002, 2.102964e+002
8.444077e+002, 2.101799e+002
8.463362e+002, 2.131748e+002
8.482646e+002, 2.142758e+002
8.501931e+002, 2.117723e+002
8.521216e+002, 2.103037e+002
8.540500e+002, 2.119409e+002
8.559785e+002, 2.124394e+002
8.579070e+002, 2.091692e+002
8.598354e+002, 2.069118e+002
8.617639e+002, 2.085290e+002
8.636924e+002, 2.095994e+002
8.656208e+002, 2.078031e+002
8.675493e+002, 2.056221e+002
8.694778e+002, 2.041433e+002
8.714063e+002, 2.031707e+002
8.733347e+002, 2.029267e+002
8.752632e+002, 2.027133e+002
8.771917e+002, 2.016473e+002
8.791201e+002, 2.004501e+002
8.810486e+002, 2.001986e+002
8.829771e+002, 2.002114e+002
8.849055e+002, 1.995288e+002
8.868340e+002, 1.983581e+002
8.887625e+002, 1.968135e+002
8.906909e+002, 1.951984e+002
8.926194e+002, 1.944093e+002
8.945479e+002, 1.940460e+002
8.964763e+002, 1.926136e+002
8.984048e+002, 1.905169e+002
9.003333e+002, 1.898497e+002
9.022617e+002, 1.904794e+002
9.041902e+002, 1.908297e+002
9.061187e+002, 1.908390e+002
9.080471e+002, 1.893978e+002
9.099756e+002, 1.862142e+002
9.119041e+002, 1.840597e+002
9.138325e+002, 1.832803e+002
9.157610e+002, 1.823783e+002
9.176895e+002, 1.810123e+002
9.196179e+002, 1.803082e+002
9.215464e+002, 1.805734e+002
9.234749e+002, 1.809675e+002
9.254033e+002, 1.824149e+002
9.273318e+002, 1.820779e+002
9.292603e+002, 1.783736e+002
9.311887e+002, 1.759595e+002
9.331172e+002, 1.761153e+002
9.350457e+002, 1.760161e+002
9.369741e+002, 1.748323e+002
9.389026e+002, 1.740596e+002
9.408311e+002, 1.745889e+002
9.427595e+002, 1.743434e+002
9.446880e+002, 1.722717e+002
9.466165e+002, 1.702375e+002
9.485449e+002, 1.689188e+002
9.504734e+002, 1.677844e+002
9.524019e+002, 1.664799e+002
9.543303e+002, 1.656022e+002
9.562588e+002, 1.659694e+002
9.581873e+002, 1.658654e+002
9.601157e+002, 1.638654e+002
9.620442e+002, 1.620044e+002
9.639727e+002, 1.612255e+002
9.659011e+002, 1.611237e+002
9.678296e+002, 1.624382e+002
9.697581e+002, 1.630940e+002
9.716865e+002, 1.614226e+002
9.736150e+002, 1.591362e+002
9.755435e+002, 1.568183e+002
9.774719e+002, 1.550804e+002
9.794004e+002, 1.543576e+002
9.813289e+002, 1.544666e+002
9.832573e+002, 1.563946e+002
9.851858e+002, 1.577869e+002
9.871143e+002, 1.558409e+002
9.890427e+002, 1.530367e+002
9.909712e+002, 1.512431e+002
9.928997e+002, 1.504576e+002
9.948281e+002, 1.513617e+002
9.967566e+002, 1.525596e+002
9.986851e+002, 1.523455e+002
1.000614e+003, 1.516936e+002
1.002542e+003, 1.516078e+002
1.004470e+003, 1.518862e+002
1.006399e+003, 1.529012e+002
1.008327e+003, 1.535479e+002
1.010256e+003, 1.519943e+002
1.012184e+003, 1.496335e+002
1.014113e+003, 1.479277e+002
1.016041e+003, 1.468425e+002
1.017970e+003, 1.462494e+002
1.019898e+003, 1.463302e+002
1.021827e+003, 1.478907e+002
1.023755e+003, 1.497873e+002
1.025684e+003, 1.505858e+002
1.027612e+003, 1.506533e+002
1.029541e+003, 1.500330e+002
1.031469e+003, 1.493730e+002
1.033397e+003, 1.497955e+002
1.035326e+003, 1.504811e+002
1.037254e+003, 1.502874e+002
1.039183e+003, 1.497396e+002
1.041111e+003, 1.489193e+002
1.043040e+003, 1.487193e+002
1.044968e+003, 1.510837e+002
1.046897e+003, 1.539944e+002
1.048825e+003, 1.549609e+002
1.050754e+003, 1.549517e+002
1.052682e+003, 1.541728e+002
1.054611e+003, 1.540668e+002
1.056539e+003, 1.564827e+002
1.058468e+003, 1.604639e+002
1.060396e+003, 1.654063e+002
1.062324e+003, 1.707638e+002
1.064253e+003, 1.764278e+002
1.066181e+003, 1.816651e+002
1.068110e+003, 1.870383e+002
1.070038e+003, 1.900963e+002
1.071967e+003, 1.870080e+002
1.073895e+003, 1.817384e+002
1.075824e+003, 1.773022e+002
1.077752e+003, 1.735410e+002
1.079681e+003, 1.701600e+002
1.081609e+003, 1.675652e+002
1.083538e+003, 1.672194e+002
1.085466e+003, 1.664503e+002
1.087395e+003, 1.622063e+002
1.089323e+003, 1.578364e+002
1.091251e+003, 1.563571e+002
1.093180e+003, 1.549545e+002
1.095108e+003, 1.507975e+002
1.097037e+003, 1.473353e+002
1.098965e+003, 1.477295e+002
1.100894e+003, 1.480180e+002
1.102822e+003, 1.457007e+002
1.104751e+003, 1.431214e+002
1.106679e+003, 1.409934e+002
1.108608e+003, 1.395486e+002
1.110536e+003, 1.393703e+002
1.112465e+003, 1.391401e+002
1.114393e+003, 1.375818e+002
1.116322e+003, 1.371603e+002
1.118250e+003, 1.398867e+002
1.120178e+003, 1.416645e+002
1.122107e+003, 1.409796e+002
1.124035e+003, 1.398807e+002
1.125964e+003, 1.380335e+002
1.127892e+003, 1.377366e+002
1.129821e+003, 1.405605e+002
1.131749e+003, 1.421158e+002
1.133678e+003, 1.402693e+002
1.135606e+003, 1.411572e+002
1.137535e+003, 1.466680e+002
1.139463e+003, 1.514699e+002
1.141392e+003, 1.543971e+002
1.143320e+003, 1.589760e+002
1.145249e+003, 1.659921e+002
1.147177e+003, 1.719099e+002
1.149105e+003, 1.760332e+002
1.151034e+003, 1.824613e+002
1.152962e+003, 1.913313e+002
1.154891e+003, 2.044860e+002
1.156819e+003, 2.219991e+002
1.158748e+003, 2.454675e+002
1.160676e+003, 2.740242e+002
1.162605e+003, 2.970940e+002
1.164533e+003, 3.131044e+002
1.166462e+003, 3.117932e+002
1.168390e+003, 2.952511e+002
1.170319e+003, 2.692709e+002
1.172247e+003, 2.380172e+002
1.174176e+003, 2.125958e+002
1.176104e+003, 1.924166e+002
1.178032e+003, 1.766779e+002
1.179961e+003, 1.647990e+002
1.181889e+003, 1.567999e+002
1.183818e+003, 1.511232e+002
1.185746e+003, 1.462680e+002
1.187675e+003, 1.422134e+002
1.189603e+003, 1.389609e+002
1.191532e+003, 1.365030e+002
1.193460e+003, 1.349775e+002
1.195389e+003, 1.340544e+002
1.197317e+003, 1.337879e+002
1.199246e+003, 1.336048e+002
1.201174e+003, 1.332820e+002
1.203103e+003, 1.328271e+002
1.205031e+003, 1.321170e+002
1.206959e+003, 1.316163e+002
1.208888e+003, 1.314460e+002
1.210816e+003, 1.316997e+002
1.212745e+003, 1.326240e+002
1.214673e+003, 1.327231e+002
1.216602e+003, 1.314588e+002
1.218530e+003, 1.317344e+002
1.220459e+003, 1.340903e+002
1.222387e+003, 1.345657e+002
1.224316e+003, 1.328775e+002
1.226244e+003, 1.336284e+002
1.228173e+003, 1.367046e+002
1.230101e+003, 1.380401e+002
1.232030e+003, 1.379601e+002
1.233958e+003, 1.391337e+002
1.235886e+003, 1.405869e+002
1.237815e+003, 1.385795e+002
1.239743e+003, 1.353445e+002
1.241672e+003, 1.357438e+002
1.243600e+003, 1.372743e+002
1.245529e+003, 1.363785e+002
1.247457e+003, 1.348249e+002
1.249386e+003, 1.342711e+002
1.251314e+003, 1.340392e+002
1.253243e+003, 1.338248e+002
1.255171e+003, 1.334581e+002
1.257100e+003, 1.328616e+002
1.259028e+003, 1.320596e+002
1.260957e+003, 1.307794e+002
1.262885e+003, 1.297882e+002
1.264813e+003, 1.294096e+002
1.266742e+003, 1.289201e+002
1.268670e+003, 1.279986e+002
1.270599e+003, 1.280345e+002
1.272527e+003, 1.294600e+002
1.274456e+003, 1.290187e+002
1.276384e+003, 1.266068e+002
1.278313e+003, 1.257669e+002
1.280241e+003, 1.263868e+002
1.282170e+003, 1.276448e+002
1.284098e+003, 1.289818e+002
1.286027e+003, 1.283652e+002
1.287955e+003, 1.269511e+002
1.289884e+003, 1.268486e+002
1.291812e+003, 1.270968e+002
1.293740e+003, 1.265686e+002
1.295669e+003, 1.260640e+002
1.297597e+003, 1.260823e+002
1.299526e+003, 1.265417e+002
1.301454e+003, 1.281315e+002
1.303383e+003, 1.284573e+002
1.305311e+003, 1.259069e+002
1.307240e+003, 1.240288e+002
1.309168e+003, 1.236056e+002
1.311097e+003, 1.242628e+002
1.313025e+003, 1.263882e+002
1.314954e+003, 1.268838e+002
1.316882e+003, 1.254588e+002
1.318811e+003, 1.256664e+002
1.320739e+003, 1.272220e+002
1.322667e+003, 1.280692e+002
1.324596e+003, 1.282462e+002
1.326524e+003, 1.274298e+002
1.328453e+003, 1.264078e+002
1.330381e+003, 1.265728e+002
1.332310e+003, 1.270850e+002
1.334238e+003, 1.270129e+002
1.336167e+003, 1.270832e+002
1.338095e+003, 1.279395e+002
1.340024e+003, 1.287060e+002
1.341952e+003, 1.291126e+002
1.343881e+003, 1.293922e+002
1.345809e+003, 1.296701e+002
1.347738e+003, 1.292790e+002
1.349666e+003, 1.280825e+002
1.351594e+003, 1.276976e+002
1.353523e+003, 1.281659e+002
1.355451e+003, 1.288124e+002
1.357380e+003, 1.292439e+002
1.359308e+003, 1.275154e+002
1.361237e+003, 1.250818e+002
1.363165e+003, 1.246117e+002
1.365094e+003, 1.252845e+002
1.367022e+003, 1.267599e+002
1.368951e+003, 1.280430e+002
1.370879e+003, 1.284203e+002
1.372808e+003, 1.283482e+002
1.374736e+003, 1.278341e+002
1.376665e+003, 1.272390e+002
1.378593e+003, 1.264364e+002
1.380521e+003, 1.262539e+002
1.382450e+003, 1.269452e+002
1.384378e+003, 1.263573e+002
1.386307e+003, 1.246382e+002
1.388235e+003, 1.247609e+002
1.390164e+003, 1.260377e+002
1.392092e+003, 1.263432e+002
1.394021e+003, 1.259326e+002
1.395949e+003, 1.249469e+002
1.397878e+003, 1.238499e+002
1.399806e+003, 1.225848e+002
1.401735e+003, 1.221025e+002
1.403663e+003, 1.233030e+002
1.405592e+003, 1.245688e+002
1.407520e+003, 1.257848e+002
1.409448e+003, 1.260374e+002
1.411377e+003, 1.247452e+002
1.413305e+003, 1.245468e+002
1.415234e+003, 1.254056e+002
1.417162e+003, 1.252655e+002
1.419091e+003, 1.244613e+002
1.421019e+003, 1.239600e+002
1.422948e+003, 1.237852e+002
1.424876e+003, 1.240885e+002
1.426805e+003, 1.245916e+002
1.428733e+003, 1.253052e+002
1.430662e+003, 1.257265e+002
1.432590e+003, 1.256461e+002
1.434519e+003, 1.251476e+002
1.436447e+003, 1.240617e+002
1.438375e+003, 1.239933e+002
1.440304e+003, 1.251416e+002
1.442232e+003, 1.261952e+002
1.444161e+003, 1.270475e+002
1.446089e+003, 1.274219e+002
1.448018e+003, 1.273339e+002
1.449946e+003, 1.263964e+002
1.451875e+003, 1.255500e+002
1.453803e+003, 1.261248e+002
1.455732e+003, 1.264792e+002
1.457660e+003, 1.254875e+002
1.459589e+003, 1.249061e+002
1.461517e+003, 1.252350e+002
1.463446e+003, 1.251465e+002
1.465374e+003, 1.245028e+002
1.467302e+003, 1.237489e+002
1.469231e+003, 1.229756e+002
1.471159e+003, 1.226762e+002
1.473088e+003, 1.222921e+002
1.475016e+003, 1.201854e+002
1.476945e+003, 1.183997e+002
1.478873e+003, 1.190493e+002
1.480802e+003, 1.202545e+002
1.482730e+003, 1.217211e+002
1.484659e+003, 1.223230e+002
1.486587e+003, 1.216102e+002
1.488516e+003, 1.214726e+002
1.490444e+003, 1.219512e+002
1.492373e+003, 1.212928e+002
1.494301e+003, 1.200595e+002
1.496229e+003, 1.203380e+002
1.498158e+003, 1.209518e+002
1.500086e+003, 1.202967e+002
1.502015e+003, 1.196277e+002
1.503943e+003, 1.198747e+002
1.505872e+003, 1.201149e+002
1.507800e+003, 1.201517e+002
1.509729e+003, 1.199443e+002
1.511657e+003, 1.194587e+002
1.513586e+003, 1.189562e+002
1.515514e+003, 1.184758e+002
1.517443e+003, 1.182649e+002
1.519371e+003, 1.182368e+002
1.521300e+003, 1.184231e+002
1.523228e+003, 1.184488e+002
1.525156e+003, 1.178380e+002
1.527085e+003, 1.176392e+002
1.529013e+003, 1.185019e+002
1.530942e+003, 1.185464e+002
1.532870e+003, 1.173747e+002
1.534799e+003, 1.166508e+002
1.536727e+003, 1.162576e+002
1.538656e+003, 1.148287e+002
1.540584e+003, 1.136838e+002
1.542513e+003, 1.159382e+002
1.544441e+003, 1.181155e+002
1.546370e+003, 1.176619e+002
1.548298e+003, 1.169057e+002
1.550227e+003, 1.163466e+002
1.552155e+003, 1.164632e+002
1.554083e+003, 1.172779e+002
1.556012e+003, 1.173715e+002
1.557940e+003, 1.169981e+002
1.559869e+003, 1.171512e+002
1.561797e+003, 1.176563e+002
1.563726e+003, 1.184233e+002
1.565654e+003, 1.192399e+002
1.567583e+003, 1.206174e+002
1.569511e+003, 1.204844e+002
1.571440e+003, 1.181922e+002
1.573368e+003, 1.170346e+002
1.575297e+003, 1.171081e+002
1.577225e+003, 1.169769e+002
1.579154e+003, 1.168402e+002
1.581082e+003, 1.173568e+002
1.583010e+003, 1.179040e+002
1.584939e+003, 1.179919e+002
1.586867e+003, 1.178082e+002
1.588796e+003, 1.171214e+002
1.590724e+003, 1.170016e+002
1.592653e+003, 1.175624e+002
1.594581e+003, 1.170398e+002
1.596510e+003, 1.160635e+002
1.598438e+003, 1.173611e+002
1.600367e+003, 1.190320e+002
1.602295e+003, 1.190646e+002
1.604224e+003, 1.185645e+002
1.606152e+003, 1.179574e+002
1.608081e+003, 1.172137e+002
1.610009e+003, 1.162790e+002
1.611938e+003, 1.153356e+002
1.613866e+003, 1.144793e+002
1.615794e+003, 1.144063e+002
1.617723e+003, 1.147341e+002
1.619651e+003, 1.149911e+002
1.621580e+003, 1.153189e+002
1.623508e+003, 1.157901e+002
1.625437e+003, 1.165099e+002
1.627365e+003, 1.178760e+002
1.629294e+003, 1.162291e+002
1.631222e+003, 1.124703e+002
1.633151e+003, 1.135736e+002
1.635079e+003, 1.162493e+002
1.637008e+003, 1.158180e+002
1.638936e+003, 1.141186e+002
1.640865e+003, 1.112494e+002
1.642793e+003, 1.105867e+002
1.644721e+003, 1.130862e+002
1.646650e+003, 1.133267e+002
1.648578e+003, 1.116365e+002
1.650507e+003, 1.109918e+002
1.652435e+003, 1.108057e+002
1.654364e+003, 1.099478e+002
1.656292e+003, 1.099016e+002
1.658221e+003, 1.119133e+002
1.660149e+003, 1.123357e+002
1.662078e+003, 1.106232e+002
1.664006e+003, 1.091687e+002
1.665935e+003, 1.081741e+002
1.667863e+003, 1.078929e+002
1.669792e+003, 1.078384e+002
1.671720e+003, 1.072749e+002
1.673648e+003, 1.072475e+002
1.675577e+003, 1.085933e+002
1.677505e+003, 1.083782e+002
1.679434e+003, 1.065962e+002
1.681362e+003, 1.069531e+002
1.683291e+003, 1.082594e+002
1.685219e+003, 1.079241e+002
1.687148e+003, 1.071429e+002
1.689076e+003, 1.065618e+002
1.691005e+003, 1.063801e+002
1.692933e+003, 1.069107e+002
1.694862e+003, 1.063652e+002
1.696790e+003, 1.048813e+002
1.698719e+003, 1.030622e+002
1.700647e+003, 1.016617e+002
1.702575e+003, 1.013426e+002
1.704504e+003, 1.021263e+002
1.706432e+003, 1.053429e+002
1.708361e+003, 1.062609e+002
1.710289e+003, 1.044752e+002
1.712218e+003, 1.020404e+002
1.714146e+003, 9.988829e+001
1.716075e+003, 1.008520e+002
1.718003e+003, 1.021681e+002
1.719932e+003, 1.019464e+002
1.721860e+003, 1.021840e+002
1.723789e+003, 1.036111e+002
1.725717e+003, 1.037385e+002
1.727646e+003, 1.028669e+002
1.729574e+003, 1.021535e+002
1.731502e+003, 1.018430e+002
1.733431e+003, 1.026523e+002
1.735359e+003, 1.025853e+002
1.737288e+003, 1.006885e+002
1.739216e+003, 1.009463e+002
1.741145e+003, 1.031560e+002
1.743073e+003, 1.025506e+002
1.745002e+003, 1.008557e+002
1.746930e+003, 1.005536e+002
1.748859e+003, 9.996342e+001
1.750787e+003, 9.796236e+001
1.752716e+003, 9.904088e+001
1.754644e+003, 1.031536e+002
1.756573e+003, 1.034390e+002
1.758501e+003, 1.017802e+002
1.760429e+003, 1.013640e+002
1.762358e+003, 1.008551e+002
1.764286e+003, 9.914519e+001
1.766215e+003, 9.877831e+001
1.768143e+003, 9.984604e+001
1.770072e+003, 9.878337e+001
1.772000e+003, 9.692536e+001
1.773929e+003, 9.712270e+001
1.775857e+003, 9.764786e+001
1.777786e+003, 9.771458e+001
1.779714e+003, 9.690538e+001
1.781643e+003, 9.521672e+001
1.783571e+003, 9.496416e+001
1.785500e+003, 9.561684e+001
1.787428e+003, 9.615466e+001
1.789356e+003, 9.657370e+001
1.791285e+003, 9.705556e+001
1.793213e+003, 9.691764e+001
1.795142e+003, 9.607602e+001
1.797070e+003, 9.473082e+001
1.798999e+003, 9.351291e+001
1.800927e+003, 9.429763e+001
1.802856e+003, 9.457525e+001
1.804784e+003, 9.215113e+001
1.806713e+003, 9.133144e+001
1.808641e+003, 9.265239e+001
1.810570e+003, 9.297383e+001
1.812498e+003, 9.264989e+001
1.814427e+003, 9.180125e+001
1.816355e+003, 9.171171e+001
1.818283e+003, 9.349590e+001
1.820212e+003, 9.351694e+001
1.822140e+003, 9.156261e+001
1.824069e+003, 9.103498e+001
1.825997e+003, 9.119515e+001
1.827926e+003, 9.113539e+001
1.829854e+003, 9.098228e+001
1.831783e+003, 9.078127e+001
1.833711e+003, 9.030541e+001
1.835640e+003, 8.962508e+001
1.837568e+003, 8.901426e+001
1.839497e+003, 8.882435e+001
1.841425e+003, 9.018745e+001
1.843354e+003, 9.037102e+001
1.845282e+003, 8.871956e+001
1.847210e+003, 8.758250e+001
1.849139e+003, 8.721100e+001
1.851067e+003, 8.842699e+001
1.852996e+003, 8.932959e+001
1.854924e+003, 8.785891e+001
1.856853e+003, 8.744057e+001
1.858781e+003, 8.838364e+001
1.860710e+003, 8.818025e+001
1.862638e+003, 8.745132e+001
1.864567e+003, 8.726462e+001
1.866495e+003, 8.736317e+001
1.868424e+003, 8.801582e+001
1.870352e+003, 8.698051e+001
1.872281e+003, 8.479227e+001
1.874209e+003, 8.555273e+001
1.876137e+003, 8.683315e+001
1.878066e+003, 8.592741e+001
1.879994e+003, 8.544215e+001
1.881923e+003, 8.612065e+001
1.883851e+003, 8.611803e+001
1.885780e+003, 8.550559e+001
1.887708e+003, 8.403323e+001
1.889637e+003, 8.312291e+001
1.891565e+003, 8.402531e+001
1.893494e+003, 8.464833e+001
1.895422e+003, 8.480833e+001
1.897351e+003, 8.342374e+001
1.899279e+003, 8.247810e+001
1.901208e+003, 8.494480e+001
1.903136e+003, 8.550192e+001
1.905064e+003, 8.172216e+001
1.906993e+003, 8.183868e+001
1.908921e+003, 8.411553e+001
1.910850e+003, 8.408340e+001
1.912778e+003, 8.336607e+001
1.914707e+003, 8.255067e+001
1.916635e+003, 8.261162e+001
1.918564e+003, 8.327924e+001
1.920492e+003, 8.127731e+001
1.922421e+003, 7.908505e+001
1.924349e+003, 7.917456e+001
1.926278e+003, 7.978965e+001
1.928206e+003, 8.055820e+001
1.930135e+003, 8.074534e+001
1.932063e+003, 8.066908e+001
1.933991e+003, 8.099997e+001
1.935920e+003, 8.116543e+001
1.937848e+003, 8.095210e+001
1.939777e+003, 8.081662e+001
1.941705e+003, 8.070913e+001
1.943634e+003, 8.021089e+001
1.945562e+003, 7.981054e+001
1.947491e+003, 8.008894e+001
1.949419e+003, 7.966397e+001
1.951348e+003, 7.860939e+001
1.953276e+003, 7.840012e+001
1.955205e+003, 7.850954e+001
1.957133e+003, 7.859468e+001
1.959062e+003, 7.817083e+001
1.960990e+003, 7.716528e+001
1.962918e+003, 7.673263e+001
1.964847e+003, 7.677263e+001
1.966775e+003, 7.766134e+001
1.968704e+003, 7.753880e+001
1.970632e+003, 7.516838e+001
1.972561e+003, 7.468806e+001
1.974489e+003, 7.543538e+001
1.976418e+003, 7.590648e+001
1.978346e+003, 7.587256e+001
1.980275e+003, 7.459341e+001
1.982203e+003, 7.513150e+001
1.984132e+003, 7.682122e+001
1.986060e+003, 7.583562e+001
1.987989e+003, 7.436856e+001
1.989917e+003, 7.356288e+001
1.991845e+003, 7.367585e+001
1.993774e+003, 7.454307e+001
1.995702e+003, 7.519692e+001
1.997631e+003, 7.523795e+001
1.999559e+003, 7.428468e+001
2.001488e+003, 7.301315e+001
2.003416e+003, 7.168447e+001
2.005345e+003, 7.289417e+001
2.007273e+003, 7.412574e+001
2.009202e+003, 7.192598e+001
2.011130e+003, 7.163322e+001
2.013059e+003, 7.411406e+001
2.014987e+003, 7.326458e+001
2.016916e+003, 7.151254e+001
2.018844e+003, 7.277241e+001
2.020772e+003, 7.320951e+001
2.022701e+003, 7.213446e+001
2.024629e+003, 7.245357e+001
2.026558e+003, 7.308498e+001
2.028486e+003, 7.201082e+001
2.030415e+003, 7.125414e+001
2.032343e+003, 7.127113e+001
2.034272e+003, 7.067368e+001
2.036200e+003, 6.975471e+001
2.038129e+003, 6.893037e+001
2.040057e+003, 6.823116e+001
2.041986e+003, 6.760509e+001
2.043914e+003, 6.938017e+001
2.045843e+003, 7.122681e+001
2.047771e+003, 6.834112e+001
2.049699e+003, 6.661205e+001
2.051628e+003, 6.798515e+001
2.053556e+003, 6.741229e+001
2.055485e+003, 6.624032e+001
2.057413e+003, 6.665798e+001
2.059342e+003, 6.772010e+001
2.061270e+003, 6.952506e+001
2.063199e+003, 6.842474e+001
2.065127e+003, 6.616583e+001
2.067056e+003, 6.525880e+001
2.068984e+003, 6.456390e+001
2.070913e+003, 6.362655e+001
2.072841e+003, 6.509479e+001
2.074770e+003, 6.675073e+001
2.076698e+003, 6.531622e+001
2.078626e+003, 6.394419e+001
2.080555e+003, 6.347418e+001
2.082483e+003, 6.344021e+001
2.084412e+003, 6.368408e+001
2.086340e+003, 6.422803e+001
2.088269e+003, 6.412170e+001
2.090197e+003, 6.319309e+001
2.092126e+003, 6.287662e+001
2.094054e+003, 6.273260e+001
2.095983e+003, 6.195001e+001
2.097911e+003, 6.325549e+001
2.099840e+003, 6.637421e+001
2.101768e+003, 6.516161e+001
2.103697e+003, 6.307283e+001
2.105625e+003, 6.274989e+001
2.107553e+003, 6.270041e+001
2.109482e+003, 6.272417e+001
2.111410e+003, 6.294201e+001
2.113339e+003, 6.285405e+001
2.115267e+003, 6.202514e+001
2.117196e+003, 6.179113e+001
2.119124e+003, 6.202055e+001
2.121053e+003, 6.224326e+001
2.122981e+003, 6.196752e+001
2.124910e+003, 6.080290e+001
2.126838e+003, 6.137397e+001
2.128767e+003, 6.253106e+001
2.130695e+003, 6.182523e+001
2.132624e+003, 6.137142e+001
2.134552e+003, 6.176926e+001
2.136480e+003, 6.154559e+001
2.138409e+003, 6.107674e+001
2.140337e+003, 6.034678e+001
2.142266e+003, 6.125333e+001
2.144194e+003, 6.371964e+001
2.146123e+003, 6.210478e+001
2.148051e+003, 5.979987e+001
2.149980e+003, 5.919592e+001
2.151908e+003, 5.954241e+001
2.153837e+003, 6.030097e+001
2.155765e+003, 5.958001e+001
2.157694e+003, 5.875710e+001
2.159622e+003, 5.838956e+001
2.161551e+003, 5.891169e+001
2.163479e+003, 5.959020e+001
2.165407e+003, 5.899215e+001
2.167336e+003, 5.786057e+001
2.169264e+003, 5.640614e+001
2.171193e+003, 5.710557e+001
2.173121e+003, 5.798096e+001
2.175050e+003, 5.681024e+001
2.176978e+003, 5.657894e+001
2.178907e+003, 5.726812e+001
2.180835e+003, 5.628569e+001
2.182764e+003, 5.499897e+001
2.184692e+003, 5.401692e+001
2.186621e+003, 5.422840e+001
2.188549e+003, 5.507411e+001
2.190478e+003, 5.568404e+001
2.192406e+003, 5.533611e+001
2.194334e+003, 5.405889e+001
2.196263e+003, 5.544968e+001
2.198191e+003, 5.687649e+001
2.200120e+003, 5.469127e+001
2.202048e+003, 5.441476e+001
2.203977e+003, 5.557922e+001
2.205905e+003, 5.409599e+001
2.207834e+003, 5.314261e+001
2.209762e+003, 5.460262e+001
2.211691e+003, 5.394014e+001
2.213619e+003, 5.271308e+001
2.215548e+003, 5.394462e+001
2.217476e+003, 5.430280e+001
2.219405e+003, 5.334956e+001
2.221333e+003, 5.264711e+001
2.223261e+003, 5.242043e+001
2.225190e+003, 5.304309e+001
2.227118e+003, 5.360780e+001
2.229047e+003, 5.391149e+001
2.230975e+003, 5.362341e+001
2.232904e+003, 5.283313e+001
2.234832e+003, 5.152698e+001
2.236761e+003, 5.060746e+001
2.238689e+003, 5.055939e+001
2.240618e+003, 5.213847e+001
2.242546e+003, 5.182800e+001
2.244475e+003, 5.028284e+001
2.246403e+003, 5.081466e+001
2.248332e+003, 5.108198e+001
2.250260e+003, 5.034410e+001
2.252188e+003, 5.084718e+001
2.254117e+003, 5.147675e+001
2.256045e+003, 5.095983e+001
2.257974e+003, 5.086477e+001
2.259902e+003, 5.116892e+001
2.261831e+003, 5.128906e+001
2.263759e+003, 5.067255e+001
2.265688e+003, 4.921971e+001
2.267616e+003, 4.941531e+001
2.269545e+003, 4.984019e+001
2.271473e+003, 4.861936e+001
2.273402e+003, 4.803715e+001
2.275330e+003, 4.807696e+001
2.277259e+003, 4.773788e+001
2.279187e+003, 4.797991e+001
2.281115e+003, 4.904662e+001
2.283044e+003, 4.972623e+001
2.284972e+003, 4.986393e+001
2.286901e+003, 4.887889e+001
2.288829e+003, 4.889993e+001
2.290758e+003, 4.943101e+001
2.292686e+003, 4.867504e+001
2.294615e+003, 4.833389e+001
2.296543e+003, 4.886599e+001
2.298472e+003, 4.764628e+001
2.300400e+003, 4.622332e+001
2.302329e+003, 4.560426e+001
2.304257e+003, 4.624500e+001
2.306186e+003, 4.731905e+001
2.308114e+003, 4.733303e+001
2.310042e+003, 4.702880e+001
2.311971e+003, 4.659566e+001
2.313899e+003, 4.595496e+001
2.315828e+003, 4.574084e+001
2.317756e+003, 4.635593e+001
2.319685e+003, 4.644875e+001
2.321613e+003, 4.614884e+001
2.323542e+003, 4.539962e+001
2.325470e+003, 4.608261e+001
2.327399e+003, 4.786317e+001
2.329327e+003, 4.937629e+001
2.331256e+003, 4.913239e+001
2.333184e+003, 4.687305e+001
2.335113e+003, 4.527370e+001
2.337041e+003, 4.505005e+001
2.338969e+003, 4.693763e+001
2.340898e+003, 4.593998e+001
2.342826e+003, 4.394886e+001
2.344755e+003, 4.531089e+001
2.346683e+003, 4.563624e+001
2.348612e+003, 4.461637e+001
2.350540e+003, 4.370013e+001
2.352469e+003, 4.342266e+001
2.354397e+003, 4.388773e+001
2.356326e+003, 4.276248e+001
2.358254e+003, 4.153203e+001
2.360183e+003, 4.158628e+001
2.362111e+003, 4.176563e+001
2.364040e+003, 4.213288e+001
2.365968e+003, 4.329258e+001
2.367896e+003, 4.312856e+001
2.369825e+003, 4.192673e+001
2.371753e+003, 4.241862e+001
2.373682e+003, 4.292874e+001
2.375610e+003, 4.285474e+001
2.377539e+003, 4.196349e+001
2.379467e+003, 4.112563e+001
2.381396e+003, 4.096125e+001
2.383324e+003, 4.124619e+001
2.385253e+003, 4.176167e+001
2.387181e+003, 4.230618e+001
2.389110e+003, 4.275532e+001
2.391038e+003, 4.287998e+001
2.392967e+003, 4.145603e+001
2.394895e+003, 4.081046e+001
2.396823e+003, 4.134632e+001
2.398752e+003, 4.034857e+001
2.400680e+003, 3.907867e+001
2.402609e+003, 3.814803e+001
2.404537e+003, 3.857705e+001
2.406466e+003, 3.959129e+001
2.408394e+003, 4.068478e+001
2.410323e+003, 4.009997e+001
2.412251e+003, 3.885610e+001
2.414180e+003, 3.900365e+001
2.416108e+003, 3.891190e+001
2.418037e+003, 3.855044e+001
2.419965e+003, 3.845921e+001
2.421894e+003, 3.878458e+001
2.423822e+003, 3.933805e+001
2.425750e+003, 3.844032e+001
2.427679e+003, 3.817376e+001
2.429607e+003, 3.949070e+001
2.431536e+003, 3.882006e+001
2.433464e+003, 3.824761e+001
2.435393e+003, 4.016062e+001
2.437321e+003, 4.025198e+001
2.439250e+003, 3.931800e+001
2.441178e+003, 3.852386e+001
2.443107e+003, 3.742706e+001
2.445035e+003, 3.636510e+001
2.446964e+003, 3.606448e+001
2.448892e+003, 3.640463e+001
2.450821e+003, 3.705042e+001
2.452749e+003, 3.672860e+001
2.454677e+003, 3.613451e+001
2.456606e+003, 3.552035e+001
2.458534e+003, 3.579061e+001
2.460463e+003, 3.591845e+001
2.462391e+003, 3.538671e+001
2.464320e+003, 3.530785e+001
2.466248e+003, 3.534909e+001
2.468177e+003, 3.526238e+001
2.470105e+003, 3.555021e+001
2.472034e+003, 3.604745e+001
2.473962e+003, 3.670141e+001
2.475891e+003, 3.581698e+001
2.477819e+003, 3.475459e+001
2.479748e+003, 3.626540e+001
2.481676e+003, 3.604061e+001
2.483604e+003, 3.446779e+001
2.485533e+003, 3.346366e+001
2.487461e+003, 3.319588e+001
2.489390e+003, 3.337664e+001
2.491318e+003, 3.254865e+001
2.493247e+003, 3.307764e+001
2.495175e+003, 3.485761e+001
2.497104e+003, 3.464725e+001
2.499032e+003, 3.395468e+001
2.500961e+003, 3.336637e+001
2.502889e+003, 3.297851e+001
2.504818e+003, 3.279332e+001
2.506746e+003, 3.280474e+001
2.508675e+003, 3.355019e+001
2.510603e+003, 3.414769e+001
2.512531e+003, 3.413984e+001
2.514460e+003, 3.194139e+001
2.516388e+003, 3.041467e+001
2.518317e+003, 3.281095e+001
2.520245e+003, 3.308677e+001
2.522174e+003, 3.242500e+001
2.524102e+003, 3.204570e+001
2.526031e+003, 3.248313e+001
2.527959e+003, 3.277010e+001
2.529888e+003, 3.147942e+001
2.531816e+003, 3.193327e+001
2.533745e+003, 3.308702e+001
2.535673e+003, 3.297617e+001
2.537602e+003, 3.222356e+001
2.539530e+003, 3.127035e+001
2.541458e+003, 3.054486e+001
2.543387e+003, 3.079218e+001
2.545315e+003, 3.170077e+001
2.547244e+003, 3.269462e+001
2.549172e+003, 3.244442e+001
2.551101e+003, 3.125558e+001
2.553029e+003, 3.033844e+001
2.554958e+003, 3.023337e+001
2.556886e+003, 3.068994e+001
2.558815e+003, 3.034183e+001
2.560743e+003, 3.090425e+001
2.562672e+003, 3.210036e+001
2.564600e+003, 3.132207e+001
2.566529e+003, 3.173449e+001
2.568457e+003, 3.313706e+001
2.570385e+003, 3.138503e+001
2.572314e+003, 3.086149e+001
2.574242e+003, 3.187284e+001
2.576171e+003, 3.059204e+001
2.578099e+003, 2.955601e+001
2.580028e+003, 2.928736e+001
2.581956e+003, 2.817605e+001
2.583885e+003, 2.872487e+001
2.585813e+003, 3.106581e+001
2.587742e+003, 3.087529e+001
2.589670e+003, 2.951729e+001
2.591599e+003, 2.769982e+001
2.593527e+003, 2.808129e+001
2.595456e+003, 2.832113e+001
2.597384e+003, 2.792712e+001
2.599313e+003, 2.873108e+001
2.601241e+003, 2.931710e+001
2.603169e+003, 2.924143e+001
2.605098e+003, 2.824603e+001
2.607026e+003, 2.767706e+001
2.608955e+003, 2.775769e+001
2.610883e+003, 2.719471e+001
2.612812e+003, 2.694410e+001
2.614740e+003, 2.719892e+001
2.616669e+003, 2.750407e+001
2.618597e+003, 2.778751e+001
2.620526e+003, 2.795885e+001
2.622454e+003, 2.784917e+001
2.624383e+003, 2.715078e+001
2.626311e+003, 2.615970e+001
2.628240e+003, 2.632336e+001
2.630168e+003, 2.592968e+001
2.632096e+003, 2.511220e+001
2.634025e+003, 2.558116e+001
2.635953e+003, 2.585672e+001
2.637882e+003, 2.570982e+001
2.639810e+003, 2.529803e+001
2.641739e+003, 2.488675e+001
2.643667e+003, 2.467780e+001
2.645596e+003, 2.492954e+001
2.647524e+003, 2.589641e+001
2.649453e+003, 2.670238e+001
2.651381e+003, 2.538125e+001
2.653310e+003, 2.478945e+001
2.655238e+003, 2.506212e+001
2.657167e+003, 2.611892e+001
2.659095e+003, 2.597186e+001
2.661023e+003, 2.545521e+001
2.662952e+003, 2.585687e+001
2.664880e+003, 2.571983e+001
2.666809e+003, 2.520439e+001
2.668737e+003, 2.455830e+001
2.670666e+003, 2.432099e+001
2.672594e+003, 2.479031e+001
2.674523e+003, 2.611780e+001
2.676451e+003, 2.534122e+001
2.678380e+003, 2.463176e+001
2.680308e+003, 2.518888e+001
2.682237e+003, 2.336928e+001
2.684165e+003, 2.240844e+001
2.686094e+003, 2.351384e+001
2.688022e+003, 2.385242e+001
2.689950e+003, 2.392664e+001
2.691879e+003, 2.389386e+001
2.693807e+003, 2.327280e+001
2.695736e+003, 2.250987e+001
2.697664e+003, 2.198372e+001
2.699593e+003, 2.273924e+001
2.701521e+003, 2.294799e+001
2.703450e+003, 2.243491e+001
2.705378e+003, 2.148897e+001
2.707307e+003, 2.102550e+001
2.709235e+003, 2.118319e+001
2.711164e+003, 2.219018e+001
2.713092e+003, 2.268692e+001
2.715021e+003, 2.260530e+001
2.716949e+003, 2.174673e+001
2.718877e+003, 2.206238e+001
2.720806e+003, 2.240694e+001
2.722734e+003, 2.170116e+001
2.724663e+003, 2.158174e+001
2.726591e+003, 2.193916e+001
2.728520e+003, 2.263440e+001
2.730448e+003, 2.073042e+001
2.732377e+003, 2.053672e+001
2.734305e+003, 2.279090e+001
2.736234e+003, 2.281229e+001
2.738162e+003, 2.122206e+001
2.740091e+003, 1.926046e+001
2.742019e+003, 2.048985e+001
2.743948e+003, 1.992857e+001
2.745876e+003, 1.855378e+001
2.747804e+003, 1.896591e+001
2.749733e+003, 1.963976e+001
2.751661e+003, 2.031574e+001
2.753590e+003, 2.091075e+001
2.755518e+003, 2.155992e+001
2.757447e+003, 2.146169e+001
2.759375e+003, 2.031840e+001
2.761304e+003, 1.944280e+001
2.763232e+003, 1.892664e+001
2.765161e+003, 1.866475e+001
2.767089e+003, 1.804481e+001
2.769018e+003, 1.839842e+001
2.770946e+003, 1.922383e+001
2.772875e+003, 1.859810e+001
2.774803e+003, 1.901695e+001
2.776731e+003, 1.979234e+001
2.778660e+003, 1.978608e+001
2.780588e+003, 1.853999e+001
2.782517e+003, 1.789182e+001
2.784445e+003, 1.944316e+001
2.786374e+003, 1.826875e+001
2.788302e+003, 1.742826e+001
2.790231e+003, 1.787223e+001
2.792159e+003, 1.701349e+001
2.794088e+003, 1.663610e+001
2.796016e+003, 1.708434e+001
2.797945e+003, 1.846699e+001
2.799873e+003, 1.897860e+001
2.801802e+003, 1.850125e+001
2.803730e+003, 1.709903e+001
2.805658e+003, 1.697818e+001
2.807587e+003, 1.710406e+001
2.809515e+003, 1.687173e+001
2.811444e+003, 1.727455e+001
2.813372e+003, 1.740548e+001
2.815301e+003, 1.714335e+001
2.817229e+003, 1.743021e+001
2.819158e+003, 1.638324e+001
2.821086e+003, 1.516143e+001
2.823015e+003, 1.651402e+001
2.824943e+003, 1.667513e+001
2.826872e+003, 1.658514e+001
2.828800e+003, 1.710481e+001
2.830729e+003, 1.695355e+001
2.832657e+003, 1.635767e+001
2.834585e+003, 1.561997e+001
2.836514e+003, 1.556068e+001
2.838442e+003, 1.581430e+001
2.840371e+003, 1.633250e+001
2.842299e+003, 1.741176e+001
2.844228e+003, 1.716492e+001
2.846156e+003, 1.647750e+001
2.848085e+003, 1.616508e+001
2.850013e+003, 1.587846e+001
2.851942e+003, 1.577397e+001
2.853870e+003, 1.586755e+001
2.855799e+003, 1.609063e+001
2.857727e+003, 1.565869e+001
2.859656e+003, 1.513673e+001
2.861584e+003, 1.553386e+001
2.863512e+003, 1.451729e+001
2.865441e+003, 1.380772e+001
2.867369e+003, 1.428492e+001
2.869298e+003, 1.315913e+001
2.871226e+003, 1.371830e+001
2.873155e+003, 1.539868e+001
2.875083e+003, 1.310364e+001
2.877012e+003, 1.294752e+001
2.878940e+003, 1.401033e+001
2.880869e+003, 1.463999e+001
2.882797e+003, 1.433692e+001
2.884726e+003, 1.406552e+001
2.886654e+003, 1.414410e+001
2.888583e+003, 1.392168e+001
2.890511e+003, 1.467223e+001
2.892439e+003, 1.558786e+001
2.894368e+003, 1.485053e+001
2.896296e+003, 1.477485e+001
2.898225e+003, 1.454728e+001
2.900153e+003, 1.363416e+001
2.902082e+003, 1.441835e+001
2.904010e+003, 1.490944e+001
2.905939e+003, 1.474444e+001
2.907867e+003, 1.424568e+001
2.909796e+003, 1.316197e+001
2.911724e+003, 1.274539e+001
2.913653e+003, 1.390451e+001
2.915581e+003, 1.495689e+001
2.917510e+003, 1.475909e+001
2.919438e+003, 1.343328e+001
2.921366e+003, 1.204255e+001
2.923295e+003, 1.219111e+001
2.925223e+003, 1.243341e+001
2.927152e+003, 1.157827e+001
2.929080e+003, 1.217063e+001
2.931009e+003, 1.252054e+001
2.932937e+003, 1.233354e+001
2.934866e+003, 1.281917e+001
2.936794e+003, 1.299964e+001
2.938723e+003, 1.288590e+001
2.940651e+003, 1.260341e+001
2.942580e+003, 1.184015e+001
2.944508e+003, 1.253106e+001
2.946437e+003, 1.403499e+001
2.948365e+003, 1.262856e+001
2.950293e+003, 1.287329e+001
2.952222e+003, 1.350570e+001
2.954150e+003, 1.283697e+001
2.956079e+003, 1.288009e+001
2.958007e+003, 1.220836e+001
2.959936e+003, 1.101392e+001
2.961864e+003, 1.086978e+001
2.963793e+003, 1.097963e+001
2.965721e+003, 1.115751e+001
2.967650e+003, 1.133863e+001
2.969578e+003, 1.167936e+001
2.971507e+003, 1.080951e+001
2.973435e+003, 9.744295e+000
2.975364e+003, 1.106771e+001
2.977292e+003, 1.168569e+001
2.979220e+003, 1.123408e+001
2.981149e+003, 1.002312e+001
2.983077e+003, 1.027761e+001
2.985006e+003, 1.015378e+001
2.986934e+003, 1.005946e+001
2.988863e+003, 1.102131e+001
2.990791e+003, 1.110793e+001
2.992720e+003, 1.144342e+001
2.994648e+003, 1.190186e+001
2.996577e+003, 9.948535e+000
2.998505e+003, 9.548163e+000
3.000434e+003, 1.000213e+001
3.002362e+003, 1.022877e+001
3.004291e+003, 1.011620e+001
3.006219e+003, 9.998042e+000
3.008147e+003, 9.911654e+000
3.010076e+003, 9.622629e+000
3.012004e+003, 1.017137e+001
3.013933e+003, 1.046614e+001
3.015861e+003, 1.008608e+001
3.017790e+003, 1.049048e+001
3.019718e+003, 1.031882e+001
3.021647e+003, 9.954939e+000
3.023575e+003, 1.001357e+001
3.025504e+003, 1.031271e+001
3.027432e+003, 8.823639e+000
3.029361e+003, 6.966094e+000
3.031289e+003, 8.938641e+000
3.033218e+003, 9.375874e+000
3.035146e+003, 8.716023e+000
3.037074e+003, 7.848391e+000
3.039003e+003, 8.530117e+000
3.040931e+003, 9.100841e+000
3.042860e+003, 9.394084e+000
3.044788e+003, 9.478845e+000
3.046717e+003, 8.907118e+000
3.048645e+003, 9.042171e+000
3.050574e+003, 9.295650e+000
3.052502e+003, 7.902462e+000
3.054431e+003, 7.898788e+000
3.056359e+003, 7.904016e+000
3.058288e+003, 7.609552e+000
3.060216e+003, 8.068143e+000
3.062145e+003, 8.586332e+000
3.064073e+003, 8.962685e+000
3.066001e+003, 9.057863e+000
3.067930e+003, 8.250988e+000
3.069858e+003, 7.481078e+000
3.071787e+003, 7.064859e+000
3.073715e+003, 7.100920e+000
3.075644e+003, 8.251322e+000
3.077572e+003, 9.230654e+000
3.079501e+003, 9.609597e+000
3.081429e+003, 9.284932e+000
3.083358e+003, 9.384612e+000
3.085286e+003, 9.037500e+000
3.087215e+003, 8.143141e+000
3.089143e+003, 7.476621e+000
3.091072e+003, 6.882889e+000
3.093000e+003, 6.466623e+000
3.094928e+003, 6.412324e+000
3.096857e+003, 7.590004e+000
3.098785e+003, 7.502638e+000
3.100714e+003, 6.794684e+000
3.102642e+003, 6.287156e+000
3.104571e+003, 6.473855e+000
3.106499e+003, 7.457532e+000
3.108428e+003, 7.727086e+000
3.110356e+003, 6.088244e+000
3.112285e+003, 7.419358e+000
3.114213e+003, 7.097257e+000
3.116142e+003, 5.784025e+000
3.118070e+003, 5.995267e+000
3.119999e+003, 6.087281e+000
3.121927e+003, 7.260676e+000
3.123855e+003, 8.446075e+000
3.125784e+003, 6.969677e+000
3.127712e+003, 7.589362e+000
3.129641e+003, 7.942476e+000
3.131569e+003, 7.606185e+000
3.133498e+003, 7.778213e+000
3.135426e+003, 7.090321e+000
3.137355e+003, 6.719515e+000
3.139283e+003, 6.987000e+000
3.141212e+003, 7.258691e+000
3.143140e+003, 6.663897e+000
3.145069e+003, 6.408916e+000
3.146997e+003, 6.786760e+000
3.148926e+003, 6.642695e+000
3.150854e+003, 7.609719e+000
3.152782e+003, 7.790463e+000
3.154711e+003, 6.648645e+000
3.156639e+003, 5.878864e+000
3.158568e+003, 5.360264e+000
3.160496e+003, 5.795117e+000
3.162425e+003, 6.911588e+000
3.164353e+003, 6.554570e+000
3.166282e+003, 5.863161e+000
3.168210e+003, 5.195868e+000
3.170139e+003, 4.866814e+000
3.172067e+003, 5.720521e+000
3.173996e+003, 6.205444e+000
3.175924e+003, 6.111912e+000
3.177853e+003, 5.718575e+000
3.179781e+003, 6.440221e+000
3.181709e+003, 5.410580e+000
3.183638e+003, 4.965396e+000
3.185566e+003, 6.001822e+000
3.187495e+003, 5.855463e+000
3.189423e+003, 5.635575e+000
3.191352e+003, 5.977617e+000
3.193280e+003, 6.475028e+000
3.195209e+003, 4.788042e+000
3.197137e+003, 4.977902e+000
3.199066e+003, 5.681520e+000
3.200994e+003, 5.978106e+000
3.202923e+003, 5.927185e+000
3.204851e+003, 6.269745e+000
3.206780e+003, 5.956879e+000
3.208708e+003, 5.346686e+000
3.210636e+003, 6.557929e+000
3.212565e+003, 5.849002e+000
3.214493e+003, 5.780982e+000
3.216422e+003, 6.392719e+000
3.218350e+003, 5.756039e+000
3.220279e+003, 4.213040e+000
3.222207e+003, 5.009044e+000
3.224136e+003, 6.728447e+000
3.226064e+003, 5.618863e+000
3.227993e+003, 6.193355e+000
3.229921e+003, 6.162443e+000
3.231850e+003, 5.542164e+000
3.233778e+003, 5.015897e+000
3.235707e+003, 5.783694e+000
3.237635e+003, 6.113597e+000
3.239563e+003, 6.310838e+000
3.241492e+003, 6.817186e+000
3.243420e+003, 6.159101e+000
3.245349e+003, 5.843424e+000
3.247277e+003, 6.025874e+000
3.249206e+003, 6.312569e+000
3.251134e+003, 5.138376e+000
3.253063e+003, 5.518324e+000
3.254991e+003, 5.886664e+000
3.256920e+003, 5.681499e+000
3.258848e+003, 5.983716e+000
3.260777e+003, 4.523645e+000
3.262705e+003, 3.003659e+000
3.264634e+003, 2.835646e+000
3.266562e+003, 5.018242e+000
3.268490e+003, 5.736476e+000
3.270419e+003, 5.913349e+000
3.272347e+003, 5.203429e+000
3.274276e+003, 3.284916e+000
3.276204e+003, 4.075368e+000
3.278133e+003, 5.136462e+000
3.280061e+003, 5.790946e+000
3.281990e+003, 6.002358e+000
3.283918e+003, 6.285154e+000
3.285847e+003, 5.883616e+000
3.287775e+003, 4.568840e+000
3.289704e+003, 3.379438e+000
3.291632e+003, 4.411823e+000
3.293561e+003, 4.866532e+000
3.295489e+003, 4.085012e+000
3.297417e+003, 3.598676e+000
3.299346e+003, 4.928786e+000
3.301274e+003, 5.581897e+000
3.303203e+003, 5.271342e+000
3.305131e+003, 4.978745e+000
3.307060e+003, 5.253166e+000
3.308988e+003, 5.719544e+000
3.310917e+003, 6.112781e+000
3.312845e+003, 5.661201e+000
3.314774e+003, 4.478670e+000
3.316702e+003, 3.229485e+000
3.318631e+003, 4.596767e+000
3.320559e+003, 4.777544e+000
3.322488e+003, 4.732686e+000
3.324416e+003, 5.756162e+000
3.326344e+003, 4.970285e+000
3.328273e+003, 4.450210e+000
3.330201e+003, 4.059488e+000
3.332130e+003, 3.791230e+000
3.334058e+003, 4.112896e+000
3.335987e+003, 4.815580e+000
3.337915e+003, 4.437351e+000
3.339844e+003, 3.991751e+000
3.341772e+003, 4.641512e+000
3.343701e+003, 4.440075e+000
3.345629e+003, 5.842964e+000
3.347558e+003, 6.502524e+000
3.349486e+003, 5.584752e+000
3.351415e+003, 4.463223e+000
3.353343e+003, 5.183961e+000
3.355271e+003, 5.715531e+000
3.357200e+003, 5.884552e+000
3.359128e+003, 6.012965e+000
3.361057e+003, 5.181145e+000
3.362985e+003, 5.524754e+000
3.364914e+003, 5.417521e+000
3.366842e+003, 4.810642e+000
3.368771e+003, 5.214836e+000
3.370699e+003, 4.253650e+000
3.372628e+003, 5.069563e+000
3.374556e+003, 5.263446e+000
3.376485e+003, 3.363681e+000
3.378413e+003, 4.114519e+000
3.380342e+003, 5.021346e+000
3.382270e+003, 4.368667e+000
3.384198e+003, 3.207352e+000
3.386127e+003, 3.581355e+000
3.388055e+003, 4.416832e+000
3.389984e+003, 3.503688e+000
3.391912e+003, 3.070056e+000
3.393841e+003, 4.056029e+000
3.395769e+003, 5.109765e+000
3.397698e+003, 4.280109e+000
3.399626e+003, 3.350905e+000
3.401555e+003, 3.194109e+000
3.403483e+003, 3.778867e+000
3.405412e+003, 3.944499e+000
3.407340e+003, 4.489400e+000
3.409269e+003, 6.058070e+000
3.411197e+003, 6.878483e+000
3.413125e+003, 5.268222e+000
3.415054e+003, 5.197376e+000
3.416982e+003, 4.719871e+000
3.418911e+003, 4.816753e+000
3.420839e+003, 5.299797e+000
3.422768e+003, 4.875525e+000
3.424696e+003, 4.424478e+000
3.426625e+003, 4.314479e+000
3.428553e+003, 4.464394e+000
3.430482e+003, 4.500803e+000
3.432410e+003, 3.774613e+000
3.434339e+003, 3.303921e+000
3.436267e+003, 3.016714e+000
3.438196e+003, 3.655476e+000
3.440124e+003, 4.913142e+000
3.442052e+003, 4.202708e+000
3.443981e+003, 4.044464e+000
3.445909e+003, 5.042446e+000
3.447838e+003, 4.993566e+000
3.449766e+003, 3.028809e+000
3.451695e+003, 3.157744e+000
3.453623e+003, 3.869096e+000
3.455552e+003, 4.042224e+000
##END=



