##NAMES=Quartz
##RRUFFID=R040031
##IDEAL CHEMISTRY=SiO_2_
##LOCALITY=Spruce Claim, King County, Washington, USA
##OWNER=RRUFF
##SOURCE=Bob Downs
##DESCRIPTION=Colorless hexagonal prism
##STATUS=The identification of this mineral has been confirmed by X-ray diffraction and chemical analysis
##URL=https://www.rruff.net/odr/rruff_sample/R040031
##MEASURED CHEMISTRY=Si_1.00_O_2_
##DIFFRACTION SAMPLE DESCRIPTION=Powder
##CELL PARAMETERS=a: 4.9134 b: 4.9134 c: 5.4042 alpha: 90 beta: 90 gamma: 120 volume: 112.991 crystal system: hexagonal
##FILETYPE=Raman RAW
##RAMAN WAVELENGTH=780

102.5625, 228.3999
104.4910, 225.2947
106.4194, 227.9491
108.3479, 235.4870
110.2764, 247.5965
112.2048, 264.7443
114.1333, 285.5960
116.0618, 307.8534
117.9902, 334.4892
119.9187, 369.6048
121.8472, 412.6539
123.7756, 465.1078
125.7041, 551.7198
127.6326, 618.8722
129.5611, 652.2203
131.4895, 651.0161
133.4180, 611.3113
135.3465, 531.6171
137.2749, 456.2945
139.2034, 384.8284
141.1319, 327.6157
143.0603, 290.8038
144.9888, 269.2289
146.9173, 256.4995
148.8457, 252.5041
150.7742, 252.2829
152.7027, 255.1108
154.6311, 262.0412
156.5596, 273.9622
158.4881, 289.8439
160.4165, 308.7866
162.3450, 330.6402
164.2735, 354.3504
166.2019, 380.1885
168.1304, 407.5946
170.0589, 436.8853
171.9873, 467.4720
173.9158, 498.4156
175.8443, 530.1545
177.7727, 564.6990
179.7012, 601.3821
181.6297, 642.6817
183.5581, 688.5001
185.4866, 739.1151
187.4151, 793.7504
189.3435, 853.4991
191.2720, 921.4442
193.2005, 1000.004
195.1289, 1080.457
197.0574, 1167.132
198.9859, 1248.271
200.9143, 1323.999
202.8428, 1387.564
204.7713, 1434.024
206.6997, 1463.184
208.6282, 1460.947
210.5567, 1425.937
212.4851, 1369.562
214.4136, 1287.669
216.3421, 1191.643
218.2705, 1082.543
220.1990, 965.8929
222.1275, 860.6453
224.0559, 766.3519
225.9844, 680.9738
227.9129, 604.4780
229.8413, 537.6102
231.7698, 481.0781
233.6983, 432.5432
235.6267, 389.0359
237.5552, 350.9856
239.4837, 319.4907
241.4121, 295.3962
243.3406, 275.6081
245.2691, 259.7524
247.1975, 247.2913
249.1260, 239.1143
251.0545, 234.0584
252.9829, 228.5723
254.9114, 222.5685
256.8399, 219.2074
258.7683, 219.4120
260.6968, 221.9563
262.6253, 230.2924
264.5537, 237.7716
266.4822, 238.2702
268.4107, 231.7845
270.3391, 217.2761
272.2676, 192.7182
274.1961, 168.2746
276.1245, 143.9376
278.0530, 122.7595
279.9815, 106.4059
281.9099, 94.02454
283.8384, 84.58646
285.7669, 77.86628
287.6953, 72.75155
289.6238, 69.76612
291.5523, 67.13695
293.4807, 64.82636
295.4092, 62.58196
297.3377, 59.87101
299.2661, 57.28060
301.1946, 55.68823
303.1231, 55.13932
305.0515, 55.12665
306.9800, 55.49778
308.9085, 56.54702
310.8369, 58.44533
312.7654, 61.01218
314.6939, 64.44711
316.6223, 68.28432
318.5508, 71.85780
320.4793, 75.36553
322.4077, 77.50714
324.3362, 77.61034
326.2647, 77.49901
328.1931, 77.12442
330.1216, 77.12953
332.0501, 77.24056
333.9785, 78.19987
335.9070, 81.75398
337.8355, 88.25022
339.7639, 96.00566
341.6924, 105.2439
343.6209, 114.8771
345.5493, 123.3662
347.4778, 133.9518
349.4063, 147.7721
351.3347, 165.1180
353.2632, 189.7619
355.1917, 223.8509
357.1201, 241.6652
359.0486, 242.0574
360.9771, 230.6370
362.9055, 202.3705
364.8340, 171.3896
366.7625, 142.4875
368.6909, 117.5797
370.6194, 99.90623
372.5479, 89.54947
374.4763, 81.89426
376.4048, 76.94564
378.3333, 74.43306
380.2617, 74.96152
382.1902, 76.91851
384.1187, 79.57594
386.0471, 83.19710
387.9756, 88.29826
389.9041, 94.69576
391.8326, 102.0006
393.7610, 110.4127
395.6895, 115.8629
397.6180, 116.8789
399.5464, 116.5429
401.4749, 115.3953
403.4034, 113.8727
405.3318, 111.7674
407.2603, 109.6277
409.1888, 107.4209
411.1172, 105.7768
413.0457, 109.3295
414.9742, 117.4855
416.9026, 134.5208
418.8311, 158.7677
420.7596, 195.4284
422.6880, 250.7402
424.6165, 315.8342
426.5450, 387.7910
428.4734, 460.7168
430.4019, 521.0137
432.3304, 567.9586
434.2588, 605.9662
436.1873, 627.5754
438.1158, 653.4368
440.0442, 677.4216
441.9727, 717.1191
443.9012, 778.3349
445.8296, 863.7283
447.7581, 975.8888
449.6866, 1113.074
451.6150, 1268.196
453.5435, 1440.055
455.4720, 1634.728
457.4004, 1846.156
459.3289, 2087.994
461.2574, 2418.565
463.1858, 2719.246
465.1143, 2969.068
467.0428, 3107.851
468.9712, 3045.215
470.8997, 2797.330
472.8282, 2470.422
474.7566, 2025.247
476.6851, 1631.660
478.6136, 1286.674
480.5420, 1002.875
482.4705, 793.6433
484.3990, 632.9279
486.3274, 516.7530
488.2559, 431.4446
490.1844, 367.9321
492.1128, 323.6232
494.0413, 288.1665
495.9698, 262.5916
497.8982, 241.9184
499.8267, 226.4698
501.7552, 215.1239
503.6836, 208.4920
505.6121, 204.2290
507.5406, 204.1110
509.4690, 203.1781
511.3975, 197.1202
513.3260, 186.7369
515.2545, 173.0824
517.1829, 156.1811
519.1114, 141.5080
521.0399, 129.1112
522.9683, 118.5777
524.8968, 110.1127
526.8253, 102.9784
528.7537, 96.90297
530.6822, 91.97011
532.6107, 88.88534
534.5391, 86.57410
536.4676, 83.45537
538.3961, 79.92732
540.3245, 77.22368
542.2530, 75.28748
544.1815, 73.58395
546.1099, 72.17318
548.0384, 70.52316
549.9669, 68.30280
551.8953, 66.15044
553.8238, 64.12410
555.7523, 62.31911
557.6807, 61.03873
559.6092, 59.85017
561.5377, 57.81396
563.4661, 55.42118
565.3946, 54.10031
567.3231, 53.91562
569.2515, 53.86467
571.1800, 54.08550
573.1085, 53.73666
575.0369, 52.24919
576.9654, 51.09739
578.8939, 50.67628
580.8223, 50.50445
582.7508, 50.45314
584.6793, 50.42202
586.6077, 50.38325
588.5362, 50.27226
590.4647, 49.89625
592.3931, 49.24670
594.3216, 48.72091
596.2501, 48.37954
598.1785, 48.05931
600.1070, 47.86237
602.0355, 47.42392
603.9639, 46.51833
605.8924, 45.70505
607.8209, 45.39892
609.7493, 45.07092
611.6778, 44.22181
613.6063, 43.14281
615.5347, 42.18685
617.4632, 41.45170
619.3917, 41.42046
621.3201, 42.21691
623.2486, 42.31902
625.1771, 41.53577
627.1055, 40.97791
629.0340, 40.90467
630.9625, 40.76937
632.8909, 40.23832
634.8194, 39.77601
636.7479, 39.89102
638.6763, 40.00101
640.6048, 39.40228
642.5333, 38.57190
644.4617, 38.41545
646.3902, 38.75489
648.3187, 38.75097
650.2471, 38.39980
652.1756, 37.90183
654.1041, 37.21634
656.0325, 37.09832
657.9610, 37.83378
659.8895, 38.58274
661.8179, 39.23498
663.7464, 39.53677
665.6749, 39.25791
667.6033, 39.05434
669.5318, 39.09443
671.4603, 39.29848
673.3887, 39.85137
675.3172, 40.54959
677.2457, 40.79943
679.1741, 40.84100
681.1026, 41.60482
683.0311, 43.04715
684.9595, 44.17280
686.8880, 44.79558
688.8165, 45.99422
690.7449, 48.26477
692.6734, 50.23360
694.6019, 52.07732
696.5303, 53.20903
698.4588, 53.31932
700.3873, 52.68035
702.3157, 51.20976
704.2442, 49.18001
706.1727, 46.58962
708.1011, 43.95960
710.0296, 42.09465
711.9581, 40.82236
713.8865, 39.69770
715.8150, 38.70544
717.7435, 37.60747
719.6719, 36.27353
721.6004, 35.45927
723.5289, 35.48655
725.4573, 35.42746
727.3858, 35.12891
729.3143, 35.01258
731.2427, 35.38218
733.1712, 35.61581
735.0997, 35.39027
737.0281, 34.97172
738.9566, 34.35730
740.8851, 33.90992
742.8135, 33.83223
744.7420, 34.06985
746.6705, 34.81837
748.5989, 35.67149
750.5274, 35.69627
752.4559, 35.14893
754.3843, 35.10687
756.3128, 35.55162
758.2413, 36.18871
760.1697, 37.06411
762.0982, 37.82708
764.0267, 38.31725
765.9551, 39.30135
767.8836, 41.00968
769.8121, 42.88564
771.7405, 44.63391
773.6690, 46.92048
775.5975, 50.75434
777.5259, 53.89929
779.4544, 54.90636
781.3829, 55.67635
783.3113, 57.24768
785.2398, 59.01252
787.1683, 60.35429
789.0967, 61.99238
791.0252, 64.61342
792.9537, 68.07601
794.8821, 72.65343
796.8106, 78.37672
798.7391, 84.42625
800.6675, 90.53810
802.5960, 96.06610
804.5245, 101.0711
806.4529, 106.7761
808.3814, 113.6881
810.3099, 117.6520
812.2383, 118.2381
814.1668, 115.0878
816.0953, 106.7325
818.0237, 97.45304
819.9522, 86.73064
821.8807, 77.41048
823.8091, 70.64311
825.7376, 64.80504
827.6661, 58.92465
829.5945, 54.35646
831.5230, 52.35107
833.4515, 51.08356
835.3799, 49.26816
837.3084, 47.72128
839.2369, 47.29752
841.1653, 47.14075
843.0938, 46.39802
845.0223, 45.49913
846.9507, 44.93690
848.8792, 44.58564
850.8077, 44.29596
852.7361, 44.10371
854.6646, 44.14550
856.5931, 44.39124
858.5215, 44.10332
860.4500, 43.17117
862.3785, 42.56838
864.3069, 42.52137
866.2354, 41.97998
868.1639, 40.67196
870.0923, 39.75913
872.0208, 39.33640
873.9493, 39.21706
875.8777, 39.49960
877.8062, 39.60099
879.7347, 39.38322
881.6631, 39.21902
883.5916, 39.21096
885.5201, 39.09584
887.4485, 38.65517
889.3770, 38.41561
891.3055, 38.82407
893.2339, 39.11438
895.1624, 38.91254
897.0909, 38.51539
899.0193, 37.94010
900.9478, 37.36972
902.8763, 36.87706
904.8047, 36.45530
906.7332, 36.16527
908.6617, 35.97635
910.5901, 35.77988
912.5186, 35.53123
914.4471, 35.38560
916.3755, 35.30728
918.3040, 35.07045
920.2325, 34.76330
922.1609, 34.58544
924.0894, 34.33837
926.0179, 33.63476
927.9464, 32.77362
929.8748, 32.40073
931.8033, 32.33458
933.7318, 32.14444
935.6602, 31.78864
937.5887, 31.24282
939.5172, 30.61837
941.4456, 30.05931
943.3741, 29.50382
945.3026, 29.11264
947.2310, 28.96046
949.1595, 28.99045
951.0880, 29.17768
953.0164, 28.89888
954.9449, 28.03960
956.8734, 27.57325
958.8018, 27.66709
960.7303, 27.50017
962.6588, 26.91743
964.5872, 26.62577
966.5157, 26.79543
968.4442, 26.67202
970.3726, 26.09124
972.3011, 25.62220
974.2296, 25.31934
976.1580, 25.12088
978.0865, 25.03467
980.0150, 24.73581
981.9434, 24.12425
983.8719, 23.85652
985.8004, 24.18144
987.7288, 24.14688
989.6573, 23.44609
991.5858, 23.04726
993.5142, 23.12222
995.4427, 23.21839
997.3712, 23.40875
999.2996, 23.37357
1001.228, 22.89022
1003.157, 22.48916
1005.085, 22.30703
1007.013, 22.24183
1008.942, 22.29466
1010.870, 22.40296
1012.799, 22.60821
1014.727, 22.68721
1016.656, 22.52322
1018.584, 22.32495
1020.513, 22.12345
1022.441, 22.08348
1024.370, 22.26803
1026.298, 22.42201
1028.227, 22.39490
1030.155, 22.62695
1032.084, 23.45665
1034.012, 24.06818
1035.941, 24.13161
1037.869, 24.22419
1039.797, 24.19355
1041.726, 24.62518
1043.654, 26.16549
1045.583, 27.44143
1047.511, 27.73249
1049.440, 28.37426
1051.368, 29.96486
1053.297, 31.29038
1055.225, 31.99217
1057.154, 32.84127
1059.082, 33.81065
1061.011, 34.95972
1062.939, 36.28819
1064.868, 37.95941
1066.796, 39.92093
1068.724, 42.45036
1070.653, 46.11328
1072.581, 49.33710
1074.510, 51.34903
1076.438, 53.95867
1078.367, 57.82731
1080.295, 61.45679
1082.224, 65.68016
1084.152, 67.37594
1086.081, 65.95322
1088.009, 62.34338
1089.938, 55.65913
1091.866, 49.40611
1093.795, 43.95866
1095.723, 39.12371
1097.651, 34.72646
1099.580, 31.29719
1101.508, 29.04784
1103.437, 27.18601
1105.365, 25.66582
1107.294, 24.46252
1109.222, 23.68870
1111.151, 23.15833
1113.079, 22.81130
1115.008, 22.71282
1116.936, 22.71862
1118.865, 22.78919
1120.793, 23.16595
1122.722, 23.68046
1124.650, 24.21162
1126.578, 24.94297
1128.507, 25.90825
1130.435, 26.64074
1132.364, 27.07486
1134.292, 27.60880
1136.221, 28.26766
1138.149, 28.54102
1140.078, 28.70674
1142.006, 29.97149
1143.935, 31.93417
1145.863, 33.56293
1147.792, 35.26819
1149.720, 37.82374
1151.649, 40.57772
1153.577, 42.67588
1155.505, 44.46085
1157.434, 46.62791
1159.362, 48.33916
1161.291, 48.58848
1163.219, 47.92987
1165.148, 46.65833
1167.076, 44.39965
1169.005, 40.83184
1170.933, 37.01875
1172.862, 33.17046
1174.790, 30.00699
1176.719, 28.16726
1178.647, 26.66535
1180.576, 24.97138
1182.504, 23.60523
1184.432, 22.90568
1186.361, 22.46200
1188.289, 22.28350
1190.218, 21.93083
1192.146, 21.19597
1194.075, 20.67504
1196.003, 20.40238
1197.932, 20.41380
1199.860, 20.62235
1201.789, 21.17916
1203.717, 22.28640
1205.646, 22.42021
1207.574, 21.56286
1209.503, 21.44703
1211.431, 21.98352
1213.359, 22.32793
1215.288, 22.54017
1217.216, 22.68837
1219.145, 22.77240
1221.073, 23.08013
1223.002, 23.58088
1224.930, 23.96581
1226.859, 24.24018
1228.787, 24.56601
1230.716, 24.86640
1232.644, 24.98466
1234.573, 24.89619
1236.501, 24.74548
1238.430, 24.64851
1240.358, 24.59352
1242.286, 24.13494
1244.215, 22.95521
1246.143, 22.17687
1248.072, 22.15830
1250.000, 22.32261
1251.929, 22.59477
1253.857, 22.73213
1255.786, 22.68657
1257.714, 22.15865
1259.643, 21.21594
1261.571, 20.93767
1263.500, 21.20894
1265.428, 21.08096
1267.357, 20.72802
1269.285, 20.74961
1271.214, 20.89161
1273.142, 20.74292
1275.070, 20.59597
1276.999, 20.72634
1278.927, 20.79062
1280.856, 20.59155
1282.784, 20.42899
1284.713, 20.40359
1286.641, 20.27371
1288.570, 19.91498
1290.498, 19.70942
1292.427, 19.69222
1294.355, 19.88688
1296.284, 20.67345
1298.212, 20.81006
1300.141, 19.91323
1302.069, 19.58445
1303.997, 19.88728
1305.926, 19.93686
1307.854, 19.80488
1309.783, 19.83715
1311.711, 19.91823
1313.640, 19.88470
1315.568, 19.81961
1317.497, 19.63482
1319.425, 19.51716
1321.354, 19.96374
1323.282, 20.43900
1325.211, 20.49521
1327.139, 20.31380
1329.068, 19.83596
1330.996, 19.77012
1332.924, 20.48096
1334.853, 20.76032
1336.781, 20.36113
1338.710, 20.37746
1340.638, 20.84185
1342.567, 20.91141
1344.495, 20.67717
1346.424, 20.45762
1348.352, 20.25046
1350.281, 20.36278
1352.209, 20.45490
1354.138, 19.95398
1356.066, 19.49918
1357.995, 19.58017
1359.923, 19.88768
1361.851, 20.33151
1363.780, 20.55249
1365.708, 20.57164
1367.637, 20.66169
1369.565, 20.65949
1371.494, 20.68457
1373.422, 20.82027
1375.351, 20.91886
1377.279, 21.04102
1379.208, 21.32987
1381.136, 21.63428
1383.065, 21.66297
1384.993, 21.59208
1386.922, 21.71183
1388.850, 22.06172
1390.778, 22.63793
1392.707, 22.92508
1394.635, 22.49976
1396.564, 22.38823
1398.492, 23.21883
1400.421, 23.74720
1402.349, 23.71589
1404.278, 23.88334
1406.206, 24.14059
1408.135, 24.38819
1410.063, 24.72217
1411.992, 24.75153
1413.920, 24.50005
1415.849, 24.43487
1417.777, 24.54531
1419.705, 24.44786
1421.634, 24.63005
1423.562, 25.79110
1425.491, 26.58692
1427.419, 26.28958
1429.348, 26.27769
1431.276, 26.77475
1433.205, 26.94659
1435.133, 26.87721
1437.062, 27.08732
1438.990, 27.52249
1440.919, 27.68409
1442.847, 27.56872
1444.776, 27.41548
1446.704, 27.41269
1448.632, 27.65344
1450.561, 27.70947
1452.489, 27.59156
1454.418, 27.56677
1456.346, 27.50370
1458.275, 27.49464
1460.203, 27.62691
1462.132, 27.76994
1464.060, 27.72992
1465.989, 27.10806
1467.917, 26.46593
1469.846, 26.72112
1471.774, 26.94360
1473.703, 26.18301
1475.631, 25.62858
1477.559, 26.04066
1479.488, 26.40043
1481.416, 26.28164
1483.345, 26.11065
1485.273, 26.24257
1487.202, 26.21079
1489.130, 25.81320
1491.059, 25.66898
1492.987, 25.68631
1494.916, 25.43940
1496.844, 25.09063
1498.773, 24.84629
1500.701, 24.93489
1502.630, 25.20545
1504.558, 25.17900
1506.486, 25.13362
1508.415, 24.91778
1510.343, 24.49216
1512.272, 24.25235
1514.200, 24.16643
1516.129, 24.09486
1518.057, 24.06419
1519.986, 24.04901
1521.914, 24.09093
1523.843, 24.26691
1525.771, 24.15122
1527.700, 23.81109
1529.628, 23.63673
1531.557, 23.63923
1533.485, 23.56414
1535.413, 23.31676
1537.342, 23.24659
1539.270, 23.30515
1541.199, 23.34903
1543.127, 23.44582
1545.056, 23.58167
1546.984, 23.57593
1548.913, 23.47178
1550.841, 23.53419
1552.770, 23.68586
1554.698, 23.90917
1556.627, 24.01353
1558.555, 23.60651
1560.484, 23.34972
1562.412, 23.42093
1564.340, 23.54055
1566.269, 23.89977
1568.197, 23.72163
1570.126, 23.10875
1572.054, 23.10948
1573.983, 23.39923
1575.911, 22.98445
1577.840, 22.52925
1579.768, 23.09167
1581.697, 23.61743
1583.625, 23.66560
1585.554, 23.65754
1587.482, 23.34212
1589.411, 22.94327
1591.339, 22.65940
1593.267, 22.51738
1595.196, 22.65518
1597.124, 23.25850
1599.053, 23.62037
1600.981, 23.14173
1602.910, 22.75522
1604.838, 22.93766
1606.767, 22.93338
1608.695, 22.69324
1610.624, 22.52262
1612.552, 22.42153
1614.481, 22.61129
1616.409, 22.71441
1618.338, 22.72791
1620.266, 22.66851
1622.194, 22.22437
1624.123, 22.12204
1626.051, 22.52122
1627.980, 22.50073
1629.908, 22.06588
1631.837, 21.62945
1633.765, 21.60122
1635.694, 21.89832
1637.622, 21.96730
1639.551, 21.90878
1641.479, 21.69589
1643.408, 21.32976
1645.336, 21.29805
1647.265, 21.36106
1649.193, 21.15308
1651.121, 20.87789
1653.050, 20.69261
1654.978, 20.52912
1656.907, 20.38032
1658.835, 20.43089
1660.764, 20.72785
1662.692, 20.88400
1664.621, 20.73578
1666.549, 20.30287
1668.478, 19.89676
1670.406, 19.99746
1672.335, 20.16945
1674.263, 20.05266
1676.192, 19.84523
1678.120, 19.74428
1680.048, 19.67786
1681.977, 19.55935
1683.905, 19.74038
1685.834, 19.86743
1687.762, 19.58332
1689.691, 19.57269
1691.619, 19.86013
1693.548, 19.52072
1695.476, 18.91592
1697.405, 18.92875
1699.333, 19.11579
1701.262, 19.03211
1703.190, 18.93283
1705.119, 19.00026
1707.047, 18.92226
1708.975, 18.83334
1710.904, 18.84787
1712.832, 18.90860
1714.761, 18.77441
1716.689, 18.47228
1718.618, 18.17710
1720.546, 17.88464
1722.475, 17.74316
1724.403, 18.08627
1726.332, 18.51599
1728.260, 18.28362
1730.189, 18.08128
1732.117, 18.24590
1734.046, 18.24656
1735.974, 18.12244
1737.902, 17.91238
1739.831, 17.60519
1741.759, 17.13317
1743.688, 16.92796
1745.616, 17.28697
1747.545, 17.51863
1749.473, 17.56150
1751.402, 17.48052
1753.330, 17.47485
1755.259, 17.37330
1757.187, 16.89787
1759.116, 16.74302
1761.044, 17.01956
1762.973, 17.32462
1764.901, 17.13122
1766.829, 16.77886
1768.758, 16.73324
1770.686, 16.63456
1772.615, 16.23943
1774.543, 15.96719
1776.472, 16.14351
1778.400, 16.64124
1780.329, 17.00238
1782.257, 16.77609
1784.186, 16.51720
1786.114, 16.22787
1788.043, 16.11531
1789.971, 16.14217
1791.900, 15.99973
1793.828, 15.81385
1795.756, 15.81965
1797.685, 15.88019
1799.613, 15.75907
1801.542, 15.69730
1803.470, 15.84642
1805.399, 15.81965
1807.327, 15.73596
1809.256, 15.83264
1811.184, 15.86254
1813.113, 15.74123
1815.041, 15.31296
1816.970, 14.88806
1818.898, 15.18771
1820.827, 15.49985
1822.755, 15.36922
1824.683, 15.26824
1826.612, 15.53570
1828.540, 15.63637
1830.469, 15.27032
1832.397, 15.14566
1834.326, 15.40235
1836.254, 15.39938
1838.183, 15.08746
1840.111, 14.92704
1842.040, 14.90915
1843.968, 14.62145
1845.897, 14.39043
1847.825, 14.48404
1849.754, 14.64833
1851.682, 14.76858
1853.610, 14.57731
1855.539, 14.41585
1857.467, 14.58206
1859.396, 14.90991
1861.324, 14.74863
1863.253, 14.32653
1865.181, 14.29424
1867.110, 14.34379
1869.038, 14.36525
1870.967, 14.55151
1872.895, 14.30252
1874.824, 13.96326
1876.752, 14.09156
1878.681, 14.14039
1880.609, 14.07790
1882.537, 14.23262
1884.466, 14.47321
1886.394, 14.61852
1888.323, 14.43569
1890.251, 14.14200
1892.180, 13.98843
1894.108, 13.72787
1896.037, 13.90365
1897.965, 14.22797
1899.894, 14.23096
1901.822, 13.98491
1903.751, 13.42297
1905.679, 13.35846
1907.608, 13.69980
1909.536, 13.81460
1911.464, 13.84361
1913.393, 13.95227
1915.321, 13.73986
1917.250, 13.45324
1919.178, 13.74711
1921.107, 14.09152
1923.035, 13.85863
1924.964, 13.56230
1926.892, 13.42186
1928.821, 13.49627
1930.749, 13.66267
1932.678, 13.57038
1934.606, 13.60411
1936.535, 13.69211
1938.463, 13.62395
1940.391, 13.76899
1942.320, 13.90262
1944.248, 13.80485
1946.177, 13.64816
1948.105, 13.69324
1950.034, 13.67331
1951.962, 13.66043
1953.891, 13.72915
1955.819, 13.57656
1957.748, 13.44223
1959.676, 13.61446
1961.605, 13.25489
1963.533, 12.71508
1965.462, 13.10463
1967.390, 13.37146
1969.318, 13.10588
1971.247, 12.88329
1973.175, 12.77944
1975.104, 12.95836
1977.032, 13.12633
1978.961, 13.10142
1980.889, 12.72041
1982.818, 12.29505
1984.746, 12.73001
1986.675, 13.03811
1988.603, 12.67423
1990.532, 12.44909
1992.460, 12.46760
1994.389, 12.47755
1996.317, 12.44123
1998.245, 12.39583
2000.174, 13.33822
2002.102, 15.02615
2004.031, 14.53329
2005.959, 13.42869
2007.888, 13.24632
2009.816, 12.91081
2011.745, 12.02848
2013.673, 11.62718
2015.602, 11.73576
2017.530, 11.57205
2019.459, 11.39869
2021.387, 11.28688
2023.316, 11.17419
2025.244, 11.21896
2027.172, 11.10723
2029.101, 11.14639
2031.029, 11.32336
2032.958, 11.15846
2034.886, 10.94166
2036.815, 10.87013
2038.743, 10.94879
2040.672, 10.94818
2042.600, 10.92635
2044.529, 11.02990
2046.457, 10.84780
2048.386, 10.65889
2050.314, 10.76555
2052.243, 10.58128
2054.171, 10.23000
2056.100, 10.26243
2058.028, 10.31512
2059.957, 10.15754
2061.885, 10.05612
2063.813, 10.19669
2065.742, 10.13297
2067.670, 9.893394
2069.599, 9.731409
2071.527, 9.734847
2073.456, 9.642612
2075.384, 9.479791
2077.313, 9.569539
2079.241, 9.592049
2081.170, 9.553389
2083.098, 9.564856
2085.027, 9.359903
2086.955, 9.166952
2088.884, 9.174765
2090.812, 9.161776
2092.740, 9.129094
2094.669, 9.430098
2096.597, 9.518503
2098.526, 9.179571
2100.454, 9.200758
2102.383, 9.256675
2104.311, 9.142976
2106.240, 9.039927
2108.168, 8.699762
2110.097, 8.602943
2112.025, 8.880213
2113.954, 9.287721
2115.882, 9.433804
2117.811, 9.175050
2119.739, 8.772395
2121.667, 8.682684
2123.596, 8.948734
2125.524, 9.040433
2127.453, 8.969706
2129.381, 8.891180
2131.310, 8.815222
2133.238, 8.709509
2135.167, 8.472939
2137.095, 8.190007
2139.024, 8.351789
2140.952, 8.576330
2142.881, 8.587502
2144.809, 8.704755
2146.738, 8.754877
2148.666, 8.548568
2150.594, 8.590659
2152.523, 8.555637
2154.451, 8.213493
2156.380, 7.989223
2158.308, 8.184325
2160.237, 8.155976
2162.165, 7.753134
2164.094, 7.859052
2166.022, 8.113017
2167.951, 7.808708
2169.879, 7.752271
2171.808, 7.921492
2173.736, 7.909144
2175.665, 8.015537
2177.593, 8.112626
2179.521, 7.760039
2181.450, 7.495372
2183.378, 7.318993
2185.307, 7.394643
2187.235, 7.869040
2189.164, 7.595534
2191.092, 7.223859
2193.021, 7.372607
2194.949, 7.548606
2196.878, 7.731680
2198.806, 7.628526
2200.735, 7.394442
2202.663, 7.250185
2204.592, 7.300792
2206.520, 7.415197
2208.448, 7.312116
2210.377, 7.203261
2212.305, 7.225823
2214.234, 7.255625
2216.162, 7.305357
2218.091, 7.479506
2220.019, 7.604594
2221.948, 7.699317
2223.876, 7.471533
2225.805, 7.146269
2227.733, 7.073039
2229.662, 7.049417
2231.590, 7.013144
2233.519, 7.316106
2235.447, 7.380434
2237.375, 7.078425
2239.304, 7.184598
2241.232, 7.244400
2243.161, 6.846240
2245.089, 6.686784
2247.018, 6.835965
2248.946, 6.908974
2250.875, 6.743892
2252.803, 6.519320
2254.732, 6.649864
2256.660, 6.794746
2258.589, 6.685513
2260.517, 6.431734
2262.446, 6.307098
2264.374, 6.142919
2266.302, 6.132870
2268.231, 6.542112
2270.159, 6.661632
2272.088, 6.545552
2274.016, 6.725879
2275.945, 6.815312
2277.873, 6.605307
2279.802, 6.400018
2281.730, 6.396299
2283.659, 6.499770
2285.587, 6.636654
2287.516, 6.740209
2289.444, 6.526400
2291.373, 6.200883
2293.301, 5.913203
2295.229, 6.308510
2297.158, 6.685111
2299.086, 6.631049
2301.015, 6.329913
2302.943, 6.090085
2304.872, 6.280984
2306.800, 6.519435
2308.729, 6.655786
2310.657, 6.275859
2312.586, 5.937122
2314.514, 6.068588
2316.443, 6.354747
2318.371, 6.466158
2320.300, 6.383155
2322.228, 6.381848
2324.156, 6.244239
2326.085, 6.180542
2328.013, 6.350674
2329.942, 6.514660
2331.870, 6.176855
2333.799, 5.931494
2335.727, 6.138645
2337.656, 6.190546
2339.584, 5.975568
2341.513, 5.559302
2343.441, 5.631201
2345.370, 5.897732
2347.298, 5.990084
2349.227, 5.901484
2351.155, 5.756663
2353.083, 6.078994
2355.012, 6.183238
2356.940, 5.718963
2358.869, 5.399977
2360.797, 5.337097
2362.726, 5.795514
2364.654, 5.894681
2366.583, 5.643168
2368.511, 5.727427
2370.440, 5.689864
2372.368, 5.411823
2374.297, 5.501004
2376.225, 5.574495
2378.154, 5.218300
2380.082, 5.221520
2382.010, 5.490811
2383.939, 5.562644
2385.867, 5.641965
2387.796, 5.661019
2389.724, 5.736907
2391.653, 5.661442
2393.581, 5.291244
2395.510, 5.343330
2397.438, 5.526457
2399.367, 5.637162
2401.295, 5.394137
2403.224, 5.065947
2405.152, 5.295945
2407.081, 5.445627
2409.009, 5.321285
2410.938, 5.075896
2412.866, 4.975392
2414.794, 4.894367
2416.723, 5.024390
2418.651, 5.274168
2420.580, 5.462050
2422.508, 5.347532
2424.437, 5.230861
2426.365, 5.408952
2428.294, 5.156352
2430.222, 4.771746
2432.151, 4.959158
2434.079, 5.084653
2436.008, 4.993669
2437.936, 4.927449
2439.865, 4.985994
2441.793, 4.937861
2443.721, 4.575068
2445.650, 4.381272
2447.578, 4.487599
2449.507, 4.782750
2451.435, 4.847552
2453.364, 4.459255
2455.292, 4.894049
2457.221, 5.418328
2459.149, 4.636653
2461.078, 4.472217
2463.006, 4.802904
2464.935, 4.645294
2466.863, 4.534734
2468.792, 4.618442
2470.720, 4.579787
2472.648, 4.489680
2474.577, 4.566705
2476.505, 4.535916
2478.434, 4.515391
2480.362, 4.436445
2482.291, 4.192628
2484.219, 4.220664
2486.148, 4.556414
2488.076, 4.298511
2490.005, 4.060816
2491.933, 4.427783
2493.862, 4.430484
2495.790, 4.270187
2497.719, 4.342146
2499.647, 4.443866
2501.575, 4.482542
2503.504, 4.574973
2505.432, 4.530482
2507.361, 4.409965
2509.289, 4.351798
2511.218, 4.211268
2513.146, 4.234594
2515.075, 4.267641
2517.003, 4.117172
2518.932, 3.849005
2520.860, 4.313021
2522.789, 4.580745
2524.717, 4.134862
2526.646, 4.273094
2528.574, 4.470480
2530.502, 4.304531
2532.431, 4.353801
2534.359, 4.486836
2536.288, 4.628815
2538.216, 4.468036
2540.145, 4.199882
2542.073, 4.237715
2544.002, 4.056347
2545.930, 3.820212
2547.859, 4.065643
2549.787, 4.195573
2551.716, 4.150801
2553.644, 3.847859
2555.573, 3.766449
2557.501, 3.891589
2559.429, 3.758675
2561.358, 3.770898
2563.286, 3.986073
2565.215, 3.832370
2567.143, 3.734631
2569.072, 3.988019
2571.000, 3.732796
2572.929, 3.779065
2574.857, 4.149278
2576.786, 4.176919
2578.714, 4.054992
2580.643, 3.709227
2582.571, 3.646947
2584.500, 3.613001
2586.428, 3.520324
2588.356, 3.205886
2590.285, 3.244617
2592.213, 3.550747
2594.142, 3.693148
2596.070, 3.702184
2597.999, 3.658691
2599.927, 3.408631
2601.856, 3.302994
2603.784, 3.385213
2605.713, 3.706035
2607.641, 3.802869
2609.570, 3.679637
2611.498, 3.492745
2613.427, 3.436152
2615.355, 3.445735
2617.283, 3.445608
2619.212, 3.574282
2621.140, 3.500067
2623.069, 3.370438
2624.997, 3.449691
2626.926, 3.555010
2628.854, 3.518071
2630.783, 3.505014
2632.711, 3.436100
2634.640, 3.094498
2636.568, 3.038035
2638.497, 3.265467
2640.425, 3.197583
2642.354, 3.099226
2644.282, 3.072458
2646.210, 3.278069
2648.139, 3.437086
2650.067, 3.515924
2651.996, 3.239256
2653.924, 3.098119
2655.853, 3.157012
2657.781, 3.152371
2659.710, 3.209040
2661.638, 3.144522
2663.567, 2.952956
2665.495, 2.841005
2667.424, 2.914490
2669.352, 2.984551
2671.281, 3.013837
2673.209, 3.219484
2675.137, 3.110596
2677.066, 3.064826
2678.994, 3.132292
2680.923, 2.708380
2682.851, 2.709392
2684.780, 3.069455
2686.708, 3.065252
2688.637, 2.928806
2690.565, 2.955008
2692.494, 2.955368
2694.422, 3.039934
2696.351, 3.154127
2698.279, 3.096193
2700.208, 2.549450
2702.136, 2.292408
2704.064, 3.014613
2705.993, 2.788292
2707.921, 2.433896
2709.850, 2.596154
2711.778, 2.397544
2713.707, 2.387925
2715.635, 2.901429
2717.564, 2.885423
2719.492, 2.611710
2721.421, 2.499899
2723.349, 2.643239
2725.278, 2.838194
2727.206, 2.967921
2729.135, 2.919747
2731.063, 2.828048
2732.991, 2.678050
2734.920, 2.237926
2736.848, 2.326322
2738.777, 2.618264
2740.705, 2.435732
2742.634, 2.439069
2744.562, 2.603449
2746.491, 2.317329
2748.419, 2.264839
2750.348, 2.503565
2752.276, 2.757641
2754.205, 2.350711
2756.133, 2.138294
2758.062, 2.346573
2759.990, 2.378110
2761.918, 2.243831
2763.847, 2.274286
2765.775, 2.666769
2767.704, 2.554741
2769.632, 2.228095
2771.561, 2.099645
2773.489, 2.486213
2775.418, 2.788490
2777.346, 2.414956
2779.275, 2.173386
2781.203, 2.179626
2783.132, 2.317104
2785.060, 2.396823
2786.989, 2.446250
2788.917, 2.185437
2790.845, 2.010027
2792.774, 2.157671
2794.702, 2.316420
2796.631, 2.122652
2798.559, 2.211425
2800.488, 2.150986
2802.416, 1.852977
2804.345, 1.929058
2806.273, 2.033272
2808.202, 2.053437
2810.130, 1.875215
2812.059, 1.920608
2813.987, 2.370158
2815.916, 2.457682
2817.844, 2.376641
2819.772, 2.282248
2821.701, 2.082365
2823.629, 2.169483
2825.558, 2.244165
2827.486, 2.083458
2829.415, 1.923599
2831.343, 1.813452
2833.272, 2.111583
2835.200, 2.314972
2837.129, 2.163659
2839.057, 2.051054
2840.986, 1.708477
2842.914, 1.922261
2844.843, 2.384716
2846.771, 2.260006
2848.699, 2.077358
2850.628, 2.047449
2852.556, 2.219665
2854.485, 2.022484
2856.413, 1.627281
2858.342, 1.521865
2860.270, 1.901812
2862.199, 2.019565
2864.127, 2.031789
2866.056, 2.107071
2867.984, 1.864046
2869.913, 1.752603
2871.841, 1.585397
2873.770, 1.713082
2875.698, 1.781158
2877.626, 1.757277
2879.555, 1.934367
2881.483, 1.872096
2883.412, 1.759137
2885.340, 1.673504
2887.269, 1.696677
2889.197, 1.731303
2891.126, 1.646842
2893.054, 1.695593
2894.983, 1.850771
2896.911, 1.958922
2898.840, 1.998017
2900.768, 2.180619
2902.697, 1.951759
2904.625, 1.460700
2906.553, 1.580964
2908.482, 1.740346
2910.410, 1.810373
2912.339, 1.465379
2914.267, 1.697575
2916.196, 2.086656
2918.124, 1.667418
2920.053, 1.650390
2921.981, 1.688921
2923.910, 1.672242
2925.838, 2.156032
2927.767, 2.204476
2929.695, 1.750891
2931.624, 1.567012
2933.552, 1.772721
2935.480, 1.838373
2937.409, 1.791716
2939.337, 1.877601
2941.266, 2.009592
2943.194, 2.167818
2945.123, 1.812225
2947.051, 2.069813
2948.980, 2.226663
2950.908, 1.895487
2952.837, 2.008075
2954.765, 1.878600
2956.694, 1.686537
2958.622, 1.814616
2960.551, 1.831359
2962.479, 1.792168
2964.407, 1.549957
2966.336, 1.945629
2968.264, 1.840986
2970.193, 1.386399
2972.121, 1.651886
2974.050, 1.554506
2975.978, 1.435938
2977.907, 1.701250
2979.835, 1.240590
2981.764, 1.006575
2983.692, 1.317048
2985.621, 1.528658
2987.549, 1.667490
2989.478, 1.833854
2991.406, 1.887281
2993.334, 1.648090
2995.263, 1.634590
2997.191, 1.739939
2999.120, 1.283590
3001.048, 1.277303
3002.977, 1.332208
3004.905, 1.358923
3006.834, 1.601726
3008.762, 1.412651
3010.691, 1.172180
3012.619, 1.476753
3014.548, 1.669871
3016.476, 1.541881
3018.405, 1.276378
3020.333, 1.504584
3022.261, 1.357674
3024.190, 1.115818
3026.118, 1.433639
3028.047, 1.144866
3029.975, 0.8333673
3031.904, 0.8872075
3033.832, 0.8297101
3035.761, 0.9154457
3037.689, 1.398275
3039.618, 1.669039
3041.546, 1.008125
3043.475, 0.8812836
3045.403, 1.271634
3047.332, 1.360790
3049.260, 0.9757737
3051.188, 1.160208
3053.117, 1.375340
3055.045, 0.9078253
3056.974, 1.244434
3058.902, 1.369210
3060.831, 0.7463613
3062.759, 0.6805023
3064.688, 0.7360134
3066.616, 0.9427382
3068.545, 1.370434
3070.473, 1.202395
3072.402, 1.226149
3074.330, 1.252710
3076.259, 0.8648776
3078.187, 1.123486
3080.115, 1.543823
3082.044, 1.875059
3083.972, 1.329868
3085.901, 0.9462857
3087.829, 0.8053986
3089.758, 1.114520
3091.686, 1.356267
3093.615, 1.275691
3095.543, 1.064510
3097.472, 0.9380145
3099.400, 1.154618
3101.329, 1.336968
3103.257, 1.367517
3105.186, 1.031668
3107.114, 1.045365
3109.042, 1.074747
3110.971, 0.8741176
3112.899, 0.9608026
3114.828, 1.151254
3116.756, 1.165205
3118.685, 0.9115337
3120.613, 1.362337
3122.542, 0.8905703
3124.470, 0.4758296
3126.399, 0.9877762
3128.327, 1.029320
3130.256, 1.009220
3132.184, 1.031676
3134.113, 1.029030
3136.041, 1.057939
3137.969, 0.9938137
3139.898, 1.048173
3141.826, 1.038419
3143.755, 0.9323246
3145.683, 0.8343310
3147.612, 0.8730278
3149.540, 0.8046418
3151.469, 0.9611538
3153.397, 1.146978
3155.326, 0.9499893
3157.254, 0.7055854
3159.183, 0.7757013
3161.111, 0.7834336
3163.040, 0.5758467
3164.968, 0.6882018
3166.896, 0.9082831
3168.825, 1.026980
3170.753, 1.115276
3172.682, 0.7867721
3174.610, 1.075028
3176.539, 1.102062
3178.467, 0.6603255
3180.396, 1.051213
3182.324, 0.8072240
3184.253, 0.8928427
3186.181, 1.361570
3188.110, 0.8857978
3190.038, 0.5619017
3191.967, 0.5995607
3193.895, 0.8094986
3195.823, 0.6802523
3197.752, 0.5553393
3199.680, 0.6513370
3201.609, 0.8246776
3203.537, 0.7517464
3205.466, 0.8779474
3207.394, 0.8033484
3209.323, 0.6578719
3211.251, 1.039673
3213.180, 0.7027038
3215.108, 0.7109274
3217.037, 1.156782
3218.965, 0.5343488
3220.894, 0.6170334
3222.822, 0.5261782
3224.750, 0.1579188
3226.679, 1.148299
3228.607, 1.089558
3230.536, 0.6427829
3232.464, 0.5088761
3234.393, 0.7116462
3236.321, 0.4708834
3238.250, 0.5969394
3240.178, 0.8770393
3242.107, 0.4403480
3244.035, 0.7877778
3245.964, 1.026420
3247.892, 0.9437636
3249.821, 0.4421867
3251.749, 0.7359081
3253.677, 0.6840221
3255.606, 0.5927797
3257.534, 1.289100
3259.463, 1.019925
3261.391, 0.9181277
3263.320, 0.7992874
3265.248, 0.4494810
3267.177, 0.9079531
3269.105, 0.9249727
3271.034, 0.7498907
3272.962, 0.5307094
3274.891, 0.5346898
3276.819, 0.8511342
3278.748, 0.9585208
3280.676, 0.8511044
3282.604, 1.193399
3284.533, 0.8748429
3286.461, 0.6011390
3288.390, 0.7513346
3290.318, 0.8174500
3292.247, 0.4580397
3294.175, 0.5798039
3296.104, 0.9265760
3298.032, 1.013869
3299.961, 1.134322
3301.889, 0.9433777
3303.818, 0.6674019
3305.746, 0.5393550
3307.675, 0.8943810
3309.603, 0.6577539
3311.531, 0.4847583
3313.460, 0.6920113
3315.388, 1.057593
3317.317, 1.602009
3319.245, 1.520702
3321.174, 0.9746065
3323.102, 0.4950128
3325.031, 1.292356
3326.959, 0.9578348
3328.888, 0.3653551
3330.816, 0.3517123
3332.745, 0.9927966
3334.673, 0.9649401
3336.602, 1.099675
3338.530, 1.454645
3340.458, 1.590173
3342.387, 1.107785
3344.315, 1.186158
3346.244, 1.212305
3348.172, 0.7558082
3350.101, 0.8254204
3352.029, 0.9606553
3353.958, 0.8685109
3355.886, 0.8455614
3357.815, 1.591367
3359.743, 1.142468
3361.672, 0.7484223
3363.600, 0.5902164
3365.529, 0.5014125
3367.457, 0.9048805
3369.385, 0.7028075
3371.314, 0.5144610
3373.242, 0.5785912
3375.171, 0.8385865
3377.099, 0.3876444
3379.028, 0.7613380
3380.956, 1.087330
3382.885, 0.5563178
3384.813, 0.7934896
3386.742, 1.022609
3388.670, 0.8450532
3390.599, 0.5046111
3392.527, 0.8432224
3394.456, 1.461561
3396.384, 0.8413597
3398.313, 0.3738114
3400.241, 0.8796169
3402.169, 0.6402138
3404.098, 1.152587
3406.026, 1.088164
3407.955, 0.7855822
3409.883, 1.263049
3411.812, 0.5485941
3413.740, 0.8592668
3415.669, 1.142740
3417.597, 0.9525426
3419.526, 0.9341871
3421.454, 0.9846322
3423.383, 1.059061
3425.311, 0.9062594
3427.240, 0.5819188
3429.168, 0.8710066
3431.096, 1.136945
3433.025, 0.9320230
3434.953, 0.6791168
3436.882, 0.9039207
3438.810, 0.8285818
3440.739, 0.8945503
3442.667, 0.7673995
3444.596, 0.4648526
3446.524, 0.3475603
3448.453, 0.5750894
3450.381, 0.9154934
3452.310, 0.8310668
3454.238, 0.4768251
3456.167, 0.8840226
3458.095, 1.088424
3460.023, -0.2746517
3461.952, -0.6819879
3463.880, 0.7308125
3465.809, 0.2955153
3467.737, 0.5347673
3469.666, 0.4799765
3471.594, 0.3725437
3473.523, 0.6239378
3475.451, 1.106501
3477.380, 0.3790683
3479.308, -0.1620994
3481.237, -9.0405039E-02
3483.165, 0.3441397
3485.094, 0.4049644
3487.022, 1.083473
3488.950, 0.9202695
3490.879, 0.4989866
3492.807, 0.8085467
3494.736, 1.225750
3496.664, 0.4366058
3498.593, 0.2530765
3500.521, 0.5353280
3502.450, 0.5455328
3504.378, 0.9596876
3506.307, 0.8638157
3508.235, 0.7086116
3510.164, 0.6322563
3512.092, 0.5387476
3514.021, 0.1805375
3515.949, 0.1807949
3517.877, 0.2378046
3519.806, 0.3163053
3521.734, 0.4558434
3523.663, 0.4647288
3525.591, 0.9061106
3527.520, 0.9824309
3529.448, 0.6555296
3531.377, 0.2528503
3533.305, 0.2834426
3535.234, 0.7307397
3537.162, 0.7085744
3539.091, 0.7646515
3541.019, 1.064069
3542.948, 0.7888881
3544.876, 0.8666198
3546.804, 0.3607321
3548.733, 0.3454210
3550.661, 0.7884170
3552.590, 0.5563787
3554.518, 0.9779849
3556.447, 1.317051
3558.375, 0.8705729
3560.304, 0.2631631
3562.232, 0.4721158
3564.161, 0.8886331
3566.089, 0.9535707
3568.018, 0.9242164
3569.946, 0.8446794
3571.875, 0.7138154
3573.803, 0.7267065
3575.731, 0.6063195
3577.660, 0.4992772
3579.588, 0.3379628
3581.517, 0.2588569
3583.445, 0.6170301
3585.374, 0.6510043
3587.302, 0.7626200
3589.231, 0.6487727
3591.159, 0.6020644
3593.088, 0.9926394
3595.016, 1.001373
3596.945, 1.271400
3598.873, 0.9246999
3600.802, 0.5187286
3602.730, 0.5489733
3604.658, 0.7996831
3606.587, 0.7471588
3608.515, 0.9247562
3610.444, 1.080790
3612.372, 0.9835688
3614.301, 0.6544051
3616.229, 0.5804971
3618.158, 0.4246431
3620.086, 0.9393638
3622.015, 1.346841
3623.943, 1.007440
3625.872, 0.1506052
3627.800, 0.9247227
3629.729, 0.5122862
3631.657, 0.5551857
3633.585, 0.8276848
3635.514, 0.6231228
3637.442, 0.6617400
3639.371, 0.7627357
3641.299, 0.5196570
3643.228, 0.3698774
3645.156, 0.2888142
3647.085, 5.6371871E-02
3649.013, 0.4835373
3650.942, 0.7307836
3652.870, 0.6947290
3654.799, 0.7404260
3656.727, 0.9207671
3658.656, 0.9304759
3660.584, 0.7553982
3662.512, 0.4758546
3664.441, 0.2757524
3666.369, 0.6242892
3668.298, 1.200379
3670.226, 0.9089727
3672.155, 0.7352577
3674.083, 0.5714816
3676.012, 0.3825062
3677.940, 0.4946244
3679.869, 0.7147553
3681.797, 0.3522460
3683.726, 1.017864
3685.654, 0.4125392
3687.583, 7.4989952E-02
3689.511, 0.4074937
3691.439, 0.7731686
3693.368, 0.4514307
3695.296, 0.3134024
3697.225, 0.2068872
3699.153, 0.6312782
3701.082, 0.9596028
3703.010, 0.7130213
3704.939, 0.2518966
3706.867, 0.7388140
3708.796, 0.2010070
3710.724, 0.2460696
3712.653, 0.6186984
3714.581, 0.6041082
3716.510, 9.1382317E-02
3718.438, 0.4733891
3720.366, -8.7000087E-02
3722.295, 0.1424459
3724.223, 0.1395845
3726.152, -0.2519787
3728.080, -5.8193889E-02
3730.009, 0.7640880
3731.937, 0.4570016
3733.866, 0.2822831
3735.794, 0.1625471
3737.723, 0.1779947
3739.651, 0.4006553
3741.580, 0.4438651
3743.508, 0.7992011
3745.437, 0.8848031
3747.365, 0.8850592
3749.293, 0.8860894
3751.222, 0.7629246
3753.150, 0.4239732
3755.079, 0.3434457
3757.007, 0.3947678
3758.936, 0.2676695
3760.864, 0.2907493
3762.793, 0.4978596
3764.721, 0.6024489
3766.650, 0.2445279
3768.578, 0.5223888
3770.507, 0.3798231
3772.435, 0.3444673
3774.364, 0.2837352
3776.292, 9.6108027E-02
3778.220, 6.0076412E-02
3780.149, 0.5739005
3782.077, 0.2909330
3784.006, 0.2411161
3785.934, 0.1426290
3787.863, 0.3140039
3789.791, 0.5652181
3791.720, -8.6272813E-02
3793.648, 0.1458649
3795.577, 0.7726961
3797.505, 0.3853809
3799.434, 0.3481075
3801.362, 0.5245990
3803.291, 0.3186648
3805.219, 0.3518958
3807.147, 0.9582192
3809.076, 0.7497035
3811.004, 0.7640931
3812.933, 0.3016035
3814.861, 0.1669202
3816.790, 0.7466670
3818.718, 0.4479623
3820.647, 0.3569941
3822.575, 0.4323526
3824.504, 0.1045997
3826.432, 0.2755546
3828.361, 0.3191104
3830.289, -0.1564389
3832.218, -2.0824470E-02
3834.146, 0.3024640
3836.074, -0.4087424
3838.003, 0.1958425
3839.931, 0.4886326
3841.860, 0.5068617
3843.788, 0.5438702
3845.717, -1.7052140E-02
3847.645, 0.2435091
3849.574, 0.3358482
3851.502, 0.4157122
3853.431, 0.3533350
3855.359, 0.3760862
3857.288, 0.3838102
3859.216, 0.2169983
3861.145, 0.4350563
3863.073, 0.3689016
3865.001, 0.7632176
3866.930, 0.3237712
3868.858, 0.2354013
3870.787, 0.6762969
3872.715, 0.8300074
3874.644, 0.3731207
3876.572, -2.5954811E-02
3878.501, -5.6851371E-03
3880.429, 0.4102297
3882.358, 9.1836311E-02
3884.286, -0.1680396
3886.215, 8.8450469E-02
3888.143, 0.4645456
3890.072, 0.6343356
3892.000, 0.6603596
3893.928, -0.2004163
3895.857, 1.5377370E-03
3897.785, 1.9637629E-02
3899.714, 0.4376345
3901.642, 0.8561990
3903.571, 0.4253501
3905.499, 0.4144065
3907.428, 0.5810042
3909.356, 0.4988249
3911.285, 0.6444077
3913.213, 0.2642146
3915.142, -4.5538191E-02
3917.070, -5.8088959E-03
3918.999, 7.3034652E-02
3920.927, 0.3515516
3922.855, 0.8782358
3924.784, 0.3433816
3926.712, 0.2185599
3928.641, 0.2701571
3930.569, 0.6505663
3932.498, 0.5875788
3934.426, -3.0816101E-02
3936.355, 0.1227831
3938.283, 0.1806543
3940.212, 0.3292019
3942.140, 6.8706267E-02
3944.069, 0.4646663
3945.997, 0.7170126
3947.926, 0.5841783
3949.854, 0.3261187
3951.782, 0.2185464
3953.711, 0.7896963
3955.639, 0.5809183
3957.568, 0.8212423
3959.496, 0.2969317
3961.425, 0.3660735
3963.353, 0.2944091
3965.282, 0.2335028
3967.210, 0.3704683
3969.139, 0.2650485
3971.067, 0.6616918
3972.996, 0.4317280
3974.924, 0.5449880
3976.853, 0.3585471
3978.781, 0.4773331
3980.709, 0.5468766
3982.638, 0.6151773
3984.566, 0.3891824
3986.495, 9.6465759E-03
3988.423, 0.2035460
3990.352, 0.2566198
3992.280, 0.2703276
3994.209, -0.5422730
3996.137, 0.4454080
3998.066, 7.1917549E-02
3999.994, 1.7644539E-02
4001.923, 0.3984191
4003.851, 0.5114768
4005.780, 0.3496746
4007.708, 0.3516080
4009.636, 0.6373002
4011.565, 0.6723593
4013.493, 0.1763125
4015.422, -0.1910559
4017.350, 0.5986148
4019.279, 0.6845657
4021.207, 0.5929900
4023.136, 0.5165505
4025.064, -5.9723120E-02
4026.993, -0.7030253
4028.921, 4.0551829E-03
4030.850, 0.2217034
4032.778, 0.4518195
4034.707, 0.1799921
4036.635, 1.7511790E-03
4038.563, 0.1081419
4040.492, 0.2393248
4042.420, -0.1466382
4044.349, -0.3894057
4046.277, 0.4548442
4048.206, 0.2076985
4050.134, 0.3747832
4052.063, 0.2663126
4053.991, 0.5347810
4055.920, -0.4005540
4057.848, -0.1208125
4059.777, 0.1769334
4061.705, 4.4478510E-02
4063.634, 9.4597898E-02
4065.562, 9.8271988E-02
4067.490, 0.4438891
4069.419, 0.3903285
4071.347, 0.5720397
4073.276, -0.1275951
4075.204, 9.7575583E-02
4077.133, 0.1507967
4079.061, 0.4640447
4080.990, 0.8841059
4082.918, 0.7762424
4084.847, 0.4310940
4086.775, 0.4538336
4088.704, -0.3021796
4090.632, 0.3171556
4092.561, 0.3640312
4094.489, 8.9211836E-02
4096.417, 0.4026650
4098.346, 3.0478271E-02
4100.274, 0.3509081
4102.203, 7.0796423E-02
4104.131, -0.4731565
4106.060, 9.3773827E-02
4107.988, 0.5739352
4109.917, 0.6019450
4111.845, 0.9126289
4113.774, 0.7078324
4115.702, -6.7018799E-02
4117.631, 7.0838593E-02
4119.559, 0.2659911
4121.488, 0.3948115
4123.416, 0.5075735
4125.345, 0.4819862
4127.273, 0.4148983
4129.202, 0.3585389
4131.130, 0.1619441
4133.059, 6.0497921E-02
4134.987, -0.7806638
4136.916, 0.1312974
4138.844, 2.6833560E-02
4140.772, 0.1479495
4142.701, 0.6254755
4144.629, -1.0284380E-02
4146.558, 0.5681979
4148.486, 1.174960
4150.415, 0.3725035
4152.343, 0.1425621
4154.271, 1.212896
4156.200, 0.8757502
4158.128, 0.5230004
4160.057, -0.5353087
4161.985, -3.4270208E-02
4163.914, 0.7223101
4165.842, 0.3949058
4167.771, 1.9198831E-04
4169.699, 7.4915737E-02
4171.628, 3.2519631E-02
4173.556, -5.3026989E-02
4175.485, -0.1425340
4177.413, -0.1332078
4179.342, 0.1762840
4181.270, 0.3283981
4183.199, -4.5969812E-03
4185.127, -0.6353463
4187.056, -0.2914016
4188.984, 0.3762298
4190.913, -0.2958570
4192.841, 0.1630299
4194.770, -0.3166015
4196.698, 0.3556249
4198.626, 0.3397641
4200.555, 0.2440393
4202.483, 0.5840564
4204.412, 0.2724773
4206.340, -0.4573486
4208.269, -0.3727189
4210.197, 0.1749909
4212.125, 7.7251457E-02
4214.054, -4.2151909E-02
4215.982, -0.4259702
4217.911, 0.3405967
4219.839, 0.4530777
4221.768, 0.2138366
4223.696, -0.3975455
4225.625, 1.2950720E-02
4227.553, 0.5119394
4229.482, 0.2102160
4231.410, 0.4811694
4233.339, 0.6545436
4235.267, 0.3077216
4237.196, 0.2812000
4239.124, 0.1523485
4241.053, 0.3539939
4242.981, 0.6718791
4244.910, 0.9694604
4246.838, 9.6771820E-03
4248.767, 7.1608633E-02
4250.695, 0.6586272
4252.624, 0.1742496
4254.552, -0.3199507
4256.480, 8.7907083E-02
4258.409, 0.3487873
4260.337, -0.2548089
4262.266, 0.5380840
4264.194, 0.3658888
4266.123, -9.2741251E-02
4268.051, -0.1235177
4269.979, -3.5582021E-02
4271.908, 0.4428028
4273.836, 9.8350763E-02
4275.765, -8.9044280E-02
4277.693, 0.7158686
4279.622, 0.2482415
4281.550, -0.5062193
4283.479, 0.6687356
4285.407, 0.5048807
4287.336, -0.2393639
4289.264, -0.2382782
4291.193, -0.2181859
4293.121, 0.3843852
4295.050, 4.3594051E-02
4296.978, 0.3638779
4298.907, -0.2759091
4300.835, -0.3102354
4302.764, -1.2124760E-02
4304.692, -0.4106440
4306.621, -7.3870383E-02
4308.549, 0.4594699
4310.478, 0.2490759
4312.406, 0.2095999
4314.334, 0.3438680
4316.263, 0.4272126
4318.191, 4.0050860E-02
4320.120, -0.1153314
4322.048, 0.2724430
4323.977, 0.2224103
4325.905, -0.2702568
4327.833, 0.3277835
4329.762, -0.3058787
4331.690, 0.1159392
4333.619, 0.4471157
4335.547, -0.2171540
4337.476, 0.3346085
4339.404, 0.3014208
4341.333, 0.5634837
##END=



