##NAMES=Raguinite
##RRUFFID=R130617
##IDEAL CHEMISTRY=TlFeS_2_
##LOCALITY=Allchar, Roszdan, Republic of Macedonia
##OWNER=RRUFF
##SOURCE=Mark N. Feinglos
##DESCRIPTION=Black granular crystals, associated with dolomite, realgar, and lorandite.
##STATUS=The identification of this mineral has been confirmed only by single crystal X-ray diffraction
##URL=https://www.rruff.net/odr/rruff_sample/R130617
##DIFFRACTION SAMPLE DESCRIPTION=Single crystal, powder profile is calculated
##CELL PARAMETERS=a: 11.613 b: 5.303 c: 6.855 alpha: 90 beta: 116.964 gamma: 90 volume: 376.21 crystal system: monoclinic
##FILETYPE=Raman Processed
##RAMAN WAVELENGTH=532

95.17188, 97.10371
97.10034, 98.37227
99.02881, 101.3682
100.9573, 109.5004
102.8857, 118.3035
104.8142, 126.4486
106.7427, 134.0469
108.6711, 141.7370
110.5996, 150.1806
112.5281, 159.2437
114.4565, 166.9213
116.3850, 173.3283
118.3135, 178.7902
120.2419, 183.2161
122.1704, 186.4923
124.0989, 189.6861
126.0273, 192.8545
127.9558, 195.9067
129.8843, 199.1706
131.8127, 202.1525
133.7412, 205.3770
135.6697, 209.2036
137.5981, 214.2839
139.5266, 219.0250
141.4551, 222.6289
143.3835, 224.8752
145.3120, 227.6991
147.2405, 232.1711
149.1689, 237.3055
151.0974, 241.6147
153.0259, 244.1295
154.9543, 246.5764
156.8828, 249.4692
158.8113, 252.7337
160.7397, 256.5502
162.6682, 261.0373
164.5967, 266.0498
166.5251, 271.2494
168.4536, 276.9498
170.3821, 282.4331
172.3105, 287.2643
174.2390, 290.9397
176.1675, 294.9926
178.0959, 300.1345
180.0244, 306.0838
181.9529, 311.1934
183.8813, 315.4315
185.8098, 318.7828
187.7383, 321.3050
189.6667, 322.1715
191.5952, 323.1002
193.5237, 324.2704
195.4521, 325.6806
197.3806, 327.1812
199.3091, 328.2465
201.2375, 329.6924
203.1660, 332.2018
205.0945, 334.8018
207.0229, 339.6759
208.9514, 348.0685
210.8799, 359.6854
212.8083, 372.1058
214.7368, 388.3386
216.6653, 403.8746
218.5938, 413.1707
220.5222, 414.4982
222.4507, 413.9362
224.3792, 414.1872
226.3076, 416.3906
228.2361, 414.6162
230.1646, 407.7377
232.0930, 397.4886
234.0215, 385.8931
235.9500, 370.9288
237.8784, 357.8197
239.8069, 348.3198
241.7354, 343.5190
243.6638, 339.2547
245.5923, 335.6160
247.5208, 332.5380
249.4492, 329.8605
251.3777, 327.3191
253.3062, 325.5669
255.2346, 324.7484
257.1631, 324.9114
259.0916, 326.1305
261.0200, 328.5245
262.9485, 332.0484
264.8770, 336.8286
266.8054, 344.2223
268.7339, 351.6089
270.6624, 357.8956
272.5908, 363.2064
274.5193, 369.7345
276.4478, 379.6462
278.3762, 390.3716
280.3047, 398.7878
282.2332, 405.8312
284.1616, 409.8129
286.0901, 409.5067
288.0186, 405.3588
289.9470, 399.4130
291.8755, 390.6987
293.8040, 380.9620
295.7324, 372.0146
297.6609, 363.7044
299.5894, 356.2103
301.5178, 349.5834
303.4463, 343.7302
305.3748, 338.7737
307.3032, 334.4749
309.2317, 331.0521
311.1602, 328.7574
313.0886, 327.5927
315.0171, 327.2950
316.9456, 327.7784
318.8740, 329.0315
320.8025, 330.8555
322.7310, 333.4364
324.6594, 336.3690
326.5879, 339.4505
328.5164, 342.7726
330.4448, 345.8544
332.3733, 348.8536
334.3018, 351.6068
336.2302, 353.4755
338.1587, 355.0484
340.0872, 355.2891
342.0156, 353.7978
343.9441, 350.2849
345.8726, 346.0880
347.8010, 340.6017
349.7295, 334.7009
351.6580, 330.2989
353.5864, 327.8625
355.5149, 326.1469
357.4434, 324.7876
359.3718, 324.1538
361.3003, 322.4590
363.2288, 318.9323
365.1572, 314.6547
367.0857, 310.8730
369.0142, 307.5668
370.9426, 304.8458
372.8711, 302.6428
374.7996, 301.0033
376.7280, 300.0010
378.6565, 299.8792
380.5850, 300.2216
382.5134, 300.6254
384.4419, 300.8612
386.3704, 301.8778
388.2988, 304.2127
390.2273, 307.5473
392.1558, 310.4541
394.0842, 313.7241
396.0127, 315.7782
397.9412, 315.9389
399.8696, 314.0401
401.7981, 311.0035
403.7266, 306.5282
405.6550, 301.1672
407.5835, 295.7017
409.5120, 289.8935
411.4404, 284.3921
413.3689, 279.4686
415.2974, 275.1718
417.2258, 270.9429
419.1543, 266.5501
421.0828, 262.4167
423.0112, 258.8575
424.9397, 255.8132
426.8682, 253.3705
428.7966, 251.7525
430.7251, 250.7519
432.6536, 249.8436
434.5820, 248.6579
436.5105, 247.8755
438.4390, 247.9135
440.3674, 248.6815
442.2959, 249.5814
444.2244, 250.7608
446.1528, 251.8641
448.0813, 252.5059
450.0098, 252.4153
451.9382, 252.2217
453.8667, 252.1140
455.7952, 251.9897
457.7236, 251.5441
459.6521, 250.2727
461.5806, 249.1403
463.5090, 248.6263
465.4375, 248.9435
467.3660, 249.2367
469.2944, 249.1366
471.2229, 249.1470
473.1514, 249.7913
475.0798, 251.6142
477.0083, 253.2494
478.9368, 254.3584
480.8652, 254.9202
482.7937, 255.3710
484.7222, 255.7933
486.6506, 255.9587
488.5791, 255.8215
490.5076, 255.3804
492.4360, 254.7835
494.3645, 254.2520
496.2930, 253.5927
498.2214, 252.4978
500.1499, 250.7777
502.0784, 249.1464
504.0068, 247.6841
505.9353, 246.3742
507.8638, 245.4171
509.7922, 244.9573
511.7207, 244.6021
513.6492, 244.2323
515.5776, 243.8658
517.5061, 243.3914
519.4346, 242.5879
521.3630, 241.8246
523.2915, 241.4614
525.2200, 241.9259
527.1484, 242.2572
529.0769, 242.0119
531.0054, 241.5825
532.9338, 241.8142
534.8623, 243.4703
536.7908, 244.9080
538.7192, 245.3474
540.6477, 244.5378
542.5762, 244.3656
544.5046, 245.3880
546.4331, 246.6670
548.3616, 247.6054
550.2900, 248.1299
552.2185, 248.6407
554.1470, 248.9816
556.0754, 249.4142
558.0039, 250.5163
559.9324, 252.6909
561.8608, 254.7216
563.7893, 256.1190
565.7178, 257.0075
567.6462, 257.8595
569.5747, 258.4891
571.5032, 259.2146
573.4316, 260.0887
575.3601, 261.0957
577.2886, 262.5772
579.2170, 265.1633
581.1455, 267.9152
583.0740, 270.0545
585.0024, 271.1154
586.9309, 272.6174
588.8594, 275.0848
590.7878, 278.0478
592.7163, 280.5887
594.6448, 282.6516
596.5732, 284.3532
598.5017, 285.7929
600.4302, 286.9305
602.3586, 287.3353
604.2871, 286.6607
606.2156, 285.5553
608.1440, 284.0796
610.0725, 282.2559
612.0010, 280.7565
613.9294, 280.0786
615.8579, 279.5325
617.7864, 278.5668
619.7148, 276.5792
621.6433, 275.4251
623.5718, 275.5338
625.5002, 276.3736
627.4287, 277.1844
629.3572, 277.8954
631.2856, 278.6234
633.2141, 279.2216
635.1426, 279.7906
637.0710, 280.7737
638.9995, 282.8790
640.9280, 284.6571
642.8564, 285.5340
644.7849, 285.6782
646.7134, 285.9488
648.6418, 286.4232
650.5703, 287.0834
652.4988, 287.9651
654.4272, 289.1950
656.3557, 290.2133
658.2842, 290.7855
660.2126, 291.3189
662.1411, 292.2338
664.0696, 293.6093
665.9980, 294.7779
667.9265, 295.5139
669.8550, 296.0225
671.7834, 296.4968
673.7119, 296.7505
675.6404, 297.2015
677.5688, 297.9294
679.4973, 298.8400
681.4258, 299.7329
683.3542, 300.5574
685.2827, 301.3694
687.2112, 302.2665
689.1396, 303.1938
691.0681, 303.8198
692.9966, 303.5489
694.9250, 303.6543
696.8535, 304.9825
698.7820, 307.2456
700.7104, 308.8820
702.6389, 309.1443
704.5674, 309.4089
706.4958, 310.3696
708.4243, 312.2368
710.3528, 313.7740
712.2813, 314.6082
714.2097, 315.3741
716.1382, 316.5482
718.0667, 318.1301
719.9951, 319.6679
721.9236, 321.2157
723.8521, 322.6291
725.7805, 323.7625
727.7090, 324.1579
729.6375, 325.0835
731.5659, 326.9652
733.4944, 329.1893
735.4229, 331.0057
737.3513, 332.2571
739.2798, 333.7202
741.2083, 335.8496
743.1367, 338.2094
745.0652, 340.1870
746.9937, 340.9458
748.9221, 342.2627
750.8506, 344.7898
752.7791, 347.8599
754.7075, 350.1396
756.6360, 351.1794
758.5645, 352.4917
760.4929, 355.0092
762.4214, 358.2683
764.3499, 360.6949
766.2783, 361.1576
768.2068, 362.0692
770.1353, 364.2047
772.0637, 367.1820
773.9922, 369.7133
775.9207, 371.4474
777.8491, 373.1223
779.7776, 375.0447
781.7061, 377.1847
783.6345, 379.2080
785.5630, 381.3820
787.4915, 383.2808
789.4199, 384.7244
791.3484, 385.7757
793.2769, 386.7694
795.2053, 387.6823
797.1338, 388.5737
799.0623, 389.4900
800.9907, 390.4226
802.9192, 391.1982
804.8477, 391.5139
806.7761, 391.9919
808.7046, 393.0193
810.6331, 394.5862
812.5615, 395.9671
814.4900, 397.0678
816.4185, 398.0987
818.3469, 398.9926
820.2754, 399.7298
822.2039, 401.0101
824.1323, 403.4631
826.0608, 405.8045
827.9893, 407.4507
829.9177, 408.3221
831.8462, 409.0796
833.7747, 409.6744
835.7031, 410.2138
837.6316, 410.8430
839.5601, 411.5631
841.4885, 412.0314
843.4170, 412.2710
845.3455, 412.2174
847.2739, 411.7499
849.2024, 410.8280
851.1309, 409.9016
853.0593, 409.0853
854.9878, 408.0966
856.9163, 406.8229
858.8447, 405.2876
860.7732, 403.4839
862.7017, 401.1602
864.6301, 398.9037
866.5586, 397.0822
868.4871, 395.7169
870.4155, 393.9671
872.3440, 391.8663
874.2725, 389.4106
876.2009, 386.2952
878.1294, 382.7322
880.0579, 379.5259
881.9863, 376.7926
883.9148, 374.3174
885.8433, 372.1902
887.7717, 370.3210
889.7002, 367.9486
891.6287, 364.6434
893.5571, 361.3741
895.4856, 358.4277
897.4141, 355.7488
899.3425, 353.1321
901.2710, 350.5468
903.1995, 348.1670
905.1279, 346.1954
907.0564, 344.4760
908.9849, 342.5583
910.9133, 339.8051
912.8418, 337.5543
914.7703, 336.2345
916.6987, 335.4321
918.6272, 334.2751
920.5557, 332.5660
922.4841, 331.0616
924.4126, 330.1300
926.3411, 329.5171
928.2695, 328.9484
930.1980, 328.5522
932.1265, 327.9957
934.0549, 327.0845
935.9834, 326.1025
937.9119, 325.3776
939.8403, 324.9613
941.7688, 324.5475
943.6973, 323.7841
945.6257, 323.2151
947.5542, 323.3807
949.4827, 324.3659
951.4111, 324.9525
953.3396, 324.5299
955.2681, 323.9962
957.1965, 323.9977
959.1250, 324.7538
961.0535, 324.6161
962.9819, 322.4447
964.9104, 320.5361
966.8389, 320.2789
968.7673, 321.2883
970.6958, 321.9482
972.6243, 321.9695
974.5527, 321.8599
976.4812, 321.7886
978.4097, 321.7580
980.3381, 321.7631
982.2666, 321.8576
984.1951, 321.9667
986.1235, 321.9796
988.0520, 322.0409
989.9805, 322.4388
991.9089, 323.2187
993.8374, 324.1122
995.7659, 325.1882
997.6943, 326.2357
999.6228, 326.9826
1001.551, 327.2786
1003.480, 327.7523
1005.408, 328.4680
1007.337, 329.3858
1009.265, 330.6082
1011.194, 332.3021
1013.122, 333.5330
1015.051, 333.8208
1016.979, 334.1533
1018.907, 335.2159
1020.836, 336.8163
1022.764, 338.1128
1024.693, 338.6198
1026.621, 339.4858
1028.550, 341.3775
1030.478, 343.9068
1032.407, 345.8472
1034.335, 346.9857
1036.264, 347.6533
1038.192, 347.4853
1040.121, 346.9623
1042.049, 346.8788
1043.978, 347.3663
1045.906, 347.4696
1047.834, 346.8304
1049.763, 345.8846
1051.691, 344.9874
1053.620, 344.1888
1055.548, 343.2148
1057.477, 341.9005
1059.405, 340.6324
1061.334, 339.4919
1063.262, 338.5246
1065.191, 338.0242
1067.119, 338.3959
1069.048, 338.6192
1070.976, 338.0105
1072.905, 337.1343
1074.833, 337.0538
1076.761, 338.0744
1078.690, 338.6342
1080.618, 337.9615
1082.547, 336.8529
1084.475, 335.9366
1086.404, 335.3214
1088.332, 334.7082
1090.261, 333.9552
1092.189, 333.4312
1094.118, 333.5381
1096.046, 334.1753
1097.975, 334.3086
1099.903, 333.6715
1101.832, 332.9390
1103.760, 332.1747
1105.688, 331.5167
1107.617, 331.2607
1109.545, 331.5669
1111.474, 331.7972
1113.402, 331.6976
1115.331, 331.5656
1117.259, 331.6937
1119.188, 332.2048
1121.116, 332.3412
1123.045, 331.5966
1124.973, 330.9873
1126.902, 331.3447
1128.830, 332.2627
1130.759, 332.1635
1132.687, 330.4687
1134.615, 329.1844
1136.544, 329.2977
1138.472, 330.0886
1140.401, 330.7609
1142.329, 331.2475
1144.258, 331.8065
1146.186, 332.3643
1148.115, 333.0065
1150.043, 333.9439
1151.972, 335.1564
1153.900, 335.7153
1155.829, 334.8494
1157.757, 334.3430
1159.686, 334.9543
1161.614, 336.1523
1163.542, 337.0256
1165.471, 337.5263
1167.399, 338.0638
1169.328, 338.8076
1171.256, 339.5793
1173.185, 340.2115
1175.113, 340.6956
1177.042, 341.4440
1178.970, 342.7744
1180.899, 344.0304
1182.827, 344.7958
1184.756, 345.3508
1186.684, 346.4214
1188.613, 348.1911
1190.541, 349.8453
1192.469, 351.2866
1194.398, 352.5316
1196.326, 353.6275
1198.255, 354.6055
1200.183, 355.3759
1202.112, 355.6859
1204.040, 356.3872
1205.969, 357.9800
1207.897, 360.1751
1209.826, 362.4149
1211.754, 364.8781
1213.683, 366.8675
1215.611, 367.7963
1217.540, 368.6060
1219.468, 370.0956
1221.396, 372.2631
1223.325, 373.7235
1225.253, 373.3937
1227.182, 373.8570
1229.110, 376.6400
1231.039, 380.3758
1232.967, 382.8563
1234.896, 383.8629
1236.824, 385.6309
1238.753, 389.3361
1240.681, 393.1428
1242.610, 395.9212
1244.538, 397.8097
1246.467, 400.0016
1248.395, 402.5697
1250.323, 405.2797
1252.252, 408.1210
1254.180, 410.9786
1256.109, 413.7377
1258.037, 416.3646
1259.966, 418.8705
1261.894, 421.0367
1263.823, 423.3293
1265.751, 426.2134
1267.680, 429.3484
1269.608, 431.9012
1271.537, 433.7939
1273.465, 435.6415
1275.394, 437.4055
1277.322, 439.4320
1279.250, 442.2443
1281.179, 445.6844
1283.107, 448.1639
1285.036, 448.8315
1286.964, 449.7413
1288.893, 451.5385
1290.821, 453.6678
1292.750, 455.5812
1294.678, 457.3975
1296.607, 458.4779
1298.535, 458.3806
1300.464, 458.1811
1302.392, 458.6368
1304.321, 459.2784
1306.249, 458.7160
1308.177, 456.4797
1310.106, 454.9204
1312.034, 455.3829
1313.963, 455.7155
1315.891, 454.3408
1317.820, 451.7335
1319.748, 449.3935
1321.677, 447.5748
1323.605, 445.8047
1325.534, 443.9319
1327.462, 442.1360
1329.391, 440.5326
1331.319, 439.1023
1333.248, 437.7375
1335.176, 436.2565
1337.104, 434.8352
1339.033, 433.6117
1340.961, 432.2940
1342.890, 430.4514
1344.818, 427.8370
1346.747, 425.5508
1348.675, 423.7699
1350.604, 422.2745
1352.532, 421.5705
1354.461, 421.0594
1356.389, 419.2381
1358.318, 415.8332
1360.246, 413.3044
1362.175, 412.4102
1364.103, 412.0773
1366.031, 411.9270
1367.960, 411.7820
1369.888, 411.1805
1371.817, 409.8968
1373.745, 408.8409
1375.674, 408.4064
1377.602, 408.0905
1379.531, 407.5263
1381.459, 406.7985
1383.388, 406.5329
1385.316, 407.2131
1387.245, 407.4920
1389.173, 406.9892
1391.102, 406.2089
1393.030, 405.3868
1394.958, 404.5518
1396.887, 404.1219
1398.815, 404.2263
1400.744, 404.5608
1402.672, 405.4320
1404.601, 406.2588
1406.529, 406.4164
1408.458, 405.9547
1410.386, 405.5757
1412.315, 405.1885
1414.243, 405.0257
1416.172, 405.7036
1418.100, 406.2248
1420.029, 405.4071
1421.957, 403.5737
1423.885, 402.8016
1425.814, 403.7028
1427.742, 404.7805
1429.671, 405.8634
1431.599, 406.6602
1433.528, 406.7310
1435.456, 406.0649
1437.385, 405.6566
1439.313, 405.2885
1441.242, 405.5501
1443.170, 407.1546
1445.099, 408.9181
1447.027, 409.6029
1448.956, 409.1486
1450.884, 409.2755
1452.813, 410.6598
1454.741, 411.7127
1456.669, 411.9744
1458.598, 412.0074
1460.526, 412.3652
1462.455, 413.0147
1464.383, 413.2697
1466.312, 412.6947
1468.240, 412.4501
1470.169, 412.8819
1472.097, 413.6336
1474.026, 414.7680
1475.954, 416.1276
1477.883, 416.6165
1479.811, 415.8968
1481.740, 415.4835
1483.668, 415.5747
1485.596, 416.2738
1487.525, 418.1548
1489.453, 420.5697
1491.382, 421.5921
1493.310, 420.6605
1495.239, 420.1522
1497.167, 420.8059
1499.096, 421.7970
1501.024, 422.9531
1502.953, 424.1198
1504.881, 424.8278
1506.810, 425.0795
1508.738, 425.1852
1510.667, 424.9651
1512.595, 424.9272
1514.523, 425.3063
1516.452, 425.9346
1518.380, 426.5511
1520.309, 427.1431
1522.237, 427.6260
1524.166, 427.7635
1526.094, 428.0627
1528.023, 428.8506
1529.951, 429.7899
1531.880, 430.3959
1533.808, 430.6137
1535.737, 431.3093
1537.665, 433.0057
1539.594, 434.4523
1541.522, 435.0671
1543.450, 435.6522
1545.379, 436.7372
1547.307, 438.3033
1549.236, 440.5454
1551.164, 444.6258
1553.093, 446.9484
1555.021, 446.1524
1556.950, 444.5953
1558.878, 443.1934
1560.807, 442.1135
1562.735, 441.8076
1564.664, 442.3805
1566.592, 442.9929
1568.521, 443.3300
1570.449, 443.9133
1572.377, 445.1887
1574.306, 446.5933
1576.234, 447.5400
1578.163, 448.0296
1580.091, 447.7820
1582.020, 446.3246
1583.948, 445.4206
1585.877, 445.9620
1587.805, 447.0479
1589.734, 448.2207
1591.662, 449.4154
1593.591, 450.3642
1595.519, 450.9735
1597.448, 451.6540
1599.376, 452.4081
1601.304, 453.2588
1603.233, 454.3450
1605.161, 455.4356
1607.090, 456.1855
1609.018, 456.6289
1610.947, 457.2387
1612.875, 458.1721
1614.804, 459.0966
1616.732, 459.7313
1618.661, 460.4754
1620.589, 461.8411
1622.518, 463.5193
1624.446, 464.3649
1626.375, 464.1263
1628.303, 464.1107
1630.231, 464.4350
1632.160, 465.2414
1634.088, 467.1906
1636.017, 469.3117
1637.945, 470.1190
1639.874, 469.6371
1641.802, 469.7169
1643.731, 470.6893
1645.659, 471.5343
1647.588, 471.6627
1649.516, 471.8803
1651.445, 472.9111
1653.373, 474.3654
1655.302, 475.1449
1657.230, 475.1645
1659.158, 475.2905
1661.087, 475.3617
1663.015, 475.9650
1664.944, 477.7640
1666.872, 479.6626
1668.801, 480.5079
1670.729, 480.4853
1672.658, 481.1386
1674.586, 482.8590
1676.515, 484.1815
1678.443, 484.5297
1680.372, 485.0454
1682.300, 486.2332
1684.229, 487.7549
1686.157, 489.0885
1688.085, 490.1679
1690.014, 491.8789
1691.942, 494.9362
1693.871, 496.7841
1695.799, 495.4043
1697.728, 494.4658
1699.656, 496.5402
1701.585, 499.8130
1703.513, 501.1076
1705.442, 500.2485
1707.370, 499.6214
1709.299, 499.0094
1711.227, 499.3128
1713.156, 501.7339
1715.084, 504.0045
1717.012, 504.6169
1718.941, 504.2338
1720.869, 504.1450
1722.798, 504.2951
1724.726, 504.9934
1726.655, 506.6880
1728.583, 508.0895
1730.512, 508.7591
1732.440, 509.2671
1734.369, 510.1000
1736.297, 511.0025
1738.226, 511.1499
1740.154, 510.3299
1742.083, 510.5635
1744.011, 512.6572
1745.939, 514.3928
1747.868, 515.0255
1749.796, 515.3345
1751.725, 515.6536
1753.653, 516.0863
1755.582, 516.9156
1757.510, 518.2133
1759.439, 519.2787
1761.367, 520.1039
1763.296, 520.5380
1765.224, 519.7977
1767.153, 519.3368
1769.081, 520.1252
1771.010, 521.6136
1772.938, 522.9658
1774.866, 524.1977
1776.795, 524.8743
1778.723, 524.7234
1780.652, 524.9784
1782.580, 526.5487
1784.509, 527.9152
1786.437, 527.6821
1788.366, 527.0943
1790.294, 528.1171
1792.223, 530.4852
1794.151, 532.1502
1796.080, 532.8048
1798.008, 533.4660
1799.937, 534.3116
1801.865, 535.2579
1803.793, 536.4732
1805.722, 537.5952
1807.650, 538.3840
1809.579, 538.7859
1811.507, 538.3286
1813.436, 536.7769
1815.364, 536.3685
1817.293, 538.0823
1819.221, 539.8860
1821.150, 541.3229
1823.078, 542.3002
1825.007, 542.0998
1826.935, 541.5372
1828.864, 542.7864
1830.792, 545.8973
1832.720, 548.0482
1834.649, 548.2253
1836.577, 549.0742
1838.506, 552.2795
1840.434, 555.0368
1842.363, 555.3310
1844.291, 554.5916
1846.220, 554.9833
1848.148, 556.3945
1850.077, 556.9340
1852.005, 556.1881
1853.934, 555.7804
1855.862, 555.8191
1857.791, 556.2864
1859.719, 557.6219
1861.647, 559.0707
1863.576, 559.9080
1865.504, 560.4053
1867.433, 561.2007
1869.361, 562.2592
1871.290, 563.5218
1873.218, 565.0259
1875.147, 566.4052
1877.075, 567.4954
1879.004, 568.4786
1880.932, 569.4909
1882.861, 570.4681
1884.789, 571.3265
1886.718, 572.1505
1888.646, 573.2038
1890.574, 574.5789
1892.503, 575.7811
1894.431, 576.7370
1896.360, 577.4729
1898.288, 577.7636
1900.217, 578.0088
1902.145, 578.6200
1904.074, 579.1941
1906.002, 578.8982
1907.931, 579.6323
1909.859, 580.2989
1911.788, 580.4385
1913.716, 581.8797
1915.645, 582.2956
1917.573, 582.6625
1919.501, 583.2463
1921.430, 583.9177
1923.358, 584.4862
1925.287, 585.1183
1927.215, 586.2181
1929.144, 587.7022
1931.072, 588.7117
1933.001, 589.0527
1934.929, 589.7381
1936.858, 591.2349
1938.786, 592.5812
1940.715, 593.4705
1942.643, 594.2313
1944.572, 595.2203
1946.500, 596.0993
1948.428, 596.0143
1950.357, 595.1296
1952.285, 595.6435
1954.214, 598.2764
1956.142, 599.8350
1958.071, 599.2324
1959.999, 599.1064
1961.928, 600.5890
1963.856, 602.0046
1965.785, 602.5472
1967.713, 602.6357
1969.642, 602.6279
1971.570, 602.6639
1973.499, 603.1863
1975.427, 604.2618
1977.355, 605.1339
1979.284, 605.6135
1981.212, 606.1589
1983.141, 606.4354
1985.069, 607.2994
1986.998, 609.7252
1988.926, 612.2640
1990.855, 613.5262
1992.783, 613.8871
1994.712, 614.3375
1996.640, 614.9321
1998.569, 614.7744
2000.497, 613.3468
2002.426, 612.5969
2004.354, 612.9210
2006.282, 613.6036
2008.211, 614.7607
2010.139, 615.8838
2012.068, 616.5179
2013.996, 616.9785
2015.925, 617.6638
2017.853, 618.5611
2019.782, 619.7147
2021.710, 621.1846
2023.639, 622.2303
2025.567, 622.5695
2027.496, 623.3106
2029.424, 625.0295
2031.353, 626.4989
2033.281, 626.7012
2035.209, 626.8561
2037.138, 628.1268
2039.066, 629.8392
2040.995, 630.9183
2042.923, 631.4611
2044.852, 632.0622
2046.780, 632.7586
2048.709, 633.3801
2050.637, 633.6358
2052.566, 634.2493
2054.494, 635.8217
2056.423, 637.0639
2058.351, 637.3466
2060.280, 637.3303
2062.208, 637.4090
2064.136, 637.6642
2066.065, 638.2458
2067.993, 639.1175
2069.922, 640.0393
2071.850, 640.9874
2073.779, 641.6913
2075.707, 642.0080
2077.636, 642.1982
2079.564, 642.1552
2081.493, 642.2737
2083.421, 643.1223
2085.350, 643.8714
2087.278, 643.7073
2089.207, 643.3152
2091.135, 643.7031
2093.063, 644.7220
2094.992, 645.6813
2096.920, 646.5798
2098.849, 647.1324
2100.777, 646.9366
2102.706, 647.0955
2104.634, 647.9337
2106.563, 648.7275
2108.491, 649.1445
2110.420, 649.7678
2112.348, 651.2562
2114.277, 652.7994
2116.205, 653.4944
2118.134, 653.7043
2120.062, 653.9209
2121.990, 654.2338
2123.919, 655.4999
2125.847, 657.9385
2127.776, 659.4387
2129.704, 659.4781
2131.633, 659.1953
2133.561, 658.1819
2135.490, 657.6038
2137.418, 658.0223
2139.347, 658.7343
2141.275, 659.8157
2143.204, 660.6143
2145.132, 659.9777
2147.061, 658.6703
2148.989, 658.8217
2150.917, 660.2801
2152.846, 661.0895
2154.774, 661.0467
2156.703, 661.4161
2158.631, 662.2211
2160.560, 663.3821
2162.488, 665.1472
2164.417, 666.6454
2166.345, 667.8236
2168.274, 668.4337
2170.202, 668.2246
2172.131, 667.6893
2174.059, 667.1277
2175.988, 666.8016
2177.916, 667.3283
2179.844, 667.5038
2181.773, 668.2217
2183.701, 669.3242
2185.630, 670.2322
2187.558, 672.3505
2189.487, 673.9222
2191.415, 674.5325
2193.344, 674.6995
2195.272, 673.8809
2197.201, 673.6605
2199.129, 675.7981
2201.058, 677.7725
2202.986, 677.1020
2204.915, 675.5207
2206.843, 675.4671
2208.771, 676.4511
2210.700, 676.7454
2212.628, 676.3906
2214.557, 677.0892
2216.485, 678.8662
2218.414, 681.2220
2220.342, 684.5014
2222.271, 686.0195
2224.199, 684.1555
2226.128, 682.8364
2228.056, 683.9307
2229.985, 685.2160
2231.913, 686.0647
2233.842, 686.4821
2235.770, 686.0067
2237.698, 685.5395
2239.627, 686.3812
2241.555, 688.0001
2243.484, 689.0350
2245.412, 689.5355
2247.341, 690.3049
2249.269, 691.3365
2251.198, 692.2667
2253.126, 693.1090
2255.055, 693.8271
2256.983, 694.6144
2258.912, 694.8968
2260.840, 693.6638
2262.769, 693.2028
2264.697, 694.8923
2266.625, 696.6956
2268.554, 697.6229
2270.482, 698.0392
2272.411, 697.7906
2274.339, 697.5705
2276.268, 698.5823
2278.196, 700.3016
2280.125, 701.5742
2282.053, 702.4120
2283.982, 702.8573
2285.910, 702.9135
2287.839, 703.0630
2289.767, 703.2424
2291.696, 703.7934
2293.624, 704.7520
2295.552, 705.9667
2297.481, 707.7043
2299.409, 709.1290
2301.338, 709.9119
2303.266, 710.4633
2305.195, 710.7060
2307.123, 711.1298
2309.052, 712.2761
2310.980, 713.6168
2312.909, 714.6495
2314.837, 715.4297
2316.766, 715.2784
2318.694, 715.0851
2320.623, 718.2909
2322.551, 724.7865
2324.479, 732.0892
2326.408, 740.6198
2328.336, 741.9286
2330.265, 734.4378
2332.193, 728.5377
2334.122, 725.7200
2336.050, 724.0328
2337.979, 723.2969
2339.907, 723.0941
2341.836, 723.8405
2343.764, 724.4030
2345.693, 724.0095
2347.621, 723.7861
2349.550, 724.6276
2351.478, 725.6586
2353.406, 725.8440
2355.335, 726.0106
2357.263, 727.4679
2359.192, 729.3591
2361.120, 730.2959
2363.049, 730.3995
2364.977, 729.7809
2366.906, 730.5712
2368.834, 730.9160
2370.763, 731.0248
2372.691, 732.0995
2374.620, 731.9367
2376.548, 731.7836
2378.477, 731.7188
2380.405, 732.0596
2382.333, 732.9376
2384.262, 734.0722
2386.190, 735.5734
2388.119, 736.9490
2390.047, 737.7185
2391.976, 738.6749
2393.904, 740.5223
2395.833, 742.1545
2397.761, 742.5189
2399.690, 742.8098
2401.618, 744.0011
2403.547, 745.5848
2405.475, 747.2926
2407.404, 748.8230
2409.332, 749.6843
2411.260, 750.0216
2413.189, 749.8844
2415.117, 749.5919
2417.046, 750.9401
2418.974, 753.9562
2420.903, 756.2239
2422.831, 757.7403
2424.760, 759.6484
2426.688, 761.9769
2428.617, 764.3194
2430.545, 766.6091
2432.474, 768.5697
2434.402, 770.4670
2436.331, 771.4649
2438.259, 770.7126
2440.188, 770.6623
2442.116, 772.4805
2444.044, 773.9368
2445.973, 774.1463
2447.901, 774.1284
2449.830, 774.2872
2451.758, 774.2640
2453.687, 773.7002
2455.615, 772.7999
2457.544, 771.3563
2459.472, 769.9842
2461.401, 769.5516
2463.329, 769.5142
2465.258, 769.4529
2467.186, 769.2799
2469.115, 768.4901
2471.043, 767.6135
2472.971, 767.7863
2474.900, 768.7516
2476.828, 769.6624
2478.757, 770.4410
2480.685, 771.0996
2482.614, 771.5892
2484.542, 771.4957
2486.471, 770.8571
2488.399, 771.0967
2490.328, 772.4413
2492.256, 773.4654
2494.185, 773.7342
2496.113, 774.7687
2498.042, 775.0999
2499.970, 775.0126
2501.898, 776.2294
2503.827, 776.4117
2505.755, 776.2502
2507.684, 777.3260
2509.612, 777.6399
2511.541, 777.6369
2513.469, 777.3470
2515.398, 777.1927
2517.326, 776.9958
2519.255, 777.4355
2521.183, 779.0479
2523.112, 780.8272
2525.040, 782.7926
2526.969, 783.8933
2528.897, 782.7599
2530.825, 781.3683
2532.754, 780.9103
2534.682, 781.4431
2536.611, 784.1762
2538.539, 786.8419
2540.468, 785.9406
2542.396, 787.6710
2544.325, 785.4959
2546.253, 787.8304
2548.182, 788.1084
2550.110, 787.3750
2552.039, 787.5207
2553.967, 788.3812
2555.896, 789.6239
2557.824, 791.1554
2559.752, 792.6562
2561.681, 794.0439
2563.609, 795.2627
2565.538, 796.1516
2567.466, 795.7699
2569.395, 794.2774
2571.323, 793.5722
2573.252, 793.6960
2575.180, 794.7270
2577.109, 796.7036
2579.037, 798.0643
2580.966, 798.7364
2582.894, 798.9147
2584.823, 798.5048
2586.751, 798.4474
2588.679, 798.8772
2590.608, 799.4791
2592.536, 800.4034
2594.465, 800.9306
2596.393, 800.9355
2598.322, 801.2480
2600.250, 802.0018
2602.179, 802.8736
2604.107, 803.9250
2606.036, 804.7241
2607.964, 804.9445
2609.893, 805.5575
2611.821, 806.9075
2613.750, 807.8292
2615.678, 807.8685
2617.606, 808.3019
2619.535, 809.7742
2621.463, 810.9931
2623.392, 811.4251
2625.320, 811.8756
2627.249, 812.6415
2629.177, 813.0114
2631.106, 812.4441
2633.034, 812.4329
2634.963, 814.2014
2636.891, 815.4412
2638.820, 814.6182
2640.748, 814.4145
2642.677, 816.6288
2644.605, 818.0344
2646.533, 816.9442
2648.462, 816.0790
2650.390, 816.6882
2652.319, 817.4658
2654.247, 818.4063
2656.176, 818.6772
2658.104, 817.2695
2660.033, 816.3358
2661.961, 817.4030
2663.890, 818.1696
2665.818, 816.5594
2667.747, 815.7950
2669.675, 818.5333
2671.604, 820.9726
2673.532, 820.5789
2675.460, 819.9942
2677.389, 820.8793
2679.317, 821.5256
2681.246, 820.5535
2683.174, 819.9418
2685.103, 821.1786
2687.031, 822.6668
2688.960, 823.7457
2690.888, 824.5313
2692.817, 824.6108
2694.745, 825.1893
2696.674, 827.2026
2698.602, 829.4207
2700.531, 831.3745
2702.459, 832.7076
2704.387, 832.5881
2706.316, 832.3751
2708.244, 833.2695
2710.173, 833.6590
2712.101, 832.0261
2714.030, 830.8840
2715.958, 832.4156
2717.887, 834.0641
2719.815, 834.1155
2721.744, 834.2724
2723.672, 835.5906
2725.601, 836.7996
2727.529, 836.9554
2729.458, 837.1588
2731.386, 838.3920
2733.314, 839.2396
2735.243, 839.0560
2737.171, 838.2399
2739.100, 836.1522
2741.028, 834.9902
2742.957, 836.5870
2744.885, 838.1260
2746.814, 837.7360
2748.742, 838.0922
2750.671, 841.0800
2752.599, 843.8963
2754.528, 845.5971
2756.456, 847.0268
2758.385, 848.3434
2760.313, 849.4749
2762.241, 850.0587
2764.170, 850.7072
2766.098, 851.8568
2768.027, 852.3760
2769.955, 851.7508
2771.884, 851.1541
2773.812, 851.2979
2775.741, 851.1628
2777.669, 850.0713
2779.598, 849.9034
2781.526, 851.6168
2783.455, 852.3054
2785.383, 850.9160
2787.312, 850.0499
2789.240, 850.5849
2791.168, 850.8554
2793.097, 850.1747
2795.025, 850.5535
2796.954, 852.4153
2798.882, 853.8914
2800.811, 854.8699
2802.739, 854.9118
2804.668, 853.3548
2806.596, 852.8477
2808.525, 853.5390
2810.453, 854.3997
2812.382, 855.3529
2814.310, 855.8115
2816.239, 855.6691
2818.167, 855.0894
2820.095, 853.9094
2822.024, 854.4168
2823.952, 856.4767
2825.881, 858.4990
2827.809, 860.2324
2829.738, 860.2619
2831.666, 858.8149
2833.595, 858.0135
2835.523, 857.8611
2837.452, 858.8390
2839.380, 860.4225
2841.309, 860.9464
2843.237, 860.7369
2845.166, 860.1817
2847.094, 859.5372
2849.022, 858.9877
2850.951, 858.8476
2852.879, 860.0505
2854.808, 859.9328
2856.736, 861.5359
2858.665, 861.2700
2860.593, 862.3857
2862.522, 863.7451
2864.450, 864.3688
2866.379, 864.6575
2868.307, 864.8820
2870.236, 864.9482
2872.164, 864.9230
2874.093, 864.5421
2876.021, 863.0302
2877.949, 862.3412
2879.878, 863.7919
2881.806, 865.6836
2883.735, 867.7631
2885.663, 869.3622
2887.592, 870.1613
2889.520, 870.4406
2891.449, 869.7106
2893.377, 870.0834
2895.306, 873.5064
2897.234, 875.0364
2899.163, 873.8876
2901.091, 873.0856
2903.020, 872.8718
2904.948, 872.9753
2906.876, 873.2865
2908.805, 874.2118
2910.733, 875.7914
2912.662, 876.9266
2914.590, 877.6569
2916.519, 878.2642
2918.447, 878.7496
2920.376, 878.7258
2922.304, 878.3970
2924.233, 878.1776
2926.161, 878.1404
2928.090, 877.9789
2930.018, 878.4503
2931.947, 881.7537
2933.875, 885.3177
2935.803, 885.6454
2937.732, 884.7633
2939.660, 884.0765
2941.589, 883.8145
2943.517, 884.6816
2945.446, 885.3308
2947.374, 884.5660
2949.303, 884.0499
2951.231, 884.5311
2953.160, 884.9776
2955.088, 884.6720
2957.017, 885.0605
2958.945, 887.2482
2960.874, 888.5170
2962.802, 888.3798
2964.730, 888.8585
2966.659, 890.2812
2968.587, 891.4542
2970.516, 892.3084
2972.444, 892.0307
2974.373, 890.7639
2976.301, 890.6260
2978.230, 891.4149
2980.158, 891.5633
2982.087, 891.2835
2984.015, 890.9391
2985.944, 890.7383
2987.872, 891.2639
2989.801, 891.9958
2991.729, 892.1526
2993.657, 892.3970
2995.586, 894.1402
2997.514, 895.2109
2999.443, 892.8877
3001.371, 891.7041
3003.300, 896.0051
3005.228, 898.3573
3007.157, 894.8078
3009.085, 892.5198
3011.014, 893.0507
3012.942, 894.6539
3014.871, 898.1103
3016.799, 899.7328
3018.728, 899.2542
3020.656, 899.0680
3022.584, 899.2227
3024.513, 898.9802
3026.441, 898.4742
3028.370, 899.4592
3030.298, 899.4329
3032.227, 899.9879
3034.155, 900.6324
3036.084, 901.2565
3038.012, 902.2974
3039.941, 903.0133
3041.869, 903.2082
3043.798, 902.3186
3045.726, 901.5488
3047.655, 901.7554
3049.583, 902.0115
3051.511, 901.9835
3053.440, 902.1107
3055.368, 901.8069
3057.297, 902.6553
3059.225, 901.1441
3061.154, 900.3016
3063.082, 900.1195
3065.011, 901.6776
3066.939, 904.5969
3068.868, 905.1707
3070.796, 904.0182
3072.725, 903.9554
3074.653, 904.4252
3076.582, 904.3209
3078.510, 904.0026
3080.438, 903.9959
3082.367, 903.9676
3084.295, 903.0396
3086.224, 903.0303
3088.152, 905.5490
3090.081, 907.6625
3092.009, 908.3837
3093.938, 907.8710
3095.866, 905.5782
3097.795, 904.7474
3099.723, 905.9868
3101.652, 906.9928
3103.580, 907.6862
3105.509, 908.0601
3107.437, 908.2722
3109.365, 909.0594
3111.294, 910.1651
3113.222, 911.1473
3115.151, 911.9705
3117.079, 912.5852
3119.008, 913.0601
3120.936, 913.4396
3122.865, 913.7462
3124.793, 913.8896
3126.722, 914.0138
3128.650, 913.9163
3130.579, 914.5101
3132.507, 916.3618
3134.436, 917.6121
3136.364, 918.1703
3138.292, 918.6933
3140.221, 919.2728
3142.149, 920.1687
3144.078, 921.2142
3146.006, 921.9199
3147.935, 922.3571
3149.863, 922.7769
3151.792, 922.8593
3153.720, 921.9488
3155.649, 921.2864
3157.577, 921.8624
3159.506, 922.3604
3161.434, 922.0467
3163.363, 922.7105
3165.291, 925.4802
3167.219, 926.4908
3169.148, 925.6885
3171.076, 925.4076
3173.005, 925.8265
3174.933, 927.4035
3176.862, 929.4232
3178.790, 930.0071
3180.719, 929.7270
3182.647, 928.6797
3184.576, 927.7370
3186.504, 927.7584
3188.433, 927.8338
3190.361, 927.8339
3192.290, 927.6821
3194.218, 927.0616
3196.146, 927.2333
3198.075, 928.2276
3200.003, 930.1760
3201.932, 932.8107
3203.860, 934.2097
3205.789, 934.6043
3207.717, 934.4036
3209.646, 934.0944
3211.574, 934.4189
3213.503, 934.7014
3215.431, 933.7092
3217.360, 933.5975
3219.288, 933.4745
3221.217, 933.1512
3223.145, 933.7966
3225.073, 932.8652
3227.002, 934.1234
3228.930, 933.7375
3230.859, 932.2283
3232.787, 933.5872
3234.716, 936.3541
3236.644, 937.3904
3238.573, 937.3588
3240.501, 936.3004
3242.430, 935.2704
3244.358, 934.7010
3246.287, 934.6522
3248.215, 934.2955
3250.144, 935.6328
3252.072, 934.7975
3254.000, 935.1075
3255.929, 936.3865
3257.857, 936.2702
3259.786, 935.2126
3261.714, 934.1034
3263.643, 933.3334
3265.571, 932.6934
3267.500, 933.7390
3269.428, 939.9183
3271.357, 943.7371
3273.285, 941.9337
3275.214, 940.3649
3277.142, 939.9882
3279.071, 939.4280
3280.999, 938.5552
3282.927, 938.9900
3284.856, 939.9809
3286.784, 939.6573
3288.713, 938.5262
3290.641, 936.6141
3292.570, 935.3122
3294.498, 935.8808
3296.427, 936.5447
3298.355, 936.3096
3300.284, 936.8665
3302.212, 938.3488
3304.141, 939.2164
3306.069, 939.3624
3307.998, 939.7339
3309.926, 940.2529
3311.854, 941.2300
3313.783, 941.9353
3315.711, 941.8402
3317.640, 941.0009
3319.568, 939.1122
3321.497, 937.8370
3323.425, 937.8017
3325.354, 937.8426
3327.282, 937.7978
3329.211, 939.1121
3331.139, 940.9017
3333.068, 939.4130
3334.996, 936.9750
3336.925, 937.0971
3338.853, 938.3442
3340.781, 940.7435
3342.710, 942.1401
3344.638, 941.2399
3346.567, 941.3657
3348.495, 942.9821
3350.424, 943.7240
3352.352, 943.6530
3354.281, 944.2556
3356.209, 944.7812
3358.138, 943.4326
3360.066, 942.2233
3361.995, 943.6700
3363.923, 944.6262
3365.852, 944.0950
3367.780, 942.8278
3369.708, 940.4903
3371.637, 940.8337
3373.565, 943.4500
3375.494, 945.5165
3377.422, 947.0341
3379.351, 947.6596
3381.279, 948.2510
3383.208, 949.1215
3385.136, 950.6807
3387.065, 951.0937
3388.993, 951.5197
3390.922, 952.5061
3392.850, 951.5566
3394.779, 952.1359
3396.707, 951.8966
3398.635, 951.3576
3400.564, 951.7976
3402.492, 951.7701
3404.421, 949.3609
3406.349, 947.7850
3408.278, 947.9818
3410.206, 949.1824
3412.135, 951.4636
3414.063, 952.2206
3415.992, 951.9398
3417.920, 952.4545
3419.849, 953.2535
3421.777, 953.3352
3423.706, 954.0026
3425.634, 956.8299
3427.563, 958.7581
3429.491, 959.2374
3431.419, 958.4926
3433.348, 956.8041
3435.276, 957.1228
3437.205, 958.5668
3439.133, 959.2563
3441.062, 959.6418
3442.990, 960.2437
3444.919, 960.4150
3446.847, 959.7560
3448.776, 959.7314
3450.704, 960.6379
3452.633, 961.1666
3454.561, 961.2399
3456.490, 960.1533
3458.418, 959.0108
3460.346, 959.5974
3462.275, 959.8638
3464.203, 958.6533
3466.132, 958.0386
3468.060, 959.1205
3469.989, 958.2026
3471.917, 955.8681
3473.846, 956.1625
3475.774, 957.6292
3477.703, 957.7044
3479.631, 958.4965
3481.560, 961.9963
3483.488, 964.8914
3485.417, 967.1486
3487.345, 964.7885
3489.273, 958.7795
3491.202, 958.0234
3493.130, 959.8900
3495.059, 959.1422
3496.987, 958.0170
3498.916, 958.6149
3500.844, 958.1906
3502.773, 955.7007
3504.701, 955.1418
3506.630, 956.7953
3508.558, 958.0704
3510.487, 959.0551
3512.415, 959.9053
3514.344, 960.6647
3516.272, 961.9113
3518.200, 961.9166
3520.129, 961.8854
3522.057, 961.9451
3523.986, 960.7402
3525.914, 960.6902
3527.843, 959.7990
3529.771, 957.9811
3531.700, 957.0148
3533.628, 959.3377
3535.557, 960.6055
3537.485, 959.7197
3539.414, 959.0225
3541.342, 958.8395
3543.271, 960.8649
3545.199, 960.6458
3547.127, 962.9333
3549.056, 962.4655
3550.984, 963.1503
3552.913, 964.6719
3554.841, 964.6995
3556.770, 967.7711
3558.698, 965.8527
3560.627, 965.9106
3562.555, 966.1721
3564.484, 963.4999
3566.412, 961.6807
3568.341, 963.0605
3570.269, 964.3172
3572.198, 965.1794
3574.126, 964.7396
3576.054, 963.9757
3577.983, 966.2030
3579.911, 968.5538
3581.840, 968.3766
3583.768, 967.9239
3585.697, 967.7130
3587.625, 968.3583
3589.554, 969.5655
3591.482, 968.2357
3593.411, 966.2648
3595.339, 967.5975
3597.268, 968.9675
3599.196, 967.5787
3601.125, 968.5062
3603.053, 968.5322
3604.981, 968.1368
3606.910, 968.7244
3608.838, 967.7111
3610.767, 967.5092
3612.695, 966.9089
3614.624, 966.2737
3616.552, 965.4700
3618.481, 966.3757
3620.409, 968.9423
3622.338, 971.2684
3624.266, 972.9650
3626.195, 973.2008
3628.123, 973.1057
3630.052, 972.9488
3631.980, 973.6225
3633.908, 975.2007
3635.837, 975.8159
3637.765, 975.6133
3639.694, 975.1765
3641.622, 974.3087
3643.551, 972.4594
3645.479, 971.3489
3647.408, 971.4208
3649.336, 972.7822
3651.265, 975.1774
3653.193, 978.4709
3655.122, 980.5420
3657.050, 977.3082
3658.979, 975.7328
3660.907, 978.0167
3662.835, 979.8365
3664.764, 980.7399
3666.692, 980.9240
3668.621, 980.3867
3670.549, 978.7126
3672.478, 977.4240
3674.406, 977.2126
3676.335, 977.5593
3678.263, 978.4261
3680.192, 978.7442
3682.120, 979.1409
3684.049, 981.1323
3685.977, 982.7028
3687.906, 982.1284
3689.834, 982.6830
3691.762, 984.7683
3693.691, 985.1385
3695.619, 984.4913
3697.548, 984.4899
3699.476, 984.2756
3701.405, 982.7961
3703.333, 982.5479
3705.262, 982.0458
3707.190, 981.9261
3709.119, 981.9398
3711.047, 982.5392
3712.976, 983.8129
3714.904, 984.6068
3716.833, 986.9033
3718.761, 987.0229
3720.689, 987.3419
3722.618, 987.6009
3724.546, 986.5706
3726.475, 986.1297
3728.403, 985.0845
3730.332, 985.6480
3732.260, 988.1251
3734.189, 990.0057
3736.117, 991.2646
3738.046, 991.8901
3739.974, 992.2474
3741.903, 992.4674
3743.831, 992.6284
3745.760, 992.7726
3747.688, 992.8219
3749.616, 992.5405
3751.545, 992.7211
3753.473, 992.5587
3755.402, 992.1451
3757.330, 992.8193
3759.259, 993.0676
3761.187, 992.0872
3763.116, 994.1010
3765.044, 994.9423
3766.973, 994.8977
3768.901, 993.2161
3770.830, 992.8944
3772.758, 993.9826
3774.687, 995.9716
3776.615, 997.4832
3778.543, 995.8991
3780.472, 995.0597
3782.400, 997.1948
3784.329, 997.3798
3786.257, 995.9723
3788.186, 995.1484
3790.114, 995.0908
3792.043, 996.1110
3793.971, 997.5845
3795.900, 996.8317
3797.828, 998.7791
3799.757, 996.1546
3801.685, 996.2041
3803.614, 996.3817
3805.542, 994.9196
3807.470, 993.8868
3809.399, 993.7223
3811.327, 991.9023
3813.256, 990.3875
3815.184, 993.6320
3817.113, 996.5013
3819.041, 996.8207
3820.970, 996.2473
3822.898, 995.1682
3824.827, 995.8161
3826.755, 997.0248
3828.684, 998.3029
3830.612, 997.9996
3832.541, 997.6839
3834.469, 994.8679
3836.397, 995.6727
3838.326, 993.7849
3840.254, 993.0251
3842.183, 996.7409
3844.111, 999.4920
3846.040, 1000.453
3847.968, 1000.245
3849.897, 998.8849
3851.825, 999.6058
3853.754, 999.6364
3855.682, 998.9932
3857.611, 999.1951
3859.539, 998.9260
3861.468, 998.5230
3863.396, 998.4017
3865.324, 997.7306
3867.253, 997.5070
3869.181, 997.8271
3871.110, 998.2784
3873.038, 998.9492
3874.967, 999.0300
3876.895, 998.5870
3878.824, 999.1368
3880.752, 997.7464
3882.681, 997.2152
3884.609, 998.1329
3886.538, 998.6541
3888.466, 997.0620
3890.395, 996.7531
3892.323, 998.2148
3894.251, 998.7432
3896.180, 999.0942
3898.108, 1000.783
3900.037, 1001.652
3901.965, 1000.769
3903.894, 1001.024
3905.822, 1002.202
3907.751, 1003.858
3909.679, 1004.514
3911.608, 1002.631
3913.536, 1002.425
3915.465, 1004.102
3917.393, 1004.875
3919.322, 1004.972
3921.250, 1004.287
3923.178, 1004.065
3925.107, 1004.576
3927.035, 1005.891
3928.964, 1007.213
3930.892, 1006.994
3932.821, 1006.113
3934.749, 1007.276
3936.678, 1005.046
3938.606, 1008.272
3940.535, 1010.386
3942.463, 1010.661
3944.392, 1007.973
3946.320, 1006.938
3948.249, 1007.767
3950.177, 1007.256
3952.105, 1006.817
3954.034, 1008.131
3955.962, 1009.231
3957.891, 1009.585
3959.819, 1011.184
3961.748, 1012.850
3963.676, 1012.871
3965.605, 1012.548
3967.533, 1012.396
3969.462, 1011.023
3971.390, 1009.716
3973.319, 1013.014
3975.247, 1015.511
3977.176, 1013.693
3979.104, 1013.222
3981.032, 1013.984
3982.961, 1014.638
3984.889, 1014.834
3986.818, 1014.093
3988.746, 1014.230
3990.675, 1015.053
3992.603, 1013.266
3994.532, 1011.460
3996.460, 1012.015
3998.389, 1012.911
4000.317, 1013.706
4002.246, 1014.262
4004.174, 1014.419
4006.103, 1014.075
4008.031, 1013.354
4009.959, 1012.371
4011.888, 1011.285
4013.816, 1010.722
4015.745, 1011.235
4017.673, 1013.268
4019.602, 1012.716
4021.530, 1013.084
4023.459, 1013.016
4025.387, 1012.387
4027.316, 1012.098
4029.244, 1011.509
4031.173, 1011.190
4033.101, 1011.133
4035.030, 1010.919
4036.958, 1011.050
4038.886, 1011.398
4040.815, 1014.446
4042.743, 1013.631
4044.672, 1015.941
4046.600, 1013.129
4048.529, 1012.364
4050.457, 1010.493
4052.386, 1008.293
4054.314, 1009.682
4056.243, 1011.181
4058.171, 1010.223
4060.100, 1010.364
4062.028, 1011.274
4063.957, 1012.071
4065.885, 1011.612
4067.813, 1011.439
4069.742, 1011.183
4071.670, 1009.697
4073.599, 1009.522
4075.527, 1008.388
4077.456, 1009.056
4079.384, 1007.243
4081.313, 1010.408
4083.241, 1011.011
4085.170, 1010.891
4087.098, 1010.655
4089.027, 1011.469
4090.955, 1012.896
4092.884, 1013.076
4094.812, 1013.155
4096.740, 1014.077
4098.669, 1013.869
4100.598, 1013.037
4102.526, 1013.517
4104.454, 1014.119
4106.383, 1014.558
4108.312, 1013.561
4110.240, 1011.642
4112.168, 1009.913
4114.097, 1008.833
4116.025, 1008.458
4117.954, 1010.359
4119.882, 1013.198
4121.811, 1013.365
4123.739, 1013.452
4125.667, 1014.196
4127.596, 1016.785
4129.524, 1019.666
4131.453, 1019.715
4133.381, 1018.927
4135.310, 1017.573
4137.238, 1019.083
4139.167, 1021.523
4141.095, 1022.602
4143.023, 1021.283
4144.952, 1017.659
4146.881, 1018.955
4148.809, 1022.457
4150.737, 1025.213
4152.666, 1027.127
4154.595, 1028.112
4156.523, 1027.110
4158.451, 1026.195
4160.380, 1027.449
4162.309, 1028.207
4164.237, 1028.283
4166.165, 1028.755
4168.094, 1029.435
4170.022, 1030.361
4171.951, 1030.622
4173.879, 1030.488
4175.808, 1031.640
4177.736, 1032.416
4179.665, 1031.216
4181.593, 1033.768
4183.521, 1032.976
4185.450, 1035.239
4187.378, 1032.950
4189.307, 1032.540
4191.235, 1032.485
4193.164, 1032.557
4195.092, 1032.735
4197.021, 1032.578
4198.949, 1032.156
4200.878, 1031.522
4202.806, 1031.731
4204.734, 1031.818
4206.663, 1031.110
4208.592, 1032.615
4210.520, 1031.083
4212.448, 1031.222
4214.377, 1033.731
4216.306, 1035.731
4218.234, 1036.610
4220.162, 1034.787
4222.091, 1033.243
4224.020, 1032.863
4225.948, 1033.536
4227.876, 1034.119
4229.805, 1032.637
4231.733, 1032.463
4233.662, 1034.008
4235.590, 1034.179
4237.519, 1034.013
##END=



