##NAMES=Raslakite
##RRUFFID=R070071
##IDEAL CHEMISTRY=Na_15_Ca_3_Fe_3_(Na,Zr)_3_Zr_3_(Si,Nb)Si_25_O_73_(OH,H_2_O)_3_(Cl,OH)
##LOCALITY=Raslak Cirques, near Kedybverpahkh Mountain, Lovozero Massif, Kola Peninsula, Russia
##OWNER=RRUFF
##SOURCE=Michael Scott
##DESCRIPTION=Massive, orange anhedral grains exhibiting conchoidal fracture, co-type material
##STATUS=The identification of this mineral has been confirmed only by single crystal X-ray diffraction
##URL=https://www.rruff.net/odr/rruff_sample/R070071
##DIFFRACTION SAMPLE DESCRIPTION=Single crystal, powder profile is calculated
##CELL PARAMETERS=a: 14.218 b: 14.218 c: 30.126 alpha: 90 beta: 90 gamma: 120 volume: 5274 crystal system: hexagonal
##FILETYPE=Raman RAW
##RAMAN WAVELENGTH=785

150.3894, 986.5820
152.3179, 1007.012
154.2463, 1029.048
156.1748, 1064.557
158.1033, 1105.023
160.0317, 1144.724
161.9602, 1182.594
163.8887, 1216.216
165.8171, 1246.338
167.7456, 1268.137
169.6741, 1269.272
171.6025, 1276.128
173.5310, 1304.491
175.4595, 1340.175
177.3879, 1364.579
179.3164, 1379.068
181.2449, 1393.201
183.1733, 1407.038
185.1018, 1422.996
187.0303, 1441.790
188.9587, 1461.855
190.8872, 1483.499
192.8157, 1504.246
194.7441, 1521.522
196.6726, 1535.199
198.6011, 1553.096
200.5295, 1583.139
202.4580, 1603.829
204.3865, 1603.737
206.3149, 1604.650
208.2434, 1621.460
210.1719, 1648.590
212.1003, 1676.740
214.0288, 1706.666
215.9573, 1727.373
217.8857, 1733.343
219.8142, 1744.931
221.7427, 1770.764
223.6711, 1803.290
225.5996, 1837.501
227.5281, 1869.630
229.4565, 1894.654
231.3850, 1912.850
233.3135, 1942.043
235.2419, 1985.723
237.1704, 2030.173
239.0989, 2071.462
241.0273, 2104.374
242.9558, 2128.795
244.8843, 2151.515
246.8127, 2174.660
248.7412, 2195.441
250.6697, 2219.434
252.5981, 2253.354
254.5266, 2276.160
256.4551, 2267.196
258.3835, 2260.233
260.3120, 2272.798
262.2405, 2290.218
264.1689, 2298.043
266.0974, 2300.519
268.0259, 2301.793
269.9543, 2299.291
271.8828, 2296.243
273.8113, 2296.382
275.7397, 2297.458
277.6682, 2292.910
279.5967, 2291.661
281.5251, 2308.016
283.4536, 2334.103
285.3821, 2350.986
287.3105, 2355.412
289.2390, 2359.969
291.1675, 2365.557
293.0959, 2368.595
295.0244, 2371.191
296.9529, 2375.340
298.8813, 2381.406
300.8098, 2384.548
302.7383, 2376.415
304.6667, 2357.340
306.5952, 2347.801
308.5237, 2355.726
310.4521, 2356.623
312.3806, 2342.066
314.3091, 2321.584
316.2375, 2293.817
318.1660, 2276.784
320.0945, 2289.782
322.0229, 2313.363
323.9514, 2306.086
325.8799, 2269.271
327.8083, 2240.585
329.7368, 2221.796
331.6653, 2215.612
333.5937, 2228.146
335.5222, 2237.403
337.4507, 2232.643
339.3791, 2230.543
341.3076, 2244.942
343.2361, 2270.068
345.1645, 2293.870
347.0930, 2318.417
349.0215, 2353.546
350.9499, 2401.827
352.8784, 2452.531
354.8069, 2501.365
356.7353, 2552.656
358.6638, 2609.547
360.5923, 2671.833
362.5207, 2738.787
364.4492, 2807.718
366.3777, 2875.703
368.3061, 2944.625
370.2346, 3021.348
372.1631, 3103.962
374.0915, 3183.869
376.0200, 3267.951
377.9485, 3340.109
379.8769, 3394.771
381.8054, 3443.411
383.7339, 3496.899
385.6623, 3544.222
387.5908, 3564.003
389.5193, 3551.115
391.4477, 3529.088
393.3762, 3508.756
395.3047, 3477.232
397.2331, 3428.010
399.1616, 3366.709
401.0901, 3295.139
403.0185, 3223.452
404.9470, 3156.353
406.8755, 3089.572
408.8039, 3017.092
410.7324, 2940.878
412.6609, 2867.703
414.5893, 2804.049
416.5178, 2754.621
418.4463, 2717.316
420.3747, 2678.218
422.3032, 2632.115
424.2317, 2584.075
426.1601, 2534.586
428.0886, 2489.457
430.0171, 2454.227
431.9455, 2423.170
433.8740, 2386.888
435.8025, 2347.282
437.7309, 2313.186
439.6594, 2285.211
441.5879, 2256.985
443.5163, 2231.235
445.4448, 2202.516
447.3733, 2163.990
449.3017, 2131.325
451.2302, 2117.418
453.1587, 2100.098
455.0871, 2056.689
457.0156, 2004.248
458.9441, 1965.556
460.8725, 1943.631
462.8010, 1924.021
464.7295, 1900.964
466.6579, 1871.102
468.5864, 1835.915
470.5149, 1809.212
472.4433, 1796.662
474.3718, 1775.497
476.3003, 1730.727
478.2287, 1685.873
480.1572, 1656.011
482.0857, 1631.299
484.0141, 1601.603
485.9426, 1573.201
487.8711, 1550.619
489.7995, 1531.727
491.7280, 1516.508
493.6565, 1504.501
495.5849, 1491.184
497.5134, 1474.846
499.4419, 1460.361
501.3703, 1451.727
503.2988, 1440.607
505.2273, 1422.272
507.1557, 1403.730
509.0842, 1389.372
511.0127, 1379.000
512.9412, 1372.657
514.8696, 1365.128
516.7981, 1353.149
518.7266, 1340.444
520.6550, 1330.584
522.5835, 1323.103
524.5120, 1314.539
526.4404, 1300.953
528.3689, 1293.916
530.2974, 1299.916
532.2258, 1303.439
534.1543, 1297.781
536.0828, 1288.617
538.0112, 1274.229
539.9397, 1264.085
541.8682, 1271.324
543.7966, 1285.524
545.7251, 1289.020
547.6536, 1282.552
549.5820, 1275.876
551.5105, 1271.418
553.4390, 1274.570
555.3674, 1285.325
557.2959, 1294.885
559.2244, 1302.571
561.1528, 1310.581
563.0813, 1322.730
565.0098, 1326.893
566.9382, 1312.787
568.8667, 1299.145
570.7952, 1296.064
572.7236, 1294.206
574.6521, 1284.580
576.5805, 1269.895
578.5090, 1258.029
580.4374, 1248.648
582.3659, 1236.863
584.2944, 1222.607
586.2228, 1211.658
588.1513, 1204.362
590.0798, 1202.806
592.0082, 1211.006
593.9367, 1217.496
595.8652, 1219.343
597.7936, 1217.721
599.7221, 1214.318
601.6506, 1209.180
603.5790, 1196.078
605.5075, 1183.900
607.4360, 1185.915
609.3644, 1194.457
611.2929, 1198.918
613.2214, 1200.371
615.1498, 1199.571
617.0783, 1196.395
619.0068, 1193.841
620.9352, 1191.339
622.8637, 1194.220
624.7922, 1211.980
626.7206, 1217.360
628.6491, 1197.992
630.5776, 1185.871
632.5060, 1192.849
634.4345, 1199.629
636.3630, 1197.866
638.2914, 1194.098
640.2199, 1190.909
642.1484, 1189.464
644.0768, 1195.591
646.0053, 1200.100
647.9338, 1186.607
649.8622, 1162.320
651.7907, 1146.590
653.7192, 1138.044
655.6476, 1127.705
657.5761, 1115.977
659.5046, 1101.600
661.4330, 1084.064
663.3615, 1069.488
665.2900, 1058.576
667.2184, 1045.905
669.1469, 1030.243
671.0754, 1015.772
673.0038, 1002.322
674.9323, 991.3094
676.8608, 988.5894
678.7892, 982.4390
680.7177, 959.7045
682.6462, 936.1508
684.5746, 931.8194
686.5031, 937.0553
688.4316, 930.4305
690.3600, 914.3046
692.2885, 904.3076
694.2170, 899.9383
696.1454, 894.0790
698.0739, 887.3989
700.0024, 883.9506
701.9308, 882.8126
703.8593, 871.7745
705.7878, 849.2092
707.7162, 832.0229
709.6447, 823.0284
711.5732, 811.5790
713.5016, 795.2567
715.4301, 782.8204
717.3586, 775.3488
719.2870, 768.8184
721.2155, 762.8800
723.1440, 756.3660
725.0724, 749.2369
727.0009, 742.2712
728.9294, 734.2081
730.8578, 728.4837
732.7863, 729.5275
734.7148, 733.8917
736.6432, 736.5365
738.5717, 734.3181
740.5002, 727.1551
742.4286, 719.3691
744.3571, 714.7835
746.2856, 710.0317
748.2141, 702.1109
750.1425, 695.3930
752.0710, 690.5469
753.9995, 682.0243
755.9279, 675.4385
757.8564, 676.7767
759.7849, 669.3680
761.7133, 650.1503
763.6418, 634.8201
765.5703, 623.8087
767.4987, 616.6183
769.4272, 616.8240
771.3557, 613.0053
773.2841, 599.4131
775.2126, 584.2933
777.1411, 569.6027
779.0695, 557.5801
780.9980, 550.3937
782.9265, 545.4196
784.8549, 542.2094
786.7834, 537.9440
788.7119, 528.5750
790.6403, 516.7012
792.5688, 509.4322
794.4973, 507.9917
796.4257, 505.3012
798.3542, 493.7284
800.2827, 476.1674
802.2111, 462.6926
804.1396, 458.5766
806.0681, 458.5935
807.9965, 456.7471
809.9250, 454.1730
811.8535, 446.7696
813.7819, 435.2036
815.7104, 428.1464
817.6389, 422.5537
819.5673, 415.7633
821.4958, 413.2669
823.4243, 409.1033
825.3527, 397.4817
827.2812, 389.6380
829.2097, 389.6365
831.1381, 389.9098
833.0666, 389.9372
834.9951, 389.0906
836.9235, 385.7925
838.8520, 382.8614
840.7805, 379.8434
842.7089, 379.3059
844.6374, 385.0289
846.5659, 390.2779
848.4943, 391.6579
850.4228, 394.2025
852.3513, 397.8769
854.2797, 399.8036
856.2082, 402.1212
858.1367, 405.7155
860.0651, 409.5553
861.9936, 413.9282
863.9221, 417.2655
865.8505, 421.8263
867.7790, 431.4469
869.7075, 438.4941
871.6359, 438.3700
873.5644, 439.8674
875.4929, 445.5814
877.4213, 449.5435
879.3498, 451.7628
881.2783, 456.8392
883.2067, 466.2006
885.1352, 480.0628
887.0637, 497.5045
888.9921, 511.3428
890.9206, 518.8008
892.8491, 526.5056
894.7775, 536.2896
896.7060, 546.9044
898.6345, 558.7228
900.5629, 570.0317
902.4914, 582.0970
904.4199, 597.0419
906.3483, 604.8931
908.2768, 599.3600
910.2053, 602.2368
912.1337, 622.9485
914.0622, 638.4727
915.9907, 644.8929
917.9191, 652.1671
919.8476, 658.0269
921.7761, 663.5471
923.7045, 671.3794
925.6330, 683.3967
927.5615, 696.9417
929.4899, 705.2519
931.4184, 714.5511
933.3469, 724.8251
935.2753, 726.0659
937.2038, 727.2089
939.1323, 735.5116
941.0607, 741.7116
942.9892, 745.3505
944.9177, 748.2952
946.8461, 745.3466
948.7746, 745.0401
950.7031, 753.9733
952.6315, 758.2432
954.5600, 754.1295
956.4885, 744.1705
958.4169, 727.7038
960.3454, 722.5049
962.2739, 735.6432
964.2023, 744.7103
966.1308, 740.4196
968.0593, 738.1472
969.9877, 741.9694
971.9162, 746.2497
973.8447, 751.2157
975.7731, 758.2195
977.7016, 767.2587
979.6301, 772.9202
981.5585, 774.9374
983.4870, 779.5901
985.4155, 786.8542
987.3439, 797.6215
989.2724, 812.5342
991.2009, 823.2724
993.1293, 829.4099
995.0578, 834.2550
996.9863, 835.2029
998.9147, 837.9152
1000.843, 845.4235
1002.772, 856.6567
1004.700, 872.6838
1006.629, 881.1887
1008.557, 876.8055
1010.486, 879.0781
1012.414, 896.0652
1014.342, 915.8157
1016.271, 931.6253
1018.199, 945.7662
1020.128, 958.8744
1022.056, 970.6958
1023.985, 985.7962
1025.913, 1003.819
1027.842, 1018.819
1029.770, 1034.469
1031.699, 1055.073
1033.627, 1076.038
1035.556, 1095.719
1037.484, 1118.387
1039.413, 1144.989
1041.341, 1164.176
1043.270, 1174.599
1045.198, 1199.589
1047.126, 1240.349
1049.055, 1268.708
1050.983, 1286.199
1052.912, 1320.472
1054.840, 1364.192
1056.769, 1403.259
1058.697, 1447.360
1060.626, 1492.686
1062.554, 1533.583
1064.483, 1576.557
1066.411, 1619.411
1068.340, 1657.975
1070.268, 1697.584
1072.196, 1737.486
1074.125, 1780.129
1076.053, 1835.709
1077.982, 1897.292
1079.910, 1951.132
1081.839, 2001.345
1083.767, 2061.051
1085.696, 2126.015
1087.624, 2186.426
1089.553, 2249.928
1091.481, 2319.012
1093.410, 2395.175
1095.338, 2481.905
1097.266, 2579.263
1099.195, 2695.005
1101.123, 2814.221
1103.052, 2911.527
1104.980, 3024.617
1106.909, 3184.643
1108.837, 3347.666
1110.766, 3494.014
1112.694, 3648.052
1114.623, 3802.298
1116.551, 3999.573
1118.480, 4258.669
1120.408, 4513.381
1122.337, 4748.104
1124.265, 5018.081
1126.193, 5330.305
1128.122, 5652.421
1130.050, 5983.471
1131.979, 6340.886
1133.907, 6725.770
1135.836, 7118.490
1137.764, 7524.048
1139.693, 7998.597
1141.621, 8521.484
1143.550, 9014.699
1145.478, 9499.063
1147.407, 10025.90
1149.335, 10572.76
1151.264, 11115.78
1153.192, 11645.45
1155.120, 12131.08
1157.049, 12626.94
1158.977, 13202.27
1160.906, 13765.27
1162.834, 14258.71
1164.763, 14718.20
1166.691, 15154.07
1168.620, 15574.46
1170.548, 15993.35
1172.477, 16368.05
1174.405, 16690.04
1176.334, 16952.60
1178.262, 17143.32
1180.191, 17327.15
1182.119, 17519.24
1184.047, 17676.29
1185.976, 17793.52
1187.904, 17866.52
1189.833, 17895.29
1191.761, 17935.63
1193.690, 17986.55
1195.618, 18008.92
1197.547, 18012.17
1199.475, 18026.79
1201.404, 18044.12
1203.332, 18030.95
1205.261, 18033.68
1207.189, 18127.16
1209.118, 18218.72
1211.046, 18215.00
1212.974, 18229.99
1214.903, 18358.18
1216.831, 18449.27
1218.760, 18433.09
1220.688, 18454.81
1222.617, 18547.63
1224.545, 18629.33
1226.474, 18696.51
1228.402, 18782.57
1230.331, 18883.54
1232.259, 18997.63
1234.188, 19119.56
1236.116, 19163.06
1238.045, 19160.78
1239.973, 19240.37
1241.901, 19366.71
1243.830, 19482.92
1245.758, 19611.35
1247.687, 19766.52
1249.615, 19937.98
1251.544, 20104.94
1253.472, 20321.51
1255.401, 20619.51
1257.329, 20978.35
1259.258, 21413.91
1261.186, 21846.16
1263.115, 22237.11
1265.043, 22706.98
1266.972, 23282.23
1268.900, 23808.55
1270.828, 24277.31
1272.757, 24778.80
1274.685, 25299.49
1276.614, 25744.60
1278.542, 26115.54
1280.471, 26454.47
1282.399, 26734.56
1284.328, 26923.58
1286.256, 27054.13
1288.185, 27169.52
1290.113, 27181.05
1292.042, 27022.02
1293.970, 26806.79
1295.899, 26574.38
1297.827, 26290.74
1299.755, 25934.66
1301.684, 25531.54
1303.612, 25083.17
1305.541, 24654.17
1307.469, 24242.03
1309.398, 23766.86
1311.326, 23270.20
1313.255, 22857.17
1315.183, 22511.39
1317.112, 22228.07
1319.040, 21971.08
1320.969, 21709.10
1322.897, 21466.71
1324.826, 21260.72
1326.754, 21086.63
1328.682, 20937.17
1330.611, 20853.64
1332.539, 20835.45
1334.468, 20804.68
1336.396, 20777.09
1338.325, 20808.36
1340.253, 20868.05
1342.182, 20848.85
1344.110, 20855.84
1346.039, 21089.33
1347.967, 21356.71
1349.896, 21463.40
1351.824, 21621.03
1353.753, 21900.21
1355.681, 22273.94
1357.609, 22746.23
1359.538, 23231.42
1361.466, 23723.66
1363.395, 24367.46
1365.323, 25146.09
1367.252, 25923.90
1369.180, 26743.96
1371.109, 27657.01
1373.037, 28680.84
1374.966, 29929.90
1376.894, 31155.88
1378.823, 32187.21
1380.751, 33211.71
1382.680, 34340.91
1384.608, 35217.09
1386.536, 35792.95
1388.465, 36191.02
1390.393, 36406.93
1392.322, 36347.20
1394.250, 36037.31
1396.179, 35543.07
1398.107, 34856.42
1400.036, 33923.15
1401.964, 32867.26
1403.893, 31712.50
1405.821, 30548.44
1407.750, 29355.59
1409.678, 28270.65
1411.607, 27305.29
1413.535, 26388.72
1415.464, 25532.79
1417.392, 24827.95
1419.320, 24248.32
1421.249, 23743.33
1423.177, 23331.74
1425.106, 23061.78
1427.034, 22838.64
1428.963, 22574.86
1430.891, 22440.54
1432.820, 22538.24
1434.748, 22588.81
1436.677, 22592.15
1438.605, 22522.50
1440.534, 22416.43
1442.462, 22386.45
1444.391, 22389.78
1446.319, 22390.93
1448.247, 22383.11
1450.176, 22363.92
1452.104, 22330.93
1454.033, 22281.69
1455.961, 22226.54
1457.890, 22166.65
1459.818, 22086.72
1461.747, 21995.66
1463.675, 21946.05
1465.604, 21883.35
1467.532, 21713.25
1469.461, 21535.82
1471.389, 21409.08
1473.318, 21263.43
1475.246, 21077.48
1477.174, 20888.18
1479.103, 20700.71
1481.031, 20549.01
1482.960, 20413.32
1484.888, 20228.99
1486.817, 20030.99
1488.745, 19847.93
1490.674, 19690.92
1492.602, 19583.38
1494.531, 19433.24
1496.459, 19216.13
1498.388, 19053.23
1500.316, 18950.59
1502.245, 18873.18
1504.173, 18810.04
1506.101, 18741.30
1508.030, 18677.74
1509.958, 18630.75
1511.887, 18588.50
1513.815, 18548.50
1515.744, 18499.49
1517.672, 18442.46
1519.601, 18459.98
1521.529, 18530.17
1523.458, 18577.39
1525.386, 18614.16
1527.315, 18655.22
1529.243, 18693.20
1531.172, 18715.30
1533.100, 18754.50
1535.028, 18818.02
1536.957, 18870.22
1538.885, 18913.15
1540.814, 18958.44
1542.742, 19016.41
1544.671, 19132.96
1546.599, 19215.22
1548.528, 19156.69
1550.456, 19146.77
1552.385, 19256.87
1554.313, 19306.95
1556.242, 19303.38
1558.170, 19348.02
1560.099, 19425.85
1562.027, 19522.80
1563.955, 19617.30
1565.884, 19693.87
1567.812, 19767.59
1569.741, 19837.05
1571.669, 19923.26
1573.598, 20025.98
1575.526, 20150.03
1577.455, 20275.53
1579.383, 20347.13
1581.312, 20438.87
1583.240, 20595.97
1585.169, 20771.56
1587.097, 20954.98
1589.026, 21162.82
1590.954, 21382.81
1592.882, 21491.62
1594.811, 21602.37
1596.739, 21944.93
1598.668, 22242.37
1600.596, 22339.08
1602.525, 22506.35
1604.453, 22801.08
1606.382, 23025.30
1608.310, 23218.22
1610.239, 23569.86
1612.167, 23952.23
1614.096, 24215.14
1616.024, 24477.26
1617.953, 24769.98
1619.881, 25103.97
1621.809, 25471.22
1623.738, 25747.91
1625.666, 25994.95
1627.595, 26369.13
1629.523, 26724.04
1631.452, 26932.64
1633.380, 27146.62
1635.309, 27394.28
1637.237, 27541.73
1639.166, 27615.58
1641.094, 27772.16
1643.023, 27929.64
1644.951, 27998.60
1646.880, 28023.28
1648.808, 28022.76
1650.736, 27970.95
1652.665, 27868.31
1654.593, 27755.47
1656.522, 27594.69
1658.450, 27300.84
1660.379, 26972.40
1662.307, 26701.76
1664.236, 26320.99
1666.164, 25800.35
1668.093, 25421.43
1670.021, 25107.33
1671.950, 24612.63
1673.878, 24098.20
1675.807, 23686.45
1677.735, 23305.73
1679.663, 22960.36
1681.592, 22528.01
1683.520, 22048.27
1685.449, 21741.70
1687.377, 21491.23
1689.306, 21181.66
1691.234, 20900.00
1693.163, 20679.38
1695.091, 20485.14
1697.020, 20314.54
1698.948, 20167.28
1700.877, 20030.65
1702.805, 19850.74
1704.734, 19778.52
1706.662, 19909.04
1708.590, 19965.43
1710.519, 19934.42
1712.447, 19842.33
1714.376, 19762.18
1716.304, 19805.81
1718.233, 19869.17
1720.161, 19923.22
1722.090, 19946.65
1724.018, 19945.68
1725.947, 20002.25
1727.875, 20058.32
1729.804, 20010.25
1731.732, 19985.60
1733.661, 20029.90
1735.589, 20044.85
1737.517, 20028.90
1739.446, 20052.05
1741.374, 20073.08
1743.303, 20025.23
1745.231, 19995.65
1747.160, 20013.97
1749.088, 19979.99
1751.017, 19897.56
1752.945, 19815.68
1754.874, 19747.32
1756.802, 19732.52
1758.731, 19676.34
1760.659, 19557.98
1762.588, 19409.78
1764.516, 19266.72
1766.444, 19268.63
1768.373, 19228.52
1770.301, 18926.80
1772.230, 18717.57
1774.158, 18648.26
1776.087, 18441.68
1778.015, 18176.65
1779.944, 18033.95
1781.872, 17894.59
1783.801, 17668.56
1785.729, 17494.34
1787.658, 17371.56
1789.586, 17168.42
1791.515, 16955.51
1793.443, 16841.56
1795.371, 16710.76
1797.300, 16521.82
1799.228, 16276.60
1801.157, 16001.37
1803.085, 15820.24
1805.014, 15669.51
1806.942, 15527.24
1808.871, 15324.76
1810.799, 15044.74
1812.728, 14750.37
1814.656, 14470.92
1816.585, 14272.41
1818.513, 14093.95
1820.442, 13918.58
1822.370, 13713.74
1824.298, 13483.05
1826.227, 13248.70
1828.155, 13005.60
1830.084, 12731.91
1832.012, 12522.15
1833.941, 12405.59
1835.869, 12185.23
1837.798, 11909.08
1839.726, 11674.72
1841.655, 11465.43
1843.583, 11275.93
1845.512, 11063.18
1847.440, 10837.28
1849.369, 10652.80
1851.297, 10491.56
1853.225, 10349.08
1855.154, 10200.24
1857.082, 10038.53
1859.011, 9836.269
1860.939, 9631.039
1862.868, 9477.938
1864.796, 9352.319
1866.725, 9249.699
1868.653, 9130.544
1870.582, 9000.456
1872.510, 8883.881
1874.439, 8802.400
1876.367, 8780.921
1878.296, 8736.851
1880.224, 8675.130
1882.152, 8640.885
1884.081, 8624.282
1886.009, 8616.018
1887.938, 8622.615
1889.866, 8648.773
1891.795, 8682.905
1893.723, 8714.046
1895.652, 8715.466
1897.580, 8738.768
1899.509, 8803.810
1901.437, 8891.646
1903.366, 8978.395
1905.294, 8982.270
1907.223, 9010.384
1909.151, 9140.822
1911.079, 9249.283
1913.008, 9332.250
1914.936, 9340.188
1916.865, 9350.927
1918.793, 9433.098
1920.722, 9454.094
1922.650, 9413.132
1924.579, 9493.002
1926.507, 9562.229
1928.436, 9489.258
1930.364, 9411.029
1932.293, 9365.177
1934.221, 9320.039
1936.150, 9256.563
1938.078, 9179.669
1940.006, 9062.818
1941.935, 8892.134
1943.863, 8758.249
1945.792, 8636.287
1947.720, 8495.584
1949.649, 8321.940
1951.577, 8109.017
1953.506, 7898.566
1955.434, 7695.080
1957.363, 7489.952
1959.291, 7303.851
1961.220, 7144.638
1963.148, 6936.388
1965.077, 6696.677
1967.005, 6444.322
1968.933, 6203.682
1970.862, 5980.673
1972.790, 5753.047
1974.719, 5533.621
1976.647, 5354.311
1978.576, 5141.989
1980.504, 4874.610
1982.433, 4690.827
1984.361, 4551.648
1986.290, 4378.776
1988.218, 4177.601
1990.147, 3947.851
1992.075, 3793.228
1994.004, 3678.544
1995.932, 3533.579
1997.860, 3387.237
1999.789, 3253.896
2001.717, 3129.472
2003.646, 3007.882
2005.574, 2882.863
2007.503, 2769.259
2009.431, 2673.278
2011.360, 2563.291
2013.288, 2459.012
2015.217, 2392.192
2017.145, 2326.885
2019.074, 2253.771
2021.002, 2179.986
2022.931, 2108.257
2024.859, 2042.280
2026.787, 1977.038
2028.716, 1912.201
2030.644, 1871.660
2032.573, 1827.900
2034.501, 1751.438
2036.430, 1689.381
2038.358, 1648.277
2040.287, 1617.659
2042.215, 1581.495
2044.144, 1525.315
2046.072, 1487.424
2048.001, 1466.311
2049.929, 1437.517
2051.858, 1401.876
2053.786, 1357.606
2055.714, 1332.729
2057.643, 1320.349
2059.571, 1299.113
2061.500, 1270.531
2063.428, 1235.626
2065.357, 1209.130
2067.285, 1184.990
2069.214, 1152.009
2071.142, 1123.228
2073.071, 1101.871
2074.999, 1083.927
2076.927, 1066.599
2078.856, 1044.163
2080.784, 1033.454
2082.713, 1032.431
2084.641, 1000.984
2086.570, 972.4722
2088.498, 978.3892
2090.427, 969.4138
2092.355, 946.7695
2094.284, 917.0358
2096.212, 896.0332
2098.141, 891.3018
2100.069, 877.3563
2101.998, 860.5775
2103.926, 853.9949
2105.854, 844.4835
2107.783, 829.5441
2109.711, 791.8216
2111.640, 759.0490
2113.568, 768.0972
2115.497, 766.5196
2117.425, 754.4653
2119.354, 759.7142
2121.282, 759.2257
2123.211, 738.9130
2125.139, 719.2383
2127.068, 706.8278
2128.996, 705.1795
2130.925, 698.5894
2132.853, 685.6118
2134.781, 664.5678
2136.710, 650.1736
2138.638, 659.6924
2140.567, 659.6305
2142.495, 650.7309
2144.424, 640.2116
2146.352, 631.5370
2148.281, 633.6281
2150.209, 618.2590
2152.138, 595.5753
2154.066, 587.8904
2155.995, 587.3428
2157.923, 584.4025
2159.852, 578.5287
2161.780, 575.6091
2163.708, 570.7589
2165.637, 568.8611
2167.565, 566.6055
2169.494, 560.0812
2171.422, 547.5959
2173.351, 530.6266
2175.279, 524.0305
2177.208, 523.3488
2179.136, 523.8538
2181.065, 520.7106
2182.993, 518.2296
2184.922, 513.3365
2186.850, 506.8029
2188.779, 500.2518
2190.707, 496.3308
2192.635, 494.8173
2194.564, 494.5194
2196.492, 488.9326
2198.421, 479.3716
2200.349, 478.1998
2202.278, 477.4755
2204.206, 465.3204
2206.135, 461.2785
2208.063, 462.8966
2209.992, 455.8146
2211.920, 457.2483
2213.849, 465.2686
2215.777, 457.1969
2217.706, 444.3708
2219.634, 436.8733
2221.563, 438.5695
2223.491, 436.5844
2225.419, 434.2079
2227.348, 444.4691
2229.276, 443.8501
2231.205, 422.7691
2233.133, 415.1165
2235.062, 418.5574
2236.990, 419.9158
2238.919, 414.8741
2240.847, 406.6177
2242.776, 410.6380
2244.704, 414.9215
2246.633, 405.6902
2248.561, 397.3895
2250.490, 396.8244
2252.418, 394.9377
2254.346, 387.2367
2256.275, 379.1886
2258.203, 388.2911
2260.132, 387.5175
2262.060, 374.2653
2263.989, 374.8645
2265.917, 376.3033
2267.846, 361.5131
2269.774, 360.5345
2271.703, 375.5912
2273.631, 369.9597
2275.560, 364.6301
2277.488, 365.8911
2279.417, 357.7094
2281.345, 356.0612
2283.273, 370.0963
2285.202, 366.5526
2287.130, 356.8962
2289.059, 355.8030
2290.987, 351.8446
2292.916, 350.5861
2294.844, 350.1734
2296.773, 346.2147
2298.701, 341.5786
2300.630, 345.5559
2302.558, 348.5686
2304.487, 345.1054
2306.415, 350.0181
2308.344, 354.8713
2310.272, 344.6076
2312.200, 339.3817
2314.129, 342.3588
2316.057, 353.9327
2317.986, 360.3487
2319.914, 356.7952
2321.843, 348.6134
2323.771, 340.5687
2325.700, 335.3329
2327.628, 342.7739
2329.557, 346.5403
2331.485, 335.6977
2333.414, 336.1934
2335.342, 341.8358
2337.271, 339.7483
2339.199, 339.9892
2341.127, 342.8008
2343.056, 332.2816
2344.984, 328.5359
2346.913, 335.3953
2348.841, 332.8070
2350.770, 333.3607
2352.698, 345.5052
2354.627, 338.3604
2356.555, 329.4418
2358.484, 344.5059
2360.412, 344.4416
2362.341, 337.3983
2364.269, 338.2743
2366.198, 339.7144
2368.126, 343.0990
2370.054, 333.6152
2371.983, 326.0930
2373.911, 326.0470
2375.840, 336.0597
2377.768, 337.5632
2379.697, 321.0161
2381.625, 321.5040
2383.554, 325.5049
2385.482, 322.4014
2387.411, 318.7686
2389.339, 318.2309
2391.268, 326.4937
2393.196, 328.3909
2395.125, 325.7042
2397.053, 325.7188
2398.981, 330.8001
2400.910, 334.8906
2402.838, 320.3204
2404.767, 314.3011
2406.695, 320.9283
2408.624, 330.7666
2410.552, 335.3089
2412.481, 330.7876
2414.409, 318.1484
2416.338, 313.0865
2418.266, 323.8677
2420.195, 340.3410
2422.123, 348.6669
2424.052, 339.4599
2425.980, 337.7940
2427.908, 344.1600
2429.837, 360.7558
2431.765, 378.7725
2433.694, 388.9708
2435.622, 377.5683
2437.551, 374.2089
2439.479, 382.8950
2441.408, 412.5315
2443.336, 431.5134
2445.265, 436.5569
2447.193, 437.1838
2449.122, 447.1534
2451.050, 467.6968
2452.979, 485.8558
2454.907, 490.5800
2456.835, 488.5446
2458.764, 515.7004
2460.692, 543.5984
2462.621, 561.3567
2464.549, 587.3828
2466.478, 599.6022
2468.406, 586.9430
2470.335, 600.7528
2472.263, 620.1277
2474.192, 634.9754
2476.120, 630.4737
2478.049, 620.9769
2479.977, 610.7400
2481.906, 603.1232
2483.834, 588.9839
2485.762, 553.2566
2487.691, 525.3394
2489.619, 503.1522
2491.548, 493.2943
2493.476, 465.1727
2495.405, 437.1460
2497.333, 417.5191
2499.262, 392.6544
2501.190, 369.2142
2503.119, 354.7870
2505.047, 337.3060
2506.976, 313.7970
2508.904, 304.2573
2510.833, 296.2531
2512.761, 286.0905
2514.689, 274.5880
2516.618, 268.5017
2518.546, 260.9644
2520.475, 251.0472
2522.403, 250.9888
2524.332, 253.7874
2526.260, 239.1527
2528.189, 229.3209
2530.117, 223.6732
2532.046, 223.7169
2533.974, 221.2979
2535.903, 215.8105
2537.831, 216.5264
2539.760, 214.5674
2541.688, 212.1067
2543.616, 212.2510
2545.545, 208.4647
2547.473, 204.6233
2549.402, 203.8490
2551.330, 201.0103
2553.259, 199.2658
2555.187, 198.0016
2557.116, 197.4266
2559.044, 195.8327
2560.973, 191.6641
2562.901, 189.0681
2564.830, 185.1820
2566.758, 188.0126
2568.687, 186.7217
2570.615, 183.5621
2572.543, 185.3511
2574.472, 180.7331
2576.400, 176.3365
2578.329, 184.0031
2580.257, 185.0576
2582.186, 178.5313
2584.114, 176.2051
2586.043, 182.8459
2587.971, 181.4907
2589.900, 181.7318
2591.828, 181.2909
2593.757, 179.5196
2595.685, 171.8408
2597.614, 166.5770
2599.542, 175.1107
2601.470, 181.4359
2603.399, 178.1602
2605.327, 176.7384
2607.256, 180.8937
2609.184, 179.2398
2611.113, 176.9158
2613.041, 175.0119
2614.970, 176.8701
2616.898, 180.9111
2618.827, 171.4174
2620.755, 161.8559
2622.684, 174.8710
2624.612, 173.9206
2626.541, 158.7361
2628.469, 162.5113
2630.397, 166.6580
2632.326, 166.9671
2634.254, 167.0369
2636.183, 170.6641
2638.111, 174.1993
2640.040, 168.3360
2641.968, 161.9155
2643.897, 161.2853
2645.825, 161.8586
2647.754, 160.9740
2649.682, 160.7058
2651.611, 164.6767
2653.539, 168.9922
2655.468, 169.9374
2657.396, 168.1313
2659.324, 159.2024
2661.253, 158.4572
2663.181, 162.5739
2665.110, 157.3646
2667.038, 155.5634
2668.967, 157.6215
2670.895, 159.4385
2672.824, 158.8683
2674.752, 156.7935
2676.681, 158.0842
2678.609, 157.1391
2680.538, 155.4621
2682.466, 159.5194
2684.395, 155.6170
2686.323, 152.4642
2688.251, 154.1342
2690.180, 158.8486
2692.108, 162.4947
2694.037, 164.8432
2695.965, 158.2132
2697.894, 150.1134
2699.822, 147.3332
2701.751, 154.2875
2703.679, 158.2323
2705.608, 154.9768
2707.536, 154.3324
2709.465, 154.8045
2711.393, 152.8859
2713.322, 148.6249
2715.250, 148.7325
2717.178, 147.5308
2719.107, 142.3493
2721.035, 148.0932
2722.964, 150.5224
2724.892, 144.0358
2726.821, 146.5537
2728.749, 150.1291
2730.678, 152.0296
2732.606, 145.4214
2734.535, 139.1461
2736.463, 142.1228
2738.392, 147.1168
2740.320, 151.6998
2742.249, 154.6689
2744.177, 148.6750
2746.105, 140.9987
2748.034, 139.8840
2749.962, 145.6575
2751.891, 143.0001
2753.819, 140.9519
2755.748, 142.0841
2757.676, 140.1622
2759.605, 136.1115
2761.533, 133.0465
2763.462, 134.6565
2765.390, 139.3826
2767.319, 140.4358
2769.247, 133.0403
2771.176, 139.3201
2773.104, 138.8968
2775.032, 131.1350
2776.961, 129.5459
2778.889, 129.3110
2780.818, 129.4927
2782.746, 125.9439
2784.675, 127.4553
2786.603, 130.3609
2788.532, 131.2579
2790.460, 118.5781
2792.389, 111.0473
2794.317, 114.1614
2796.246, 122.1870
2798.174, 120.5137
2800.103, 114.7698
2802.031, 115.7693
2803.959, 117.3313
2805.888, 116.8776
2807.816, 114.0663
2809.745, 120.2889
2811.673, 118.9890
2813.602, 110.2697
2815.530, 112.2957
2817.459, 114.0725
2819.387, 113.7728
2821.316, 111.4548
2823.244, 110.8054
2825.173, 110.0677
2827.101, 109.4092
2829.030, 110.6407
2830.958, 110.4677
2832.886, 109.1061
2834.815, 109.1341
2836.743, 107.8591
2838.672, 105.8038
2840.600, 104.3450
2842.529, 104.1701
2844.457, 104.8842
2846.386, 104.7601
2848.314, 97.89323
2850.243, 95.23482
2852.171, 95.14318
2854.100, 94.19994
2856.028, 97.08473
2857.957, 96.51437
2859.885, 93.56935
2861.813, 101.4864
2863.742, 100.0842
2865.670, 94.55765
2867.599, 97.92210
2869.527, 95.28228
2871.456, 94.53558
2873.384, 97.47435
2875.313, 96.44164
2877.241, 96.41543
2879.170, 97.11627
2881.098, 93.00498
2883.027, 94.93117
2884.955, 96.56800
2886.884, 94.21089
2888.812, 90.63580
2890.740, 86.31921
2892.669, 84.94211
2894.597, 94.02170
2896.526, 100.4447
2898.454, 100.3933
2900.383, 94.36713
2902.311, 94.40800
2904.240, 91.00259
2906.168, 87.15952
2908.097, 96.90218
2910.025, 90.25642
2911.954, 85.98677
2913.882, 95.56792
2915.811, 84.11732
2917.739, 82.70390
2919.667, 91.40042
2921.596, 85.81040
2923.524, 91.25253
2925.453, 94.86966
2927.381, 91.69477
2929.310, 89.94628
2931.238, 85.82858
2933.167, 82.70488
2935.095, 83.00397
2937.024, 86.77945
2938.952, 90.10458
2940.881, 88.79233
2942.809, 88.82191
2944.738, 90.43486
2946.666, 92.53097
2948.594, 96.62953
2950.523, 97.38415
2952.451, 95.93412
2954.380, 87.77092
2956.308, 92.21494
2958.237, 92.71344
2960.165, 91.52090
2962.094, 94.11323
2964.022, 96.66454
2965.951, 94.01734
2967.879, 88.85909
2969.808, 87.34990
2971.736, 85.05806
2973.665, 89.47198
2975.593, 101.1881
2977.521, 97.76611
2979.450, 99.20490
2981.378, 102.3475
2983.307, 110.0716
2985.235, 109.0359
2987.164, 103.6675
2989.092, 97.09476
2991.021, 96.39725
2992.949, 101.9166
2994.878, 101.8522
2996.806, 94.38208
2998.735, 99.40881
3000.663, 107.2197
3002.592, 111.8266
3004.520, 110.5976
3006.448, 107.2650
3008.377, 106.9936
3010.305, 107.2696
3012.234, 103.9474
3014.162, 103.1433
3016.091, 105.5433
3018.019, 110.7949
3019.948, 116.0600
3021.876, 116.1396
3023.805, 116.8415
3025.733, 120.0707
3027.662, 118.3340
3029.590, 113.0486
3031.519, 117.1999
3033.447, 130.6992
3035.375, 126.6282
3037.304, 121.2008
3039.232, 126.4792
3041.161, 128.1180
3043.089, 133.7908
3045.018, 135.3456
3046.946, 129.4108
3048.875, 137.9553
3050.803, 138.2386
3052.732, 141.6875
3054.660, 149.0003
3056.589, 151.9488
3058.517, 150.3455
3060.446, 153.7120
3062.374, 166.0296
3064.302, 163.7200
3066.231, 168.4164
3068.159, 174.9598
3070.088, 178.3672
3072.016, 172.2125
3073.945, 180.0911
3075.873, 193.5871
3077.802, 188.9086
3079.730, 192.2191
3081.659, 200.6982
3083.587, 211.3757
3085.516, 219.0852
3087.444, 215.6349
3089.373, 220.4750
3091.301, 230.4051
3093.229, 226.5443
3095.158, 237.1141
3097.086, 248.1068
3099.015, 247.9227
3100.943, 262.3949
3102.872, 266.7779
3104.800, 275.5087
3106.729, 290.4059
3108.657, 298.3604
3110.586, 311.3923
3112.514, 319.2787
3114.443, 319.3010
3116.371, 326.7285
3118.300, 335.0060
3120.228, 340.4607
3122.156, 343.1800
3124.085, 366.4140
3126.013, 363.3865
3127.942, 362.0066
3129.870, 389.5467
3131.799, 396.9214
3133.727, 407.0583
3135.656, 414.7052
3137.584, 419.6544
3139.513, 429.0803
3141.441, 430.3368
3143.370, 430.2469
3145.298, 439.7630
3147.227, 459.9050
3149.155, 470.9764
3151.083, 468.1882
3153.012, 462.8346
3154.940, 474.5294
3156.869, 484.4306
3158.797, 490.9362
3160.726, 496.0740
3162.654, 510.2207
3164.583, 527.4919
3166.511, 535.5127
3168.440, 531.5023
3170.368, 516.5645
3172.297, 529.9094
3174.225, 535.7438
3176.154, 531.2572
3178.082, 557.6357
3180.010, 577.1436
3181.939, 586.0474
3183.867, 581.5017
3185.796, 565.8259
3187.724, 578.2513
3189.653, 588.2173
3191.581, 593.9403
3193.510, 607.4877
3195.438, 610.3293
3197.367, 624.0060
3199.295, 639.4664
3201.224, 640.9864
3203.152, 644.2560
3205.081, 661.2858
3207.009, 671.3683
3208.938, 663.6735
3210.866, 667.2119
3212.794, 680.0178
3214.723, 701.7568
3216.651, 724.6590
3218.580, 721.8791
3220.508, 717.7491
3222.437, 716.8531
3224.365, 717.4561
3226.294, 711.7512
3228.222, 729.5235
3230.151, 744.0208
3232.079, 752.3173
3234.008, 760.2343
3235.936, 783.3863
3237.865, 786.3582
3239.793, 783.6365
3241.721, 792.0452
3243.650, 810.7874
3245.578, 827.6604
3247.507, 844.0267
3249.435, 858.5812
3251.364, 864.3043
3253.292, 896.3099
3255.221, 908.8931
3257.149, 912.9338
3259.078, 939.4763
3261.006, 979.4075
3262.935, 998.3606
3264.863, 1012.226
3266.792, 1036.233
3268.720, 1060.721
3270.648, 1079.300
3272.577, 1073.954
3274.505, 1068.833
3276.434, 1113.644
3278.362, 1112.290
3280.291, 1127.315
3282.219, 1134.590
3284.148, 1111.767
3286.076, 1128.795
3288.005, 1100.303
3289.933, 1086.537
3291.862, 1098.602
3293.790, 1092.536
3295.719, 1085.276
3297.647, 1091.029
3299.575, 1090.106
3301.504, 1065.939
3303.432, 1047.226
3305.361, 1052.021
3307.289, 1065.563
3309.218, 1079.287
3311.146, 1105.264
3313.075, 1084.145
3315.003, 1083.284
3316.932, 1091.103
3318.860, 1081.205
3320.789, 1094.918
3322.717, 1064.240
3324.646, 1080.101
3326.574, 1132.824
3328.502, 1122.563
3330.431, 1123.167
3332.359, 1134.482
3334.288, 1153.764
3336.216, 1167.625
3338.145, 1151.046
3340.073, 1156.495
3342.002, 1175.365
3343.930, 1181.682
3345.859, 1156.050
3347.787, 1172.379
3349.716, 1176.586
3351.644, 1164.686
3353.573, 1144.719
3355.501, 1122.984
3357.429, 1106.232
3359.358, 1096.203
3361.286, 1079.998
3363.215, 1054.822
3365.143, 1043.250
3367.072, 1019.069
3369.000, 999.6774
3370.929, 984.4912
3372.857, 970.8047
3374.786, 950.7346
3376.714, 938.9277
3378.643, 910.8881
3380.571, 892.9801
3382.500, 914.6796
3384.428, 902.8254
3386.356, 856.5197
3388.285, 836.9000
3390.213, 848.3950
3392.142, 858.8718
3394.070, 845.6428
3395.999, 833.4352
3397.927, 839.0020
3399.856, 850.9138
3401.784, 840.2961
3403.713, 861.6133
3405.641, 852.9031
3407.570, 869.6317
3409.498, 917.2812
3411.427, 904.3789
3413.355, 919.7574
3415.283, 906.8774
3417.212, 901.6573
3419.140, 925.4641
3421.069, 945.4774
3422.997, 943.1648
3424.926, 948.8713
3426.854, 938.4835
3428.783, 904.3213
3430.711, 888.4262
3432.640, 898.2248
3434.568, 886.3505
3436.497, 859.0261
3438.425, 839.7815
3440.354, 856.5746
3442.282, 822.2983
3444.210, 774.6501
3446.139, 739.7901
3448.067, 726.8755
3449.996, 730.2424
3451.924, 683.1432
3453.853, 652.9505
3455.781, 635.1663
3457.710, 611.7754
3459.638, 573.3453
3461.567, 551.2537
3463.495, 553.5388
3465.424, 545.9465
3467.352, 516.7211
3469.281, 479.5839
3471.209, 461.4825
3473.137, 478.7905
3475.066, 454.9404
3476.994, 411.6488
3478.923, 404.9493
3480.851, 399.0081
3482.780, 396.7293
3484.708, 382.5283
3486.637, 364.9553
3488.565, 352.8043
3490.494, 332.7046
3492.422, 336.5748
3494.351, 342.2007
3496.279, 328.8977
3498.208, 305.4336
3500.136, 305.3316
3502.064, 301.0149
3503.993, 297.7231
3505.921, 308.9015
3507.850, 312.7209
3509.778, 283.9840
3511.707, 285.8322
3513.635, 279.1667
3515.564, 273.5706
3517.492, 266.3450
3519.421, 256.9694
3521.349, 260.2090
3523.278, 258.0497
3525.206, 247.8477
3527.135, 238.1510
3529.063, 233.2965
3530.991, 230.4086
3532.920, 209.8017
3534.848, 210.0802
3536.777, 206.5626
3538.705, 203.0534
3540.634, 205.4960
3542.562, 201.5144
3544.491, 196.6093
3546.419, 185.3744
3548.348, 175.6050
3550.276, 174.3606
3552.205, 180.2019
3554.133, 172.6642
3556.062, 156.5001
3557.990, 161.0874
3559.918, 159.7470
3561.847, 148.4525
3563.775, 155.8233
3565.704, 154.4144
3567.632, 148.8970
3569.561, 142.8694
3571.489, 140.7529
3573.418, 141.7429
3575.346, 136.8699
3577.275, 137.7682
3579.203, 137.6132
3581.132, 141.0925
3583.060, 142.8678
3584.989, 138.5815
3586.917, 142.0752
3588.845, 141.7324
3590.774, 128.4841
3592.702, 117.8113
3594.631, 120.0672
3596.559, 132.4311
3598.488, 137.1029
3600.416, 133.0450
3602.345, 123.3069
3604.273, 117.5142
3606.202, 122.8773
3608.130, 136.1101
3610.059, 128.6234
3611.987, 136.5181
3613.916, 128.8774
3615.844, 124.1158
3617.772, 124.9441
3619.701, 123.0501
3621.629, 138.4138
3623.558, 127.6404
3625.486, 119.8889
3627.415, 127.3395
3629.343, 134.4725
3631.272, 126.8260
3633.200, 122.1616
3635.129, 138.9924
3637.057, 120.0282
3638.986, 118.4153
3640.914, 126.4407
3642.843, 119.8225
3644.771, 123.4301
3646.699, 115.9694
3648.628, 113.3994
3650.556, 115.0288
3652.485, 120.3874
3654.413, 122.7711
3656.342, 109.8183
3658.270, 103.5641
3660.199, 104.2483
3662.127, 104.1271
3664.056, 101.3645
3665.984, 99.09312
3667.913, 101.0074
3669.841, 106.7917
3671.770, 99.78260
3673.698, 97.09150
3675.626, 99.41189
3677.555, 96.95191
3679.483, 87.84943
3681.412, 84.24118
3683.340, 87.38931
3685.269, 86.48519
3687.197, 88.00148
3689.126, 84.83270
3691.054, 82.45579
3692.983, 87.59774
3694.911, 74.94878
3696.840, 71.20023
3698.768, 71.05377
3700.697, 77.98019
3702.625, 80.96465
3704.553, 76.88925
3706.482, 76.80563
3708.410, 79.19185
3710.339, 73.73272
3712.267, 68.22899
3714.196, 70.38931
3716.124, 71.22608
3718.053, 67.93670
3719.981, 74.69945
3721.910, 74.35202
3723.838, 66.78003
3725.767, 72.68402
3727.695, 70.22009
3729.624, 60.85376
3731.552, 58.00418
3733.480, 59.56739
3735.409, 64.57677
3737.337, 68.52465
3739.266, 60.29518
3741.194, 61.21056
3743.123, 59.08432
3745.051, 47.94675
3746.980, 59.10760
3748.908, 62.43764
3750.837, 58.31386
3752.765, 44.80540
3754.694, 39.52310
3756.622, 46.17760
3758.551, 50.39251
3760.479, 41.10867
3762.407, 52.41191
3764.336, 56.86182
3766.264, 52.52216
3768.193, 46.02419
3770.121, 37.45833
3772.050, 31.84965
3773.978, 35.02185
3775.907, 36.88184
3777.835, 37.30360
3779.764, 35.56115
3781.692, 36.94540
3783.621, 34.80771
3785.549, 31.17501
3787.478, 31.52369
3789.406, 33.32430
3791.334, 26.03963
3793.263, 29.67210
3795.191, 33.56139
3797.120, 28.15872
3799.048, 30.40620
3800.977, 35.50806
3802.905, 27.96755
3804.834, 29.36791
3806.762, 27.50665
3808.691, 30.85330
3810.619, 28.88489
3812.548, 28.92396
3814.476, 27.99195
3816.405, 26.67626
3818.333, 29.13474
3820.261, 22.50447
3822.190, 19.52841
3824.118, 24.87173
3826.047, 20.46309
3827.975, 18.32553
3829.904, 26.66616
3831.832, 31.02748
3833.761, 20.11209
3835.689, 21.79475
3837.618, 16.98152
3839.546, 29.83175
3841.475, 32.18472
3843.403, 25.85098
3845.332, 21.42735
3847.260, 23.09509
3849.188, 25.30382
3851.117, 16.42576
3853.045, 24.98752
3854.974, 21.04733
3856.902, 20.23413
3858.831, 27.79247
3860.759, 23.40948
3862.688, 17.51009
3864.616, 22.18783
3866.545, 21.54356
3868.473, 14.29199
3870.402, 17.97780
3872.330, 28.89552
3874.259, 20.79806
3876.187, 17.99658
3878.115, 19.60499
3880.044, 21.45207
3881.972, 22.75827
3883.901, 16.07652
3885.829, 23.25683
3887.758, 22.58890
3889.686, 20.81930
3891.615, 18.55619
3893.543, 19.24859
3895.472, 19.12259
3897.400, 18.26051
3899.329, 20.45124
3901.257, 23.96665
3903.186, 20.48977
3905.114, 19.71911
3907.042, 23.71540
3908.971, 19.56980
3910.899, 22.16931
3912.828, 21.10003
3914.756, 15.00412
3916.685, 15.16567
3918.613, 21.95133
3920.542, 22.33186
3922.470, 18.57759
3924.399, 20.15861
3926.327, 17.42072
3928.256, 15.20868
3930.184, 20.46122
3932.113, 23.38255
3934.041, 18.70740
3935.969, 14.35695
3937.898, 16.09718
3939.826, 19.78230
3941.755, 22.14829
3943.683, 20.31742
3945.612, 23.72169
3947.540, 20.57284
3949.469, 19.21655
3951.397, 19.91829
3953.326, 21.47944
3955.254, 24.06413
3957.183, 20.43958
3959.111, 18.46778
3961.040, 18.14603
3962.968, 19.09834
3964.896, 26.60892
3966.825, 26.52562
3968.753, 21.91563
3970.682, 23.06887
3972.610, 21.42725
3974.539, 14.43398
3976.467, 16.49401
3978.396, 20.29616
3980.324, 24.75412
3982.253, 14.93729
3984.181, 25.11201
3986.110, 18.01978
3988.038, 15.80189
3989.967, 14.44708
3991.895, 18.16133
3993.823, 20.43283
3995.752, 17.05397
3997.680, 20.63731
3999.609, 22.55569
4001.537, 20.63288
4003.466, 22.67651
4005.394, 20.02230
4007.323, 14.60089
4009.251, 8.010232
4011.180, 17.16806
4013.108, 16.90788
4015.037, 16.62017
4016.965, 20.48078
4018.894, 14.57948
4020.822, 19.28239
4022.750, 28.38407
4024.679, 23.58548
4026.607, 19.07771
4028.536, 19.99667
4030.464, 22.85230
4032.393, 18.35387
4034.321, 19.36047
4036.250, 18.80059
4038.178, 16.95565
4040.107, 14.79697
4042.035, 14.32177
4043.964, 20.03418
4045.892, 12.58475
4047.821, 16.13206
4049.749, 20.99410
4051.677, 11.63661
4053.606, 14.68875
4055.534, 19.53290
4057.463, 21.55445
4059.391, 17.42842
4061.320, 14.57748
4063.248, 15.37765
4065.177, 11.02793
4067.105, 9.387632
4069.034, 22.82774
4070.962, 22.53287
4072.891, 18.99359
4074.819, 27.62009
4076.748, 9.167112
4078.676, 7.532662
4080.604, 10.55083
4082.533, 18.00024
4084.461, 22.72849
4086.390, 21.00844
4088.318, 18.33494
4090.247, 15.35497
4092.175, 11.59140
4094.104, 11.38289
4096.032, 14.62432
4097.960, 14.80772
4099.889, 16.64343
4101.817, 14.81309
4103.746, 18.75510
4105.674, 15.19410
4107.603, 16.20221
4109.531, 17.94632
4111.460, 22.61725
4113.388, 18.24540
4115.317, 22.35515
4117.245, 21.89596
4119.174, 19.89044
4121.102, 21.48977
4123.031, 20.27700
4124.959, 15.92152
4126.888, 12.67158
4128.816, 15.43551
4130.745, 23.22518
4132.673, 17.07920
4134.602, 23.41188
4136.530, 11.44204
4138.458, 19.76313
4140.387, 17.91339
4142.315, 16.03506
4144.244, 23.55576
4146.172, 21.48818
4148.101, 18.87702
4150.029, 20.94191
4151.958, 19.07140
4153.886, 11.17807
4155.814, 13.47333
4157.743, 18.30179
4159.671, 11.34568
4161.600, 15.25551
4163.528, 16.88517
4165.457, 14.94576
4167.385, 12.89030
4169.314, 12.60922
4171.242, 15.95139
4173.171, 27.47325
4175.099, 14.77386
4177.028, 18.97105
4178.956, 10.16433
4180.885, 16.80457
4182.813, 14.76526
4184.742, 14.69035
4186.670, 11.60116
4188.599, 15.37642
4190.527, 17.12457
4192.456, 23.22068
4194.384, 22.53325
4196.313, 13.06229
4198.241, 11.93000
4200.169, 11.89047
4202.098, 18.00558
4204.026, 17.60706
4205.955, 10.00902
4207.883, 20.91767
4209.812, 13.06748
4211.740, 19.62660
4213.668, 5.386027
4215.597, 9.709332
4217.525, 14.30952
4219.454, 17.32769
4221.382, 13.21200
4223.311, 17.23429
4225.239, 24.93073
4227.168, 21.93307
4229.096, 17.65112
4231.025, 7.389053
4232.953, 20.07423
4234.882, 15.11096
4236.810, 14.84394
4238.739, 17.15750
4240.667, 15.70170
4242.596, 20.63658
4244.524, 15.58552
4246.453, 8.834343
4248.381, 12.42305
4250.310, 10.24771
4252.238, 12.49282
4254.167, 20.63638
4256.095, 23.09552
4258.023, 17.25335
4259.952, 17.85852
4261.880, 26.05503
4263.809, 21.88661
4265.737, 15.54180
4267.666, 13.25886
4269.594, 17.18519
4271.522, 15.45311
4273.451, 18.02830
4275.379, 6.273647
4277.308, 26.52600
4279.236, 17.52758
4281.165, 13.91474
4283.093, 8.543318
4285.022, 18.21398
4286.950, 13.89967
4288.879, 17.93981
4290.807, 21.63809
4292.736, 20.89111
4294.664, 15.96183
4296.593, 20.42433
4298.521, 18.54610
4300.450, 20.76364
4302.378, 20.10861
4304.307, 24.62630
4306.235, 13.08045
4308.164, 10.40108
4310.092, 12.98902
4312.021, 14.94815
4313.949, 12.64270
4315.877, 12.77687
4317.806, 18.41119
4319.734, 15.80932
4321.663, 17.29005
4323.591, 22.83005
4325.520, 19.13719
4327.448, 16.63273
4329.376, 16.87033
4331.305, 14.67191
4333.233, 18.80067
4335.162, 25.27823
4337.090, 21.81139
4339.019, 13.53458
4340.947, 13.02498
4342.876, 18.29086
4344.804, 20.50553
4346.733, 23.54426
4348.661, 21.77871
4350.590, 17.08451
4352.518, 18.62208
4354.447, 17.50104
4356.375, 16.76143
4358.304, 10.60634
4360.232, 19.87063
4362.161, 23.01211
4364.089, 17.63224
4366.018, 19.40367
4367.946, 20.00554
4369.875, 15.59910
4371.803, 20.94771
4373.731, 16.24658
4375.660, 17.25944
4377.588, 17.18258
4379.517, 18.23714
4381.445, 8.092525
##END=



