##NAMES=Raspite
##RRUFFID=R050567
##IDEAL CHEMISTRY=Pb(WO_4_)
##LOCALITY=Broken Hill, New South Wales, Australia
##OWNER=RRUFF
##SOURCE=University of Arizona Mineral Museum
##DESCRIPTION=Brown tabular crystal
##STATUS=The identification of this mineral is confirmed by single-crystal X-ray diffraction and chemical analysis
##URL=https://www.rruff.net/odr/rruff_sample/R050567
##MEASURED CHEMISTRY=Pb_1.00_W_1.00_O_4_
##DIFFRACTION SAMPLE DESCRIPTION=Single crystal, powder profile is calculated
##CELL PARAMETERS=a: 13.578 b: 4.9779 c: 5.566 alpha: 90 beta: 107.661 gamma: 90 volume: 358.47 crystal system: monoclinic
##FILETYPE=Raman Processed
##RAMAN WAVELENGTH=780

85.34569, 21287.39
87.27415, 23209.79
89.20262, 25623.16
91.13109, 28466.16
93.05956, 30706.91
94.98802, 33101.24
96.91649, 34770.95
98.84496, 35030.97
100.7734, 34255.87
102.7019, 32781.88
104.6304, 30068.90
106.5588, 28363.83
108.4873, 27786.21
110.4158, 28120.14
112.3442, 29521.83
114.2727, 31621.66
116.2011, 33182.54
118.1296, 34467.34
120.0581, 34436.63
121.9865, 32115.45
123.9150, 29458.26
125.8435, 27194.82
127.7719, 25433.66
129.7004, 24628.55
131.6289, 24737.86
133.5574, 25679.64
135.4858, 27742.59
137.4143, 30278.15
139.3428, 33589.59
141.2712, 37002.08
143.1997, 38666.10
145.1281, 38577.34
147.0566, 37608.13
148.9851, 35272.17
150.9135, 32988.21
152.8420, 31243.86
154.7705, 29994.36
156.6989, 29128.38
158.6274, 28620.39
160.5559, 28805.68
162.4843, 29739.81
164.4128, 31429.47
166.3413, 33695.50
168.2697, 36719.27
170.1982, 40582.03
172.1267, 45342.75
174.0551, 51927.65
175.9836, 61286.51
177.9121, 70496.77
179.8405, 81800.97
181.7690, 90141.48
183.6975, 89949.08
185.6259, 82545.91
187.5544, 73392.04
189.4829, 61745.93
191.4113, 51669.21
193.3398, 44436.96
195.2683, 38546.47
197.1967, 33365.96
199.1252, 28953.90
201.0537, 25261.39
202.9821, 22312.67
204.9106, 19951.55
206.8391, 18305.69
208.7675, 17059.41
210.6960, 16224.84
212.6245, 15692.21
214.5529, 15338.49
216.4814, 15151.32
218.4099, 15057.83
220.3383, 15080.31
222.2668, 15158.13
224.1953, 15298.88
226.1237, 15474.37
228.0522, 15661.57
229.9807, 15866.28
231.9091, 16101.24
233.8376, 16346.39
235.7661, 16690.17
237.6945, 17087.42
239.6230, 17632.53
241.5515, 18427.53
243.4799, 19363.13
245.4084, 20317.42
247.3369, 21291.52
249.2654, 22263.61
251.1938, 23218.37
253.1223, 24195.04
255.0508, 25235.82
256.9792, 26261.61
258.9077, 27236.56
260.8362, 28156.80
262.7646, 28979.85
264.6931, 29585.79
266.6216, 30391.50
268.5500, 31260.62
270.4785, 32501.76
272.4070, 34151.25
274.3354, 36321.12
276.2639, 39499.00
278.1924, 43573.18
280.1208, 46453.73
282.0493, 48511.75
283.9778, 48455.06
285.9062, 44962.18
287.8347, 40961.27
289.7632, 37438.20
291.6916, 34675.68
293.6201, 33296.05
295.5486, 33434.80
297.4770, 33685.98
299.4055, 34363.22
301.3340, 34270.55
303.2624, 32754.19
305.1909, 30804.68
307.1194, 28765.49
309.0478, 26801.65
310.9763, 25262.29
312.9048, 24195.58
314.8332, 23354.02
316.7617, 22767.23
318.6902, 22314.85
320.6186, 21948.73
322.5471, 21723.99
324.4756, 21696.37
326.4040, 21829.55
328.3325, 22060.21
330.2609, 22388.31
332.1894, 22730.03
334.1179, 23105.27
336.0463, 23424.55
337.9748, 23657.71
339.9033, 23825.28
341.8317, 23928.84
343.7602, 23973.63
345.6887, 23937.89
347.6171, 23835.76
349.5456, 23848.10
351.4741, 24008.64
353.4025, 24236.92
355.3310, 24486.91
357.2595, 24824.55
359.1879, 25279.36
361.1164, 25849.31
363.0449, 26576.46
364.9733, 27428.25
366.9018, 28200.96
368.8303, 28829.68
370.7587, 29520.86
372.6872, 30266.64
374.6157, 31147.66
376.5441, 32232.39
378.4726, 33454.32
380.4011, 34773.09
382.3295, 36157.93
384.2580, 37509.43
386.1865, 38847.30
388.1149, 40034.48
390.0434, 41307.57
391.9719, 42086.60
393.9003, 42263.04
395.8288, 41803.64
397.7573, 40448.89
399.6857, 38472.86
401.6142, 36359.41
403.5427, 34084.84
405.4711, 31998.91
407.3996, 30065.85
409.3281, 28438.18
411.2565, 27203.34
413.1850, 26207.81
415.1135, 25416.44
417.0419, 24783.89
418.9704, 24269.32
420.8989, 23865.56
422.8273, 23464.68
424.7558, 23069.06
426.6843, 22668.41
428.6127, 22224.87
430.5412, 21828.52
432.4697, 21494.29
434.3981, 21235.38
436.3266, 21068.44
438.2551, 20979.73
440.1835, 20934.56
442.1120, 20928.77
444.0405, 20993.80
445.9689, 21127.58
447.8974, 21322.30
449.8259, 21578.56
451.7543, 21895.03
453.6828, 22289.26
455.6113, 22730.61
457.5397, 23197.05
459.4682, 23688.91
461.3967, 24203.38
463.3251, 24741.11
465.2536, 25304.45
467.1821, 25891.21
469.1105, 26497.53
471.0390, 27077.69
472.9675, 27753.45
474.8959, 28581.56
476.8244, 29536.41
478.7529, 30614.58
480.6813, 31803.84
482.6098, 33065.63
484.5383, 34402.88
486.4667, 35816.08
488.3952, 37409.56
490.3237, 38687.23
492.2521, 39673.16
494.1806, 40032.43
496.1091, 39567.82
498.0375, 38540.18
499.9660, 36961.81
501.8945, 35059.22
503.8229, 33383.28
505.7514, 31931.13
507.6799, 30735.54
509.6083, 29786.43
511.5368, 29195.09
513.4653, 29071.70
515.3937, 29156.54
517.3222, 29453.20
519.2507, 29807.25
521.1791, 30223.62
523.1076, 30568.42
525.0361, 30701.94
526.9645, 30562.80
528.8930, 29869.45
530.8215, 28602.28
532.7499, 27179.30
534.6784, 25537.82
536.6069, 24044.33
538.5353, 22764.75
540.4638, 21664.95
542.3923, 20794.40
544.3207, 20036.46
546.2492, 19274.98
548.1777, 18553.11
550.1061, 17948.61
552.0346, 17449.16
553.9631, 16989.25
555.8915, 16564.47
557.8200, 16185.88
559.7485, 15874.65
561.6769, 15579.14
563.6054, 15286.99
565.5339, 15016.32
567.4623, 14795.84
569.3908, 14583.22
571.3193, 14311.71
573.2477, 14133.22
575.1762, 13848.52
577.1047, 13747.69
579.0331, 13611.53
580.9616, 13426.01
582.8901, 13244.63
584.8185, 13055.07
586.7470, 12887.86
588.6755, 12736.02
590.6039, 12626.01
592.5324, 12572.24
594.4609, 12557.62
596.3893, 12553.37
598.3178, 12590.87
600.2463, 12702.42
602.1747, 12896.71
604.1032, 13240.12
606.0317, 13760.54
607.9601, 14300.18
609.8886, 14867.28
611.8171, 15433.41
613.7455, 16017.43
615.6740, 16555.19
617.6025, 16996.61
619.5309, 17423.85
621.4594, 17789.50
623.3879, 18257.06
625.3163, 18968.73
627.2448, 19898.63
629.1733, 21033.47
631.1017, 22362.19
633.0302, 23741.76
634.9587, 25195.66
636.8871, 26579.15
638.8156, 28015.97
640.7441, 28859.21
642.6725, 29028.13
644.6010, 28465.88
646.5295, 26818.30
648.4579, 24862.25
650.3864, 22740.90
652.3149, 20747.50
654.2433, 19106.41
656.1718, 17819.24
658.1003, 16912.61
660.0287, 16360.49
661.9572, 16066.75
663.8857, 16019.14
665.8141, 16029.91
667.7426, 16092.34
669.6711, 16178.95
671.5995, 16339.43
673.5280, 16363.25
675.4565, 16148.48
677.3849, 15845.36
679.3134, 15505.79
681.2419, 15078.16
683.1703, 14492.40
685.0988, 13846.25
687.0273, 13205.25
688.9557, 12599.80
690.8842, 12104.54
692.8127, 11688.31
694.7411, 11254.39
696.6696, 10807.04
698.5980, 10417.16
700.5265, 10096.01
702.4550, 9785.058
704.3834, 9456.611
706.3119, 9186.265
708.2404, 9011.720
710.1688, 8848.813
712.0973, 8644.661
714.0258, 8485.486
715.9542, 8443.959
717.8827, 8436.014
719.8112, 8398.183
721.7396, 8346.579
723.6681, 8297.703
725.5966, 8256.636
727.5250, 8222.724
729.4535, 8237.600
731.3820, 8229.554
733.3104, 8314.065
735.2389, 8397.861
737.1674, 8488.072
739.0958, 8550.387
741.0243, 8557.648
742.9528, 8590.094
744.8812, 8698.484
746.8097, 8751.936
748.7382, 8705.733
750.6666, 8614.854
752.5951, 8490.846
754.5236, 8351.160
756.4520, 8183.370
758.3805, 8028.013
760.3090, 7906.624
762.2374, 7835.739
764.1659, 7852.054
766.0944, 7935.583
768.0228, 8036.834
769.9513, 8150.582
771.8798, 8224.599
773.8082, 8298.304
775.7367, 8363.962
777.6652, 8402.701
779.5936, 8473.943
781.5221, 8501.955
783.4506, 8571.021
785.3790, 8714.531
787.3075, 8831.773
789.2360, 8866.729
791.1644, 8937.442
793.0929, 9112.172
795.0214, 9296.591
796.9498, 9431.646
798.8783, 9586.178
800.8068, 9798.565
802.7352, 10050.75
804.6637, 10328.70
806.5922, 10634.83
808.5206, 10976.32
810.4491, 11347.40
812.3776, 11740.26
814.3060, 12150.20
816.2345, 12551.33
818.1630, 12948.77
820.0914, 13378.05
822.0199, 13848.61
823.9484, 14399.87
825.8768, 15027.57
827.8053, 15870.97
829.7338, 16873.01
831.6622, 18540.28
833.5907, 20801.64
835.5192, 24238.99
837.4476, 29296.89
839.3761, 34896.64
841.3046, 41406.84
843.2330, 47474.17
845.1615, 52868.87
847.0900, 57532.09
849.0184, 60659.58
850.9469, 64069.83
852.8754, 67790.95
854.8038, 73457.28
856.7323, 82205.88
858.6608, 93712.45
860.5892, 108158.3
862.5177, 124749.8
864.4462, 143755.0
866.3746, 163396.9
868.3031, 184358.1
870.2316, 202269.6
872.1600, 208178.1
874.0885, 202351.5
876.0170, 183790.1
877.9454, 153952.0
879.8739, 124425.0
881.8024, 95240.10
883.7308, 71433.24
885.6593, 53267.21
887.5878, 39264.16
889.5162, 29963.38
891.4447, 22891.37
893.3732, 18519.93
895.3016, 15159.92
897.2301, 13000.48
899.1586, 11308.81
901.0870, 10102.48
903.0155, 9174.599
904.9440, 8552.916
906.8724, 8048.035
908.8009, 7635.070
910.7294, 7286.142
912.6578, 7017.070
914.5863, 6759.972
916.5148, 6481.156
918.4432, 6223.064
920.3717, 5998.146
922.3002, 5810.080
924.2286, 5682.666
926.1571, 5560.029
928.0856, 5405.605
930.0140, 5256.009
931.9425, 5134.594
933.8710, 5029.637
935.7994, 4928.798
937.7279, 4841.660
939.6564, 4785.398
941.5848, 4730.676
943.5133, 4641.941
945.4418, 4594.500
947.3702, 4506.454
949.2987, 4472.029
951.2272, 4402.971
953.1556, 4329.526
955.0841, 4291.467
957.0126, 4272.170
958.9410, 4261.157
960.8695, 4251.692
962.7980, 4210.744
964.7264, 4154.539
966.6549, 4130.146
968.5834, 4127.122
970.5118, 4120.079
972.4403, 4109.749
974.3688, 4093.342
976.2972, 4075.822
978.2257, 4068.175
980.1542, 4072.026
982.0826, 4106.108
984.0111, 4152.834
985.9396, 4131.343
987.8680, 4061.929
989.7965, 4050.872
991.7250, 4091.513
993.6534, 4131.712
995.5819, 4168.532
997.5104, 4171.547
999.4388, 4200.046
1001.367, 4215.770
1003.296, 4218.029
1005.224, 4245.521
1007.153, 4235.025
1009.081, 4245.041
1011.010, 4280.164
1012.938, 4297.160
1014.867, 4293.052
1016.795, 4291.673
1018.724, 4294.262
1020.652, 4288.597
1022.580, 4270.505
1024.509, 4277.335
1026.437, 4313.455
1028.366, 4343.767
1030.294, 4370.877
1032.223, 4374.451
1034.151, 4405.479
1036.080, 4436.319
1038.008, 4446.359
1039.937, 4497.083
1041.865, 4514.364
1043.794, 4516.455
1045.722, 4497.322
1047.651, 4504.972
1049.579, 4543.768
1051.507, 4573.741
1053.436, 4592.889
1055.364, 4636.551
1057.293, 4703.410
1059.221, 4764.688
1061.150, 4823.767
1063.078, 4851.503
1065.007, 4848.129
1066.935, 4890.891
1068.864, 4975.513
1070.792, 5041.791
1072.721, 5092.948
1074.649, 5149.154
1076.578, 5206.669
1078.506, 5228.643
1080.434, 5282.966
1082.363, 5326.612
1084.291, 5361.991
1086.220, 5422.258
1088.148, 5456.122
1090.077, 5508.478
1092.005, 5574.754
1093.934, 5642.134
1095.862, 5714.136
1097.791, 5799.336
1099.719, 5886.217
1101.648, 5952.570
1103.576, 6004.904
1105.505, 6033.361
1107.433, 6113.646
1109.361, 6136.188
1111.290, 6246.674
1113.218, 6316.656
1115.147, 6366.850
1117.075, 6439.863
1119.004, 6530.072
1120.932, 6634.395
1122.861, 6733.186
1124.789, 6793.823
1126.718, 6839.857
1128.646, 6895.823
1130.575, 6964.583
1132.503, 7050.822
1134.432, 7146.014
1136.360, 7236.666
1138.288, 7333.842
1140.217, 7457.233
1142.145, 7582.257
1144.074, 7689.440
1146.002, 7798.694
1147.931, 7921.714
1149.859, 8035.437
1151.788, 8113.976
1153.716, 8221.748
1155.645, 8402.610
1157.573, 8587.421
1159.502, 8748.268
1161.430, 8900.793
1163.359, 9052.307
1165.287, 9200.711
1167.215, 9338.238
1169.144, 9494.680
1171.072, 9678.720
1173.001, 9868.180
1174.929, 10061.12
1176.858, 10242.85
1178.786, 10410.25
1180.715, 10610.01
1182.643, 10844.04
1184.572, 11071.97
1186.500, 11294.98
1188.429, 11523.08
1190.357, 11758.17
1192.286, 12025.62
1194.214, 12318.28
1196.142, 12586.00
1198.071, 12837.82
1199.999, 13099.58
1201.928, 13377.03
1203.856, 13690.18
1205.785, 14020.26
1207.713, 14341.95
1209.642, 14661.28
1211.570, 14967.61
1213.499, 15284.65
1215.427, 15650.52
1217.356, 16045.95
1219.284, 16441.01
1221.213, 16856.78
1223.141, 17323.80
1225.069, 17795.57
1226.998, 18230.78
1228.926, 18704.50
1230.855, 19228.39
1232.783, 19813.15
1234.712, 20438.83
1236.640, 21101.22
1238.569, 21844.15
1240.497, 22583.71
1242.426, 23397.97
1244.354, 24292.07
1246.283, 25265.81
1248.211, 26339.20
1250.140, 27512.79
1252.068, 28704.62
1253.996, 29928.79
1255.925, 31297.00
1257.853, 32797.15
1259.782, 34367.31
1261.710, 36055.63
1263.639, 37945.84
1265.567, 40037.76
1267.496, 42315.03
1269.424, 44810.12
1271.353, 47540.48
1273.281, 50517.95
1275.210, 53753.20
1277.138, 57230.07
1279.067, 60926.73
1280.995, 64874.83
1282.923, 69120.55
1284.852, 73552.16
1286.780, 78158.13
1288.709, 82928.36
1290.637, 87855.66
1292.566, 92933.84
1294.494, 98186.35
1296.423, 103283.5
1298.351, 108242.2
1300.280, 112816.1
1302.208, 116930.1
1304.137, 120396.9
1306.065, 123233.9
1307.994, 125409.6
1309.922, 126915.1
1311.850, 127789.2
1313.779, 127954.7
1315.707, 127276.6
1317.636, 125966.0
1319.564, 123950.1
1321.493, 121697.6
1323.421, 119290.1
1325.350, 116822.7
1327.278, 114326.2
1329.207, 111824.5
1331.135, 109289.3
1333.064, 107001.9
1334.992, 104986.6
1336.921, 103250.9
1338.849, 101785.4
1340.777, 100585.3
1342.706, 99709.23
1344.634, 99207.03
1346.563, 99055.88
1348.491, 99286.68
1350.420, 99796.52
1352.348, 100426.6
1354.277, 101411.9
1356.205, 102914.2
1358.134, 104788.0
1360.062, 106920.6
1361.991, 109488.5
1363.919, 112571.4
1365.848, 115939.9
1367.776, 119519.8
1369.704, 123842.3
1371.633, 128934.3
1373.561, 134856.0
1375.490, 141562.8
1377.418, 148901.0
1379.347, 156999.6
1381.275, 166092.1
1383.204, 176116.0
1385.132, 186975.4
1387.061, 198645.3
1388.989, 211255.3
1390.918, 224440.2
1392.846, 238050.4
1394.775, 252043.3
1396.703, 266522.4
1398.631, 281037.7
1400.560, 295608.4
1402.488, 309186.0
1404.417, 321530.2
1406.345, 331462.7
1408.274, 338807.0
1410.202, 343442.4
1412.131, 344852.6
1414.059, 342175.5
1415.988, 336113.0
1417.916, 326721.9
1419.845, 315522.6
1421.773, 302788.3
1423.702, 289667.7
1425.630, 276336.3
1427.558, 263460.7
1429.487, 251137.3
1431.415, 239882.9
1433.344, 229822.2
1435.272, 221276.0
1437.201, 214174.4
1439.129, 208408.6
1441.058, 203781.5
1442.986, 200233.0
1444.915, 197748.2
1446.843, 196376.6
1448.771, 195876.8
1450.700, 196270.7
1452.628, 197171.4
1454.557, 198550.4
1456.485, 200476.1
1458.414, 202951.9
1460.342, 206087.0
1462.271, 209662.8
1464.199, 213306.7
1466.128, 217168.6
1468.056, 221438.4
1469.985, 225816.7
1471.913, 230191.0
1473.842, 234533.5
1475.770, 238959.3
1477.698, 243062.5
1479.627, 246760.3
1481.555, 249737.0
1483.484, 252101.9
1485.412, 253927.7
1487.341, 255125.9
1489.269, 255677.8
1491.198, 255292.6
1493.126, 253782.2
1495.055, 251316.5
1496.983, 247879.3
1498.912, 243783.5
1500.840, 239004.1
1502.769, 233765.7
1504.697, 228063.7
1506.625, 222080.9
1508.554, 215948.3
1510.482, 209732.1
1512.411, 203701.0
1514.339, 198322.8
1516.268, 193249.7
1518.196, 188132.9
1520.125, 183654.2
1522.053, 180109.8
1523.982, 177045.9
1525.910, 174408.0
1527.839, 172261.9
1529.767, 170543.6
1531.696, 169234.4
1533.624, 168415.1
1535.552, 168092.8
1537.481, 168256.4
1539.409, 169012.0
1541.338, 170046.6
1543.266, 171268.5
1545.195, 172596.6
1547.123, 174041.1
1549.052, 175814.0
1550.980, 177900.0
1552.909, 180261.3
1554.837, 182569.4
1556.766, 184470.8
1558.694, 186263.9
1560.623, 188104.2
1562.551, 189737.2
1564.479, 191175.9
1566.408, 192346.2
1568.336, 193145.1
1570.265, 193221.6
1572.193, 192634.6
1574.122, 191668.4
1576.050, 190152.8
1577.979, 187818.1
1579.907, 184956.6
1581.836, 181747.8
1583.764, 178073.9
1585.693, 173853.3
1587.621, 169441.9
1589.550, 164915.5
1591.478, 160311.6
1593.406, 155692.8
1595.335, 151003.1
1597.263, 146446.6
1599.192, 142241.9
1601.120, 138162.4
1603.049, 134047.5
1604.977, 130316.8
1606.906, 127004.7
1608.834, 123789.1
1610.763, 120718.6
1612.691, 117994.7
1614.620, 115570.2
1616.548, 113408.5
1618.477, 111461.1
1620.405, 109691.0
1622.333, 107974.1
1624.262, 106392.2
1626.190, 105010.0
1628.119, 103787.4
1630.047, 102874.8
1631.976, 102067.1
1633.904, 101158.7
1635.833, 100333.8
1637.761, 99679.27
1639.690, 99066.29
1641.618, 98434.87
1643.547, 97848.69
1645.475, 97279.15
1647.404, 96608.77
1649.332, 95892.00
1651.260, 95163.98
1653.189, 94416.12
1655.117, 93636.27
1657.046, 92692.39
1658.974, 91705.99
1660.903, 90660.86
1662.831, 89459.36
1664.760, 88310.97
1666.688, 87013.21
1668.617, 85624.23
1670.545, 84197.86
1672.474, 82772.70
1674.402, 81338.67
1676.331, 79865.64
1678.259, 78369.47
1680.188, 76878.52
1682.116, 75445.64
1684.044, 74113.46
1685.973, 72724.13
1687.901, 71406.79
1689.830, 70117.30
1691.758, 68808.51
1693.687, 67608.38
1695.615, 66334.43
1697.544, 65201.47
1699.472, 64006.56
1701.401, 62989.84
1703.329, 61912.39
1705.258, 60851.48
1707.186, 59837.02
1709.115, 58870.13
1711.043, 57939.63
1712.971, 57025.32
1714.900, 56167.64
1716.828, 55333.01
1718.757, 54577.06
1720.685, 53787.38
1722.614, 53063.99
1724.542, 52406.13
1726.471, 51834.64
1728.399, 51305.66
1730.328, 50831.33
1732.256, 50321.84
1734.185, 49741.16
1736.113, 49346.90
1738.042, 49144.84
1739.970, 48936.86
1741.898, 48729.31
1743.827, 48584.29
1745.755, 48494.30
1747.684, 48486.29
1749.612, 48630.18
1751.541, 48875.41
1753.469, 49105.89
1755.398, 49423.68
1757.326, 49919.69
1759.255, 50514.67
1761.183, 51249.98
1763.112, 52200.71
1765.040, 53350.00
1766.969, 54610.78
1768.897, 55932.15
1770.825, 57346.31
1772.754, 58916.32
1774.682, 60623.90
1776.611, 62322.38
1778.539, 64055.81
1780.468, 65778.05
1782.396, 67453.06
1784.325, 69063.63
1786.253, 70439.59
1788.182, 71464.07
1790.110, 72153.07
1792.039, 72496.45
1793.967, 72444.66
1795.896, 72112.70
1797.824, 71443.66
1799.752, 70467.55
1801.681, 69302.56
1803.609, 67932.96
1805.538, 66309.61
1807.466, 64543.55
1809.395, 62765.27
1811.323, 61020.24
1813.252, 59431.95
1815.180, 57900.12
1817.109, 56622.45
1819.037, 55133.30
1820.966, 53786.38
1822.894, 52634.48
1824.823, 51702.03
1826.751, 50884.04
1828.679, 50158.93
1830.608, 49580.26
1832.536, 49088.78
1834.465, 48675.77
1836.393, 48394.45
1838.322, 48198.20
1840.250, 48129.55
1842.179, 48238.12
1844.107, 48450.57
1846.036, 48835.60
1847.964, 49365.41
1849.893, 50023.21
1851.821, 50863.23
1853.750, 51810.76
1855.678, 52927.71
1857.606, 54404.37
1859.535, 56244.13
1861.463, 58335.60
1863.392, 60772.80
1865.320, 63615.75
1867.249, 66826.23
1869.177, 70392.91
1871.106, 74247.20
1873.034, 78481.55
1874.963, 83114.54
1876.891, 87989.32
1878.820, 93161.26
1880.748, 98366.30
1882.677, 103436.0
1884.605, 108302.1
1886.533, 112728.8
1888.462, 116615.7
1890.390, 119711.0
1892.319, 121606.8
1894.247, 122062.3
1896.176, 121055.8
1898.104, 118440.9
1900.033, 114475.3
1901.961, 109227.7
1903.890, 103172.5
1905.818, 96787.85
1907.747, 90191.91
1909.675, 83582.34
1911.604, 77193.34
1913.532, 71168.66
1915.460, 65547.24
1917.389, 60498.39
1919.317, 55967.45
1921.246, 51850.08
1923.174, 48208.92
1925.103, 45076.91
1927.031, 42343.45
1928.960, 39931.46
1930.888, 37816.09
1932.817, 35901.51
1934.745, 34088.60
1936.674, 32402.82
1938.602, 30969.02
1940.531, 29773.57
1942.459, 28681.01
1944.387, 27653.94
1946.316, 26625.48
1948.244, 25627.42
1950.173, 24673.50
1952.101, 23782.57
1954.030, 23028.81
1955.958, 22330.75
1957.887, 21648.95
1959.815, 20991.97
1961.744, 20405.41
1963.672, 19835.73
1965.601, 19321.23
1967.529, 18819.27
1969.458, 18385.40
1971.386, 17953.61
1973.314, 17556.82
1975.243, 17159.00
1977.171, 16797.94
1979.100, 16427.65
1981.028, 16122.79
1982.957, 15812.81
1984.885, 15511.06
1986.814, 15195.88
1988.742, 14881.25
1990.671, 14568.35
1992.599, 14301.58
1994.528, 14054.55
1996.456, 13783.97
1998.385, 13550.89
2000.313, 13312.44
2002.241, 13085.24
2004.170, 12868.30
2006.098, 12613.96
2008.027, 12434.77
2009.955, 12276.32
2011.884, 12073.22
2013.812, 11861.08
2015.741, 11633.68
2017.669, 11410.19
2019.598, 11198.58
2021.526, 10988.85
2023.455, 10850.49
2025.383, 10665.40
2027.312, 10484.73
2029.240, 10375.96
2031.168, 10160.49
2033.097, 10054.36
2035.025, 9973.001
2036.954, 9822.368
2038.882, 9621.225
2040.811, 9479.677
2042.739, 9330.987
2044.668, 9181.635
2046.596, 9036.824
2048.525, 8866.232
2050.453, 8745.632
2052.382, 8640.252
2054.310, 8484.440
2056.239, 8348.323
2058.167, 8279.097
2060.095, 8203.854
2062.024, 8072.482
2063.952, 7930.108
2065.881, 7819.012
2067.809, 7703.079
2069.738, 7632.996
2071.666, 7536.642
2073.595, 7496.398
2075.523, 7388.984
2077.452, 7344.229
2079.380, 7293.341
2081.309, 7216.533
2083.237, 7129.749
2085.166, 7013.262
2087.094, 6908.466
2089.022, 6861.042
2090.951, 6813.598
2092.879, 6754.922
2094.808, 6682.942
2096.736, 6585.687
2098.665, 6530.290
2100.593, 6507.998
2102.522, 6482.070
2104.450, 6355.760
2106.379, 6310.475
2108.307, 6150.432
2110.236, 6134.944
2112.164, 6060.234
2114.093, 5966.252
2116.021, 5902.172
2117.949, 5839.543
2119.878, 5774.231
2121.806, 5707.937
2123.735, 5639.585
2125.663, 5583.946
2127.592, 5526.038
2129.520, 5469.280
2131.449, 5427.482
2133.377, 5380.106
2135.306, 5345.339
2137.234, 5310.708
2139.163, 5315.307
2141.091, 5245.388
2143.020, 5208.324
2144.948, 5164.593
2146.876, 5085.546
2148.805, 5027.135
2150.733, 5005.671
2152.662, 5004.993
2154.590, 4953.419
2156.519, 4911.697
2158.447, 4788.471
2160.376, 4795.831
2162.304, 4738.892
2164.233, 4684.924
2166.161, 4656.821
2168.090, 4621.582
2170.018, 4581.045
2171.947, 4552.599
2173.875, 4511.365
2175.803, 4481.677
2177.732, 4430.682
2179.660, 4378.456
2181.589, 4329.557
2183.517, 4311.186
2185.446, 4339.056
2187.374, 4335.443
2189.303, 4304.657
2191.231, 4276.369
2193.160, 4250.537
2195.088, 4220.129
2197.017, 4197.809
2198.945, 4159.662
2200.874, 4126.927
2202.802, 4090.799
2204.730, 4049.177
2206.659, 4022.455
2208.587, 3972.268
2210.516, 3941.439
2212.444, 3919.972
2214.373, 3887.535
2216.301, 3860.223
2218.230, 3781.955
2220.158, 3801.511
2222.087, 3760.795
2224.015, 3728.879
2225.944, 3747.013
2227.872, 3682.731
2229.801, 3624.940
2231.729, 3660.141
2233.657, 3663.219
2235.586, 3630.235
2237.514, 3590.542
2239.443, 3558.598
2241.371, 3558.555
2243.300, 3536.569
2245.228, 3493.992
2247.157, 3475.782
2249.085, 3436.768
2251.014, 3376.848
2252.942, 3379.049
2254.871, 3380.973
2256.799, 3333.977
2258.728, 3265.533
2260.656, 3213.554
2262.584, 3201.304
2264.513, 3185.849
2266.441, 3169.870
2268.370, 3205.782
2270.298, 3250.564
2272.227, 3257.912
2274.155, 3256.126
2276.084, 3205.298
2278.012, 3211.444
2279.941, 3165.366
2281.869, 3124.573
2283.798, 3204.014
2285.726, 3198.396
2287.655, 3090.545
2289.583, 3124.454
2291.511, 3168.856
2293.440, 3138.210
2295.368, 3098.602
2297.297, 3047.563
2299.225, 3014.715
2301.154, 2976.889
2303.082, 2933.034
2305.011, 2971.917
2306.939, 2998.470
2308.868, 2922.447
2310.796, 2879.999
2312.725, 2876.562
2314.653, 2861.041
2316.582, 2860.647
2318.510, 2878.768
2320.438, 2813.347
2322.367, 2767.958
2324.295, 2820.217
2326.224, 2813.835
2328.152, 2768.110
2330.081, 2737.956
2332.009, 2731.480
2333.938, 2735.486
2335.866, 2714.939
2337.795, 2670.782
2339.723, 2605.631
2341.652, 2604.848
2343.580, 2598.562
2345.509, 2546.539
2347.437, 2536.236
2349.365, 2516.492
2351.294, 2410.116
2353.222, 2366.613
2355.151, 2393.798
2357.079, 2414.894
2359.008, 2384.255
2360.936, 2293.954
2362.865, 2259.300
2364.793, 2238.701
2366.722, 2213.826
2368.650, 2220.734
2370.579, 2226.833
2372.507, 2208.383
2374.436, 2194.780
2376.364, 2160.537
2378.292, 2142.677
2380.221, 2167.049
2382.149, 2135.586
2384.078, 2186.934
2386.006, 2120.768
2387.935, 2080.245
2389.863, 2090.507
2391.792, 2105.951
2393.720, 2076.439
2395.649, 2035.309
2397.577, 2021.803
2399.506, 2021.042
2401.434, 2013.555
2403.363, 1990.571
2405.291, 1991.716
2407.219, 1983.902
2409.148, 1939.805
2411.076, 1928.448
2413.005, 1945.388
2414.933, 1986.686
2416.862, 1968.812
2418.790, 1925.733
2420.719, 1883.850
2422.647, 1891.407
2424.576, 1936.707
2426.504, 1923.815
2428.433, 1894.421
2430.361, 1870.879
2432.290, 1872.829
2434.218, 1890.929
2436.146, 1899.447
2438.075, 1873.650
2440.003, 1856.590
2441.932, 1859.190
2443.860, 1865.073
2445.789, 1848.730
2447.717, 1765.055
2449.646, 1723.287
2451.574, 1721.817
2453.503, 1655.961
2455.431, 1619.863
2457.360, 1645.640
2459.288, 1601.662
2461.217, 1594.710
2463.145, 1641.380
2465.073, 1627.008
2467.002, 1609.641
2468.930, 1593.789
2470.859, 1586.861
2472.787, 1583.519
2474.716, 1544.092
2476.644, 1538.641
2478.573, 1552.799
2480.501, 1518.419
2482.430, 1554.618
2484.358, 1537.853
2486.287, 1556.708
2488.215, 1520.269
2490.144, 1526.699
2492.072, 1500.869
2494.000, 1486.707
2495.929, 1495.294
2497.857, 1473.058
2499.786, 1439.841
2501.714, 1410.972
2503.643, 1357.137
2505.571, 1314.205
2507.500, 1281.765
2509.428, 1291.923
2511.357, 1315.831
2513.285, 1290.769
2515.214, 1271.246
2517.142, 1247.132
2519.071, 1235.235
2520.999, 1177.005
2522.927, 1211.946
2524.856, 1241.584
2526.784, 1229.666
2528.713, 1187.990
2530.641, 1184.041
2532.570, 1136.724
2534.498, 1076.029
2536.427, 1161.007
2538.355, 1207.268
2540.284, 1189.676
2542.212, 1126.127
2544.141, 1115.602
2546.069, 1142.753
2547.998, 1096.926
2549.926, 1047.996
2551.854, 999.3727
2553.783, 1059.775
2555.711, 1099.900
2557.640, 1085.695
2559.568, 1088.354
2561.497, 1098.299
2563.425, 1112.333
2565.354, 1081.634
2567.282, 1055.460
2569.211, 1059.021
2571.139, 1076.263
2573.068, 1078.649
2574.996, 1053.880
2576.925, 1069.530
2578.853, 1070.986
2580.781, 1022.186
2582.710, 1055.429
2584.638, 1066.777
2586.567, 1020.028
2588.495, 1035.167
2590.424, 1057.923
2592.352, 1071.946
2594.281, 1063.514
2596.209, 1039.630
2598.138, 971.6978
2600.066, 1024.189
2601.995, 1080.342
2603.923, 1021.057
2605.852, 993.3608
2607.780, 997.1601
2609.708, 966.1156
2611.637, 996.6468
2613.565, 963.3006
2615.494, 1022.703
2617.422, 1060.821
2619.351, 1056.198
2621.279, 1090.981
2623.208, 1049.600
2625.136, 1083.740
2627.065, 1047.922
2628.993, 975.7635
2630.922, 936.8391
2632.850, 962.7645
2634.779, 951.1505
2636.707, 909.1918
2638.635, 855.6991
2640.564, 882.5471
2642.492, 893.1194
2644.421, 839.5759
2646.349, 875.0853
2648.278, 888.5688
2650.206, 846.0912
2652.135, 800.5634
2654.063, 759.8685
2655.992, 754.8198
2657.920, 826.3408
2659.849, 833.5184
2661.777, 749.4544
2663.706, 687.8640
2665.634, 694.4958
2667.563, 753.6733
2669.491, 703.8623
2671.419, 714.0982
2673.348, 786.7596
2675.276, 737.9627
2677.205, 701.2334
2679.133, 695.1337
2681.062, 699.2441
2682.990, 698.5737
2684.919, 686.8359
2686.847, 642.7183
2688.776, 617.4746
2690.704, 621.8859
2692.633, 706.3676
2694.561, 701.7736
2696.490, 657.2156
2698.418, 640.3832
2700.346, 585.3525
2702.275, 572.1385
2704.203, 564.2488
2706.132, 609.9846
2708.060, 567.8968
2709.989, 569.8618
2711.917, 576.0886
2713.846, 572.1221
2715.774, 558.3672
2717.703, 553.3129
2719.631, 538.1097
2721.560, 531.7767
2723.488, 512.7312
2725.417, 507.5690
2727.345, 507.4820
2729.273, 553.7307
2731.202, 571.6248
2733.130, 555.1623
2735.059, 567.9200
2736.987, 554.2656
2738.916, 517.0845
2740.844, 529.3977
2742.773, 508.5928
2744.701, 496.5230
2746.630, 588.6930
2748.558, 588.2939
2750.487, 572.0306
2752.415, 591.2516
2754.344, 597.1664
2756.272, 581.4258
2758.200, 576.3926
2760.129, 536.3737
2762.057, 518.6745
2763.986, 539.5239
2765.914, 518.6572
2767.843, 459.1374
2769.771, 434.8517
2771.700, 457.6788
2773.628, 488.3848
2775.557, 515.5947
2777.485, 486.7464
2779.414, 484.2717
2781.342, 456.0942
2783.271, 469.2632
2785.199, 436.9606
2787.127, 485.3700
2789.056, 472.2177
2790.984, 450.6375
2792.913, 426.2883
2794.841, 424.7931
2796.770, 456.5682
2798.698, 468.3431
2800.627, 450.4654
2802.555, 395.8362
2804.484, 366.8905
2806.412, 384.3942
2808.341, 418.2046
2810.269, 388.6365
2812.198, 378.8729
2814.126, 420.7054
2816.054, 381.2661
2817.983, 379.4911
2819.911, 437.8606
2821.840, 392.8693
2823.768, 382.6938
2825.697, 423.4498
2827.625, 491.5365
2829.554, 476.7802
2831.482, 441.2209
2833.411, 420.0323
2835.339, 420.5630
2837.268, 412.3681
2839.196, 406.6977
2841.125, 432.1882
2843.053, 436.9776
2844.981, 436.9958
2846.910, 469.7080
2848.838, 385.1898
2850.767, 332.9213
2852.695, 417.5891
2854.624, 487.4484
2856.552, 465.2160
2858.481, 380.6608
2860.409, 371.3503
2862.338, 404.5894
2864.266, 412.7296
2866.195, 404.3576
2868.123, 352.8605
2870.052, 394.4378
2871.980, 367.3758
2873.908, 377.0723
2875.837, 414.2742
2877.765, 437.6559
2879.694, 407.5351
2881.622, 382.3432
2883.551, 357.2867
2885.479, 379.7542
2887.408, 382.8893
2889.336, 401.0579
2891.265, 457.1903
2893.193, 431.7312
2895.122, 388.1507
2897.050, 349.9077
2898.979, 406.8120
2900.907, 393.3680
2902.835, 375.0153
2904.764, 398.8119
2906.692, 348.2105
2908.621, 365.7285
2910.549, 356.7771
2912.478, 441.0354
2914.406, 375.6142
2916.335, 341.7274
2918.263, 402.9103
2920.191, 374.0216
2922.120, 382.8275
2924.048, 434.8883
2925.977, 372.2179
2927.905, 412.4365
2929.834, 475.2964
2931.762, 415.3197
2933.691, 361.8201
2935.619, 329.9222
2937.548, 304.0666
2939.476, 302.8876
2941.405, 372.5052
2943.333, 428.8881
2945.261, 401.9223
2947.190, 448.9400
2949.118, 472.7862
2951.047, 407.6053
2952.975, 376.2516
2954.904, 422.1869
2956.832, 452.3645
2958.761, 342.0706
2960.689, 341.0943
2962.618, 372.2486
2964.546, 365.5271
2966.475, 337.1285
2968.403, 337.4741
2970.332, 370.1573
2972.260, 387.0620
2974.188, 441.9243
2976.117, 454.1445
2978.045, 353.0137
2979.974, 338.8476
2981.902, 360.6782
2983.831, 380.5943
2985.759, 376.8669
2987.688, 423.5391
2989.616, 390.2346
2991.545, 442.3087
2993.473, 463.1096
2995.402, 435.2214
2997.330, 423.8600
2999.259, 442.0633
3001.187, 430.4318
3003.115, 396.4151
3005.044, 347.2081
3006.972, 372.7600
3008.901, 400.0930
3010.829, 455.6516
3012.758, 530.8334
3014.686, 402.9238
3016.615, 382.8125
3018.543, 432.8493
3020.472, 418.3606
3022.400, 369.3222
3024.329, 360.6622
3026.257, 371.7763
3028.186, 389.7613
3030.114, 435.3261
3032.042, 463.2670
3033.971, 525.6900
3035.899, 459.5223
3037.828, 419.0576
3039.756, 437.7045
3041.685, 403.4024
3043.613, 446.6776
3045.542, 416.3197
3047.470, 488.8323
3049.399, 542.5217
3051.327, 465.8232
3053.256, 399.9514
3055.184, 454.2126
3057.113, 521.4824
3059.041, 497.3686
3060.969, 443.1266
3062.898, 486.5347
3064.826, 447.3402
3066.755, 456.8900
3068.683, 551.0352
3070.612, 549.3594
3072.540, 551.1326
3074.469, 536.0248
3076.397, 538.3656
3078.326, 541.8550
3080.254, 543.0024
3082.183, 533.9457
3084.111, 557.1512
3086.040, 550.0532
3087.968, 597.4498
3089.896, 556.9268
3091.825, 601.1943
3093.753, 615.7160
3095.682, 580.2660
3097.610, 566.7197
3099.539, 567.4883
3101.467, 630.0272
3103.396, 620.1111
3105.324, 642.4333
3107.253, 610.4067
3109.181, 658.0178
3111.110, 639.7960
3113.038, 631.3372
3114.967, 698.9100
3116.895, 690.6827
3118.823, 677.9764
3120.752, 742.1887
3122.680, 688.6108
3124.609, 704.4333
3126.537, 732.2107
3128.466, 740.6602
3130.394, 796.1431
3132.323, 784.9623
3134.251, 752.6814
3136.180, 771.1465
3138.108, 810.8416
3140.037, 842.8017
3141.965, 851.3918
3143.894, 835.7648
3145.822, 802.5837
3147.750, 836.3166
3149.679, 939.7055
3151.607, 869.1837
3153.536, 954.9724
3155.464, 998.1792
3157.393, 934.1453
3159.321, 1007.764
3161.250, 991.3065
3163.178, 957.4019
3165.107, 1013.575
3167.035, 1115.183
3168.964, 1063.226
3170.892, 1040.492
3172.821, 1158.929
3174.749, 1099.052
3176.677, 1180.075
3178.606, 1252.273
3180.534, 1181.253
3182.463, 1204.560
3184.391, 1187.035
3186.320, 1230.224
3188.248, 1255.808
3190.177, 1310.878
3192.105, 1324.011
3194.034, 1331.839
3195.962, 1338.415
3197.891, 1422.761
3199.819, 1508.486
3201.748, 1527.756
3203.676, 1583.165
3205.604, 1626.817
3207.533, 1639.137
3209.461, 1701.544
3211.390, 1734.816
3213.318, 1769.225
3215.247, 1829.234
3217.175, 1882.995
3219.104, 1951.897
3221.032, 2012.254
3222.961, 2106.762
3224.889, 2167.654
3226.818, 2248.856
3228.746, 2395.813
3230.675, 2476.287
3232.603, 2599.099
3234.531, 2763.211
3236.460, 2826.861
3238.388, 2996.627
3240.317, 3212.490
3242.245, 3361.588
3244.174, 3378.901
3246.102, 3556.893
3248.031, 3755.530
3249.959, 3925.402
3251.888, 4111.857
3253.816, 4216.947
3255.745, 4294.276
3257.673, 4397.010
3259.602, 4505.142
3261.530, 4497.469
3263.458, 4564.809
3265.387, 4677.450
3267.315, 4778.108
3269.244, 4809.132
3271.172, 4821.267
3273.101, 4897.215
3275.029, 5039.297
3276.958, 5079.893
3278.886, 5175.386
3280.815, 5208.549
3282.743, 5259.986
3284.672, 5428.040
3286.600, 5678.557
3288.529, 5808.706
3290.457, 6028.328
3292.385, 6305.064
3294.314, 6337.840
3296.242, 6486.874
3298.171, 6757.329
3300.099, 7030.040
3302.028, 7077.964
3303.956, 7298.267
3305.885, 7518.275
3307.813, 7689.325
3309.742, 7948.940
3311.670, 8080.162
3313.599, 8316.298
3315.527, 8627.480
3317.456, 8929.021
3319.384, 9128.073
3321.313, 9311.592
3323.241, 9669.042
3325.169, 10240.12
3327.098, 10540.69
3329.026, 11021.58
3330.955, 11559.08
3332.883, 12044.88
3334.812, 12626.94
3336.740, 13167.83
3338.669, 13877.59
3340.597, 14607.30
3342.526, 15406.88
3344.454, 16339.72
3346.383, 17094.10
3348.311, 17873.34
3350.240, 18665.38
3352.168, 19203.67
3354.096, 19841.09
3356.025, 20222.42
3357.953, 20355.63
3359.882, 20343.43
3361.810, 20178.84
3363.739, 19866.32
3365.667, 19353.05
3367.596, 18810.72
3369.524, 18080.22
3371.453, 17219.14
3373.381, 16358.58
3375.310, 15611.72
3377.238, 15010.52
3379.167, 14405.94
3381.095, 13700.08
3383.023, 13198.52
3384.952, 12857.10
3386.880, 12315.84
3388.809, 12068.48
3390.737, 11874.16
3392.666, 11635.41
3394.594, 11357.45
3396.523, 11095.93
3398.451, 10922.67
3400.380, 10711.16
3402.308, 10438.18
3404.237, 10139.23
3406.165, 9795.942
3408.094, 9473.975
3410.022, 9135.093
3411.950, 8749.847
3413.879, 8315.505
3415.807, 8058.215
3417.736, 7771.804
3419.664, 7465.954
3421.593, 7221.313
3423.521, 6956.355
3425.450, 6765.112
3427.378, 6522.025
3429.307, 6403.609
3431.235, 6310.253
3433.164, 6247.700
3435.092, 6145.023
3437.021, 6006.084
3438.949, 5877.225
3440.877, 5817.568
3442.806, 5800.567
3444.734, 5786.933
3446.663, 5770.034
3448.591, 5741.156
3450.520, 5680.725
3452.448, 5624.322
3454.377, 5714.320
3456.305, 5775.769
3458.234, 5683.111
3460.162, 5625.868
3462.091, 5407.427
3464.019, 5303.602
3465.948, 5091.889
3467.876, 4828.990
3469.804, 4724.240
3471.733, 4729.714
3473.661, 4542.757
3475.590, 4348.712
3477.518, 4296.522
3479.447, 4057.194
3481.375, 4010.358
3483.304, 3873.149
3485.232, 3807.236
3487.161, 3957.423
3489.089, 3968.090
3491.018, 3918.251
3492.946, 3962.387
3494.875, 4027.925
3496.803, 4019.487
3498.731, 3987.155
3500.660, 3980.163
3502.588, 3998.531
3504.517, 3967.694
3506.445, 3854.925
3508.374, 3759.652
3510.302, 3777.265
3512.231, 3781.925
3514.159, 3707.702
3516.088, 3691.672
3518.016, 3595.877
3519.945, 3577.267
3521.873, 3495.424
3523.802, 3414.103
3525.730, 3355.126
3527.658, 3258.179
3529.587, 3190.599
3531.515, 3090.456
3533.444, 3016.396
3535.372, 2887.780
3537.301, 2789.518
3539.229, 2692.802
3541.158, 2702.617
3543.086, 2639.442
3545.015, 2545.297
3546.943, 2556.085
3548.872, 2475.846
3550.800, 2301.039
3552.729, 2218.838
3554.657, 2186.897
3556.585, 2119.869
3558.514, 2110.483
3560.442, 2040.192
3562.371, 1943.510
3564.299, 1920.296
3566.228, 1845.057
3568.156, 1774.392
3570.085, 1763.991
3572.013, 1745.095
3573.942, 1765.788
3575.870, 1769.426
3577.799, 1674.119
3579.727, 1777.678
3581.656, 1705.275
3583.584, 1683.892
3585.512, 1698.021
3587.441, 1684.153
3589.369, 1730.133
3591.298, 1684.948
3593.226, 1656.731
3595.155, 1739.079
3597.083, 1810.460
3599.012, 1692.001
3600.940, 1818.588
3602.869, 1764.215
3604.797, 1744.945
3606.726, 1798.681
3608.654, 1840.781
3610.583, 1753.950
3612.511, 1914.479
3614.439, 1926.699
3616.368, 1874.727
3618.296, 1826.108
3620.225, 1771.032
3622.153, 1736.078
3624.082, 1713.615
3626.010, 1642.892
3627.939, 1644.667
3629.867, 1596.791
3631.796, 1573.284
3633.724, 1535.448
3635.653, 1485.924
3637.581, 1469.257
3639.510, 1457.611
3641.438, 1433.626
3643.366, 1450.970
3645.295, 1361.309
3647.223, 1412.787
3649.152, 1397.197
3651.080, 1309.220
3653.009, 1250.604
3654.937, 1243.982
3656.866, 1095.562
3658.794, 1022.693
3660.723, 1015.903
3662.651, 1008.903
3664.580, 935.7296
3666.508, 889.4241
3668.437, 856.3528
3670.365, 763.2198
3672.293, 667.2612
3674.222, 657.0019
3676.150, 628.9233
3678.079, 650.4503
3680.007, 598.5372
3681.936, 577.1380
3683.864, 581.2488
3685.793, 543.4059
3687.721, 551.2369
3689.650, 486.6870
3691.578, 410.6429
3693.507, 343.1184
3695.435, 407.9797
3697.364, 421.9359
3699.292, 409.3224
3701.220, 434.3748
3703.149, 398.3344
3705.077, 406.1943
3707.006, 365.2923
3708.934, 304.4718
3710.863, 282.8377
3712.791, 260.2346
3714.720, 244.2746
3716.648, 332.8396
3718.577, 244.6016
3720.505, 248.5159
3722.434, 260.7940
3724.362, 182.6730
3726.291, 306.9326
3728.219, 362.4437
3730.147, 230.2470
3732.076, 214.5363
3734.004, 328.2532
3735.933, 346.2861
3737.861, 206.8818
3739.790, 315.5088
3741.718, 300.5122
3743.647, 294.8138
3745.575, 275.9459
3747.504, 207.9819
3749.432, 184.6351
3751.361, 171.8174
3753.289, 195.3429
3755.218, 153.6287
3757.146, 268.4553
3759.074, 123.7090
3761.003, 206.4396
3762.931, 258.4750
3764.860, 173.2118
3766.788, 212.3319
3768.717, 249.3843
3770.645, 246.3757
3772.574, 233.5119
3774.502, 223.0975
3776.431, 188.1412
3778.359, 158.3835
3780.288, 127.3984
3782.216, 124.8847
3784.145, 168.7577
3786.073, 211.1458
3788.001, 179.6725
3789.930, 194.9017
3791.858, 167.9200
3793.787, 211.7177
3795.715, 132.4197
3797.644, 118.9855
3799.572, 245.5631
3801.501, 154.8223
3803.429, 129.7039
3805.358, 249.4644
3807.286, 176.9711
3809.215, 194.0278
3811.143, 206.7677
3813.072, 80.29794
3815.000, 11.51063
3816.928, 86.38267
3818.857, 171.6913
3820.785, 170.6144
3822.714, 195.1415
3824.642, 198.3063
3826.571, 191.7981
3828.499, 192.0130
3830.428, 176.7904
3832.356, 165.3827
3834.285, 167.6062
3836.213, 144.8751
3838.142, 114.6075
3840.070, 115.0243
3841.999, 133.4337
3843.927, 72.88379
3845.855, 141.0404
3847.784, 226.0935
3849.712, 231.1423
3851.641, 237.0459
3853.569, 220.0543
3855.498, 175.5899
3857.426, 104.5533
3859.355, 58.89322
3861.283, -48.57117
3863.212, 70.08625
3865.140, 196.8315
3867.069, 129.7722
3868.997, 85.30256
3870.926, 247.7709
3872.854, 133.0501
3874.782, 89.30534
3876.711, 103.0506
3878.639, 108.8357
3880.568, 110.1017
3882.496, 155.9212
3884.425, 185.4287
3886.353, 130.7612
3888.282, 175.6310
3890.210, 91.30039
3892.139, 117.2471
3894.067, 191.3063
3895.996, 87.74757
3897.924, 27.70798
3899.853, 71.89554
3901.781, 24.68340
3903.709, 48.54383
3905.638, 81.93385
3907.566, 94.70223
3909.495, 121.6798
3911.423, 170.8020
3913.352, 159.4148
3915.280, 178.9924
3917.209, 185.4994
3919.137, 77.41914
3921.066, 123.1503
3922.994, 123.2364
3924.923, 66.12381
3926.851, 131.2673
3928.780, 110.1529
3930.708, 72.99754
3932.636, 119.4683
3934.565, 55.53941
3936.493, 217.9432
3938.422, 117.4679
3940.350, 114.1829
3942.279, 186.7881
3944.207, 150.9982
3946.136, 74.67244
3948.064, 89.13642
3949.993, 173.0718
3951.921, 175.1442
3953.850, 88.25578
3955.778, 113.6070
3957.707, 88.97251
3959.635, 108.0567
3961.563, 83.83678
3963.492, 97.05115
3965.420, 136.7611
3967.349, 44.89770
3969.277, -33.50348
3971.206, 96.71316
3973.134, 92.22485
3975.063, 25.49322
3976.991, 19.73214
3978.920, 33.71811
3980.848, 65.15910
3982.777, 54.18736
3984.705, 13.64514
3986.634, 109.2908
3988.562, 61.05341
3990.490, -54.36910
3992.419, 70.27872
3994.347, 32.89525
3996.276, 77.12103
3998.204, 74.64566
4000.133, 41.43042
4002.061, -25.54480
4003.990, 17.53992
4005.918, 109.4168
4007.847, 119.9753
4009.775, 60.23849
4011.704, -5.931083
4013.632, -46.56444
4015.561, -36.06877
4017.489, -64.35710
4019.417, -33.76670
4021.346, -4.543197
4023.274, 15.24327
4025.203, 171.8171
4027.131, 158.0321
4029.060, -15.73105
4030.988, 114.8634
4032.917, -48.39060
4034.845, 46.80263
4036.774, 55.36350
4038.702, -25.34125
4040.631, 84.06630
4042.559, 147.4909
4044.488, 59.02212
4046.416, 51.36183
4048.344, 129.4949
4050.273, 105.3415
4052.201, 63.38228
4054.130, 20.85479
4056.058, 117.8379
4057.987, 92.74501
4059.915, 92.26760
4061.844, -0.4419636
4063.772, -59.17892
4065.701, 107.8552
4067.629, 201.6875
4069.558, 76.48886
4071.486, 128.6143
4073.415, 105.9674
4075.343, 101.7768
4077.271, 6.464195
4079.200, -112.6029
4081.128, -30.99643
4083.057, 31.72602
4084.985, 124.5730
4086.914, 292.5931
4088.842, 5.711150
4090.771, -26.16184
4092.699, 82.22415
4094.628, 171.4357
4096.556, 59.44538
4098.484, 50.57777
4100.413, 82.17424
4102.341, 135.5286
4104.270, 101.7021
4106.198, 9.117911
4108.127, 28.84797
4110.055, 149.8501
4111.984, 212.9851
4113.912, 79.51475
4115.841, 132.5105
4117.769, 7.375846
4119.698, 39.05748
4121.626, -18.54970
4123.555, 115.4774
4125.483, 144.5080
4127.412, 93.58212
4129.340, 122.3047
4131.269, 131.7913
4133.197, 145.7620
4135.125, 127.6387
4137.054, 127.0099
4138.982, 58.74366
4140.911, 108.0022
4142.839, 36.72966
4144.768, -16.90992
4146.696, 40.98241
4148.625, -13.28432
4150.553, 12.26356
4152.481, 122.0801
4154.410, 144.7561
4156.338, 92.55159
4158.267, -1.766069
4160.195, 9.384728
4162.124, 114.8270
4164.052, 2.192826
4165.981, 113.6559
4167.909, 197.4094
4169.838, 127.3099
4171.766, 199.3201
4173.695, 60.63147
4175.623, 72.94812
4177.552, 112.3078
4179.480, -21.22514
4181.409, 23.11075
4183.337, 201.2993
4185.266, 180.0677
4187.194, 196.2565
4189.123, 185.2885
4191.051, 130.6413
4192.979, 145.4788
4194.908, 99.99844
4196.836, 156.0621
4198.765, 54.50314
4200.693, 104.9449
4202.622, 133.8760
4204.550, 136.4443
4206.479, 160.5295
4208.407, 92.55258
4210.335, 22.61773
4212.264, 41.62760
4214.192, 128.3685
4216.121, 147.5384
4218.049, 182.3185
4219.978, 123.9696
4221.906, 82.08429
4223.835, 116.4713
4225.763, 81.66241
4227.692, 47.93845
4229.620, 78.13227
4231.549, 81.14038
4233.477, 119.4844
4235.406, 136.7654
4237.334, 149.6376
4239.263, 134.5182
4241.191, 104.4344
4243.120, 104.5740
4245.048, 91.18153
4246.977, 83.70177
4248.905, 84.07069
4250.833, 84.85723
4252.762, 88.34260
4254.690, 50.15700
4256.619, 76.22395
4258.547, 80.53936
4260.476, 88.69360
4262.404, 22.79792
4264.333, 27.86381
4266.261, 37.97453
4268.189, 100.7718
4270.118, 80.43570
4272.046, 66.19689
4273.975, 55.14838
4275.903, -1.115090
4277.832, 65.59061
4279.760, 18.50903
4281.689, 44.03601
4283.617, -44.63374
4285.546, 67.46360
4287.474, 93.57565
4289.403, 32.12991
4291.331, -56.75764
4293.260, -31.80371
4295.188, -71.27079
4297.117, -43.70439
4299.045, -19.42013
4300.974, -33.73310
4302.902, 103.0293
4304.831, 184.0118
4306.759, 81.14046
4308.688, -19.80141
4310.616, 21.27554
4312.544, 67.99799
4314.473, 67.42196
4316.401, 37.59399
4318.330, 91.22146
4320.258, 62.01041
4322.187, 135.2420
4324.115, 75.95845
4326.043, 39.19704
4327.972, 107.8778
4329.900, 143.1410
4331.829, 43.09678
4333.757, 71.93897
4335.686, 185.4866
4337.614, -71.07439
4339.543, -84.43634
4341.471, 142.1528
4343.400, -17.25268
4345.328, 53.77333
4347.257, 15.57229
4349.185, 140.0556
4351.114, -28.04437
4353.042, 65.59531
4354.971, 95.26686
4356.899, 131.0966
4358.828, 72.22102
4360.756, 29.60001
4362.685, 125.5564
4364.613, -23.52794
4366.542, -58.21145
4368.470, 102.5066
4370.398, 103.3533
4372.327, 76.14598
4374.255, -23.98341
4376.184, -100.4336
4378.112, 31.52125
##END=



