##NAMES=Rasvumite
##RRUFFID=R060491
##IDEAL CHEMISTRY=KFe_2_S_3_
##LOCALITY=Coyote Peak, Humboldt County, California, USA
##OWNER=RRUFF
##SOURCE=Michael Scott
##DESCRIPTION=Parallel aggregates of brownish-red fibers, associated with phlogopite, andradite, augite, pyrrhotite, magnetite, sulphur, and apatite. The sample profile under the red laser matches sulphur
##STATUS=The identification of this mineral has been confirmed by X-ray diffraction
##URL=https://www.rruff.net/odr/rruff_sample/R060491
##DIFFRACTION SAMPLE DESCRIPTION=Powder, using Mo radiation
##CELL PARAMETERS=a: 9.08 b: 11.08 c: 5.449 alpha: 90 beta: 90 gamma: 90 volume: 540 crystal system: orthorhombic
##FILETYPE=Raman RAW
##RAMAN WAVELENGTH=780

80.73486, 0.0000000E+00
82.66333, 0.2690580
84.59180, 15.91554
86.52026, 36.54561
88.44873, 60.48804
90.37720, 80.40601
92.30566, 93.50848
94.23413, 88.03247
96.16260, 70.07773
98.09106, 54.00398
100.0195, 41.10791
101.9480, 30.62305
103.8765, 22.30472
105.8049, 15.41357
107.7334, 10.45828
109.6619, 6.411636
111.5903, 4.551987
113.5188, 6.061844
115.4473, 10.56885
117.3757, 18.60254
119.3042, 33.13745
121.2327, 47.29971
123.1611, 60.39192
125.0896, 71.49825
127.0181, 79.18851
128.9465, 83.50226
130.8750, 88.47522
132.8035, 90.88138
134.7319, 98.65411
136.6604, 111.8431
138.5889, 132.6801
140.5173, 160.8215
142.4458, 196.3348
144.3743, 246.3016
146.3027, 312.5427
148.2312, 391.8287
150.1597, 508.7016
152.0881, 617.4763
154.0166, 694.1949
155.9451, 737.4697
157.8735, 724.9648
159.8020, 615.0147
161.7305, 506.6913
163.6589, 396.7219
165.5874, 299.2608
167.5159, 223.3738
169.4443, 165.9693
171.3728, 118.3885
173.3013, 82.58711
175.2297, 54.40450
177.1582, 34.85063
179.0867, 24.50290
181.0151, 23.47954
182.9436, 29.45413
184.8721, 41.78229
186.8005, 62.92548
188.7290, 78.29919
190.6575, 88.05260
192.5859, 94.33228
194.5144, 95.01100
196.4429, 94.31073
198.3713, 94.74005
200.2998, 96.46504
202.2283, 105.5571
204.1567, 120.9069
206.0852, 143.9005
208.0137, 172.0661
209.9421, 212.4071
211.8706, 268.0939
213.7991, 339.1635
215.7275, 436.8543
217.6560, 572.3472
219.5845, 661.9429
221.5129, 696.3090
223.4414, 675.2047
225.3699, 571.3976
227.2983, 435.9396
229.2268, 335.1995
231.1553, 270.4622
233.0837, 219.6230
235.0122, 184.3445
236.9407, 157.5409
238.8691, 138.2918
240.7976, 125.3414
242.7261, 119.6343
244.6545, 119.9136
246.5830, 123.7454
248.5115, 131.7264
250.4399, 133.1495
252.3684, 124.2098
254.2969, 110.7472
256.2253, 92.04890
258.1538, 72.07919
260.0823, 55.06993
262.0107, 40.88950
263.9392, 28.92122
265.8677, 19.29674
267.7961, 11.33058
269.7246, 5.043579
271.6531, 5.0476000E-02
273.5815, 3.530983
275.5100, 5.987144
277.4385, 7.808739
279.3669, 9.017555
281.2954, 9.581429
283.2239, 9.189636
285.1523, 8.697548
287.0808, 8.613525
289.0093, 8.170403
290.9377, 6.647934
292.8662, 4.422462
294.7947, 2.164734
296.7231, 0.1290050
298.6516, 2.202988
300.5801, 4.379211
302.5085, 5.827751
304.4370, 6.152565
306.3655, 5.890068
308.2939, 5.338120
310.2224, 4.561996
312.1509, 3.569771
314.0793, 2.409622
316.0078, 1.456085
317.9363, 0.7731700
319.8647, 0.1832350
321.7932, 0.4626690
323.7217, 0.9416200
325.6501, 1.112450
327.5786, 0.9784320
329.5071, 0.4848560
331.4355, 0.5651550
333.3640, 1.461487
335.2925, 1.865456
337.2209, 2.598572
339.1494, 3.883644
341.0779, 5.591560
343.0063, 7.639183
344.9348, 9.981873
346.8633, 12.53264
348.7917, 15.46227
350.7202, 18.08005
352.6487, 20.19650
354.5771, 22.34323
356.5056, 24.48002
358.4341, 26.94460
360.3625, 29.84719
362.2910, 33.25676
364.2195, 37.34953
366.1479, 42.17702
368.0764, 47.49641
370.0049, 53.45601
371.9333, 59.52632
373.8618, 65.76644
375.7903, 71.79049
377.7188, 77.99397
379.6472, 83.52953
381.5757, 87.03161
383.5042, 88.44150
385.4326, 88.52275
387.3611, 87.16785
389.2896, 85.14915
391.2180, 82.37296
393.1465, 79.40185
395.0750, 76.43976
397.0034, 73.46632
398.9319, 70.31538
400.8604, 67.11645
402.7888, 64.53060
404.7173, 62.55600
406.6458, 60.54660
408.5742, 58.13631
410.5027, 56.37512
412.4312, 56.01576
414.3596, 55.94193
416.2881, 55.22734
418.2166, 54.53748
420.1450, 55.02778
422.0735, 56.62606
424.0020, 58.96155
425.9304, 62.04379
427.8589, 65.73238
429.7874, 70.13992
431.7158, 74.98272
433.6443, 80.33445
435.5728, 85.92580
437.5012, 92.09372
439.4297, 98.11707
441.3582, 102.8543
443.2866, 106.2554
445.2151, 107.1301
447.1436, 104.3985
449.0720, 101.7984
451.0005, 98.34100
452.9290, 97.31379
454.8574, 98.56060
456.7859, 104.0120
458.7144, 115.3967
460.6428, 132.6897
462.5713, 156.0952
464.4998, 185.6493
466.4282, 220.6991
468.3567, 264.0703
470.2852, 307.4940
472.2136, 365.8810
474.1421, 403.7099
476.0706, 404.3498
477.9990, 379.2975
479.9275, 328.3858
481.8560, 263.8789
483.7844, 210.0106
485.7129, 167.4829
487.6414, 132.7286
489.5698, 108.9270
491.4983, 88.15389
493.4268, 70.17607
495.3552, 55.30959
497.2837, 44.26329
499.2122, 35.87687
501.1406, 29.62175
503.0691, 25.04562
504.9976, 21.61052
506.9260, 19.36803
508.8545, 17.61169
510.7830, 16.57870
512.7114, 15.63046
514.6399, 14.74208
516.5684, 14.16879
518.4968, 14.14872
520.4253, 14.18598
522.3538, 14.01602
524.2822, 13.88316
526.2107, 14.08749
528.1392, 14.51637
530.0676, 14.68684
531.9961, 14.49659
533.9246, 14.03001
535.8530, 13.17198
537.7815, 12.53273
539.7100, 12.35378
541.6384, 12.14634
543.5669, 11.68565
545.4954, 11.12216
547.4238, 10.43117
549.3523, 9.712776
551.2808, 9.120918
553.2092, 8.640945
555.1377, 8.277428
557.0662, 8.047356
558.9946, 7.723282
560.9231, 7.366585
562.8516, 6.659538
564.7800, 5.141457
566.7085, 3.860603
568.6370, 3.259277
570.5654, 2.955154
572.4939, 2.924133
574.4224, 2.854065
576.3508, 2.131363
578.2793, 0.9880370
580.2078, 0.2862320
582.1362, 2.6779999E-03
584.0647, 0.1342770
585.9932, 9.6686997E-02
587.9216, 0.1834030
589.8501, 0.6192700
591.7786, 0.8964390
593.7070, 0.8830490
595.6355, 0.6868210
597.5640, 0.1534580
599.4924, 0.3553390
601.4209, 0.3133470
603.3494, 2.2591000E-02
605.2778, 0.1200560
607.2063, 0.5230710
609.1348, 0.8078000
611.0632, 0.9414980
612.9917, 1.016174
614.9202, 0.9673230
616.8486, 1.007477
618.7771, 1.207619
620.7056, 1.430016
622.6340, 1.643654
624.5625, 1.851768
626.4910, 1.992958
628.4194, 2.183014
630.3479, 2.649078
632.2764, 3.211563
634.2048, 3.473045
636.1333, 3.456070
638.0618, 3.503410
639.9902, 3.611809
641.9187, 3.838928
643.8472, 4.421837
645.7756, 4.714783
647.7041, 4.386669
649.6326, 4.220100
651.5610, 4.588261
653.4895, 4.982716
655.4180, 5.099171
657.3464, 5.119476
659.2749, 5.214970
661.2034, 5.315964
663.1318, 5.279675
665.0603, 5.139717
666.9888, 5.117958
668.9172, 5.260227
670.8457, 5.022625
672.7742, 4.209663
674.7026, 3.819683
676.6311, 4.114723
678.5596, 4.207550
680.4880, 3.794754
682.4165, 3.352852
684.3450, 3.005741
686.2734, 2.807770
688.2019, 2.922138
690.1304, 3.057148
692.0588, 2.861591
693.9873, 2.964197
695.9158, 2.591404
697.8442, 2.845791
699.7727, 2.852283
701.7012, 2.614056
703.6296, 2.453075
705.5581, 2.369484
707.4866, 2.382618
709.4150, 2.511410
711.3435, 2.670666
713.2720, 2.944633
715.2004, 2.978371
717.1289, 2.426838
719.0574, 1.952847
720.9858, 1.811867
722.9143, 1.814617
724.8428, 1.918373
726.7712, 2.040108
728.6997, 2.064407
730.6282, 2.060219
732.5566, 2.260567
734.4851, 2.502666
736.4136, 2.207458
738.3420, 1.505260
740.2705, 1.144260
742.1990, 1.152920
744.1274, 1.013371
746.0559, 0.6095770
747.9844, 0.4085620
749.9128, 0.5987400
751.8413, 0.7319150
753.7698, 0.7481420
755.6982, 0.6903950
757.6267, 0.4405520
759.5552, 0.3041690
761.4836, 0.5290150
763.4121, 0.7858050
765.3406, 0.8714600
767.2690, 0.8499980
769.1975, 0.7308580
771.1260, 0.5812680
773.0544, 0.4127270
774.9829, 0.3148800
776.9114, 0.6178440
778.8398, 1.189587
780.7683, 1.271519
782.6968, 0.8272250
784.6252, 0.5781860
786.5537, 0.5524440
788.4822, 0.6657300
790.4106, 0.9809000
792.3391, 1.328571
794.2676, 1.825691
796.1960, 2.118038
798.1245, 2.066429
800.0530, 2.000164
801.9814, 2.004837
803.9099, 2.022160
805.8384, 1.928188
807.7668, 1.978256
809.6953, 2.417477
811.6238, 2.929207
813.5522, 3.428127
815.4807, 3.764179
817.4092, 3.681984
819.3376, 3.431595
821.2661, 3.355965
823.1946, 3.388252
825.1230, 3.437248
827.0515, 3.469128
828.9800, 3.229916
830.9084, 3.243158
832.8369, 3.236361
834.7654, 3.072208
836.6938, 3.232845
838.6223, 3.210339
840.5508, 3.087017
842.4792, 2.829597
844.4077, 2.812016
846.3362, 3.104103
848.2646, 3.467453
850.1931, 3.901714
852.1216, 4.268814
854.0500, 4.571629
855.9785, 4.697140
857.9070, 4.427887
859.8354, 4.303028
861.7639, 4.655510
863.6924, 4.960056
865.6208, 4.938187
867.5493, 4.890755
869.4778, 4.942657
871.4063, 5.059628
873.3347, 5.350437
875.2632, 5.570496
877.1917, 5.468628
879.1201, 5.151253
881.0486, 4.714352
882.9771, 4.184807
884.9055, 3.459385
886.8340, 2.752869
888.7625, 2.541355
890.6909, 2.616791
892.6194, 2.618561
894.5479, 2.502937
896.4763, 2.041096
898.4048, 1.360718
900.3333, 1.073875
902.2617, 1.148743
904.1902, 1.122269
906.1187, 0.9780040
908.0471, 1.062695
909.9756, 1.451099
911.9041, 1.491993
913.8325, 1.047718
915.7610, 0.7314530
917.6895, 0.5344580
919.6179, 0.5667420
921.5464, 0.9415820
923.4749, 1.263351
925.4033, 1.712952
927.3318, 1.752426
929.2603, 0.9759480
931.1887, 0.6241260
933.1172, 1.103146
935.0457, 1.428204
936.9741, 1.403934
938.9026, 1.223541
940.8311, 0.8096810
942.7595, 0.5412710
944.6880, 0.5738750
946.6165, 0.6834370
948.5449, 0.7877920
950.4734, 0.9598010
952.4019, 1.374638
954.3303, 1.592869
956.2588, 1.245083
958.1873, 0.9492910
960.1157, 1.003746
962.0442, 1.203728
963.9727, 1.480606
965.9011, 1.791180
967.8296, 2.156872
969.7581, 2.483051
971.6865, 2.591770
973.6150, 2.757069
975.5435, 3.154663
977.4719, 3.693394
979.4004, 4.482742
981.3289, 5.171688
983.2573, 5.535713
985.1858, 5.568501
987.1143, 4.993931
989.0427, 4.396786
990.9712, 4.494976
992.8997, 4.710514
994.8281, 4.458332
996.7566, 3.943527
998.6851, 3.241135
1000.614, 2.572948
1002.542, 2.250336
1004.470, 2.067192
1006.399, 1.812504
1008.327, 1.508377
1010.256, 1.218639
1012.184, 0.9675520
1014.113, 0.7299540
1016.041, 0.5801730
1017.970, 0.7234380
1019.898, 0.9238130
1021.827, 0.8254510
1023.755, 0.6243970
1025.684, 0.6040460
1027.612, 0.6290360
1029.541, 0.5390850
1031.469, 0.5132826
1033.397, 0.4082570
1035.326, 0.3876650
1037.254, 0.2113880
1039.183, 0.1252140
1041.111, 0.1285820
1043.040, 3.4733001E-02
1044.968, 0.1676060
1046.897, 0.3587070
1048.825, 0.4332580
1050.754, 0.4057010
1052.682, 0.2320790
1054.611, 2.9160000E-02
1056.539, 6.9195002E-02
1058.468, 0.1117520
1060.396, 0.2195470
1062.324, 0.2442470
1064.253, 0.1140140
1066.181, 0.5168110
1068.110, 0.6112590
1070.038, 0.5341260
1071.967, 0.2682110
1073.895, 7.8487001E-02
1075.824, 0.4092940
1077.752, 0.7311670
1079.681, 0.4334750
1081.609, 4.7642000E-02
1083.538, 5.7925999E-02
1085.466, 0.1460460
1087.395, 1.4423000E-02
1089.323, 8.7459996E-02
1091.251, 0.1549150
1093.180, 0.3239560
1095.108, 1.6712001E-02
1097.037, 0.2956890
1098.965, 0.2580680
1100.894, 0.2270390
1102.822, 0.4861340
1104.751, 0.6791650
1106.679, 0.6002270
1108.608, 0.4569550
1110.536, 0.2987860
1112.465, 0.1596830
1114.393, 4.7680002E-02
1116.322, 3.0575000E-02
1118.250, 5.0967999E-02
1120.178, 7.1494997E-02
1122.107, 8.8160999E-02
1124.035, 0.1516840
1125.964, 0.3550420
1127.892, 0.4324950
1129.821, 0.3029290
1131.749, 9.1038004E-02
1133.678, 0.2875290
1135.606, 0.4212070
1137.535, 0.1522670
1139.463, 2.5463000E-02
1141.392, 3.1925000E-02
1143.320, 4.8103001E-02
1145.249, 0.1240230
1147.177, 2.9587001E-02
1149.105, 0.4961010
1151.034, 0.6136970
1152.962, 0.3153530
1154.891, 0.1098940
1156.819, 1.9939000E-02
1158.748, 3.0169999E-02
1160.676, 0.1272850
1162.605, 2.9118000E-02
1164.533, 0.2333030
1166.462, 0.4296680
1168.390, 0.5276450
1170.319, 0.3228150
1172.247, 4.8404999E-02
1174.176, 0.1812780
1176.104, 0.1452220
1178.032, 4.2885002E-02
1179.961, 7.5870998E-02
1181.889, 0.1662790
1183.818, 0.1888890
1185.746, 3.8887002E-02
1187.675, 0.1466100
1189.603, 0.3261450
1191.532, 0.3552400
1193.460, 6.1623000E-02
1195.389, 0.3691020
1197.317, 9.6019998E-02
1199.246, 0.1303410
1201.174, 7.4230000E-02
1203.103, 0.2202720
1205.031, 8.4151998E-02
1206.959, 6.0040001E-02
1208.888, 0.1339230
1210.816, 0.1829610
1212.745, 0.2407260
1214.673, 0.1207540
1216.602, 0.2618260
1218.530, 0.3985290
1220.459, 0.2039410
1222.387, 7.4607998E-02
1224.316, 4.4482999E-02
1226.244, 0.2341040
1228.173, 0.6075210
1230.101, 0.7207720
1232.030, 0.5829890
1233.958, 0.1089060
1235.886, 0.4314990
1237.815, 7.9898998E-02
1239.743, 0.6848260
1241.672, 0.9947010
1243.600, 1.036545
1245.529, 1.043461
1247.457, 0.9591830
1249.386, 0.5999640
1251.314, 0.3042410
1253.243, 0.3036420
1255.171, 0.4763680
1257.100, 0.9300120
1259.028, 1.252262
1260.957, 1.112926
1262.885, 1.151299
1264.813, 1.686382
1266.742, 1.976677
1268.670, 1.861534
1270.599, 1.863453
1272.527, 2.019402
1274.456, 2.278458
1276.384, 2.639263
1278.313, 2.779133
1280.241, 2.724537
1282.170, 2.668491
1284.098, 2.622002
1286.027, 2.585411
1287.955, 2.596855
1289.884, 2.768082
1291.812, 2.976673
1293.740, 3.071102
1295.669, 3.188393
1297.597, 3.482521
1299.526, 3.725437
1301.454, 3.815887
1303.383, 3.763313
1305.311, 3.425186
1307.240, 3.400612
1309.168, 3.395755
1311.097, 3.351060
1313.025, 3.605598
1314.954, 3.415813
1316.882, 3.700024
1318.811, 3.613041
1320.739, 3.234024
1322.667, 3.219997
1324.596, 3.113616
1326.524, 3.307281
1328.453, 3.107132
1330.381, 3.170113
1332.310, 3.307449
1334.238, 3.401775
1336.167, 3.361580
1338.095, 2.992565
1340.024, 2.764069
1341.952, 2.926506
1343.881, 2.959000
1345.809, 2.725040
1347.738, 2.415382
1349.666, 2.044304
1351.594, 2.093422
1353.523, 1.990488
1355.451, 2.026807
1357.380, 2.206394
1359.308, 2.293968
1361.237, 2.583302
1363.165, 2.795891
1365.094, 2.842720
1367.022, 2.533447
1368.951, 2.185692
1370.879, 1.951973
1372.808, 1.830185
1374.736, 1.947388
1376.665, 1.925591
1378.593, 1.546391
1380.521, 1.476143
1382.450, 1.856499
1384.378, 1.873520
1386.307, 1.539059
1388.235, 1.449841
1390.164, 1.533478
1392.092, 1.518700
1394.021, 1.508797
1395.949, 1.712822
1397.878, 1.897194
1399.806, 1.812294
1401.735, 1.724152
1403.663, 1.769035
1405.592, 1.828064
1407.520, 1.826889
1409.448, 1.871306
1411.377, 1.964769
1413.305, 1.904304
1415.234, 1.990704
1417.162, 1.975949
1419.091, 2.071309
1421.019, 2.057125
1422.948, 2.264111
1424.876, 2.309681
1426.805, 2.351059
1428.733, 2.580448
1430.662, 2.686853
1432.590, 2.535469
1434.519, 2.337807
1436.447, 2.118223
1438.375, 2.037533
1440.304, 2.120289
1442.232, 2.223902
1444.161, 2.311657
1446.089, 2.154552
1448.018, 1.950102
1449.946, 2.210135
1451.875, 2.429060
1453.803, 1.845219
1455.732, 1.451097
1457.660, 1.927893
1459.589, 2.233654
1461.517, 2.128679
1463.446, 1.969858
1465.374, 1.799597
1467.302, 1.740015
1469.231, 1.549126
1471.159, 1.427624
1473.088, 1.265852
1475.016, 1.133419
1476.945, 1.056837
1478.873, 0.8891930
1480.802, 0.8104760
1482.730, 0.7544416
1484.659, 1.081535
1486.587, 0.7785740
1488.516, 0.7384530
1490.444, 0.9706730
1492.373, 0.8353940
1494.301, 0.9007464
1496.229, 0.6201860
1498.158, 0.8199920
1500.086, 0.5808490
1502.015, 0.3516450
1503.943, 0.5073910
1505.872, 0.5899600
1507.800, 0.3481200
1509.729, 0.3210410
1511.657, 0.6023940
1513.586, 0.6163790
1515.514, 0.4266130
1517.443, 0.3923950
1519.371, 0.4316370
1521.300, 0.4237860
1523.228, 0.4046780
1525.156, 0.4153160
1527.085, 0.3588770
1529.013, 0.1197400
1530.942, 0.2171000
1532.870, 0.7982310
1534.799, 0.9109760
1536.727, 0.6566520
1538.656, 0.6260430
1540.584, 0.7056100
1542.513, 0.7613370
1544.441, 0.7547820
1546.370, 0.6164510
1548.298, 0.5049710
1550.227, 0.4426710
1552.155, 0.5856630
1554.083, 0.4939916
1556.012, 0.8779540
1557.940, 0.5708680
1559.869, 0.6914420
1561.797, 0.9178940
1563.726, 0.7736930
1565.654, 0.6954270
1567.583, 1.229975
1569.511, 1.189627
1571.440, 1.054519
1573.368, 0.9965337
1575.297, 0.5842780
1577.225, 0.5908070
1579.154, 0.3464430
1581.082, 0.5071390
1583.010, 0.7806210
1584.939, 0.9464930
1586.867, 1.074932
1588.796, 1.234932
1590.724, 1.198387
1592.653, 0.9440190
1594.581, 0.8777070
1596.510, 0.9485360
1598.438, 0.9200610
1600.367, 0.9291310
1602.295, 1.190844
1604.224, 1.436409
1606.152, 1.494026
1608.081, 1.589855
1610.009, 1.789099
1611.938, 1.882835
1613.866, 1.878761
1615.794, 1.852602
1617.723, 1.730675
1619.651, 1.288179
1621.580, 0.9502120
1623.508, 1.005722
1625.437, 0.9987370
1627.365, 0.8105740
1629.294, 0.6098460
1631.222, 0.4336220
1633.151, 0.5637740
1635.079, 0.7680680
1637.008, 0.7091940
1638.936, 0.6509110
1640.865, 0.7825660
1642.793, 0.6813450
1644.721, 0.2316360
1646.650, 5.4887999E-02
1648.578, 0.1127150
1650.507, 1.0019000E-02
1652.435, 8.6278997E-02
1654.364, 0.3238410
1656.292, 0.6824440
1658.221, 0.7806210
1660.149, 0.6510260
1662.078, 0.3014700
1664.006, 6.0529999E-02
1665.935, 1.5830999E-02
1667.863, 0.2712020
1669.792, 0.5980890
1671.720, 0.6605360
1673.648, 0.5512960
1675.577, 0.2346970
1677.505, 3.9186001E-02
1679.434, 1.2566000E-02
1681.362, 2.5579000E-02
1683.291, 2.7300000E-02
1685.219, 0.2559990
1687.148, 0.4894260
1689.076, 0.6733250
1691.005, 0.6401750
1692.933, 0.7279364
1694.862, 0.7929370
1696.790, 0.6786630
1698.719, 0.8192420
1700.647, 0.7936880
1702.575, 0.6434570
1704.504, 0.5042130
1706.432, 0.3801730
1708.361, 0.4851070
1710.289, 0.4113298
1712.218, 0.3139482
1714.146, 0.4148860
1716.075, 0.1642400
1718.003, 5.4728001E-02
1719.932, 0.1426430
1721.860, 0.2912160
1723.789, 0.4924110
1725.717, 0.4630410
1727.646, 0.3105850
1729.574, 0.6502210
1731.502, 0.9537160
1733.431, 0.5451770
1735.359, 0.2929900
1737.288, 0.4426400
1739.216, 1.161320
1741.145, 0.7099596
1743.073, 1.610926
1745.002, 0.4515740
1746.930, 0.2644140
1748.859, 0.3649430
1750.787, 0.5667040
1752.716, 0.4795910
1754.644, 0.1121880
1756.573, 0.1041930
1758.501, 0.2618620
1760.429, 0.2607520
1762.358, 0.2197320
1764.286, 0.1763000
1766.215, 0.2020850
1768.143, 0.2909980
1770.072, 0.1627140
1772.000, 1.0712000E-02
1773.929, 0.3255670
1775.857, 0.6033780
1777.786, 0.4721180
1779.714, 0.3643000
1781.643, 0.3200440
1783.571, 0.2351280
1785.500, 0.1226540
1787.428, 7.0354000E-02
1789.356, 0.1315060
1791.285, 0.1539170
1793.213, 0.4567970
1795.142, 0.7549510
1797.070, 0.5199170
1798.999, 0.6489938
1800.927, 0.3048930
1802.856, 0.4848690
1804.784, 0.1817780
1806.713, 0.1209850
1808.641, 0.3953840
1810.570, 0.4054430
1812.498, 0.2529260
1814.427, 4.9408000E-02
1816.355, 0.1013320
1818.283, 0.1837390
1820.212, 3.2044999E-02
1822.140, 0.3437710
1824.069, 0.5327870
1825.997, 0.6003090
1827.926, 0.6373060
1829.854, 0.5702100
1831.783, 0.3355180
1833.711, 0.2998540
1835.640, 0.4525280
1837.568, 0.5936620
1839.497, 0.6604080
1841.425, 0.5586170
1843.354, 0.3750570
1845.282, 0.1101970
1847.210, 0.2871490
1849.139, 0.7191730
1851.067, 0.7848990
1852.996, 0.7493520
1854.924, 0.7403580
1856.853, 0.9854770
1858.781, 1.462755
1860.710, 0.8216320
1862.638, 0.1287100
1864.567, 0.1427380
1866.495, 0.5012570
1868.424, 0.4152240
1870.352, 0.3269630
1872.281, 0.2585110
1874.209, 0.1387650
1876.137, 8.2294002E-02
1878.066, 0.2777350
1879.994, 0.4106030
1881.923, 0.3970950
1883.851, 0.4444480
1885.780, 0.4953520
1887.708, 0.3846300
1889.637, 0.2671300
1891.565, 0.2539390
1893.494, 0.1766510
1895.422, 3.7094001E-02
1897.351, 6.9916002E-02
1899.279, 0.2547050
1901.208, 0.1358799
1903.136, 0.2015241
1905.064, 0.2284050
1906.993, 0.2291870
1908.921, 0.5798700
1910.850, 0.7311460
1912.778, 0.7390690
1914.707, 0.6052890
1916.635, 0.5238290
1918.564, 0.4832120
1920.492, 5.9050001E-02
1922.421, 0.2338620
1924.349, 0.2777100
1926.278, 0.5173720
1928.206, 0.2686580
1930.135, 0.2036080
1932.063, 0.2834640
1933.991, 0.5041030
1935.920, 0.6023670
1937.848, 0.4816270
1939.777, 0.3302460
1941.705, 0.2015760
1943.634, 0.2168750
1945.562, 0.2531550
1947.491, 0.2341230
1949.419, 0.1564640
1951.348, 5.1086001E-02
1953.276, 0.1478210
1955.205, 0.3167690
1957.133, 0.4159680
1959.062, 0.5559140
1960.990, 0.5725263
1962.918, 0.7140810
1964.847, 0.5717770
1966.775, 0.5428560
1968.704, 0.5472220
1970.632, 0.5817530
1972.561, 0.5333750
1974.489, 0.4120860
1976.418, 0.4165118
1978.346, 0.3468635
1980.275, 0.2977520
1982.203, 0.3466050
1984.132, 0.2270430
1986.060, 0.3948630
1987.989, 0.5261540
1989.917, 0.3673130
1991.845, 0.3414630
1993.774, 0.4702700
1995.702, 0.5690310
1997.631, 0.6167830
1999.559, 0.6063750
2001.488, 0.5399650
2003.416, 0.5025601
2005.345, 4.4120001E-03
2007.273, 0.3301430
2009.202, 0.2006590
2011.130, 8.7755002E-02
2013.059, 0.4536210
2014.987, 0.4177740
2016.916, 0.2544020
2018.844, 0.4501510
2020.772, 0.4547670
2022.701, 0.1862280
2024.629, 0.2795050
2026.558, 0.4576570
2028.486, 0.1814370
2030.415, 6.9254003E-02
2032.343, 0.2570650
2034.272, 0.4697110
2036.200, 0.6210330
2038.129, 0.5694940
2040.057, 0.4986800
2041.986, 0.4580900
2043.914, 0.2853050
2045.843, 0.1333810
2047.771, 0.3457010
2049.699, 0.4171980
2051.628, 0.1866340
2053.556, 0.1736390
2055.485, 0.3122410
2057.413, 0.5913580
2059.342, 0.6610130
2061.270, 0.3467920
2063.199, 0.2848990
2065.127, 0.3671420
2067.056, 0.5070800
2068.984, 0.4771040
2070.913, 0.1644630
2072.841, 0.1359350
2074.770, 0.3020820
2076.698, 0.1830475
2078.626, 0.7136800
2080.555, 0.2757340
2082.483, 0.2751240
2084.412, 0.3615670
2086.340, 6.9609001E-02
2088.269, 9.8041996E-02
2090.197, 2.6908999E-02
2092.126, 0.1361130
2094.054, 0.3138080
2095.983, 0.5159690
2097.911, 0.4414550
2099.840, 0.1346880
2101.768, 0.4638820
2103.697, 0.7400880
2105.625, 0.3403870
2107.553, 0.1661120
2109.482, 0.2363240
2111.410, 5.8084000E-02
2113.339, 2.9751999E-02
2115.267, 0.1976290
2117.196, 0.4341600
2119.124, 0.5650330
2121.053, 0.2732910
2122.981, 5.4605000E-02
2124.910, 0.1370190
2126.838, 0.1010500
2128.767, 2.7367000E-02
2130.695, 9.5532000E-02
2132.624, 0.1744060
2134.552, 0.2288550
2136.480, 0.3368470
2138.409, 0.4186400
2140.337, 0.4558923
2142.266, 0.4740082
2144.194, 0.4867560
2146.123, 0.4472030
2148.051, 0.3661990
2149.980, 0.3547610
2151.908, 0.3403380
2153.837, 0.2877470
2155.765, 0.1355340
2157.694, 4.2447999E-02
2159.622, 8.4537998E-02
2161.551, 0.4001040
2163.479, 0.7030390
2165.407, 0.3013810
2167.336, 6.1319001E-02
2169.264, 0.2030300
2171.193, 0.3066050
2173.121, 0.3743200
2175.050, 0.4241500
2176.978, 0.3891100
2178.907, 0.2752410
2180.835, 0.2515910
2182.764, 0.2039770
2184.692, 5.8552999E-02
2186.621, 0.2152040
2188.549, 0.5009150
2190.478, 0.4909300
2192.406, 0.4969430
2194.334, 0.5866540
2196.263, 0.6001710
2198.191, 0.5613770
2200.120, 0.4806120
2202.048, 0.3896820
2203.977, 0.3131550
2205.905, 0.3823030
2207.834, 0.3363250
2209.762, 0.3387602
2211.691, 0.4293979
2213.619, 0.3194910
2215.548, 0.4916040
2217.476, 0.4554590
2219.405, 0.2347310
2221.333, 0.2368870
2223.261, 0.3030140
2225.190, 0.3305310
2227.118, 0.3854930
2229.047, 0.4247460
2230.975, 0.3106270
2232.904, 0.2131240
2234.832, 0.1845080
2236.761, 0.1901550
2238.689, 0.1890990
2240.618, 0.2208120
2242.546, 4.8734002E-02
2244.475, 0.2159360
2246.403, 7.8906000E-02
2248.332, 0.1412860
2250.260, 0.3432700
2252.188, 0.3822770
2254.117, 0.3680840
2256.045, 0.4272350
2257.974, 0.3436470
2259.902, 0.2041800
2261.831, 0.4685730
2263.759, 0.6795940
2265.688, 0.6795430
2267.616, 0.3813040
2269.545, 0.1196290
2271.473, 0.3412090
2273.402, 0.4166250
2275.330, 0.3506020
2277.259, 0.3625350
2279.187, 0.3554640
2281.115, 0.2988650
2283.044, 0.4429340
2284.972, 0.5905640
2286.901, 0.5348320
2288.829, 0.4222940
2290.758, 0.2933090
2292.686, 0.1873440
2294.615, 0.1826570
2296.543, 0.2983370
2298.472, 0.2719690
2300.400, 0.2172400
2302.329, 0.2219710
2304.257, 0.2198100
2306.186, 0.1957500
2308.114, 0.2477315
2310.042, 0.1188950
2311.971, 0.3212830
2313.899, 0.2814280
2315.828, 0.2608270
2317.756, 0.4060030
2319.685, 0.2494850
2321.613, 8.1491001E-02
2323.542, 0.2911570
2325.470, 0.3697070
2327.399, 0.3080910
2329.327, 0.3175950
2331.256, 0.3725700
2333.184, 0.4581080
2335.113, 0.4074640
2337.041, 0.3622130
2338.969, 0.4436390
2340.898, 0.2564750
2342.826, 1.4924000E-02
2344.755, 0.2256060
2346.683, 0.2414690
2348.612, 6.7818999E-02
2350.540, 0.2204680
2352.469, 0.3070960
2354.397, 0.1934310
2356.326, 4.3609001E-02
2358.254, 1.6026000E-02
2360.183, 0.1635950
2362.111, 0.4057680
2364.040, 0.5624780
2365.968, 0.5538798
2367.896, 0.2650460
2369.825, 0.4452940
2371.753, 0.3480880
2373.682, 0.2296290
2375.610, 0.1839090
2377.539, 0.2518290
2379.467, 0.2557570
2381.396, 0.2429751
2383.324, 0.2759947
2385.253, 0.2443790
2387.181, 0.2967610
2389.110, 0.3433040
2391.038, 0.3619590
2392.967, 0.1473560
2394.895, 3.7953001E-02
2396.823, 0.1117800
2398.752, 3.9948002E-02
2400.680, 0.3013550
2402.609, 0.6064550
2404.537, 0.2495980
2406.466, 8.8101998E-02
2408.394, 0.2518910
2410.323, 0.2422880
2412.251, 8.0087997E-02
2414.180, 0.3460780
2416.108, 0.3624880
2418.037, 0.2003700
2419.965, 0.4031070
2421.894, 0.5826020
2423.822, 0.6285060
2425.750, 0.6773958
2427.679, 0.3876470
2429.607, 0.5640480
2431.536, 0.3536110
2433.464, 0.1448670
2435.393, 0.3371480
2437.321, 0.3762210
2439.250, 0.3460200
2441.178, 0.3859150
2443.107, 0.3565620
2445.035, 0.3277940
2446.964, 0.3169694
2448.892, 0.3056420
2450.821, 0.2905520
2452.749, 0.3134500
2454.677, 0.3824930
2456.606, 0.4189210
2458.534, 0.1619640
2460.463, 1.8261001E-02
2462.391, 0.1950920
2464.320, 0.3813830
2466.248, 0.3859640
2468.177, 8.6390004E-02
2470.105, 7.5436004E-02
2472.034, 7.1093999E-02
2473.962, 0.1034630
2475.891, 0.2600430
2477.819, 0.3580100
2479.748, 0.3029220
2481.676, 0.2405040
2483.604, 0.2093370
2485.533, 0.2841160
2487.461, 0.2414460
2489.390, 0.2667073
2491.318, 0.1738450
2493.247, 0.2809880
2495.175, 0.3569750
2497.104, 0.3537356
2499.032, 0.4568710
2500.961, 0.3064450
2502.889, 0.4522580
2504.818, 0.3909660
2506.746, 8.1587002E-02
2508.675, 0.1141960
2510.603, 0.2601750
2512.531, 0.3868850
2514.460, 0.3499810
2516.388, 0.2479610
2518.317, 0.1450260
2520.245, 7.0892997E-02
2522.174, 0.1159210
2524.102, 0.4216660
2526.031, 0.5138020
2527.959, 0.4061890
2529.888, 0.1057120
2531.816, 0.1068610
2533.745, 0.2753870
2535.673, 0.3739290
2537.602, 0.2899280
2539.530, 0.1483660
2541.458, 0.2343940
2543.387, 0.1516940
2545.315, 1.2677000E-02
2547.244, 0.3307670
2549.172, 0.5196120
2551.101, 0.5102330
2553.029, 0.3422280
2554.958, 0.1827170
2556.886, 0.1026930
2558.815, 0.2729560
2560.743, 0.3282880
2562.672, 0.2449120
2564.600, 0.2258160
2566.529, 0.1968820
2568.457, 0.1725350
2570.385, 0.1980930
2572.314, 0.3486480
2574.242, 0.2338290
2576.171, 0.3036420
2578.099, 0.2690990
2580.028, 0.1012840
2581.956, 9.6761003E-02
2583.885, 9.3893997E-02
2585.813, 5.5523001E-02
2587.742, 7.7955998E-02
2589.670, 0.1385230
2591.599, 0.2159940
2593.527, 0.1409680
2595.456, 6.4787000E-02
2597.384, 4.2589001E-02
2599.313, 0.1474890
2601.241, 0.4002490
2603.169, 0.7195360
2605.098, 0.2700610
2607.026, 2.8867001E-02
2608.955, 6.3065998E-02
2610.883, 0.3225460
2612.812, 0.4394980
2614.740, 0.3619080
2616.669, 0.2509670
2618.597, 0.2737390
2620.526, 0.3869510
2622.454, 0.1565900
2624.383, 0.1013630
2626.311, 0.2355070
2628.240, 6.1588001E-02
2630.168, 0.1904290
2632.096, 9.6634790E-02
2634.025, 0.2266520
2635.953, 2.2802001E-02
2637.882, 2.4699999E-04
2639.810, 0.1278200
2641.739, 0.1484360
2643.667, 9.9385999E-02
2645.596, 0.1932140
2647.524, 0.1268670
2649.453, 2.1970000E-03
2651.381, 4.3986000E-02
2653.310, -7.3308246E-03
2655.238, 2.4556577E-02
2657.167, 7.9203002E-02
2659.095, 0.1150530
2661.023, 0.3461010
2662.952, 0.3789970
2664.880, 0.3772820
2666.809, 0.3584610
2668.737, 0.3188870
2670.666, 0.3057420
2672.594, 0.2510520
2674.523, 0.1035250
2676.451, 4.3094002E-02
2678.380, 0.1422620
2680.308, 5.8290254E-02
2682.237, 0.3320260
2684.165, 0.1339380
2686.094, 4.3462001E-02
2688.022, 0.2306600
2689.950, 0.3168090
2691.879, 8.4983997E-02
2693.807, 0.1068080
2695.736, 3.2460999E-02
2697.664, 0.1173730
2699.593, 0.1195760
2701.521, 0.2572590
2703.450, 0.2449400
2705.378, 0.2046900
2707.307, 0.2458640
2709.235, 5.3180002E-02
2711.164, 0.2046260
2713.092, 0.2232420
2715.021, 0.1700050
2716.949, 0.3554720
2718.877, 0.2095870
2720.806, 2.1307999E-02
2722.734, 4.5761000E-02
2724.663, -3.1304184E-02
2726.591, -3.8123772E-02
2728.520, 2.2839999E-03
2730.448, 1.9948000E-02
2732.377, 0.1031650
2734.305, 0.1650260
2736.234, 0.1229460
2738.162, 1.5615000E-02
2740.091, 7.9079002E-02
2742.019, 6.0704999E-02
2743.948, 0.1638750
2745.876, 0.1886970
2747.804, 0.1039300
2749.733, 0.2235390
2751.661, 0.3348740
2753.590, 0.2226010
2755.518, 0.1676070
2757.447, 0.1603110
2759.375, 0.1819760
2761.304, 0.1911630
2763.232, 0.1340840
2765.161, 5.3661000E-02
2767.089, 0.2580170
2769.018, 0.2127610
2770.946, 1.8688001E-02
2772.875, 0.1728940
2774.803, 0.2714900
2776.731, 0.2668820
2778.660, 9.3477003E-02
2780.588, 0.3330670
2782.517, 0.4976910
2784.445, 0.1727260
2786.374, 0.1197850
2788.302, 0.1840830
2790.231, 0.2784810
2792.159, 0.1845030
2794.088, 0.1269090
2796.016, 0.1143610
2797.945, 2.1677000E-02
2799.873, 9.2252001E-02
2801.802, 0.2368900
2803.730, 0.3295720
2805.658, 0.2512570
2807.587, 0.1960790
2809.515, 0.2590680
2811.444, 0.2943040
2813.372, 0.3721990
2815.301, 0.4456910
2817.229, 0.2445520
2819.158, 0.1046670
2821.086, 8.0196001E-02
2823.015, 0.2160900
2824.943, 0.1917460
2826.872, 3.7455998E-02
2828.800, 0.2100500
2830.729, 3.3263002E-02
2832.657, 7.9424001E-02
2834.585, 4.1510999E-02
2836.514, 4.1243542E-02
2838.442, 0.1302008
2840.371, 0.1317670
2842.299, 0.2714480
2844.228, 0.3604920
2846.156, 0.3440280
2848.085, 0.3976785
2850.013, 0.3089320
2851.942, 0.4129270
2853.870, 0.4188930
2855.799, 0.4891560
2857.727, 0.4511960
2859.656, 0.3436160
2861.584, 0.2550640
2863.512, 0.3126340
2865.441, 0.3704550
2867.369, 0.3544810
2869.298, 0.4506800
2871.226, 0.5612720
2873.155, 0.6493080
2875.083, 0.7738520
2877.012, 0.4877130
2878.940, 0.1920470
2880.869, 0.3561320
2882.797, 0.2408600
2884.726, 0.2626480
2886.654, 0.5266810
2888.583, 0.7399180
2890.511, 0.5755400
2892.439, 0.3010620
2894.368, 0.4592540
2896.296, 0.4791210
2898.225, 0.4552810
2900.153, 0.4597570
2902.082, 0.4898707
2904.010, 0.2629030
2905.939, 0.4743840
2907.867, 0.5566490
2909.796, 0.3792170
2911.724, 0.2418300
2913.653, 0.3695000
2915.581, 0.3827360
2917.510, 0.3067720
2919.438, 0.2532280
2921.366, 0.5288440
2923.295, 0.5430430
2925.223, 0.4943530
2927.152, 0.5845580
2929.080, 0.4298530
2931.009, 0.3479150
2932.937, 0.3994430
2934.866, 0.4618570
2936.794, 0.4003620
2938.723, 0.2977950
2940.651, 0.2432730
2942.580, 0.2515390
2944.508, 0.3634050
2946.437, 0.5063990
2948.365, 0.4573010
2950.293, 0.3700790
2952.222, 0.3194870
2954.150, 0.3609120
2956.079, 0.3351480
2958.007, 0.2317680
2959.936, 0.1254690
2961.864, 0.2344810
2963.793, 0.2328020
2965.721, 0.1769920
2967.650, 0.1501060
2969.578, 0.2577210
2971.507, 0.2702790
2973.435, 0.2227940
2975.364, 0.2752650
2977.292, 0.2276920
2979.220, 0.2350130
2981.149, 0.3554220
2983.077, 0.2338460
2985.006, 0.2974560
2986.934, 0.3653880
2988.863, 9.0521999E-02
2990.791, 0.2636800
2992.720, 0.3601170
2994.648, 0.2227550
2996.577, 8.5445002E-02
2998.505, 0.1930270
3000.434, 0.3224310
3002.362, 0.2574310
3004.291, 0.1024020
3006.219, 5.1968001E-02
3008.147, 0.1003590
3010.076, 0.1318920
3012.004, 0.1253074
3013.933, 0.1111720
3015.861, 0.1383130
3017.790, 8.6759999E-02
3019.718, 5.9289001E-02
3021.647, 5.7831269E-02
3023.575, 5.6766000E-02
3025.504, 2.7688000E-02
3027.432, 5.7626002E-02
3029.361, 3.4846999E-02
3031.289, 2.4506001E-02
3033.218, 5.0490000E-03
3035.146, 7.9833001E-02
3037.074, 0.1911540
3039.003, 0.2263890
3040.931, 0.1040590
3042.860, 3.2974001E-02
3044.788, 0.1730960
3046.717, 0.1248280
3048.645, 0.1374270
3050.574, 0.1970100
3052.502, 0.1519870
3054.431, 9.7227000E-02
3056.359, 5.1203001E-02
3058.288, 3.4811001E-02
3060.216, 0.1087400
3062.145, 5.2418999E-02
3064.073, 7.0964001E-02
3066.001, 0.2807570
3067.930, 0.3104710
3069.858, 0.1433540
3071.787, 1.3226000E-02
3073.715, 0.1932290
3075.644, 0.1865370
3077.572, 0.1274680
3079.501, 8.7563999E-02
3081.429, 0.1206110
3083.358, 8.4097996E-02
3085.286, 4.3719001E-02
3087.215, 4.6764001E-02
3089.143, 0.1356500
3091.072, 0.2346570
3093.000, 0.2329240
3094.928, 0.1152110
3096.857, 5.0421000E-02
3098.785, 7.2600000E-04
3100.714, 2.4809999E-02
3102.642, 0.1376580
3104.571, 0.1098560
3106.499, 6.9753997E-02
3108.428, 2.3515999E-02
3110.356, 4.0956002E-02
3112.285, 5.7293002E-02
3114.213, 7.1050003E-02
3116.142, 8.5386001E-02
3118.070, 0.3245740
3119.999, 0.2953420
3121.927, 0.1478580
3123.855, 6.3867003E-02
3125.784, 0.3072170
3127.712, 0.2127290
3129.641, 0.1777030
3131.569, 0.2036770
3133.498, 6.6633999E-02
3135.426, 7.5994998E-02
3137.355, 0.1702870
3139.283, 7.1538001E-02
3141.212, 4.6479002E-02
3143.140, 0.1405980
3145.069, 0.1380270
3146.997, 4.7517002E-02
3148.926, 0.2636610
3150.854, 0.1983820
3152.782, 7.4901998E-02
3154.711, 5.7347000E-02
3156.639, 0.2194980
3158.568, 0.2101190
3160.496, 0.1517500
3162.425, 0.1283730
3164.353, 0.1240390
3166.282, 9.3730003E-02
3168.210, 0.1100270
3170.139, 0.1880030
3172.067, 0.2326580
3173.996, 0.2104610
3175.924, 0.1220070
3177.853, 1.2817000E-02
3179.781, 6.7388996E-02
3181.709, 1.5958211E-03
3183.638, 0.1867840
3185.566, 3.0452000E-02
3187.495, 6.4487003E-02
3189.423, 0.1724560
3191.352, 0.1223590
3193.280, 3.1227000E-02
3195.209, 0.3011160
3197.137, 0.2576950
3199.066, 0.1237770
3200.994, 8.5942000E-02
3202.923, 0.1096460
3204.851, 0.1215870
3206.780, 0.1500920
3208.708, 0.1668000
3210.636, 0.1828061
3212.565, 0.1419820
3214.493, 0.1807860
3216.422, 0.1190570
3218.350, 4.0472999E-02
3220.279, 9.3765996E-02
3222.207, 0.1690310
3224.136, 0.1665320
3226.064, 4.8037000E-02
3227.993, 0.1778220
3229.921, 0.1659460
3231.850, 2.1513000E-02
3233.778, 6.9165997E-02
3235.707, 7.4429996E-02
3237.635, 0.1354180
3239.563, 0.1748790
3241.492, 0.1579350
3243.420, 0.1163540
3245.349, 3.9489001E-02
3247.277, 5.5499998E-04
3249.206, 2.7403999E-02
3251.134, 0.1019960
3253.063, 6.3542999E-02
3254.991, 3.1989999E-02
3256.920, 8.8919997E-02
3258.848, 8.6053565E-02
3260.777, 0.1586790
3262.705, 0.1344050
3264.634, 0.2265700
3266.562, 0.2056860
3268.490, 0.1540110
3270.419, 3.1264000E-02
3272.347, 1.3636000E-02
3274.276, 0.2456420
3276.204, 0.1486510
3278.133, 0.1708130
3280.061, 0.1936660
3281.990, 0.1103580
3283.918, 6.9865003E-02
3285.847, 0.1572800
3287.775, 0.2472800
3289.704, 0.2583610
3291.632, 0.1568880
3293.561, 0.1550260
3295.489, 8.8835999E-02
3297.417, 4.4278000E-02
3299.346, 0.1221050
3301.274, 7.2521001E-02
3303.203, 0.1174540
3305.131, 0.1549910
3307.060, 0.1264870
3308.988, 0.1610920
3310.917, 0.2403620
3312.845, 0.2084400
3314.774, 0.1330980
3316.702, 0.2159920
3318.631, 0.1265770
3320.559, 0.1750040
3322.488, 0.2831610
3324.416, 0.3080620
3326.344, 0.1515010
3328.273, 0.1804860
3330.201, 0.1848920
3332.130, 0.1043680
3334.058, 8.0583997E-02
3335.987, 0.1027980
3337.915, 0.1763070
3339.844, 0.2196720
3341.772, 0.1582780
3343.701, 0.1517590
3345.629, 0.1061606
3347.558, 6.8274885E-02
3349.486, 1.7847000E-02
3351.415, 1.7521000E-02
3353.343, 3.8445000E-02
3355.271, 7.2212003E-02
3357.200, 0.1564180
3359.128, 0.2710190
3361.057, 0.1381640
3362.985, 0.2727800
3364.914, 0.1852090
3366.842, 6.4020000E-02
3368.771, 6.5585002E-02
3370.699, 7.8309998E-02
3372.628, 0.1585040
3374.556, 0.1899020
3376.485, 0.1054100
3378.413, 0.2042760
3380.342, 0.1897040
3382.270, 5.4793000E-02
3384.198, 3.5700999E-02
3386.127, 0.1064910
3388.055, 3.1208999E-02
3389.984, 0.1468510
3391.912, 0.2334390
3393.841, 0.1815190
3395.769, 0.1236250
3397.698, 0.1304960
3399.626, 0.1600580
3401.555, 0.1447260
3403.483, 0.1103300
3405.412, 0.2085435
3407.340, 0.4624740
3409.269, 0.4537880
3411.197, 0.5381750
3413.125, 0.7975640
3415.054, 1.346170
3416.982, 1.499343
3418.911, 1.374047
3420.839, 1.114817
3422.768, 0.8360860
3424.696, 0.8486780
3426.625, 0.6816030
3428.553, 0.5625670
3430.482, 0.5888420
3432.410, 0.5113920
3434.339, 0.5159010
3436.267, 0.4255120
3438.196, 0.3245870
3440.124, 0.2913170
3442.052, 0.2638040
3443.981, 0.1622900
3445.909, 8.0692001E-02
3447.838, 2.8715000E-02
3449.766, 3.7730001E-03
3451.695, 1.0459000E-02
3453.623, 2.5350999E-02
3455.552, 0.0000000E+00
##END=



