##NAMES=Realgar
##RRUFFID=R060106
##IDEAL CHEMISTRY=AsS
##LOCALITY=Humboldt County, Nevada, USA
##OWNER=RRUFF
##SOURCE=University of Arizona Mineral Museum
##DESCRIPTION=Red incrustation with some prismatic crystals
##STATUS=The identification of this mineral has been confirmed by X-ray diffraction and chemical analysis
##URL=https://www.rruff.net/odr/rruff_sample/R060106
##MEASURED CHEMISTRY=As_1.06_S_0.94_
##DIFFRACTION SAMPLE DESCRIPTION=Powder
##CELL PARAMETERS=a: 9.3293 b: 13.5658 c: 6.5876 alpha: 90 beta: 106.472 gamma: 90 volume: 799.5 crystal system: monoclinic
##FILETYPE=Raman Processed
##RAMAN WAVELENGTH=780

133.5173, 3183.565
135.4458, 3456.654
137.3743, 3874.304
139.3027, 4425.743
141.2312, 4995.188
143.1597, 5621.229
145.0881, 6181.542
147.0166, 6561.348
148.9450, 6906.669
150.8735, 7396.455
152.8020, 8016.280
154.7304, 8699.352
156.6589, 9474.195
158.5874, 10260.32
160.5158, 11091.98
162.4443, 11889.35
164.3728, 12555.94
166.3012, 13118.30
168.2297, 13650.74
170.1582, 13954.47
172.0866, 14628.61
174.0151, 15771.47
175.9436, 17280.69
177.8720, 19487.26
179.8005, 21975.06
181.7290, 23655.09
183.6574, 24188.62
185.5859, 24542.40
187.5144, 25279.25
189.4428, 25373.90
191.3713, 24087.92
193.2998, 21860.02
195.2282, 19200.78
197.1567, 15864.44
199.0852, 13132.61
201.0136, 10980.12
202.9421, 9421.820
204.8706, 8584.557
206.7990, 8308.646
208.7275, 8402.435
210.6560, 8864.538
212.5844, 9772.458
214.5129, 11739.32
216.4414, 13164.56
218.3698, 14003.04
220.2983, 14008.96
222.2268, 12815.77
224.1552, 10722.35
226.0837, 8695.706
228.0122, 6620.667
229.9406, 4928.533
231.8691, 3678.721
233.7976, 2741.234
235.7260, 2154.361
237.6545, 1789.243
239.5830, 1536.958
241.5114, 1405.531
243.4399, 1309.854
245.3684, 1257.169
247.2968, 1214.639
249.2253, 1177.258
251.1538, 1143.328
253.0822, 1108.100
255.0107, 1075.572
256.9392, 1059.958
258.8676, 1064.296
260.7961, 1067.155
262.7246, 1065.103
264.6530, 1064.365
266.5815, 1066.785
268.5100, 1073.247
270.4384, 1082.939
272.3669, 1096.555
274.2954, 1119.588
276.2238, 1152.359
278.1523, 1189.070
280.0808, 1226.852
282.0092, 1271.782
283.9377, 1321.711
285.8662, 1381.353
287.7946, 1464.456
289.7231, 1570.428
291.6516, 1670.417
293.5800, 1750.964
295.5085, 1862.974
297.4370, 1981.601
299.3654, 2179.180
301.2939, 2510.865
303.2224, 2954.505
305.1508, 3453.226
307.0793, 4003.673
309.0078, 4627.165
310.9362, 5236.206
312.8647, 6128.116
314.7932, 7547.647
316.7216, 9086.671
318.6501, 10565.79
320.5786, 11885.66
322.5070, 12786.82
324.4355, 13260.95
326.3640, 13745.26
328.2924, 14139.61
330.2209, 14855.66
332.1494, 15974.31
334.0778, 17454.03
336.0063, 19492.16
337.9348, 21816.78
339.8632, 23845.57
341.7917, 25561.72
343.7202, 27021.11
345.6486, 27782.71
347.5771, 28948.55
349.5056, 31965.21
351.4340, 34269.51
353.3625, 33758.41
355.2910, 31111.87
357.2194, 27250.06
359.1479, 22061.21
361.0764, 17423.95
363.0048, 13390.90
364.9333, 10175.41
366.8618, 8021.306
368.7902, 6478.863
370.7187, 5467.231
372.6472, 4797.601
374.5756, 4220.841
376.5041, 3735.799
378.4326, 3273.472
380.3610, 2814.605
382.2895, 2404.513
384.2180, 2040.767
386.1464, 1732.722
388.0749, 1494.605
390.0034, 1310.436
391.9318, 1165.963
393.8603, 1060.173
395.7888, 980.6250
397.7172, 937.1531
399.6457, 900.8546
401.5742, 873.1699
403.5026, 850.4045
405.4311, 833.2339
407.3596, 817.3281
409.2880, 797.1627
411.2165, 777.2857
413.1450, 771.0168
415.0734, 782.3352
417.0019, 777.8128
418.9304, 752.9283
420.8588, 726.5094
422.7873, 702.0707
424.7158, 678.3812
426.6442, 654.3822
428.5727, 630.3523
430.5012, 606.0490
432.4296, 582.7189
434.3581, 566.6697
436.2866, 558.1633
438.2150, 550.6775
440.1435, 543.1154
442.0720, 538.3865
444.0004, 540.0344
445.9289, 541.9014
447.8574, 541.2664
449.7858, 537.5166
451.7143, 529.5295
453.6428, 519.0502
455.5712, 513.5603
457.4997, 513.8743
459.4282, 506.1624
461.3566, 482.7660
463.2851, 462.7584
465.2136, 454.6471
467.1420, 450.0131
469.0705, 442.3868
470.9990, 434.2764
472.9274, 432.0803
474.8559, 434.2891
476.7844, 433.1432
478.7128, 427.7722
480.6413, 424.2956
482.5698, 424.3703
484.4982, 425.8959
486.4267, 428.7987
488.3552, 431.6626
490.2836, 435.2525
492.2121, 438.0476
494.1406, 435.7689
496.0690, 429.9528
497.9975, 425.9267
499.9260, 423.8106
501.8544, 426.4635
503.7829, 438.2894
505.7114, 447.6554
507.6398, 452.5901
509.5683, 454.8663
511.4968, 452.5329
513.4252, 449.5368
515.3537, 452.4716
517.2822, 458.6116
519.2106, 460.2782
521.1391, 456.9878
523.0676, 455.1417
524.9960, 456.5928
526.9245, 456.6891
528.8530, 454.1334
530.7814, 452.3373
532.7099, 451.3584
534.6384, 451.7859
536.5668, 457.1686
538.4953, 462.1394
540.4238, 457.8405
542.3522, 445.9570
544.2807, 440.2314
546.2092, 443.4102
548.1376, 444.9796
550.0661, 443.3866
551.9946, 442.6402
553.9230, 445.3699
555.8515, 445.8614
557.7800, 441.5036
559.7084, 434.9353
561.6369, 424.8634
563.5654, 414.5747
565.4938, 412.4135
567.4223, 418.1060
569.3508, 420.0419
571.2792, 417.8225
573.2077, 411.2565
575.1362, 397.3423
577.0646, 386.9730
578.9931, 384.8001
580.9216, 383.2971
582.8500, 377.3597
584.7785, 371.1873
586.7070, 369.4103
588.6354, 369.6826
590.5639, 366.9088
592.4924, 361.5171
594.4208, 358.0234
596.3493, 356.7617
598.2778, 352.9784
600.2062, 345.8535
602.1347, 339.7947
604.0632, 336.0933
605.9916, 332.2710
607.9201, 326.4901
609.8486, 321.8173
611.7770, 320.5711
613.7055, 319.5696
615.6340, 315.0750
617.5624, 309.5672
619.4909, 308.6140
621.4194, 311.4245
623.3478, 312.8120
625.2763, 312.9195
627.2048, 312.9749
629.1332, 312.1935
631.0617, 313.7110
632.9902, 323.9635
634.9186, 328.3503
636.8471, 315.9010
638.7756, 303.2389
640.7040, 301.0014
642.6325, 304.2891
644.5610, 309.2720
646.4894, 314.4012
648.4179, 315.5810
650.3464, 314.2331
652.2748, 316.9405
654.2033, 324.1995
656.1318, 327.0377
658.0602, 321.9627
659.9887, 319.8390
661.9172, 324.9417
663.8456, 330.0295
665.7741, 334.7037
667.7026, 336.5952
669.6310, 332.4828
671.5595, 328.1291
673.4880, 328.6713
675.4164, 332.0443
677.3449, 334.3521
679.2734, 336.2705
681.2018, 341.7762
683.1303, 350.6789
685.0588, 354.2042
686.9872, 350.3221
688.9157, 347.0255
690.8442, 343.6861
692.7726, 343.4867
694.7011, 350.0290
696.6296, 353.9919
698.5580, 350.9889
700.4865, 347.8050
702.4149, 347.4980
704.3434, 347.8943
706.2719, 347.6129
708.2003, 347.7151
710.1288, 349.9936
712.0573, 353.0575
713.9857, 353.1083
715.9142, 350.2367
717.8427, 347.5800
719.7711, 345.8298
721.6996, 340.2654
723.6281, 327.5687
725.5565, 322.5100
727.4850, 329.4977
729.4135, 333.4799
731.3419, 330.0052
733.2704, 326.4147
735.1989, 326.1075
737.1273, 325.4226
739.0558, 323.8314
740.9843, 318.9782
742.9127, 304.7312
744.8412, 289.7649
746.7697, 287.3522
748.6981, 291.5112
750.6266, 288.6128
752.5551, 280.4402
754.4835, 276.3919
756.4120, 276.2177
758.3405, 272.8931
760.2689, 266.5044
762.1974, 260.5696
764.1259, 255.2020
766.0543, 251.1893
767.9828, 248.4229
769.9113, 247.6023
771.8397, 250.7321
773.7682, 252.5478
775.6967, 249.8940
777.6251, 246.8183
779.5536, 244.2903
781.4821, 243.1076
783.4105, 245.6826
785.3390, 247.4615
787.2675, 242.1360
789.1959, 235.1952
791.1244, 235.8078
793.0529, 240.0968
794.9813, 238.6218
796.9098, 233.4765
798.8383, 230.5001
800.7667, 229.5185
802.6952, 230.0182
804.6237, 232.1326
806.5521, 234.8649
808.4806, 238.3679
810.4091, 239.1884
812.3375, 236.1085
814.2660, 233.1585
816.1945, 231.0421
818.1229, 229.1325
820.0514, 225.6583
821.9799, 223.7782
823.9083, 226.5227
825.8368, 229.2253
827.7653, 230.3080
829.6937, 229.2015
831.6222, 223.9324
833.5507, 218.7738
835.4791, 217.5770
837.4076, 218.2932
839.3361, 217.6986
841.2645, 217.2044
843.1930, 220.7252
845.1215, 225.5433
847.0499, 225.9235
848.9784, 222.8697
850.9069, 218.4544
852.8353, 213.1732
854.7638, 212.8373
856.6923, 217.7026
858.6207, 219.7503
860.5492, 218.4305
862.4777, 217.3615
864.4061, 217.2743
866.3346, 214.4384
868.2631, 207.3397
870.1915, 204.1910
872.1200, 206.8761
874.0485, 207.7290
875.9769, 203.9917
877.9054, 203.2021
879.8339, 209.5349
881.7623, 214.0622
883.6908, 212.9958
885.6193, 210.0560
887.5477, 205.8345
889.4762, 203.1746
891.4047, 204.1861
893.3331, 204.3806
895.2616, 201.7514
897.1901, 198.5836
899.1185, 194.5961
901.0470, 192.6023
902.9755, 196.5133
904.9039, 201.5222
906.8324, 201.4885
908.7609, 199.4418
910.6893, 201.7021
912.6178, 205.2990
914.5463, 204.0817
916.4747, 199.4646
918.4032, 194.0596
920.3317, 189.5500
922.2601, 189.0477
924.1886, 191.0862
926.1171, 192.7349
928.0455, 193.9108
929.9740, 193.7410
931.9025, 192.8918
933.8309, 194.4889
935.7594, 197.4128
937.6879, 194.8552
939.6163, 187.7145
941.5448, 185.8669
943.4733, 189.4388
945.4017, 191.3194
947.3302, 191.1871
949.2587, 191.3963
951.1871, 192.0985
953.1156, 190.3048
955.0441, 185.1118
956.9725, 182.3310
958.9010, 183.1964
960.8295, 183.6878
962.7579, 183.3102
964.6864, 182.8673
966.6149, 181.3555
968.5433, 181.7166
970.4718, 187.8505
972.4003, 189.3060
974.3287, 181.3763
976.2572, 176.2024
978.1857, 175.5925
980.1141, 176.7713
982.0426, 181.1097
983.9711, 183.6915
985.8995, 183.7446
987.8280, 181.3085
989.7565, 173.9294
991.6849, 169.9708
993.6134, 173.4934
995.5419, 176.6223
997.4703, 176.7550
999.3988, 176.3802
1001.327, 176.0095
1003.256, 176.0865
1005.184, 177.5099
1007.113, 177.7239
1009.041, 174.9692
1010.970, 172.9350
1012.898, 173.5699
1014.827, 173.6856
1016.755, 170.5440
1018.683, 169.6245
1020.612, 175.6239
1022.540, 180.1710
1024.469, 179.0277
1026.397, 175.8399
1028.326, 170.8317
1030.254, 168.1734
1032.183, 170.6973
1034.111, 172.2632
1036.040, 169.9073
1037.968, 168.0644
1039.897, 170.2002
1041.825, 170.1046
1043.754, 162.0210
1045.682, 155.8711
1047.610, 156.7063
1049.539, 159.1540
1051.467, 162.7036
1053.396, 164.2859
1055.324, 162.2066
1057.253, 159.9785
1059.181, 157.9238
1061.110, 156.4627
1063.038, 155.8805
1064.967, 156.0213
1066.895, 158.3215
1068.824, 159.0987
1070.752, 154.7157
1072.681, 152.3297
1074.609, 155.5367
1076.537, 158.6684
1078.466, 161.3149
1080.394, 162.2172
1082.323, 159.1717
1084.251, 157.1329
1086.180, 157.8546
1088.108, 158.6624
1090.037, 159.2428
1091.965, 159.4547
1093.894, 159.4263
1095.822, 158.6522
1097.751, 157.4002
1099.679, 154.8621
1101.608, 147.8723
1103.536, 145.8291
1105.464, 154.0772
1107.393, 157.8512
1109.321, 153.4510
1111.250, 150.6452
1113.178, 151.0158
1115.107, 150.7135
1117.035, 149.1516
1118.964, 147.6150
1120.892, 146.0958
1122.821, 144.9310
1124.749, 143.7526
1126.678, 144.9558
1128.606, 149.0146
1130.535, 152.2524
1132.463, 154.9061
1134.391, 155.4554
1136.320, 153.3494
1138.248, 150.6649
1140.177, 148.1829
1142.105, 148.0405
1144.034, 149.2250
1145.962, 146.2153
1147.891, 141.2435
1149.819, 143.7466
1151.748, 150.1258
1153.676, 150.8750
1155.605, 148.2423
1157.533, 145.2453
1159.462, 143.2209
1161.390, 146.4308
1163.318, 150.4789
1165.247, 148.5011
1167.175, 144.6762
1169.104, 143.0585
1171.032, 142.9437
1172.961, 144.3583
1174.889, 145.5613
1176.818, 145.5126
1178.746, 144.8587
1180.675, 143.0436
1182.603, 142.2979
1184.532, 144.8617
1186.460, 145.9752
1188.389, 144.5080
1190.317, 142.5307
1192.245, 136.7827
1194.174, 133.9459
1196.102, 139.0998
1198.031, 142.0898
1199.959, 139.9741
1201.888, 139.1033
1203.816, 140.5830
1205.745, 140.9823
1207.673, 139.7382
1209.602, 139.0830
1211.530, 139.5897
1213.459, 139.2774
1215.387, 137.6611
1217.316, 137.9445
1219.244, 140.0576
1221.172, 139.7420
1223.101, 137.8615
1225.029, 137.5400
1226.958, 137.4172
1228.886, 135.7812
1230.815, 134.2250
1232.743, 135.4204
1234.672, 137.1483
1236.600, 135.7108
1238.529, 134.2520
1240.457, 135.5678
1242.386, 137.0040
1244.314, 137.8162
1246.243, 136.2223
1248.171, 129.9606
1250.099, 127.2868
1252.028, 131.6635
1253.956, 134.9579
1255.885, 135.8463
1257.813, 135.2234
1259.742, 131.8533
1261.670, 131.8332
1263.599, 137.0231
1265.527, 136.2502
1267.456, 128.5084
1269.384, 128.5912
1271.313, 135.5774
1273.241, 136.3760
1275.170, 132.4267
1277.098, 128.2883
1279.026, 125.0564
1280.955, 126.8006
1282.883, 130.7992
1284.812, 134.2683
1286.740, 136.0438
1288.669, 132.9861
1290.597, 130.3253
1292.526, 132.4312
1294.454, 134.6882
1296.383, 135.2491
1298.311, 135.1981
1300.240, 134.7233
1302.168, 133.8594
1304.097, 132.4895
1306.025, 130.4662
1307.953, 127.7695
1309.882, 126.2144
1311.810, 126.2729
1313.739, 126.7275
1315.667, 127.3896
1317.596, 129.0909
1319.524, 130.9757
1321.453, 131.5207
1323.381, 131.2502
1325.310, 130.8931
1327.238, 129.8090
1329.167, 127.6048
1331.095, 126.3586
1333.024, 127.2415
1334.952, 127.5433
1336.880, 125.0971
1338.809, 124.2890
1340.737, 128.0551
1342.666, 128.0799
1344.594, 122.7743
1346.523, 119.7833
1348.451, 119.2250
1350.380, 120.0596
1352.308, 122.1029
1354.237, 122.6107
1356.165, 122.1353
1358.094, 123.7374
1360.022, 125.5340
1361.951, 123.5380
1363.879, 121.2306
1365.807, 122.0500
1367.736, 124.1218
1369.664, 126.6968
1371.593, 127.3172
1373.521, 124.8510
1375.450, 122.3347
1377.378, 120.7398
1379.307, 120.5986
1381.235, 121.1075
1383.164, 120.1239
1385.092, 118.7348
1387.021, 118.9812
1388.949, 119.1303
1390.878, 116.4116
1392.806, 115.1496
1394.734, 120.0558
1396.663, 123.6426
1398.591, 120.4094
1400.520, 117.2456
1402.448, 117.0196
1404.377, 118.1989
1406.305, 120.4328
1408.234, 122.8706
1410.162, 123.6774
1412.091, 120.1947
1414.019, 116.1929
1415.948, 117.2819
1417.876, 119.2381
1419.805, 117.5145
1421.733, 115.6366
1423.661, 118.3860
1425.590, 120.8418
1427.518, 116.5331
1429.447, 112.2656
1431.375, 114.4637
1433.304, 115.5778
1435.232, 112.5545
1437.161, 112.0675
1439.089, 114.6906
1441.018, 114.3056
1442.946, 112.4305
1444.875, 114.0368
1446.803, 116.3177
1448.731, 117.6370
1450.660, 117.0966
1452.588, 112.6293
1454.517, 109.7486
1456.445, 109.7715
1458.374, 110.9659
1460.302, 116.0316
1462.231, 117.7385
1464.159, 114.4430
1466.088, 114.6650
1468.016, 117.0234
1469.945, 114.1582
1471.873, 109.2437
1473.802, 108.7853
1475.730, 109.2937
1477.658, 105.3288
1479.587, 104.0202
1481.515, 109.6077
1483.444, 112.4595
1485.372, 111.8145
1487.301, 111.5393
1489.229, 110.6632
1491.158, 107.4495
1493.086, 103.6144
1495.015, 106.4074
1496.943, 111.0200
1498.872, 110.2618
1500.800, 108.5105
1502.729, 107.9451
1504.657, 108.7592
1506.585, 111.1205
1508.514, 111.0390
1510.442, 107.3344
1512.371, 105.3391
1514.299, 106.5847
1516.228, 106.0671
1518.156, 103.7615
1520.085, 101.9248
1522.013, 102.3130
1523.942, 105.1430
1525.870, 105.2555
1527.799, 103.5438
1529.727, 103.6151
1531.656, 103.6305
1533.584, 102.5185
1535.512, 102.2494
1537.441, 102.5115
1539.369, 102.6946
1541.298, 104.5566
1543.226, 106.4799
1545.155, 105.5406
1547.083, 103.7130
1549.012, 101.8816
1550.940, 102.9007
1552.869, 107.5072
1554.797, 108.5889
1556.726, 106.4424
1558.654, 105.3790
1560.583, 105.2800
1562.511, 103.2257
1564.439, 100.6176
1566.368, 99.47479
1568.296, 98.38599
1570.225, 96.07517
1572.153, 98.09286
1574.082, 103.7948
1576.010, 102.1499
1577.939, 98.74299
1579.867, 102.2381
1581.796, 104.7858
1583.724, 102.7635
1585.653, 101.0056
1587.581, 99.76243
1589.510, 98.93842
1591.438, 98.42101
1593.366, 95.85027
1595.295, 93.60483
1597.223, 95.98399
1599.152, 99.14700
1601.080, 98.10804
1603.009, 95.62586
1604.937, 94.59896
1606.866, 96.75032
1608.794, 100.1012
1610.723, 98.92851
1612.651, 94.96700
1614.580, 93.68793
1616.508, 95.21952
1618.437, 95.06686
1620.365, 93.03609
1622.293, 93.94659
1624.222, 94.57507
1626.150, 93.77639
1628.079, 95.80340
1630.007, 98.41774
1631.936, 96.17366
1633.864, 92.59777
1635.793, 91.38291
1637.721, 91.60855
1639.650, 91.99937
1641.578, 92.39171
1643.507, 92.20818
1645.435, 91.66592
1647.364, 91.85181
1649.292, 92.34605
1651.220, 91.89295
1653.149, 89.05674
1655.077, 88.78597
1657.006, 92.50476
1658.934, 94.00391
1660.863, 95.13725
1662.791, 94.49845
1664.720, 88.91372
1666.648, 85.74423
1668.577, 86.45709
1670.505, 87.57638
1672.434, 87.85025
1674.362, 88.07777
1676.291, 87.90340
1678.219, 87.95670
1680.147, 88.08015
1682.076, 86.79747
1684.004, 89.55366
1685.933, 93.36382
1687.861, 90.37941
1689.790, 87.78918
1691.718, 88.69629
1693.647, 88.97753
1695.575, 86.85940
1697.504, 83.69869
1699.432, 82.02909
1701.361, 83.52420
1703.289, 86.11620
1705.218, 88.05299
1707.146, 86.68237
1709.074, 83.86890
1711.003, 84.07600
1712.931, 84.48219
1714.860, 81.81958
1716.788, 80.57204
1718.717, 82.03259
1720.645, 83.19205
1722.574, 85.46861
1724.502, 86.80221
1726.431, 85.34868
1728.359, 81.83066
1730.288, 79.50196
1732.216, 80.60813
1734.145, 81.02150
1736.073, 78.91090
1738.001, 79.67999
1739.930, 82.72183
1741.858, 82.86034
1743.787, 80.70251
1745.715, 78.96094
1747.644, 78.90911
1749.572, 79.26441
1751.501, 79.92078
1753.429, 81.80083
1755.358, 83.43264
1757.286, 84.18831
1759.215, 82.71684
1761.143, 79.27858
1763.072, 75.71515
1765.000, 75.73801
1766.928, 78.60744
1768.857, 79.20088
1770.785, 79.32368
1772.714, 79.32183
1774.642, 77.73475
1776.571, 76.97049
1778.499, 76.35220
1780.428, 72.81351
1782.356, 71.02409
1784.285, 73.88242
1786.213, 76.33506
1788.142, 76.65778
1790.070, 75.16647
1791.999, 72.95428
1793.927, 72.60426
1795.855, 75.72902
1797.784, 78.99123
1799.712, 78.32780
1801.641, 76.22468
1803.569, 74.32758
1805.498, 73.69365
1807.426, 74.63382
1809.355, 73.15517
1811.283, 70.42297
1813.212, 72.08099
1815.140, 74.62039
1817.069, 73.62869
1818.997, 71.72119
1820.926, 69.38742
1822.854, 68.86977
1824.782, 69.75431
1826.711, 70.42651
1828.639, 69.54858
1830.568, 68.09628
1832.496, 69.55281
1834.425, 71.70126
1836.353, 72.56674
1838.282, 72.27856
1840.210, 68.71968
1842.139, 65.85179
1844.067, 66.56553
1845.996, 66.38820
1847.924, 65.79778
1849.853, 68.91449
1851.781, 68.84116
1853.709, 65.82850
1855.638, 68.78045
1857.566, 71.41751
1859.495, 69.22731
1861.423, 68.23824
1863.352, 69.03526
1865.280, 67.65659
1867.209, 64.87714
1869.137, 65.11355
1871.066, 65.78218
1872.994, 66.92562
1874.923, 68.16821
1876.851, 67.26115
1878.780, 66.73087
1880.708, 67.42785
1882.636, 66.44953
1884.565, 63.42471
1886.493, 62.39961
1888.422, 63.80209
1890.350, 64.38650
1892.279, 61.85637
1894.207, 59.99899
1896.136, 62.21955
1898.064, 64.75863
1899.993, 66.15926
1901.921, 66.49779
1903.850, 65.66759
1905.778, 63.47580
1907.707, 61.42507
1909.635, 61.53474
1911.563, 60.98801
1913.492, 60.51510
1915.420, 61.71618
1917.349, 61.93732
1919.277, 62.05278
1921.206, 63.54913
1923.134, 65.10674
1925.063, 63.57357
1926.991, 59.51216
1928.920, 58.06401
1930.848, 59.09631
1932.777, 61.95962
1934.705, 62.72359
1936.634, 61.24886
1938.562, 59.34186
1940.490, 58.52639
1942.419, 56.95163
1944.347, 55.73807
1946.276, 60.14596
1948.204, 60.30508
1950.133, 56.16009
1952.061, 56.12496
1953.990, 56.70982
1955.918, 56.72765
1957.847, 56.85396
1959.775, 57.12439
1961.704, 58.18437
1963.632, 57.73957
1965.561, 54.98661
1967.489, 54.01452
1969.417, 55.47888
1971.346, 55.50568
1973.274, 54.73219
1975.203, 54.58025
1977.131, 55.22154
1979.060, 55.61259
1980.988, 55.94070
1982.917, 55.99760
1984.845, 51.73210
1986.774, 48.67407
1988.702, 52.12962
1990.631, 53.85368
1992.559, 52.40900
1994.488, 52.79817
1996.416, 52.42218
1998.344, 50.93269
2000.273, 51.31424
2002.201, 51.13337
2004.130, 49.38644
2006.058, 47.65527
2007.987, 48.09241
2009.915, 50.69079
2011.844, 51.21162
2013.772, 50.25435
2015.701, 51.02313
2017.629, 50.84203
2019.558, 51.19382
2021.486, 51.24209
2023.415, 50.46301
2025.343, 50.09885
2027.271, 49.11629
2029.200, 49.23623
2031.128, 50.92167
2033.057, 48.46032
2034.985, 43.36615
2036.914, 46.38345
2038.842, 50.55929
2040.771, 49.63579
2042.699, 49.44517
2044.628, 50.17320
2046.556, 48.14555
2048.485, 46.52203
2050.413, 46.58397
2052.342, 48.37791
2054.270, 49.72403
2056.198, 47.21984
2058.127, 45.70932
2060.055, 46.94623
2061.984, 43.70064
2063.912, 40.93602
2065.841, 46.58235
2067.769, 49.71246
2069.698, 46.71373
2071.626, 46.32677
2073.555, 47.71952
2075.483, 46.80396
2077.412, 45.24362
2079.340, 44.70357
2081.269, 44.80431
2083.197, 44.90093
2085.125, 45.72090
2087.054, 46.11015
2088.982, 44.30506
2090.911, 44.52237
2092.839, 45.77502
2094.768, 44.57151
2096.696, 43.80074
2098.625, 44.29456
2100.553, 43.56822
2102.482, 42.25237
2104.410, 41.38521
2106.339, 41.71938
2108.267, 45.96696
2110.196, 44.94890
2112.124, 41.14270
2114.052, 42.13825
2115.981, 42.12195
2117.909, 42.33559
2119.838, 43.72847
2121.766, 44.19611
2123.695, 44.07105
2125.623, 42.43082
2127.552, 39.85652
2129.480, 38.25913
2131.409, 39.20707
2133.337, 42.07622
2135.266, 42.07333
2137.194, 38.94086
2139.123, 36.35181
2141.051, 35.51477
2142.979, 33.78011
2144.908, 35.21164
2146.836, 37.87355
2148.765, 37.15234
2150.693, 36.58094
2152.622, 38.00715
2154.550, 39.24374
2156.479, 39.26508
2158.407, 40.53252
2160.336, 39.73914
2162.264, 36.36546
2164.193, 36.74163
2166.121, 38.78588
2168.050, 39.42640
2169.978, 36.83808
2171.906, 34.24564
2173.835, 35.37840
2175.763, 37.22867
2177.692, 39.89595
2179.620, 40.28540
2181.549, 38.61236
2183.477, 34.84992
2185.406, 33.10216
2187.334, 33.75898
2189.263, 31.99765
2191.191, 32.90792
2193.120, 40.70135
2195.048, 39.38763
2196.977, 32.86140
2198.905, 32.53567
2200.833, 34.09115
2202.762, 36.07104
2204.690, 36.76480
2206.619, 36.25351
2208.547, 33.74631
2210.476, 34.51323
2212.404, 37.19120
2214.333, 35.47389
2216.261, 33.61981
2218.190, 35.36066
2220.118, 35.17005
2222.047, 33.70640
2223.975, 32.90548
2225.904, 33.51507
2227.832, 35.73370
2229.760, 33.58483
2231.689, 30.75224
2233.617, 30.23795
2235.546, 29.12176
2237.474, 29.36340
2239.403, 36.01218
2241.331, 38.11595
2243.260, 32.70841
2245.188, 33.28302
2247.117, 34.85627
2249.045, 32.78358
2250.974, 32.13850
2252.902, 34.11432
2254.831, 35.17961
2256.759, 34.45527
2258.688, 33.63670
2260.616, 33.67475
2262.544, 33.37381
2264.473, 32.00620
2266.401, 31.76270
2268.330, 32.43661
2270.258, 32.35500
2272.187, 30.96939
2274.115, 27.61659
2276.044, 28.22808
2277.972, 29.81699
2279.901, 27.41666
2281.829, 26.81840
2283.758, 28.76408
2285.686, 32.88078
2287.615, 33.79854
2289.543, 29.56150
2291.471, 27.50483
2293.400, 27.16353
2295.328, 28.74698
2297.257, 27.38659
2299.185, 24.70543
2301.114, 27.59136
2303.042, 29.32911
2304.971, 27.72464
2306.899, 28.21730
2308.828, 29.84958
2310.756, 31.60242
2312.685, 30.54414
2314.613, 28.63027
2316.542, 28.65745
2318.470, 27.23271
2320.398, 24.47330
2322.327, 26.63489
2324.255, 28.21342
2326.184, 25.84174
2328.112, 26.81269
2330.041, 28.80398
2331.969, 26.94432
2333.898, 25.73021
2335.826, 26.64582
2337.755, 28.32491
2339.683, 28.31094
2341.612, 25.95982
2343.540, 23.64234
2345.469, 22.94721
2347.397, 26.08035
2349.325, 26.40725
2351.254, 24.84277
2353.182, 26.26552
2355.111, 27.51747
2357.039, 27.52861
2358.968, 26.50578
2360.896, 25.58100
2362.825, 25.00673
2364.753, 26.59690
2366.682, 27.56421
2368.610, 23.38431
2370.539, 23.07196
2372.467, 24.92913
2374.396, 24.24521
2376.324, 23.97529
2378.252, 24.25393
2380.181, 23.90457
2382.109, 22.86626
2384.038, 20.92635
2385.966, 21.35603
2387.895, 22.16223
2389.823, 21.31435
2391.752, 21.62995
2393.680, 22.40828
2395.609, 23.57368
2397.537, 23.16027
2399.466, 21.52726
2401.394, 23.49728
2403.323, 24.58394
2405.251, 23.01501
2407.179, 23.69197
2409.108, 23.87440
2411.036, 21.60172
2412.965, 20.79833
2414.893, 21.13576
2416.822, 22.39439
2418.750, 23.26873
2420.679, 23.22873
2422.607, 21.54040
2424.536, 20.49722
2426.464, 20.35204
2428.393, 20.51954
2430.321, 20.70589
2432.250, 21.23013
2434.178, 22.53308
2436.106, 22.62563
2438.035, 20.46750
2439.963, 20.76722
2441.892, 22.08968
2443.820, 22.88078
2445.749, 23.13253
2447.677, 21.80372
2449.606, 16.89015
2451.534, 16.64998
2453.463, 19.77460
2455.391, 19.92805
2457.320, 18.02873
2459.248, 15.13396
2461.177, 16.24863
2463.105, 19.32495
2465.033, 23.00359
2466.962, 22.32920
2468.890, 20.07090
2470.819, 18.57600
2472.747, 18.50476
2474.676, 18.67032
2476.604, 18.53301
2478.533, 18.42520
2480.461, 18.70980
2482.390, 17.37646
2484.318, 18.72556
2486.247, 21.28713
2488.175, 19.40439
2490.104, 19.77620
2492.032, 22.65518
2493.960, 17.50211
2495.889, 17.14342
2497.817, 23.18999
2499.746, 20.64581
2501.674, 18.05833
2503.603, 18.27967
2505.531, 17.67013
2507.460, 17.52065
2509.388, 18.85910
2511.317, 20.58005
2513.245, 20.35149
2515.174, 16.27843
2517.102, 18.38098
2519.031, 20.73792
2520.959, 17.42130
2522.887, 16.23334
2524.816, 16.52164
2526.744, 19.52946
2528.673, 18.21236
2530.601, 15.74936
2532.530, 18.30143
2534.458, 21.37540
2536.387, 22.61491
2538.315, 15.05307
2540.244, 13.82464
2542.172, 19.41108
2544.101, 19.25234
2546.029, 18.29669
2547.958, 18.00597
2549.886, 15.55544
2551.814, 15.87673
2553.743, 17.73508
2555.671, 16.86549
2557.600, 16.68120
2559.528, 17.13566
2561.457, 13.61190
2563.385, 13.16654
2565.314, 16.75718
2567.242, 13.41338
2569.171, 12.52442
2571.099, 15.79222
2573.028, 18.77855
2574.956, 20.28385
2576.885, 17.29831
2578.813, 16.38846
2580.741, 16.31504
2582.670, 14.27242
2584.598, 13.12582
2586.527, 14.62302
2588.455, 20.79742
2590.384, 20.63834
2592.312, 17.34267
2594.241, 12.90543
2596.169, 13.58876
2598.098, 16.37225
2600.026, 18.08011
2601.955, 15.99987
2603.883, 15.47970
2605.812, 18.04677
2607.740, 14.61514
2609.668, 12.75979
2611.597, 17.30535
2613.525, 17.54377
2615.454, 17.01791
2617.382, 18.54278
2619.311, 17.67880
2621.239, 17.16825
2623.168, 17.78270
2625.096, 16.24479
2627.025, 15.48247
2628.953, 15.61474
2630.882, 16.57203
2632.810, 16.43581
2634.739, 12.55708
2636.667, 12.27733
2638.595, 13.06289
2640.524, 14.61868
2642.452, 12.99604
2644.381, 12.81471
2646.309, 17.17830
2648.238, 18.15364
2650.166, 16.62924
2652.095, 14.66601
2654.023, 11.84277
2655.952, 11.09810
2657.880, 12.93827
2659.809, 16.03860
2661.737, 13.37413
2663.666, 7.770358
2665.594, 11.79242
2667.522, 12.42566
2669.451, 11.02378
2671.379, 17.33329
2673.308, 17.42950
2675.236, 11.68882
2677.165, 8.988824
2679.093, 11.00488
2681.022, 14.67165
2682.950, 13.14044
2684.879, 14.97196
2686.807, 15.67406
2688.736, 9.764257
2690.664, 11.08968
2692.593, 13.34967
2694.521, 8.962993
2696.449, 9.489493
2698.378, 12.55894
2700.306, 12.51168
2702.235, 11.15497
2704.163, 11.82376
2706.092, 15.05651
2708.020, 12.95373
2709.949, 11.70477
2711.877, 11.68850
2713.806, 13.26585
2715.734, 13.10415
2717.663, 12.92301
2719.591, 16.03017
2721.520, 16.92371
2723.448, 14.42968
2725.376, 12.95408
2727.305, 11.85949
2729.233, 10.85364
2731.162, 11.85599
2733.090, 12.12923
2735.019, 10.56278
2736.947, 8.646269
2738.876, 11.45273
2740.804, 14.45554
2742.733, 13.63810
2744.661, 12.87635
2746.590, 11.21512
2748.518, 8.160472
2750.447, 9.400292
2752.375, 11.39427
2754.303, 11.76575
2756.232, 9.569381
2758.160, 8.520871
2760.089, 11.27853
2762.017, 13.39224
2763.946, 14.85449
2765.874, 14.04275
2767.803, 12.14175
2769.731, 12.88113
2771.660, 12.92649
2773.588, 9.013409
2775.517, 8.955859
2777.445, 10.02426
2779.374, 8.989218
2781.302, 10.82194
2783.230, 13.14616
2785.159, 11.16037
2787.087, 5.964836
2789.016, 7.149351
2790.944, 10.14676
2792.873, 8.435962
2794.801, 8.082329
2796.730, 9.062796
2798.658, 11.23568
2800.587, 10.52327
2802.515, 10.05504
2804.444, 10.72620
2806.372, 11.11962
2808.301, 12.59096
2810.229, 15.23968
2812.157, 12.66112
2814.086, 10.25133
2816.014, 9.842974
2817.943, 8.336393
2819.871, 6.822541
2821.800, 7.177472
2823.728, 7.590367
2825.657, 6.783245
2827.585, 2.890059
2829.514, 2.035686
2831.442, 6.702295
2833.371, 8.222020
2835.299, 6.031628
2837.228, 4.402146
2839.156, 7.457408
2841.084, 10.16733
2843.013, 6.990993
2844.941, 10.51010
2846.870, 13.06095
2848.798, 10.62016
2850.727, 14.10169
2852.655, 9.893430
2854.584, 2.846510
2856.512, 5.796090
2858.441, 9.449653
2860.369, 12.22347
2862.298, 12.95539
2864.226, 13.16323
2866.155, 11.65215
2868.083, 7.382749
2870.011, 8.053608
2871.940, 8.523445
2873.868, 5.673622
2875.797, 6.458694
2877.725, 9.313016
2879.654, 10.90018
2881.582, 10.09237
2883.511, 10.08962
2885.439, 10.35172
2887.368, 8.300532
2889.296, 13.48479
2891.225, 15.38401
2893.153, 8.546568
2895.082, 3.260069
2897.010, 4.909663
2898.938, 9.520580
2900.867, 9.539771
2902.795, 8.494296
2904.724, 8.333844
2906.652, 9.344108
2908.581, 9.577845
2910.509, 7.826794
2912.438, 6.141970
2914.366, 5.432307
2916.295, 11.32729
2918.223, 15.50877
2920.152, 6.689695
2922.080, 6.178563
2924.008, 6.138424
2925.937, 5.650305
2927.865, 7.668922
2929.794, 9.216023
2931.722, 8.423675
2933.651, 6.890389
2935.579, 2.533440
2937.508, 4.094512
2939.436, 9.409817
2941.365, 10.43888
2943.293, 9.149480
2945.221, 8.882305
2947.150, 6.821441
2949.078, 6.079297
2951.007, 4.937586
2952.935, 1.659144
2954.864, 3.630692
2956.792, 4.936353
2958.721, 7.188667
2960.649, 1.987348
2962.578, 0.7980515
2964.506, 4.478593
2966.435, 9.712401
2968.363, 9.276919
2970.292, 7.945448
2972.220, 6.183797
2974.148, 8.364043
2976.077, 7.041262
2978.005, 7.612634
2979.934, 12.64984
2981.862, 8.296301
2983.791, 4.662063
2985.719, 4.498104
2987.648, 3.544572
2989.576, 2.490093
2991.505, 2.976510
2993.433, 4.690776
2995.362, 6.481891
2997.290, 4.622705
2999.219, 6.040557
3001.147, 9.756163
3003.075, 9.222204
3005.004, 5.791344
3006.932, 3.369174
3008.861, 3.093451
3010.789, 9.214330
3012.718, 12.41626
3014.646, 5.754982
3016.575, 5.983006
3018.503, 6.604249
3020.432, 6.514922
3022.360, 7.675855
3024.289, 5.117515
3026.217, 7.481922
3028.146, 12.37073
3030.074, 6.630984
3032.002, 6.779058
3033.931, 9.646150
3035.859, 8.419280
3037.788, 8.385720
3039.716, 7.756066
3041.645, 5.636996
3043.573, 5.239331
3045.502, 2.479639
3047.430, 6.048724
3049.359, 9.558380
3051.287, 4.038260
3053.216, 4.298656
3055.144, 4.086356
3057.073, 4.598275
3059.001, 7.894275
3060.929, 6.376666
3062.858, 2.710237
3064.786, 6.475602
3066.715, 7.303590
3068.643, 7.283923
3070.572, 9.540520
3072.500, 10.05353
3074.429, 6.669610
3076.357, 1.906690
3078.286, 0.6828966
3080.214, 2.165089
3082.143, 6.057457
3084.071, 7.912587
3086.000, 4.933671
3087.928, 5.896577
3089.856, 3.905949
3091.785, 1.716815
3093.713, 8.143302
3095.642, 5.754851
3097.570, 4.056049
3099.499, 2.887103
3101.427, 1.282470
3103.356, 5.977727
3105.284, 8.630383
3107.213, 7.617695
3109.141, 8.273442
3111.070, 4.979511
3112.998, 5.017539
3114.927, 12.49282
3116.855, 6.875816
3118.783, 4.412528
3120.712, 3.976174
3122.640, 1.977801
3124.569, 7.753863
3126.497, 10.14617
3128.426, 7.863014
3130.354, 5.398733
3132.283, 4.238755
3134.211, 5.579545
3136.140, 8.775455
3138.068, 9.962391
3139.997, 1.556351
3141.925, 3.293375
3143.854, 11.93119
3145.782, 7.293664
3147.710, 4.384416
3149.639, 3.939067
3151.567, 5.433282
3153.496, 7.717562
3155.424, 3.154860
3157.353, -1.322219
3159.281, -1.919502
3161.210, 3.621974
3163.138, 7.290129
3165.067, 9.538834
3166.995, 8.912138
3168.924, 7.097524
3170.852, 6.984667
3172.781, 4.020739
3174.709, 1.551257
3176.637, 5.809884
3178.566, 3.886902
3180.494, 3.320330
3182.423, 7.577361
3184.351, 11.06488
3186.280, 11.24518
3188.208, 8.002781
3190.137, 5.721778
3192.065, 11.51625
3193.994, 5.879585
3195.922, 1.999573
3197.851, 3.774059
3199.779, -0.3057478
3201.708, 3.568273
3203.636, 3.219228
3205.564, -2.527285
3207.493, 4.139180
3209.421, 9.143561
3211.350, 12.97626
3213.278, 14.31697
3215.207, 4.626317
3217.135, 6.790993
3219.064, 9.000598
3220.992, 8.211864
3222.921, 11.96783
3224.849, 12.32654
3226.778, 8.376105
3228.706, 2.389342
3230.635, 3.520555
3232.563, 6.271895
3234.491, 7.634123
3236.420, 5.964331
3238.348, 3.201578
3240.277, 3.375700
3242.205, 5.367778
3244.134, 8.318744
3246.062, 11.18988
3247.991, 5.529789
3249.919, 3.585442
3251.848, 4.327156
3253.776, 1.869427
3255.705, 3.665074
3257.633, 6.776862
3259.562, 6.399784
3261.490, 1.307485
3263.418, 5.217633
3265.347, 5.263695
3267.275, 4.399276
3269.204, 5.037101
3271.132, 7.941545
3273.061, 6.900603
3274.989, 4.992823
3276.918, 5.118678
3278.846, 8.408773
3280.775, -1.154014
3282.703, -0.4735287
3284.632, 7.481207
3286.560, 8.657140
3288.489, 1.202474
3290.417, 0.4611793
3292.345, 2.325080
3294.274, 2.177010
3296.202, 7.700027
3298.131, 13.11872
3300.059, 10.49878
3301.988, 2.196468
3303.916, 4.124945
3305.845, 3.111728
3307.773, 3.276531
3309.702, 4.077113
3311.630, 1.355943
3313.559, 2.473526
3315.487, 4.402746
3317.416, 7.914365
3319.344, 12.19498
3321.272, 2.288107
3323.201, 1.202683
3325.129, 6.121569
3327.058, 10.20326
3328.986, 5.126103
3330.915, 3.565918
3332.843, 4.887013
3334.772, 5.050203
3336.700, 1.490664
3338.629, 2.070123
3340.557, 3.777611
3342.486, 6.877627
3344.414, 10.28298
3346.343, 7.591963
3348.271, 9.866029
3350.199, 8.456555
3352.128, 4.488436
3354.056, 4.503727
3355.985, 2.739083
3357.913, 4.433465
3359.842, 6.869120
3361.770, 7.037278
3363.699, 4.437049
3365.627, 3.771426
3367.556, 4.906148
3369.484, 5.760643
3371.413, 3.697865
3373.341, -1.130639
3375.270, 5.7414949E-02
3377.198, 6.600154
3379.126, 13.90503
3381.055, 12.20268
3382.983, 8.250359
3384.912, 2.703854
3386.840, -0.3585696
3388.769, 3.022930
3390.697, 3.744670
3392.626, 0.9698913
3394.554, 1.978502
3396.483, 4.686052
3398.411, -4.559114
3400.340, 7.717862
3402.268, 5.638935
3404.197, 0.3214072
3406.125, 7.664919
3408.053, 9.694900
3409.982, 9.345456
3411.910, 9.363104
3413.839, 10.45503
3415.767, 11.87798
3417.696, 10.90692
3419.624, 9.451363
3421.553, 6.748301
3423.481, 4.516455
3425.410, 8.941763
3427.338, 7.500014
3429.267, 1.176746
3431.195, 0.4255911
3433.124, 8.300385
3435.052, 0.9353011
3436.980, 5.639194
3438.909, 8.348624
3440.837, 6.955640
3442.766, 5.949008
3444.694, 8.559577
3446.623, 2.461276
3448.551, 6.325924
3450.480, 12.05549
3452.408, -0.7502871
3454.337, 4.554501
3456.265, 1.669931
3458.194, 5.380253
3460.122, 11.31152
3462.051, -1.069738
3463.979, 3.868773
3465.907, 7.317711
3467.836, 5.471522
3469.764, 2.671405
3471.693, 6.310838
3473.621, 7.938595
3475.550, 5.490225
3477.478, 1.938811
3479.407, 1.210660
3481.335, 7.832225
3483.264, 4.932701
3485.192, 9.125241
3487.121, 11.07063
3489.049, 5.908747
3490.978, 4.875413
3492.906, 4.775990
3494.834, -1.869374
3496.763, -0.9345703
3498.691, 8.651942
3500.620, 1.699397
3502.548, 1.093785
3504.477, 5.502618
3506.405, 7.590013
3508.334, 5.303094
3510.262, 4.055724
3512.191, 6.441405
3514.119, 5.607587
3516.048, 7.480793
3517.976, 9.719111
3519.905, 1.382875
3521.833, 5.219985
3523.761, 8.457645
3525.690, 7.302123
3527.618, 2.169850
3529.547, -3.733952
3531.475, 5.898981
3533.404, 12.17539
3535.332, 11.71893
3537.261, 8.053877
3539.189, 5.583569
3541.118, 5.525236
3543.046, -0.1938302
3544.975, 2.077922
3546.903, 4.438362
3548.832, -2.053678
3550.760, 0.6448082
3552.688, 4.557052
3554.617, 5.993238
3556.545, 4.309923
3558.474, 1.997729
3560.402, 4.994886
3562.331, 3.449099
3564.259, 6.986198
3566.188, 6.646317
3568.116, 4.490777
3570.045, 11.92968
3571.973, 14.40297
3573.902, 3.177349
3575.830, -0.7210265
3577.759, 2.496292
3579.687, 4.260161
3581.615, 9.349644
3583.544, 1.569684
3585.472, 1.109199
3587.401, 5.357414
3589.329, 7.116125
3591.258, 4.578013
3593.186, 5.697492
3595.115, 2.333733
3597.043, 3.664529
3598.972, 5.972473
3600.900, 2.612552
3602.829, 3.485863
3604.757, -1.738127
3606.686, -0.7344646
3608.614, 4.198217
3610.542, 9.014200
3612.471, 13.36577
3614.399, 7.897815
3616.328, 7.266675
3618.256, 9.496346
3620.185, 8.830001
3622.113, 4.437313
3624.042, 4.846266
3625.970, 1.663049
3627.899, 3.756192
3629.827, 3.938295
3631.756, 2.127661
3633.684, 3.453147
3635.613, 0.7440243
3637.541, 8.212596
3639.469, 8.042364
3641.398, 6.016529
3643.326, 7.272460
3645.255, 7.297979
3647.183, 9.577319
3649.112, 9.609602
3651.040, 7.899236
3652.969, 4.226402
3654.897, 1.392455
3656.826, 6.466855
3658.754, 14.87451
3660.683, 12.12151
3662.611, 5.371706
3664.540, 2.257847
3666.468, 4.370838
3668.396, 6.710524
3670.325, 15.92349
3672.253, 8.674948
3674.182, 0.2850540
3676.110, 1.169948
3678.039, 7.836354
3679.967, 7.005502
3681.896, -1.002028
3683.824, 4.732760
3685.753, 6.621251
3687.681, 6.122975
3689.610, 7.582410
3691.538, -0.7820122
3693.467, 7.507143
3695.395, 1.2856250E-02
3697.323, 15.66643
3699.252, 22.24407
3701.180, 1.080522
3703.109, 5.848673
3705.037, 7.756793
3706.966, 7.285131
3708.894, 3.578548
3710.823, 0.5919525
3712.751, 4.798370
3714.680, 20.16274
3716.608, 14.18827
3718.537, 7.962345
3720.465, 6.831258
3722.394, 8.128716
3724.322, 7.445692
3726.250, 3.477352
3728.179, 6.317674
3730.107, 0.7090645
3732.036, 1.468177
3733.964, 6.910027
3735.893, 11.06262
3737.821, 8.516747
3739.750, -3.437049
3741.678, 1.585807
3743.607, 6.141131
3745.535, 4.977998
3747.464, 1.181820
3749.392, 1.088425
3751.321, 7.064694
3753.249, 3.092191
3755.177, 3.331684
3757.106, 2.678661
3759.034, 5.377643
3760.963, 6.918928
3762.891, 3.021046
3764.820, 1.346296
3766.748, 11.50184
3768.677, 1.887905
3770.605, 5.714773
3772.534, 9.596477
3774.462, 4.200471
3776.391, 0.8890039
3778.319, 7.458939
3780.248, 7.704506
3782.176, 9.772623
3784.104, 6.574629
3786.033, 4.121386
3787.961, 3.622230
3789.890, -1.626916
3791.818, 2.879890
3793.747, 6.270379
3795.675, 5.446908
3797.604, 2.502822
3799.532, 0.3196468
3801.461, 1.083232
3803.389, 4.837977
3805.318, 7.604340
3807.246, -3.194912
3809.175, 10.28755
3811.103, 8.842990
3813.031, -0.3443852
3814.960, 3.210918
3816.888, 12.52724
3818.817, 3.824745
3820.745, 1.911011
3822.674, 5.429114
3824.602, 3.825778
3826.531, 2.573714
3828.459, 5.682288
3830.388, 7.318640
3832.316, 0.8723210
3834.245, -0.2990127
3836.173, 1.409313
3838.102, 5.487283
3840.030, 5.709973
3841.958, 2.826511
3843.887, 2.488908
3845.815, 3.532632
3847.744, 4.930523
3849.672, 4.758968
3851.601, -0.4622696
3853.529, 6.585792
3855.458, 12.33648
3857.386, 5.129578
3859.315, 3.290373
3861.243, 8.754115
3863.172, 3.650311
3865.100, -2.638124
3867.029, 2.481340
3868.957, 10.49743
3870.885, 10.46111
3872.814, 3.483672
3874.742, 1.890700
3876.671, 9.604025
3878.599, 5.426692
3880.528, 8.039982
3882.456, -1.436357
3884.385, -3.786335
3886.313, 6.805157
3888.242, 7.170368
3890.170, -2.721301
3892.099, 3.007362
3894.027, 5.436425
3895.956, 1.147418
3897.884, 4.790741
3899.813, 2.841645
3901.741, -3.331436
3903.669, 4.231877
3905.598, 6.043163
3907.526, -4.032753
3909.455, 6.549911
3911.383, 12.06025
3913.312, 5.466980
3915.240, 2.985435
3917.169, 4.219589
3919.097, -0.4277077
3921.026, 8.245459
3922.954, 4.587784
3924.883, 4.150682
3926.811, 11.86333
3928.740, 7.106479
3930.668, 3.025850
3932.596, 3.238940
3934.525, 1.605857
3936.453, 3.185694
3938.382, 1.116651
3940.310, 7.078958
3942.239, 8.977207
3944.167, 0.9235818
3946.096, 5.076784
3948.024, 6.962843
3949.953, 3.504030
3951.881, 8.215723
3953.810, 6.002357
3955.738, 9.351327
3957.667, 3.424300
3959.595, 6.711792
3961.523, 5.637702
3963.452, 5.717389
3965.380, 5.775079
3967.309, 5.990143
3969.237, 11.37092
3971.166, 7.297519
3973.094, 8.655593
3975.023, 6.798373
3976.951, 6.155145
3978.880, 5.779028
3980.808, -0.1059302
3982.737, 7.551404
3984.665, 8.498798
3986.594, 1.943771
3988.522, 1.671456
3990.450, 1.457541
3992.379, -0.1340225
3994.307, 9.070623
3996.236, 1.554996
3998.164, -0.9276102
4000.093, 2.138354
4002.021, 1.829908
4003.950, 2.738137
4005.878, 2.513636
4007.807, 1.668010
4009.735, 4.836960
4011.664, 2.067861
4013.592, 3.295401
4015.521, 0.3143614
4017.449, 2.407754
4019.377, 3.161511
4021.306, -1.685197
4023.234, -1.806041
4025.163, 4.836612
4027.091, 8.741412
4029.020, 5.914441
4030.948, 5.012546
4032.877, -0.9490920
4034.805, -9.041059
4036.734, 1.735838
4038.662, -1.170908
4040.591, -0.6862836
4042.519, -1.019086
4044.448, -5.970566
4046.376, -2.242836
4048.304, 8.062448
4050.233, 8.185349
4052.161, 7.2928444E-02
4054.090, 5.643185
4056.018, -3.330225
4057.947, -2.455907
4059.875, -7.875051
4061.804, -0.4744253
4063.732, 8.639812
4065.661, -1.973146
4067.589, -3.247481
4069.518, 4.136845
4071.446, 2.132741
4073.375, -4.691362
4075.303, 5.659966
4077.231, 4.835390
4079.160, 5.728543
4081.088, 0.1126997
4083.017, 4.235589
4084.945, 14.13461
4086.874, 7.760710
4088.802, 5.316349
4090.731, 3.503903
4092.659, 1.996531
4094.588, -4.335157
4096.516, 2.093928
4098.444, 0.9954374
4100.373, 2.828261
4102.301, -8.9162901E-02
4104.230, -7.041248
4106.158, -2.532096
4108.087, 6.981321
4110.015, 0.2685978
4111.944, 5.759254
4113.872, 3.011579
4115.801, 2.627350
4117.729, -2.553286
4119.658, -5.793856
4121.586, 4.137197
4123.515, 1.996098
4125.443, -6.046503
4127.372, -2.234168
4129.300, 4.247745
4131.229, 4.170172
4133.157, 8.024012
4135.085, -7.610019
4137.014, -0.4230103
4138.942, 5.130421
4140.871, 0.5903376
4142.799, -0.8947282
4144.728, 4.1797939E-03
4146.656, 5.765463
4148.584, 0.3033503
4150.513, -4.127570
4152.441, 0.2420083
4154.370, 1.661750
4156.298, -1.786570
4158.227, -1.452767
4160.155, -2.590325
4162.084, -1.944069
4164.012, -4.192554
4165.941, 1.665080
4167.869, -5.071335
4169.798, -2.919630
4171.726, 1.403782
4173.655, -4.000760
4175.583, 0.5478879
4177.512, 2.698688
4179.440, -1.608268
4181.369, 1.272285
4183.297, -2.340648
4185.226, -2.620291
4187.154, 7.580347
4189.083, 5.362165
4191.011, 0.5599422
4192.939, -6.350863
4194.868, 4.014614
4196.796, 7.569698
4198.725, 2.864293
4200.653, 4.821437
4202.582, 0.1091856
4204.510, -5.880544
4206.438, -0.3239306
4208.367, 4.681180
4210.295, 0.8636398
4212.224, 3.031469
4214.152, 5.142887
4216.081, -1.574901
4218.009, -5.304105
4219.938, -0.9671305
4221.866, -5.059355
4223.795, 4.348627
4225.723, 5.781023
4227.652, 2.204089
4229.580, -0.3764142
4231.509, 1.207694
4233.437, -2.924702
4235.366, -1.768395
4237.294, 3.460294
4239.223, 1.637401
4241.151, 0.1909188
4243.080, 0.9541173
4245.008, -3.405522
4246.937, 0.2712182
4248.865, -3.570302
4250.793, 5.263561
4252.722, -4.217518
4254.650, -3.563184
4256.579, 0.2959817
4258.507, 2.355671
4260.436, 7.502059
4262.364, 3.971152
4264.292, -0.1167886
4266.221, 3.101997
4268.149, 5.044682
4270.078, 3.801525
4272.006, 8.1947349E-02
4273.935, -4.046717
4275.863, -1.339596
4277.792, 3.016235
4279.720, -0.7919849
4281.649, 3.284863
4283.577, -1.901388
4285.506, -1.378127
4287.434, -2.595593
4289.363, -5.005388
4291.291, 1.248803
4293.220, 1.307813
4295.148, -2.769961
4297.077, -1.819246
4299.005, -2.512946
4300.934, 2.072644
4302.862, 2.349711
4304.791, -6.183704
4306.719, -4.921687
4308.647, 1.329693
4310.576, 0.7652059
4312.504, 3.262085
4314.433, 5.571982
4316.361, -0.9458218
4318.290, -2.964402
4320.218, 1.066831
4322.146, -0.2941593
4324.075, 4.290620
4326.003, 3.317746
4327.932, 7.383202
4329.860, 3.645098
4331.789, -7.0625171E-02
4333.717, 6.287040
4335.646, -3.698254
4337.574, 5.169800
4339.503, 3.171221
4341.431, -2.033786
4343.360, -3.378189
4345.288, 13.38520
4347.217, -5.019029
4349.145, 3.170676
4351.074, 2.614032
4353.002, 2.671331
4354.931, 7.282654
4356.859, -2.939612
4358.788, -4.398844
4360.716, -3.149154
4362.645, -0.9318258
4364.573, 4.909795
4366.501, 4.619345
4368.430, -1.564584
4370.358, -5.249523
4372.287, 1.957390
4374.215, 5.029685
4376.144, -8.832762
4378.072, -8.458943
4380.000, -4.552828
4381.929, -9.899153
##END=



