##NAMES=Remondite-(Ce)
##RRUFFID=R120060
##IDEAL CHEMISTRY=Na_3_(Ce,Ca,Na)_3_(CO_3_)_5_
##LOCALITY=Mont Saint-Hilaire, Rouville RCM, Montérégie, Québec, Canada
##OWNER=RRUFF
##SOURCE=Donald Doell
##DESCRIPTION=Tan to pale yellow acicular, associated with albite, calcite, and analcime
##STATUS=The identification of this mineral has been confirmed only by single crystal X-ray diffraction
##URL=https://www.rruff.net/odr/rruff_sample/R120060
##DIFFRACTION SAMPLE DESCRIPTION=Single crystal, powder profile is calculated
##CELL PARAMETERS=a: 10.429 b: 18.051 c: 6.331 alpha: 90 beta: 90 gamma: 90 volume: 1191.9 crystal system: orthorhombic
##FILETYPE=Raman RAW
##RAMAN WAVELENGTH=532

1.019570e+002, 3.931766e+002
1.038855e+002, 3.874465e+002
1.058140e+002, 3.854009e+002
1.077424e+002, 3.900446e+002
1.096709e+002, 3.970711e+002
1.115994e+002, 4.026856e+002
1.135278e+002, 4.069432e+002
1.154563e+002, 4.101332e+002
1.173848e+002, 4.124441e+002
1.193132e+002, 4.139630e+002
1.212417e+002, 4.143054e+002
1.231702e+002, 4.118150e+002
1.250986e+002, 4.084731e+002
1.270271e+002, 4.078753e+002
1.289556e+002, 4.120792e+002
1.308840e+002, 4.169991e+002
1.328125e+002, 4.205316e+002
1.347410e+002, 4.186983e+002
1.366694e+002, 4.209175e+002
1.385979e+002, 4.271176e+002
1.405264e+002, 4.376018e+002
1.424548e+002, 4.542520e+002
1.443833e+002, 4.692225e+002
1.463118e+002, 4.946085e+002
1.482402e+002, 5.402049e+002
1.501687e+002, 5.955640e+002
1.520972e+002, 6.847457e+002
1.540257e+002, 8.171289e+002
1.559541e+002, 9.920253e+002
1.578826e+002, 1.193201e+003
1.598111e+002, 1.392172e+003
1.617395e+002, 1.625945e+003
1.636680e+002, 1.930425e+003
1.655965e+002, 2.311466e+003
1.675249e+002, 2.757039e+003
1.694534e+002, 3.258858e+003
1.713819e+002, 3.840536e+003
1.733103e+002, 4.437020e+003
1.752388e+002, 5.066651e+003
1.771673e+002, 5.495726e+003
1.790957e+002, 5.844418e+003
1.810242e+002, 6.131872e+003
1.829527e+002, 6.417149e+003
1.848811e+002, 6.721698e+003
1.868096e+002, 7.049634e+003
1.887381e+002, 7.380032e+003
1.906665e+002, 7.733959e+003
1.925950e+002, 8.098819e+003
1.945235e+002, 8.406666e+003
1.964519e+002, 8.651760e+003
1.983804e+002, 8.860362e+003
2.003089e+002, 9.039912e+003
2.022373e+002, 9.188393e+003
2.041658e+002, 9.331897e+003
2.060943e+002, 9.478924e+003
2.080227e+002, 9.628437e+003
2.099512e+002, 9.766921e+003
2.118797e+002, 9.895676e+003
2.138081e+002, 1.001165e+004
2.157366e+002, 1.011480e+004
2.176651e+002, 1.020165e+004
2.195935e+002, 1.027929e+004
2.215220e+002, 1.034701e+004
2.234505e+002, 1.040332e+004
2.253789e+002, 1.046157e+004
2.273074e+002, 1.052681e+004
2.292359e+002, 1.058897e+004
2.311643e+002, 1.064066e+004
2.330928e+002, 1.067725e+004
2.350213e+002, 1.070390e+004
2.369497e+002, 1.071645e+004
2.388782e+002, 1.071517e+004
2.408067e+002, 1.071368e+004
2.427351e+002, 1.071795e+004
2.446636e+002, 1.072139e+004
2.465921e+002, 1.071748e+004
2.485205e+002, 1.070160e+004
2.504490e+002, 1.068696e+004
2.523775e+002, 1.068179e+004
2.543059e+002, 1.068566e+004
2.562344e+002, 1.068252e+004
2.581629e+002, 1.066450e+004
2.600913e+002, 1.064293e+004
2.620198e+002, 1.063069e+004
2.639483e+002, 1.063348e+004
2.658767e+002, 1.063668e+004
2.678052e+002, 1.063283e+004
2.697337e+002, 1.062038e+004
2.716621e+002, 1.061227e+004
2.735906e+002, 1.060532e+004
2.755191e+002, 1.059941e+004
2.774475e+002, 1.059509e+004
2.793760e+002, 1.059331e+004
2.813045e+002, 1.058430e+004
2.832329e+002, 1.056460e+004
2.851614e+002, 1.053346e+004
2.870899e+002, 1.049963e+004
2.890183e+002, 1.046812e+004
2.909468e+002, 1.043698e+004
2.928753e+002, 1.040335e+004
2.948037e+002, 1.036421e+004
2.967322e+002, 1.033592e+004
2.986607e+002, 1.032427e+004
3.005891e+002, 1.033179e+004
3.025176e+002, 1.033694e+004
3.044461e+002, 1.033355e+004
3.063745e+002, 1.032773e+004
3.083030e+002, 1.032487e+004
3.102315e+002, 1.032870e+004
3.121599e+002, 1.032459e+004
3.140884e+002, 1.030413e+004
3.160169e+002, 1.026839e+004
3.179453e+002, 1.024796e+004
3.198738e+002, 1.026075e+004
3.218023e+002, 1.028013e+004
3.237307e+002, 1.028774e+004
3.256592e+002, 1.027401e+004
3.275877e+002, 1.026425e+004
3.295161e+002, 1.025883e+004
3.314446e+002, 1.025846e+004
3.333731e+002, 1.026575e+004
3.353015e+002, 1.028672e+004
3.372300e+002, 1.030652e+004
3.391585e+002, 1.031674e+004
3.410869e+002, 1.030739e+004
3.430154e+002, 1.030124e+004
3.449439e+002, 1.030156e+004
3.468723e+002, 1.030748e+004
3.488008e+002, 1.031549e+004
3.507293e+002, 1.033252e+004
3.526578e+002, 1.034686e+004
3.545862e+002, 1.035207e+004
3.565147e+002, 1.033835e+004
3.584432e+002, 1.033608e+004
3.603716e+002, 1.035638e+004
3.623001e+002, 1.038419e+004
3.642286e+002, 1.039923e+004
3.661570e+002, 1.038911e+004
3.680855e+002, 1.037790e+004
3.700140e+002, 1.037227e+004
3.719424e+002, 1.037354e+004
3.738709e+002, 1.037804e+004
3.757994e+002, 1.038684e+004
3.777278e+002, 1.039949e+004
3.796563e+002, 1.041504e+004
3.815848e+002, 1.043470e+004
3.835132e+002, 1.045567e+004
3.854417e+002, 1.047995e+004
3.873702e+002, 1.050573e+004
3.892986e+002, 1.052266e+004
3.912271e+002, 1.052064e+004
3.931556e+002, 1.051747e+004
3.950840e+002, 1.052480e+004
3.970125e+002, 1.055516e+004
3.989410e+002, 1.057809e+004
4.008694e+002, 1.058968e+004
4.027979e+002, 1.059297e+004
4.047264e+002, 1.059594e+004
4.066548e+002, 1.059685e+004
4.085833e+002, 1.059886e+004
4.105118e+002, 1.060271e+004
4.124402e+002, 1.060816e+004
4.143687e+002, 1.061450e+004
4.162972e+002, 1.062223e+004
4.182256e+002, 1.063081e+004
4.201541e+002, 1.064032e+004
4.220826e+002, 1.065313e+004
4.240110e+002, 1.066514e+004
4.259395e+002, 1.067459e+004
4.278680e+002, 1.068244e+004
4.297964e+002, 1.069638e+004
4.317249e+002, 1.071628e+004
4.336534e+002, 1.074174e+004
4.355818e+002, 1.077256e+004
4.375103e+002, 1.081008e+004
4.394388e+002, 1.084270e+004
4.413672e+002, 1.086325e+004
4.432957e+002, 1.087641e+004
4.452242e+002, 1.089500e+004
4.471526e+002, 1.092402e+004
4.490811e+002, 1.094978e+004
4.510096e+002, 1.096718e+004
4.529380e+002, 1.097680e+004
4.548665e+002, 1.098614e+004
4.567950e+002, 1.100112e+004
4.587234e+002, 1.101538e+004
4.606519e+002, 1.102065e+004
4.625804e+002, 1.101326e+004
4.645089e+002, 1.101179e+004
4.664373e+002, 1.102117e+004
4.683658e+002, 1.103921e+004
4.702943e+002, 1.106269e+004
4.722227e+002, 1.110094e+004
4.741512e+002, 1.113336e+004
4.760797e+002, 1.114879e+004
4.780081e+002, 1.114796e+004
4.799366e+002, 1.114708e+004
4.818651e+002, 1.115190e+004
4.837935e+002, 1.115875e+004
4.857220e+002, 1.116445e+004
4.876505e+002, 1.116061e+004
4.895789e+002, 1.116802e+004
4.915074e+002, 1.119446e+004
4.934359e+002, 1.123396e+004
4.953643e+002, 1.126990e+004
4.972928e+002, 1.129717e+004
4.992213e+002, 1.132062e+004
5.011497e+002, 1.134309e+004
5.030782e+002, 1.136648e+004
5.050067e+002, 1.137777e+004
5.069351e+002, 1.136577e+004
5.088636e+002, 1.135018e+004
5.107921e+002, 1.135130e+004
5.127205e+002, 1.137983e+004
5.146490e+002, 1.140355e+004
5.165775e+002, 1.141022e+004
5.185059e+002, 1.140548e+004
5.204344e+002, 1.141366e+004
5.223629e+002, 1.143868e+004
5.242913e+002, 1.146788e+004
5.262198e+002, 1.149831e+004
5.281483e+002, 1.152963e+004
5.300767e+002, 1.155379e+004
5.320052e+002, 1.156369e+004
5.339337e+002, 1.157137e+004
5.358621e+002, 1.158847e+004
5.377906e+002, 1.162217e+004
5.397191e+002, 1.164967e+004
5.416475e+002, 1.165601e+004
5.435760e+002, 1.165384e+004
5.455045e+002, 1.166583e+004
5.474329e+002, 1.170198e+004
5.493614e+002, 1.173897e+004
5.512899e+002, 1.177399e+004
5.532183e+002, 1.180564e+004
5.551468e+002, 1.182402e+004
5.570753e+002, 1.182346e+004
5.590037e+002, 1.181655e+004
5.609322e+002, 1.181037e+004
5.628607e+002, 1.180440e+004
5.647891e+002, 1.180804e+004
5.667176e+002, 1.183056e+004
5.686461e+002, 1.186065e+004
5.705745e+002, 1.188171e+004
5.725030e+002, 1.189119e+004
5.744315e+002, 1.189895e+004
5.763599e+002, 1.190075e+004
5.782884e+002, 1.189995e+004
5.802169e+002, 1.191625e+004
5.821453e+002, 1.196303e+004
5.840738e+002, 1.201248e+004
5.860023e+002, 1.205641e+004
5.879307e+002, 1.209380e+004
5.898592e+002, 1.212511e+004
5.917877e+002, 1.214837e+004
5.937161e+002, 1.216487e+004
5.956447e+002, 1.217599e+004
5.975731e+002, 1.218115e+004
5.995016e+002, 1.218307e+004
6.014301e+002, 1.217820e+004
6.033585e+002, 1.217410e+004
6.052870e+002, 1.218245e+004
6.072155e+002, 1.220941e+004
6.091439e+002, 1.223514e+004
6.110724e+002, 1.224993e+004
6.130009e+002, 1.225668e+004
6.149293e+002, 1.226990e+004
6.168578e+002, 1.229093e+004
6.187863e+002, 1.231303e+004
6.207147e+002, 1.233687e+004
6.226432e+002, 1.236078e+004
6.245717e+002, 1.237356e+004
6.265001e+002, 1.236412e+004
6.284286e+002, 1.235455e+004
6.303571e+002, 1.235849e+004
6.322855e+002, 1.238531e+004
6.342140e+002, 1.241281e+004
6.361425e+002, 1.244495e+004
6.380709e+002, 1.247704e+004
6.399994e+002, 1.250146e+004
6.419279e+002, 1.251313e+004
6.438563e+002, 1.252985e+004
6.457848e+002, 1.255570e+004
6.477133e+002, 1.258645e+004
6.496417e+002, 1.261587e+004
6.515702e+002, 1.264650e+004
6.534987e+002, 1.266998e+004
6.554271e+002, 1.268096e+004
6.573556e+002, 1.268309e+004
6.592841e+002, 1.268892e+004
6.612125e+002, 1.270686e+004
6.631410e+002, 1.272284e+004
6.650695e+002, 1.272999e+004
6.669979e+002, 1.272690e+004
6.689264e+002, 1.273576e+004
6.708549e+002, 1.276202e+004
6.727833e+002, 1.279546e+004
6.747118e+002, 1.283229e+004
6.766403e+002, 1.287209e+004
6.785687e+002, 1.290577e+004
6.804972e+002, 1.291977e+004
6.824257e+002, 1.293142e+004
6.843541e+002, 1.295401e+004
6.862826e+002, 1.299422e+004
6.882111e+002, 1.303647e+004
6.901395e+002, 1.308256e+004
6.920680e+002, 1.313004e+004
6.939965e+002, 1.317626e+004
6.959249e+002, 1.322281e+004
6.978534e+002, 1.326354e+004
6.997819e+002, 1.329436e+004
7.017103e+002, 1.331800e+004
7.036388e+002, 1.334191e+004
7.055673e+002, 1.336724e+004
7.074957e+002, 1.339210e+004
7.094242e+002, 1.341481e+004
7.113527e+002, 1.343718e+004
7.132811e+002, 1.346463e+004
7.152096e+002, 1.350467e+004
7.171381e+002, 1.353854e+004
7.190665e+002, 1.355625e+004
7.209950e+002, 1.355564e+004
7.229235e+002, 1.356080e+004
7.248519e+002, 1.357517e+004
7.267804e+002, 1.359175e+004
7.287089e+002, 1.360850e+004
7.306373e+002, 1.362624e+004
7.325658e+002, 1.364425e+004
7.344943e+002, 1.366330e+004
7.364227e+002, 1.368307e+004
7.383512e+002, 1.370182e+004
7.402797e+002, 1.371491e+004
7.422081e+002, 1.373548e+004
7.441366e+002, 1.376575e+004
7.460651e+002, 1.379885e+004
7.479935e+002, 1.383406e+004
7.499220e+002, 1.387505e+004
7.518505e+002, 1.389503e+004
7.537789e+002, 1.386514e+004
7.557074e+002, 1.382465e+004
7.576359e+002, 1.381068e+004
7.595643e+002, 1.384538e+004
7.614928e+002, 1.387360e+004
7.634213e+002, 1.388540e+004
7.653497e+002, 1.389215e+004
7.672782e+002, 1.390997e+004
7.692067e+002, 1.394045e+004
7.711351e+002, 1.397582e+004
7.730636e+002, 1.401834e+004
7.749921e+002, 1.406336e+004
7.769205e+002, 1.410305e+004
7.788490e+002, 1.412856e+004
7.807775e+002, 1.415754e+004
7.827059e+002, 1.419240e+004
7.846344e+002, 1.423000e+004
7.865629e+002, 1.426540e+004
7.884913e+002, 1.430048e+004
7.904198e+002, 1.432876e+004
7.923483e+002, 1.434505e+004
7.942767e+002, 1.435496e+004
7.962052e+002, 1.437049e+004
7.981337e+002, 1.440039e+004
8.000621e+002, 1.443008e+004
8.019906e+002, 1.445095e+004
8.039191e+002, 1.446859e+004
8.058475e+002, 1.450427e+004
8.077760e+002, 1.456631e+004
8.097045e+002, 1.462733e+004
8.116329e+002, 1.467329e+004
8.135614e+002, 1.470773e+004
8.154899e+002, 1.474357e+004
8.174183e+002, 1.478524e+004
8.193468e+002, 1.482277e+004
8.212753e+002, 1.485438e+004
8.232037e+002, 1.488084e+004
8.251322e+002, 1.490435e+004
8.270607e+002, 1.492270e+004
8.289891e+002, 1.494495e+004
8.309176e+002, 1.498302e+004
8.328461e+002, 1.503132e+004
8.347745e+002, 1.506739e+004
8.367030e+002, 1.506707e+004
8.386315e+002, 1.508712e+004
8.405599e+002, 1.515319e+004
8.424884e+002, 1.525910e+004
8.444169e+002, 1.535414e+004
8.463453e+002, 1.542471e+004
8.482738e+002, 1.549423e+004
8.502023e+002, 1.557176e+004
8.521307e+002, 1.565081e+004
8.540592e+002, 1.571573e+004
8.559877e+002, 1.575529e+004
8.579161e+002, 1.579361e+004
8.598446e+002, 1.584305e+004
8.617731e+002, 1.590174e+004
8.637015e+002, 1.594993e+004
8.656300e+002, 1.599133e+004
8.675585e+002, 1.602191e+004
8.694869e+002, 1.603042e+004
8.714154e+002, 1.602772e+004
8.733439e+002, 1.604471e+004
8.752723e+002, 1.609334e+004
8.772008e+002, 1.614640e+004
8.791293e+002, 1.619782e+004
8.810577e+002, 1.624786e+004
8.829862e+002, 1.629421e+004
8.849147e+002, 1.632310e+004
8.868431e+002, 1.636525e+004
8.887716e+002, 1.642490e+004
8.907001e+002, 1.650234e+004
8.926285e+002, 1.659805e+004
8.945570e+002, 1.672310e+004
8.964855e+002, 1.683919e+004
8.984139e+002, 1.692926e+004
9.003424e+002, 1.700093e+004
9.022709e+002, 1.706738e+004
9.041993e+002, 1.711507e+004
9.061278e+002, 1.717702e+004
9.080563e+002, 1.726925e+004
9.099847e+002, 1.737490e+004
9.119132e+002, 1.745847e+004
9.138417e+002, 1.750958e+004
9.157701e+002, 1.756452e+004
9.176986e+002, 1.764145e+004
9.196271e+002, 1.772267e+004
9.215555e+002, 1.778625e+004
9.234840e+002, 1.782556e+004
9.254125e+002, 1.787636e+004
9.273410e+002, 1.796104e+004
9.292695e+002, 1.805732e+004
9.311979e+002, 1.813946e+004
9.331264e+002, 1.819794e+004
9.350549e+002, 1.826405e+004
9.369833e+002, 1.833836e+004
9.389118e+002, 1.841639e+004
9.408403e+002, 1.849235e+004
9.427687e+002, 1.856382e+004
9.446972e+002, 1.863301e+004
9.466257e+002, 1.869943e+004
9.485541e+002, 1.876256e+004
9.504826e+002, 1.882474e+004
9.524111e+002, 1.889075e+004
9.543395e+002, 1.894577e+004
9.562680e+002, 1.898861e+004
9.581965e+002, 1.902725e+004
9.601249e+002, 1.906379e+004
9.620534e+002, 1.909724e+004
9.639819e+002, 1.912847e+004
9.659103e+002, 1.914911e+004
9.678388e+002, 1.917251e+004
9.697673e+002, 1.921392e+004
9.716957e+002, 1.926659e+004
9.736242e+002, 1.928615e+004
9.755527e+002, 1.924408e+004
9.774811e+002, 1.920507e+004
9.794096e+002, 1.919604e+004
9.813381e+002, 1.920655e+004
9.832665e+002, 1.919679e+004
9.851950e+002, 1.916034e+004
9.871235e+002, 1.912530e+004
9.890519e+002, 1.909122e+004
9.909804e+002, 1.906417e+004
9.929089e+002, 1.905131e+004
9.948373e+002, 1.905232e+004
9.967658e+002, 1.905899e+004
9.986943e+002, 1.908072e+004
1.000623e+003, 1.909619e+004
1.002551e+003, 1.908292e+004
1.004480e+003, 1.902017e+004
1.006408e+003, 1.897793e+004
1.008337e+003, 1.897369e+004
1.010265e+003, 1.897929e+004
1.012194e+003, 1.897468e+004
1.014122e+003, 1.896196e+004
1.016050e+003, 1.895729e+004
1.017979e+003, 1.896608e+004
1.019907e+003, 1.897861e+004
1.021836e+003, 1.898607e+004
1.023764e+003, 1.898830e+004
1.025693e+003, 1.900167e+004
1.027621e+003, 1.903877e+004
1.029550e+003, 1.907029e+004
1.031478e+003, 1.908328e+004
1.033407e+003, 1.908617e+004
1.035335e+003, 1.910359e+004
1.037264e+003, 1.914197e+004
1.039192e+003, 1.917952e+004
1.041120e+003, 1.920915e+004
1.043049e+003, 1.923680e+004
1.044977e+003, 1.926781e+004
1.046906e+003, 1.930160e+004
1.048834e+003, 1.934058e+004
1.050763e+003, 1.938732e+004
1.052691e+003, 1.943794e+004
1.054620e+003, 1.948708e+004
1.056548e+003, 1.953103e+004
1.058477e+003, 1.960015e+004
1.060405e+003, 1.971379e+004
1.062334e+003, 1.983265e+004
1.064262e+003, 1.993912e+004
1.066191e+003, 2.003594e+004
1.068119e+003, 2.013768e+004
1.070047e+003, 2.024979e+004
1.071976e+003, 2.035270e+004
1.073904e+003, 2.045434e+004
1.075833e+003, 2.053583e+004
1.077761e+003, 2.055957e+004
1.079690e+003, 2.050586e+004
1.081618e+003, 2.043599e+004
1.083547e+003, 2.036992e+004
1.085475e+003, 2.028875e+004
1.087404e+003, 2.017347e+004
1.089332e+003, 2.001717e+004
1.091261e+003, 1.985093e+004
1.093189e+003, 1.966028e+004
1.095118e+003, 1.947202e+004
1.097046e+003, 1.929782e+004
1.098975e+003, 1.913539e+004
1.100903e+003, 1.897986e+004
1.102832e+003, 1.882184e+004
1.104760e+003, 1.868748e+004
1.106688e+003, 1.859443e+004
1.108617e+003, 1.852829e+004
1.110545e+003, 1.845954e+004
1.112474e+003, 1.837661e+004
1.114402e+003, 1.831600e+004
1.116331e+003, 1.829126e+004
1.118259e+003, 1.828320e+004
1.120188e+003, 1.827677e+004
1.122116e+003, 1.827215e+004
1.124045e+003, 1.826648e+004
1.125973e+003, 1.824929e+004
1.127902e+003, 1.823969e+004
1.129830e+003, 1.825246e+004
1.131759e+003, 1.827858e+004
1.133687e+003, 1.829396e+004
1.135615e+003, 1.829439e+004
1.137544e+003, 1.828844e+004
1.139472e+003, 1.827889e+004
1.141401e+003, 1.826649e+004
1.143329e+003, 1.825129e+004
1.145258e+003, 1.822713e+004
1.147186e+003, 1.821620e+004
1.149115e+003, 1.823018e+004
1.151043e+003, 1.824677e+004
1.152972e+003, 1.824744e+004
1.154900e+003, 1.823328e+004
1.156829e+003, 1.822904e+004
1.158757e+003, 1.824493e+004
1.160686e+003, 1.825391e+004
1.162614e+003, 1.823455e+004
1.164542e+003, 1.820561e+004
1.166471e+003, 1.820131e+004
1.168399e+003, 1.823513e+004
1.170328e+003, 1.825839e+004
1.172256e+003, 1.825044e+004
1.174185e+003, 1.823933e+004
1.176113e+003, 1.824625e+004
1.178042e+003, 1.827372e+004
1.179970e+003, 1.829354e+004
1.181899e+003, 1.829788e+004
1.183827e+003, 1.830050e+004
1.185756e+003, 1.830877e+004
1.187684e+003, 1.831747e+004
1.189613e+003, 1.831239e+004
1.191541e+003, 1.828753e+004
1.193469e+003, 1.827648e+004
1.195398e+003, 1.830131e+004
1.197326e+003, 1.833631e+004
1.199255e+003, 1.835919e+004
1.201183e+003, 1.836952e+004
1.203112e+003, 1.838889e+004
1.205040e+003, 1.842869e+004
1.206969e+003, 1.846148e+004
1.208897e+003, 1.847143e+004
1.210826e+003, 1.846562e+004
1.212754e+003, 1.846597e+004
1.214683e+003, 1.848088e+004
1.216611e+003, 1.849290e+004
1.218540e+003, 1.851057e+004
1.220468e+003, 1.852493e+004
1.222396e+003, 1.852188e+004
1.224325e+003, 1.850529e+004
1.226253e+003, 1.851507e+004
1.228182e+003, 1.856695e+004
1.230110e+003, 1.862128e+004
1.232039e+003, 1.866171e+004
1.233967e+003, 1.868751e+004
1.235896e+003, 1.869189e+004
1.237824e+003, 1.866028e+004
1.239753e+003, 1.865043e+004
1.241681e+003, 1.870350e+004
1.243610e+003, 1.875460e+004
1.245538e+003, 1.876570e+004
1.247467e+003, 1.873919e+004
1.249395e+003, 1.871738e+004
1.251323e+003, 1.871097e+004
1.253252e+003, 1.870267e+004
1.255180e+003, 1.868918e+004
1.257109e+003, 1.867421e+004
1.259037e+003, 1.866060e+004
1.260966e+003, 1.864653e+004
1.262894e+003, 1.863956e+004
1.264823e+003, 1.864040e+004
1.266751e+003, 1.864558e+004
1.268680e+003, 1.865372e+004
1.270608e+003, 1.866424e+004
1.272537e+003, 1.867748e+004
1.274465e+003, 1.869527e+004
1.276394e+003, 1.871185e+004
1.278322e+003, 1.872920e+004
1.280250e+003, 1.874411e+004
1.282179e+003, 1.875060e+004
1.284107e+003, 1.874663e+004
1.286036e+003, 1.875964e+004
1.287964e+003, 1.880189e+004
1.289893e+003, 1.884592e+004
1.291821e+003, 1.888604e+004
1.293750e+003, 1.892204e+004
1.295678e+003, 1.895257e+004
1.297607e+003, 1.897251e+004
1.299535e+003, 1.899736e+004
1.301464e+003, 1.903458e+004
1.303392e+003, 1.906829e+004
1.305321e+003, 1.908733e+004
1.307249e+003, 1.909689e+004
1.309177e+003, 1.911319e+004
1.311106e+003, 1.914134e+004
1.313034e+003, 1.916232e+004
1.314963e+003, 1.916793e+004
1.316891e+003, 1.916932e+004
1.318820e+003, 1.916949e+004
1.320748e+003, 1.917038e+004
1.322677e+003, 1.919201e+004
1.324605e+003, 1.925643e+004
1.326534e+003, 1.930431e+004
1.328462e+003, 1.930685e+004
1.330391e+003, 1.929223e+004
1.332319e+003, 1.929376e+004
1.334248e+003, 1.931776e+004
1.336176e+003, 1.933086e+004
1.338104e+003, 1.932728e+004
1.340033e+003, 1.932403e+004
1.341961e+003, 1.932608e+004
1.343890e+003, 1.933433e+004
1.345818e+003, 1.935081e+004
1.347747e+003, 1.937757e+004
1.349675e+003, 1.940240e+004
1.351604e+003, 1.941966e+004
1.353532e+003, 1.943432e+004
1.355461e+003, 1.944496e+004
1.357389e+003, 1.945264e+004
1.359318e+003, 1.946351e+004
1.361246e+003, 1.948033e+004
1.363175e+003, 1.949660e+004
1.365103e+003, 1.951988e+004
1.367031e+003, 1.953838e+004
1.368960e+003, 1.954195e+004
1.370888e+003, 1.953479e+004
1.372817e+003, 1.953668e+004
1.374745e+003, 1.954900e+004
1.376674e+003, 1.956244e+004
1.378602e+003, 1.956576e+004
1.380531e+003, 1.957101e+004
1.382459e+003, 1.959236e+004
1.384388e+003, 1.963007e+004
1.386316e+003, 1.965154e+004
1.388245e+003, 1.964519e+004
1.390173e+003, 1.964362e+004
1.392102e+003, 1.965759e+004
1.394030e+003, 1.967701e+004
1.395958e+003, 1.969232e+004
1.397887e+003, 1.970283e+004
1.399815e+003, 1.970928e+004
1.401744e+003, 1.970525e+004
1.403672e+003, 1.970371e+004
1.405601e+003, 1.970939e+004
1.407529e+003, 1.971900e+004
1.409458e+003, 1.973292e+004
1.411386e+003, 1.975165e+004
1.413315e+003, 1.976014e+004
1.415243e+003, 1.974652e+004
1.417172e+003, 1.974476e+004
1.419100e+003, 1.977782e+004
1.421029e+003, 1.982266e+004
1.422957e+003, 1.985384e+004
1.424885e+003, 1.986975e+004
1.426814e+003, 1.988066e+004
1.428742e+003, 1.988105e+004
1.430671e+003, 1.988641e+004
1.432599e+003, 1.990757e+004
1.434528e+003, 1.993459e+004
1.436456e+003, 1.995483e+004
1.438385e+003, 1.996756e+004
1.440313e+003, 1.998199e+004
1.442242e+003, 2.000263e+004
1.444170e+003, 2.001917e+004
1.446099e+003, 2.002178e+004
1.448027e+003, 2.002153e+004
1.449956e+003, 2.003634e+004
1.451884e+003, 2.007218e+004
1.453813e+003, 2.009122e+004
1.455741e+003, 2.008026e+004
1.457669e+003, 2.007252e+004
1.459598e+003, 2.007690e+004
1.461526e+003, 2.009009e+004
1.463455e+003, 2.010881e+004
1.465383e+003, 2.013323e+004
1.467312e+003, 2.015972e+004
1.469240e+003, 2.019389e+004
1.471169e+003, 2.021803e+004
1.473097e+003, 2.022129e+004
1.475026e+003, 2.021339e+004
1.476954e+003, 2.020005e+004
1.478883e+003, 2.018293e+004
1.480811e+003, 2.017902e+004
1.482740e+003, 2.019567e+004
1.484668e+003, 2.021816e+004
1.486596e+003, 2.025275e+004
1.488525e+003, 2.028721e+004
1.490453e+003, 2.030168e+004
1.492382e+003, 2.030277e+004
1.494310e+003, 2.033659e+004
1.496239e+003, 2.041507e+004
1.498167e+003, 2.048973e+004
1.500096e+003, 2.054431e+004
1.502024e+003, 2.058113e+004
1.503953e+003, 2.059864e+004
1.505881e+003, 2.059771e+004
1.507810e+003, 2.059065e+004
1.509738e+003, 2.058288e+004
1.511667e+003, 2.057044e+004
1.513595e+003, 2.054772e+004
1.515523e+003, 2.053640e+004
1.517452e+003, 2.055502e+004
1.519380e+003, 2.059552e+004
1.521309e+003, 2.062833e+004
1.523237e+003, 2.064800e+004
1.525166e+003, 2.066187e+004
1.527094e+003, 2.065576e+004
1.529023e+003, 2.065340e+004
1.530951e+003, 2.067003e+004
1.532880e+003, 2.069552e+004
1.534808e+003, 2.070967e+004
1.536737e+003, 2.070700e+004
1.538665e+003, 2.072146e+004
1.540594e+003, 2.077600e+004
1.542522e+003, 2.082123e+004
1.544450e+003, 2.083015e+004
1.546379e+003, 2.083071e+004
1.548307e+003, 2.085808e+004
1.550236e+003, 2.091243e+004
1.552164e+003, 2.095620e+004
1.554093e+003, 2.098287e+004
1.556021e+003, 2.100763e+004
1.557950e+003, 2.103256e+004
1.559878e+003, 2.105689e+004
1.561807e+003, 2.108202e+004
1.563735e+003, 2.110596e+004
1.565664e+003, 2.112116e+004
1.567592e+003, 2.112572e+004
1.569521e+003, 2.113089e+004
1.571449e+003, 2.113684e+004
1.573377e+003, 2.114726e+004
1.575306e+003, 2.116587e+004
1.577234e+003, 2.119008e+004
1.579163e+003, 2.121587e+004
1.581091e+003, 2.124399e+004
1.583020e+003, 2.127413e+004
1.584948e+003, 2.131393e+004
1.586877e+003, 2.134308e+004
1.588805e+003, 2.133801e+004
1.590734e+003, 2.133103e+004
1.592662e+003, 2.135748e+004
1.594591e+003, 2.141086e+004
1.596519e+003, 2.144810e+004
1.598448e+003, 2.145423e+004
1.600376e+003, 2.147936e+004
1.602304e+003, 2.155014e+004
1.604233e+003, 2.162338e+004
1.606161e+003, 2.167527e+004
1.608090e+003, 2.170774e+004
1.610018e+003, 2.172499e+004
1.611947e+003, 2.172549e+004
1.613875e+003, 2.172743e+004
1.615804e+003, 2.173672e+004
1.617732e+003, 2.175113e+004
1.619661e+003, 2.177940e+004
1.621589e+003, 2.181206e+004
1.623518e+003, 2.183630e+004
1.625446e+003, 2.185458e+004
1.627375e+003, 2.188384e+004
1.629303e+003, 2.192025e+004
1.631231e+003, 2.197236e+004
1.633160e+003, 2.205259e+004
1.635088e+003, 2.212814e+004
1.637017e+003, 2.217179e+004
1.638945e+003, 2.219875e+004
1.640874e+003, 2.225345e+004
1.642802e+003, 2.234690e+004
1.644731e+003, 2.240172e+004
1.646659e+003, 2.238414e+004
1.648588e+003, 2.238095e+004
1.650516e+003, 2.242550e+004
1.652445e+003, 2.248931e+004
1.654373e+003, 2.254892e+004
1.656302e+003, 2.260418e+004
1.658230e+003, 2.266120e+004
1.660158e+003, 2.271822e+004
1.662087e+003, 2.277452e+004
1.664015e+003, 2.282751e+004
1.665944e+003, 2.288098e+004
1.667872e+003, 2.293791e+004
1.669801e+003, 2.299575e+004
1.671729e+003, 2.305266e+004
1.673658e+003, 2.311010e+004
1.675586e+003, 2.316242e+004
1.677515e+003, 2.320467e+004
1.679443e+003, 2.325524e+004
1.681372e+003, 2.331829e+004
1.683300e+003, 2.339010e+004
1.685229e+003, 2.347516e+004
1.687157e+003, 2.356420e+004
1.689085e+003, 2.363493e+004
1.691014e+003, 2.368073e+004
1.692942e+003, 2.372826e+004
1.694871e+003, 2.376813e+004
1.696799e+003, 2.382085e+004
1.698728e+003, 2.390702e+004
1.700656e+003, 2.399228e+004
1.702585e+003, 2.405275e+004
1.704513e+003, 2.409604e+004
1.706442e+003, 2.414089e+004
1.708370e+003, 2.418763e+004
1.710299e+003, 2.424205e+004
1.712227e+003, 2.430905e+004
1.714156e+003, 2.437616e+004
1.716084e+003, 2.443734e+004
1.718012e+003, 2.449666e+004
1.719941e+003, 2.455392e+004
1.721869e+003, 2.461071e+004
1.723798e+003, 2.468253e+004
1.725726e+003, 2.478088e+004
1.727655e+003, 2.485714e+004
1.729583e+003, 2.488615e+004
1.731512e+003, 2.492424e+004
1.733440e+003, 2.499372e+004
1.735369e+003, 2.507478e+004
1.737297e+003, 2.514883e+004
1.739226e+003, 2.521913e+004
1.741154e+003, 2.530338e+004
1.743083e+003, 2.541045e+004
1.745011e+003, 2.549960e+004
1.746939e+003, 2.554841e+004
1.748868e+003, 2.560240e+004
1.750797e+003, 2.567368e+004
1.752725e+003, 2.575284e+004
1.754653e+003, 2.583488e+004
1.756582e+003, 2.591568e+004
1.758510e+003, 2.597934e+004
1.760439e+003, 2.601996e+004
1.762367e+003, 2.607102e+004
1.764296e+003, 2.615038e+004
1.766224e+003, 2.622330e+004
1.768153e+003, 2.628134e+004
1.770081e+003, 2.633263e+004
1.772010e+003, 2.637750e+004
1.773938e+003, 2.642280e+004
1.775867e+003, 2.649284e+004
1.777795e+003, 2.659043e+004
1.779724e+003, 2.668775e+004
1.781652e+003, 2.678110e+004
1.783580e+003, 2.687030e+004
1.785509e+003, 2.694823e+004
1.787437e+003, 2.702468e+004
1.789366e+003, 2.710613e+004
1.791294e+003, 2.718934e+004
1.793223e+003, 2.726722e+004
1.795151e+003, 2.733895e+004
1.797080e+003, 2.741971e+004
1.799008e+003, 2.751904e+004
1.800937e+003, 2.760943e+004
1.802865e+003, 2.768278e+004
1.804794e+003, 2.774955e+004
1.806722e+003, 2.780676e+004
1.808651e+003, 2.786849e+004
1.810579e+003, 2.795796e+004
1.812507e+003, 2.807204e+004
1.814436e+003, 2.818431e+004
1.816364e+003, 2.829154e+004
1.818293e+003, 2.839167e+004
1.820221e+003, 2.848390e+004
1.822150e+003, 2.856520e+004
1.824078e+003, 2.862524e+004
1.826007e+003, 2.868190e+004
1.827935e+003, 2.875900e+004
1.829864e+003, 2.885393e+004
1.831792e+003, 2.894805e+004
1.833721e+003, 2.904111e+004
1.835649e+003, 2.914678e+004
1.837578e+003, 2.927603e+004
1.839506e+003, 2.940206e+004
1.841434e+003, 2.950982e+004
1.843363e+003, 2.961271e+004
1.845291e+003, 2.971762e+004
1.847220e+003, 2.982387e+004
1.849148e+003, 2.993300e+004
1.851077e+003, 3.004497e+004
1.853005e+003, 3.015648e+004
1.854934e+003, 3.027438e+004
1.856862e+003, 3.038210e+004
1.858791e+003, 3.046946e+004
1.860719e+003, 3.055876e+004
1.862648e+003, 3.066406e+004
1.864576e+003, 3.077580e+004
1.866505e+003, 3.088121e+004
1.868433e+003, 3.098237e+004
1.870361e+003, 3.108968e+004
1.872290e+003, 3.120613e+004
1.874218e+003, 3.132202e+004
1.876147e+003, 3.144647e+004
1.878075e+003, 3.155986e+004
1.880004e+003, 3.164475e+004
1.881932e+003, 3.173454e+004
1.883861e+003, 3.184712e+004
1.885789e+003, 3.197913e+004
1.887718e+003, 3.212702e+004
1.889646e+003, 3.228812e+004
1.891575e+003, 3.244587e+004
1.893503e+003, 3.260242e+004
1.895432e+003, 3.273108e+004
1.897360e+003, 3.281685e+004
1.899288e+003, 3.289439e+004
1.901217e+003, 3.297455e+004
1.903145e+003, 3.306514e+004
1.905074e+003, 3.318403e+004
1.907002e+003, 3.331988e+004
1.908931e+003, 3.343328e+004
1.910859e+003, 3.352771e+004
1.912788e+003, 3.366454e+004
1.914716e+003, 3.385668e+004
1.916645e+003, 3.403039e+004
1.918573e+003, 3.415397e+004
1.920502e+003, 3.426748e+004
1.922430e+003, 3.438340e+004
1.924359e+003, 3.450172e+004
1.926287e+003, 3.462982e+004
1.928215e+003, 3.476333e+004
1.930144e+003, 3.488756e+004
1.932072e+003, 3.500527e+004
1.934001e+003, 3.512821e+004
1.935929e+003, 3.525862e+004
1.937858e+003, 3.539402e+004
1.939786e+003, 3.554184e+004
1.941715e+003, 3.568288e+004
1.943643e+003, 3.580335e+004
1.945572e+003, 3.591757e+004
1.947500e+003, 3.603481e+004
1.949429e+003, 3.615433e+004
1.951357e+003, 3.627886e+004
1.953286e+003, 3.640869e+004
1.955214e+003, 3.652542e+004
1.957142e+003, 3.663102e+004
1.959071e+003, 3.671755e+004
1.960999e+003, 3.676185e+004
1.962928e+003, 3.682399e+004
1.964856e+003, 3.694093e+004
1.966785e+003, 3.706862e+004
1.968713e+003, 3.718455e+004
1.970642e+003, 3.728860e+004
1.972570e+003, 3.737039e+004
1.974499e+003, 3.743478e+004
1.976427e+003, 3.752293e+004
1.978356e+003, 3.763942e+004
1.980284e+003, 3.774965e+004
1.982213e+003, 3.784912e+004
1.984141e+003, 3.793216e+004
1.986069e+003, 3.797855e+004
1.987998e+003, 3.802425e+004
1.989926e+003, 3.809462e+004
1.991855e+003, 3.817206e+004
1.993783e+003, 3.823991e+004
1.995712e+003, 3.829634e+004
1.997640e+003, 3.833287e+004
1.999569e+003, 3.835005e+004
2.001497e+003, 3.835627e+004
2.003426e+003, 3.834191e+004
2.005354e+003, 3.833547e+004
2.007283e+003, 3.834605e+004
2.009211e+003, 3.835405e+004
2.011140e+003, 3.835933e+004
2.013068e+003, 3.835029e+004
2.014996e+003, 3.830495e+004
2.016925e+003, 3.824484e+004
2.018853e+003, 3.821973e+004
2.020782e+003, 3.822914e+004
2.022710e+003, 3.821543e+004
2.024639e+003, 3.817149e+004
2.026567e+003, 3.815699e+004
2.028496e+003, 3.819832e+004
2.030424e+003, 3.821697e+004
2.032353e+003, 3.816682e+004
2.034281e+003, 3.811487e+004
2.036210e+003, 3.810199e+004
2.038138e+003, 3.810062e+004
2.040067e+003, 3.808864e+004
2.041995e+003, 3.806521e+004
2.043923e+003, 3.801980e+004
2.045852e+003, 3.795259e+004
2.047780e+003, 3.792221e+004
2.049709e+003, 3.794980e+004
2.051637e+003, 3.795526e+004
2.053566e+003, 3.792199e+004
2.055494e+003, 3.788141e+004
2.057423e+003, 3.783583e+004
2.059351e+003, 3.779425e+004
2.061280e+003, 3.777831e+004
2.063208e+003, 3.776207e+004
2.065136e+003, 3.770463e+004
2.067065e+003, 3.763043e+004
2.068993e+003, 3.760684e+004
2.070922e+003, 3.763167e+004
2.072850e+003, 3.764786e+004
2.074779e+003, 3.764432e+004
2.076708e+003, 3.765076e+004
2.078636e+003, 3.766872e+004
2.080564e+003, 3.768079e+004
2.082493e+003, 3.768706e+004
2.084421e+003, 3.767361e+004
2.086350e+003, 3.763584e+004
2.088278e+003, 3.758168e+004
2.090207e+003, 3.751542e+004
2.092135e+003, 3.744821e+004
2.094064e+003, 3.739339e+004
2.095992e+003, 3.735323e+004
2.097921e+003, 3.733517e+004
2.099849e+003, 3.734581e+004
2.101778e+003, 3.734463e+004
2.103706e+003, 3.733089e+004
2.105635e+003, 3.729301e+004
2.107563e+003, 3.720471e+004
2.109491e+003, 3.712578e+004
2.111420e+003, 3.709146e+004
2.113348e+003, 3.706361e+004
2.115277e+003, 3.701868e+004
2.117205e+003, 3.697220e+004
2.119134e+003, 3.693487e+004
2.121062e+003, 3.691240e+004
2.122991e+003, 3.692874e+004
2.124919e+003, 3.697814e+004
2.126848e+003, 3.699337e+004
2.128776e+003, 3.695868e+004
2.130705e+003, 3.692062e+004
2.132633e+003, 3.687435e+004
2.134562e+003, 3.683680e+004
2.136490e+003, 3.683059e+004
2.138418e+003, 3.681002e+004
2.140347e+003, 3.674704e+004
2.142275e+003, 3.667530e+004
2.144204e+003, 3.661598e+004
2.146132e+003, 3.657246e+004
2.148061e+003, 3.656159e+004
2.149989e+003, 3.657265e+004
2.151918e+003, 3.654591e+004
2.153846e+003, 3.648321e+004
2.155775e+003, 3.643959e+004
2.157703e+003, 3.641818e+004
2.159632e+003, 3.640527e+004
2.161560e+003, 3.639940e+004
2.163489e+003, 3.638741e+004
2.165417e+003, 3.637848e+004
2.167345e+003, 3.633900e+004
2.169274e+003, 3.622565e+004
2.171202e+003, 3.611010e+004
2.173131e+003, 3.606217e+004
2.175059e+003, 3.603918e+004
2.176988e+003, 3.597957e+004
2.178916e+003, 3.589968e+004
2.180845e+003, 3.584940e+004
2.182773e+003, 3.582889e+004
2.184702e+003, 3.578946e+004
2.186630e+003, 3.572419e+004
2.188559e+003, 3.568237e+004
2.190487e+003, 3.567346e+004
2.192416e+003, 3.565822e+004
2.194344e+003, 3.562530e+004
2.196272e+003, 3.558357e+004
2.198201e+003, 3.553401e+004
2.200129e+003, 3.548068e+004
2.202058e+003, 3.542549e+004
2.203986e+003, 3.537128e+004
2.205915e+003, 3.532291e+004
2.207843e+003, 3.527647e+004
2.209772e+003, 3.522258e+004
2.211700e+003, 3.516418e+004
2.213629e+003, 3.511880e+004
2.215557e+003, 3.508776e+004
2.217486e+003, 3.503271e+004
2.219414e+003, 3.494907e+004
2.221343e+003, 3.488288e+004
2.223271e+003, 3.483896e+004
2.225199e+003, 3.481678e+004
2.227128e+003, 3.483098e+004
2.229056e+003, 3.483329e+004
2.230985e+003, 3.478510e+004
2.232913e+003, 3.474218e+004
2.234842e+003, 3.475699e+004
2.236770e+003, 3.476940e+004
2.238699e+003, 3.470866e+004
2.240627e+003, 3.462413e+004
2.242556e+003, 3.459742e+004
2.244484e+003, 3.461195e+004
2.246413e+003, 3.461057e+004
2.248341e+003, 3.459275e+004
2.250270e+003, 3.455372e+004
2.252198e+003, 3.449013e+004
2.254126e+003, 3.445757e+004
2.256055e+003, 3.446936e+004
2.257983e+003, 3.446941e+004
2.259912e+003, 3.444772e+004
2.261840e+003, 3.440855e+004
2.263769e+003, 3.434184e+004
2.265697e+003, 3.427125e+004
2.267626e+003, 3.421091e+004
2.269554e+003, 3.414412e+004
2.271483e+003, 3.405106e+004
2.273411e+003, 3.396212e+004
2.275340e+003, 3.392775e+004
2.277268e+003, 3.391005e+004
2.279197e+003, 3.383045e+004
2.281125e+003, 3.371766e+004
2.283053e+003, 3.365070e+004
2.284982e+003, 3.362358e+004
2.286910e+003, 3.358514e+004
2.288839e+003, 3.352516e+004
2.290767e+003, 3.348488e+004
2.292696e+003, 3.347297e+004
2.294624e+003, 3.345701e+004
2.296553e+003, 3.344273e+004
2.298481e+003, 3.341402e+004
2.300410e+003, 3.337583e+004
2.302338e+003, 3.331645e+004
2.304267e+003, 3.321826e+004
2.306195e+003, 3.312480e+004
2.308124e+003, 3.305764e+004
2.310052e+003, 3.300865e+004
2.311980e+003, 3.297364e+004
2.313909e+003, 3.295065e+004
2.315837e+003, 3.294348e+004
2.317766e+003, 3.294106e+004
2.319694e+003, 3.292243e+004
2.321623e+003, 3.288754e+004
2.323551e+003, 3.283849e+004
2.325480e+003, 3.277334e+004
2.327408e+003, 3.272818e+004
2.329337e+003, 3.270498e+004
2.331265e+003, 3.266532e+004
2.333194e+003, 3.260456e+004
2.335122e+003, 3.254175e+004
2.337051e+003, 3.248013e+004
2.338979e+003, 3.242375e+004
2.340907e+003, 3.238370e+004
2.342836e+003, 3.234303e+004
2.344764e+003, 3.230073e+004
2.346693e+003, 3.225773e+004
2.348621e+003, 3.219292e+004
2.350550e+003, 3.214932e+004
2.352478e+003, 3.216707e+004
2.354407e+003, 3.219167e+004
2.356335e+003, 3.217593e+004
2.358264e+003, 3.213222e+004
2.360192e+003, 3.207898e+004
2.362121e+003, 3.201443e+004
2.364049e+003, 3.192643e+004
2.365978e+003, 3.183117e+004
2.367906e+003, 3.178234e+004
2.369834e+003, 3.178209e+004
2.371763e+003, 3.176686e+004
2.373691e+003, 3.173311e+004
2.375620e+003, 3.169855e+004
2.377548e+003, 3.165402e+004
2.379477e+003, 3.163335e+004
2.381405e+003, 3.164213e+004
2.383334e+003, 3.164156e+004
2.385262e+003, 3.162364e+004
2.387191e+003, 3.160025e+004
2.389119e+003, 3.157755e+004
2.391048e+003, 3.155496e+004
2.392976e+003, 3.153769e+004
2.394905e+003, 3.152071e+004
2.396833e+003, 3.149636e+004
2.398761e+003, 3.147679e+004
2.400690e+003, 3.146556e+004
2.402618e+003, 3.145909e+004
2.404547e+003, 3.145256e+004
2.406475e+003, 3.144791e+004
2.408404e+003, 3.145316e+004
2.410332e+003, 3.145927e+004
2.412261e+003, 3.145577e+004
2.414189e+003, 3.144298e+004
2.416118e+003, 3.141126e+004
2.418046e+003, 3.136921e+004
2.419975e+003, 3.136304e+004
2.421903e+003, 3.138975e+004
2.423832e+003, 3.137709e+004
2.425760e+003, 3.132487e+004
2.427688e+003, 3.133263e+004
2.429617e+003, 3.141534e+004
2.431545e+003, 3.143814e+004
2.433474e+003, 3.135593e+004
2.435402e+003, 3.130937e+004
2.437331e+003, 3.134762e+004
2.439259e+003, 3.136246e+004
2.441188e+003, 3.133412e+004
2.443116e+003, 3.131145e+004
2.445045e+003, 3.130421e+004
2.446973e+003, 3.130595e+004
2.448902e+003, 3.132283e+004
2.450830e+003, 3.133046e+004
2.452759e+003, 3.129915e+004
2.454687e+003, 3.127347e+004
2.456615e+003, 3.127572e+004
2.458544e+003, 3.129420e+004
2.460472e+003, 3.134222e+004
2.462401e+003, 3.138319e+004
2.464329e+003, 3.137652e+004
2.466258e+003, 3.135360e+004
2.468186e+003, 3.134132e+004
2.470115e+003, 3.134324e+004
2.472043e+003, 3.137467e+004
2.473972e+003, 3.141259e+004
2.475900e+003, 3.140435e+004
2.477829e+003, 3.136225e+004
2.479757e+003, 3.133416e+004
2.481686e+003, 3.131799e+004
2.483614e+003, 3.130971e+004
2.485542e+003, 3.130938e+004
2.487471e+003, 3.127913e+004
2.489399e+003, 3.122492e+004
2.491328e+003, 3.120438e+004
2.493256e+003, 3.122443e+004
2.495185e+003, 3.124801e+004
2.497113e+003, 3.127225e+004
2.499042e+003, 3.129289e+004
2.500970e+003, 3.130681e+004
2.502899e+003, 3.130956e+004
2.504827e+003, 3.129443e+004
2.506756e+003, 3.127672e+004
2.508684e+003, 3.125490e+004
2.510613e+003, 3.124622e+004
2.512541e+003, 3.127185e+004
2.514469e+003, 3.128208e+004
2.516398e+003, 3.125154e+004
2.518326e+003, 3.122959e+004
2.520255e+003, 3.123899e+004
2.522183e+003, 3.124716e+004
2.524112e+003, 3.122739e+004
2.526040e+003, 3.122489e+004
2.527969e+003, 3.128077e+004
2.529897e+003, 3.132296e+004
2.531826e+003, 3.129253e+004
2.533754e+003, 3.125856e+004
2.535683e+003, 3.127108e+004
2.537611e+003, 3.129671e+004
2.539540e+003, 3.131080e+004
2.541468e+003, 3.132278e+004
2.543396e+003, 3.133799e+004
2.545325e+003, 3.135464e+004
2.547253e+003, 3.137196e+004
2.549182e+003, 3.138409e+004
2.551110e+003, 3.138363e+004
2.553039e+003, 3.137569e+004
2.554967e+003, 3.137734e+004
2.556896e+003, 3.137590e+004
2.558824e+003, 3.133090e+004
2.560753e+003, 3.127318e+004
2.562681e+003, 3.128607e+004
2.564610e+003, 3.134136e+004
2.566538e+003, 3.135913e+004
2.568467e+003, 3.134638e+004
2.570395e+003, 3.132481e+004
2.572323e+003, 3.129779e+004
2.574252e+003, 3.131106e+004
2.576180e+003, 3.135695e+004
2.578109e+003, 3.136471e+004
2.580037e+003, 3.133924e+004
2.581966e+003, 3.132724e+004
2.583894e+003, 3.133107e+004
2.585823e+003, 3.131393e+004
2.587751e+003, 3.127446e+004
2.589680e+003, 3.127373e+004
2.591608e+003, 3.131843e+004
2.593537e+003, 3.136208e+004
2.595465e+003, 3.140299e+004
2.597394e+003, 3.142381e+004
2.599322e+003, 3.141792e+004
2.601250e+003, 3.142981e+004
2.603179e+003, 3.146674e+004
2.605107e+003, 3.149011e+004
2.607036e+003, 3.149354e+004
2.608964e+003, 3.149227e+004
2.610893e+003, 3.148491e+004
2.612821e+003, 3.149238e+004
2.614750e+003, 3.152699e+004
2.616678e+003, 3.153338e+004
2.618607e+003, 3.149570e+004
2.620535e+003, 3.146145e+004
2.622464e+003, 3.143229e+004
2.624392e+003, 3.141960e+004
2.626321e+003, 3.143486e+004
2.628249e+003, 3.144812e+004
2.630177e+003, 3.146696e+004
2.632106e+003, 3.145778e+004
2.634034e+003, 3.140135e+004
2.635963e+003, 3.136765e+004
2.637891e+003, 3.138915e+004
2.639820e+003, 3.140703e+004
2.641748e+003, 3.139799e+004
2.643677e+003, 3.139921e+004
2.645605e+003, 3.142169e+004
2.647534e+003, 3.144320e+004
2.649462e+003, 3.145561e+004
2.651391e+003, 3.146879e+004
2.653319e+003, 3.148146e+004
2.655248e+003, 3.149844e+004
2.657176e+003, 3.153417e+004
2.659104e+003, 3.155074e+004
2.661033e+003, 3.152410e+004
2.662961e+003, 3.150238e+004
2.664890e+003, 3.150975e+004
2.666818e+003, 3.150550e+004
2.668747e+003, 3.146096e+004
2.670675e+003, 3.143779e+004
2.672604e+003, 3.148152e+004
2.674532e+003, 3.151718e+004
2.676461e+003, 3.150374e+004
2.678389e+003, 3.149661e+004
2.680318e+003, 3.151175e+004
2.682246e+003, 3.152588e+004
2.684175e+003, 3.152636e+004
2.686103e+003, 3.152536e+004
2.688031e+003, 3.152756e+004
2.689960e+003, 3.153237e+004
2.691888e+003, 3.155926e+004
2.693817e+003, 3.156567e+004
2.695745e+003, 3.152263e+004
2.697674e+003, 3.149743e+004
2.699602e+003, 3.152174e+004
2.701531e+003, 3.155876e+004
2.703459e+003, 3.159643e+004
2.705388e+003, 3.163397e+004
2.707316e+003, 3.167139e+004
2.709245e+003, 3.170232e+004
2.711173e+003, 3.172465e+004
2.713102e+003, 3.173468e+004
2.715030e+003, 3.171817e+004
2.716958e+003, 3.171108e+004
2.718887e+003, 3.173875e+004
2.720815e+003, 3.176087e+004
2.722744e+003, 3.176170e+004
2.724672e+003, 3.176208e+004
2.726601e+003, 3.176611e+004
2.728529e+003, 3.178184e+004
2.730458e+003, 3.182299e+004
2.732386e+003, 3.185502e+004
2.734315e+003, 3.185796e+004
2.736243e+003, 3.185804e+004
2.738172e+003, 3.185019e+004
2.740100e+003, 3.185696e+004
2.742029e+003, 3.189551e+004
2.743957e+003, 3.191814e+004
2.745885e+003, 3.190325e+004
2.747814e+003, 3.189708e+004
2.749742e+003, 3.192362e+004
2.751671e+003, 3.194970e+004
2.753599e+003, 3.196168e+004
2.755528e+003, 3.199271e+004
2.757456e+003, 3.205538e+004
2.759385e+003, 3.210358e+004
2.761313e+003, 3.211278e+004
2.763242e+003, 3.212461e+004
2.765170e+003, 3.214492e+004
2.767099e+003, 3.216571e+004
2.769027e+003, 3.219306e+004
2.770956e+003, 3.219432e+004
2.772884e+003, 3.215933e+004
2.774813e+003, 3.213754e+004
2.776741e+003, 3.215268e+004
2.778669e+003, 3.215301e+004
2.780598e+003, 3.213208e+004
2.782526e+003, 3.211071e+004
2.784455e+003, 3.208422e+004
2.786383e+003, 3.210594e+004
2.788312e+003, 3.218773e+004
2.790240e+003, 3.224384e+004
2.792169e+003, 3.225331e+004
2.794097e+003, 3.225981e+004
2.796026e+003, 3.226150e+004
2.797954e+003, 3.225676e+004
2.799883e+003, 3.224630e+004
2.801811e+003, 3.222732e+004
2.803740e+003, 3.220171e+004
2.805668e+003, 3.221296e+004
2.807596e+003, 3.226490e+004
2.809525e+003, 3.230120e+004
2.811453e+003, 3.232245e+004
2.813382e+003, 3.233283e+004
2.815310e+003, 3.233688e+004
2.817239e+003, 3.237032e+004
2.819167e+003, 3.242657e+004
2.821096e+003, 3.247371e+004
2.823024e+003, 3.250808e+004
2.824953e+003, 3.249940e+004
2.826881e+003, 3.246709e+004
2.828810e+003, 3.246806e+004
2.830738e+003, 3.249462e+004
2.832667e+003, 3.254703e+004
2.834595e+003, 3.260127e+004
2.836523e+003, 3.259894e+004
2.838452e+003, 3.257583e+004
2.840380e+003, 3.259454e+004
2.842309e+003, 3.263162e+004
2.844237e+003, 3.266220e+004
2.846166e+003, 3.268619e+004
2.848094e+003, 3.268783e+004
2.850023e+003, 3.269715e+004
2.851951e+003, 3.276031e+004
2.853880e+003, 3.282279e+004
2.855808e+003, 3.283990e+004
2.857737e+003, 3.284545e+004
2.859665e+003, 3.286261e+004
2.861594e+003, 3.288177e+004
2.863522e+003, 3.288750e+004
2.865450e+003, 3.291141e+004
2.867379e+003, 3.297612e+004
2.869307e+003, 3.304079e+004
2.871236e+003, 3.309180e+004
2.873164e+003, 3.312775e+004
2.875093e+003, 3.314219e+004
2.877021e+003, 3.314463e+004
2.878950e+003, 3.311941e+004
2.880878e+003, 3.314119e+004
2.882807e+003, 3.325352e+004
2.884735e+003, 3.333157e+004
2.886664e+003, 3.332084e+004
2.888592e+003, 3.333999e+004
2.890521e+003, 3.339793e+004
2.892449e+003, 3.345354e+004
2.894377e+003, 3.350329e+004
2.896306e+003, 3.353558e+004
2.898234e+003, 3.354569e+004
2.900163e+003, 3.356567e+004
2.902091e+003, 3.359623e+004
2.904020e+003, 3.364205e+004
2.905948e+003, 3.370032e+004
2.907877e+003, 3.374409e+004
2.909805e+003, 3.377808e+004
2.911734e+003, 3.381802e+004
2.913662e+003, 3.386346e+004
2.915591e+003, 3.390977e+004
2.917519e+003, 3.396273e+004
2.919448e+003, 3.405453e+004
2.921376e+003, 3.414220e+004
2.923304e+003, 3.415850e+004
2.925233e+003, 3.414541e+004
2.927161e+003, 3.413547e+004
2.929090e+003, 3.414575e+004
2.931018e+003, 3.420561e+004
2.932947e+003, 3.426955e+004
2.934875e+003, 3.431342e+004
2.936804e+003, 3.434130e+004
2.938732e+003, 3.433311e+004
2.940661e+003, 3.434573e+004
2.942589e+003, 3.441836e+004
2.944518e+003, 3.446375e+004
2.946446e+003, 3.442888e+004
2.948375e+003, 3.441259e+004
2.950303e+003, 3.443395e+004
2.952231e+003, 3.448274e+004
2.954160e+003, 3.456555e+004
2.956088e+003, 3.462675e+004
2.958017e+003, 3.465383e+004
2.959945e+003, 3.468116e+004
2.961874e+003, 3.470672e+004
2.963802e+003, 3.475233e+004
2.965731e+003, 3.481559e+004
2.967659e+003, 3.486338e+004
2.969588e+003, 3.489648e+004
2.971516e+003, 3.490866e+004
2.973445e+003, 3.491229e+004
2.975373e+003, 3.493468e+004
2.977302e+003, 3.497551e+004
2.979230e+003, 3.504305e+004
2.981158e+003, 3.511498e+004
2.983087e+003, 3.516299e+004
2.985015e+003, 3.520506e+004
2.986944e+003, 3.527255e+004
2.988872e+003, 3.532860e+004
2.990801e+003, 3.534316e+004
2.992729e+003, 3.536046e+004
2.994658e+003, 3.539725e+004
2.996586e+003, 3.545290e+004
2.998515e+003, 3.553754e+004
3.000443e+003, 3.561074e+004
3.002372e+003, 3.566891e+004
3.004300e+003, 3.568820e+004
3.006229e+003, 3.563648e+004
3.008157e+003, 3.563846e+004
3.010085e+003, 3.571030e+004
3.012014e+003, 3.577561e+004
3.013942e+003, 3.583326e+004
3.015871e+003, 3.587619e+004
3.017799e+003, 3.591163e+004
3.019728e+003, 3.600557e+004
3.021656e+003, 3.613299e+004
3.023585e+003, 3.620017e+004
3.025513e+003, 3.624043e+004
3.027442e+003, 3.630139e+004
3.029370e+003, 3.638038e+004
3.031299e+003, 3.648811e+004
3.033227e+003, 3.659050e+004
3.035156e+003, 3.665052e+004
3.037084e+003, 3.670552e+004
3.039012e+003, 3.679060e+004
3.040941e+003, 3.685614e+004
3.042869e+003, 3.686779e+004
3.044798e+003, 3.688792e+004
3.046726e+003, 3.692409e+004
3.048655e+003, 3.699391e+004
3.050583e+003, 3.711501e+004
3.052512e+003, 3.721515e+004
3.054440e+003, 3.728909e+004
3.056369e+003, 3.734807e+004
3.058297e+003, 3.739660e+004
3.060226e+003, 3.748143e+004
3.062154e+003, 3.758923e+004
3.064083e+003, 3.764316e+004
3.066011e+003, 3.767286e+004
3.067939e+003, 3.775568e+004
3.069868e+003, 3.785413e+004
3.071796e+003, 3.792908e+004
3.073725e+003, 3.798571e+004
3.075653e+003, 3.802036e+004
3.077582e+003, 3.805914e+004
3.079510e+003, 3.812173e+004
3.081439e+003, 3.819139e+004
3.083367e+003, 3.825916e+004
3.085296e+003, 3.834399e+004
3.087224e+003, 3.845184e+004
3.089153e+003, 3.856150e+004
3.091081e+003, 3.866763e+004
3.093010e+003, 3.877662e+004
3.094938e+003, 3.888800e+004
3.096866e+003, 3.898177e+004
3.098795e+003, 3.905968e+004
3.100723e+003, 3.913559e+004
3.102652e+003, 3.921161e+004
3.104580e+003, 3.928700e+004
3.106509e+003, 3.936867e+004
3.108437e+003, 3.947505e+004
3.110366e+003, 3.958189e+004
3.112294e+003, 3.967124e+004
3.114223e+003, 3.974950e+004
3.116151e+003, 3.981521e+004
3.118080e+003, 3.988766e+004
3.120008e+003, 3.998565e+004
3.121937e+003, 4.006395e+004
3.123865e+003, 4.009982e+004
3.125793e+003, 4.019336e+004
3.127722e+003, 4.037543e+004
3.129650e+003, 4.051611e+004
3.131579e+003, 4.061579e+004
3.133507e+003, 4.070795e+004
3.135436e+003, 4.079609e+004
3.137364e+003, 4.089428e+004
3.139293e+003, 4.099953e+004
3.141221e+003, 4.110835e+004
3.143150e+003, 4.122050e+004
3.145078e+003, 4.132677e+004
3.147007e+003, 4.144662e+004
3.148935e+003, 4.161264e+004
3.150864e+003, 4.174898e+004
3.152792e+003, 4.181333e+004
3.154720e+003, 4.189420e+004
3.156649e+003, 4.202642e+004
3.158577e+003, 4.214074e+004
3.160506e+003, 4.223632e+004
3.162434e+003, 4.231402e+004
3.164363e+003, 4.238175e+004
3.166291e+003, 4.247207e+004
3.168220e+003, 4.258515e+004
3.170148e+003, 4.272441e+004
3.172077e+003, 4.287759e+004
3.174005e+003, 4.303485e+004
3.175934e+003, 4.318479e+004
3.177862e+003, 4.333279e+004
3.179791e+003, 4.344843e+004
3.181719e+003, 4.348341e+004
3.183647e+003, 4.357897e+004
3.185576e+003, 4.380043e+004
3.187504e+003, 4.399416e+004
3.189433e+003, 4.411948e+004
3.191361e+003, 4.426031e+004
3.193290e+003, 4.440713e+004
3.195218e+003, 4.451670e+004
3.197147e+003, 4.458879e+004
3.199075e+003, 4.462071e+004
3.201004e+003, 4.463764e+004
3.202932e+003, 4.468555e+004
3.204861e+003, 4.474704e+004
3.206789e+003, 4.481316e+004
3.208718e+003, 4.488050e+004
3.210646e+003, 4.492662e+004
3.212574e+003, 4.500033e+004
3.214503e+003, 4.511239e+004
3.216431e+003, 4.521260e+004
3.218360e+003, 4.529117e+004
3.220288e+003, 4.533136e+004
3.222217e+003, 4.533672e+004
3.224145e+003, 4.532416e+004
3.226074e+003, 4.531279e+004
3.228002e+003, 4.536415e+004
3.229931e+003, 4.542569e+004
3.231859e+003, 4.540574e+004
3.233788e+003, 4.538438e+004
3.235716e+003, 4.542459e+004
3.237645e+003, 4.546206e+004
3.239573e+003, 4.546590e+004
3.241501e+003, 4.547602e+004
3.243430e+003, 4.549759e+004
3.245358e+003, 4.552784e+004
3.247287e+003, 4.556724e+004
3.249215e+003, 4.557300e+004
3.251144e+003, 4.555913e+004
3.253072e+003, 4.559925e+004
3.255001e+003, 4.564371e+004
3.256929e+003, 4.560143e+004
3.258858e+003, 4.553357e+004
3.260786e+003, 4.547342e+004
3.262715e+003, 4.543698e+004
3.264643e+003, 4.545950e+004
3.266572e+003, 4.544116e+004
3.268500e+003, 4.534785e+004
3.270428e+003, 4.532910e+004
3.272357e+003, 4.540446e+004
3.274285e+003, 4.542771e+004
3.276214e+003, 4.540585e+004
3.278142e+003, 4.536800e+004
3.280071e+003, 4.532873e+004
3.281999e+003, 4.530959e+004
3.283928e+003, 4.529801e+004
3.285856e+003, 4.531031e+004
3.287785e+003, 4.527930e+004
3.289713e+003, 4.515181e+004
3.291642e+003, 4.507339e+004
3.293570e+003, 4.512195e+004
3.295499e+003, 4.507632e+004
3.297427e+003, 4.494201e+004
3.299355e+003, 4.490518e+004
3.301284e+003, 4.493107e+004
3.303212e+003, 4.491529e+004
3.305141e+003, 4.486845e+004
3.307069e+003, 4.479802e+004
3.308998e+003, 4.472397e+004
3.310926e+003, 4.466632e+004
3.312855e+003, 4.460931e+004
3.314783e+003, 4.455654e+004
3.316712e+003, 4.448833e+004
3.318640e+003, 4.439362e+004
3.320569e+003, 4.435957e+004
3.322497e+003, 4.437620e+004
3.324426e+003, 4.435851e+004
3.326354e+003, 4.431773e+004
3.328282e+003, 4.427393e+004
3.330211e+003, 4.422587e+004
3.332139e+003, 4.418445e+004
3.334068e+003, 4.412248e+004
3.335996e+003, 4.401685e+004
3.337925e+003, 4.392914e+004
3.339853e+003, 4.387573e+004
3.341782e+003, 4.381966e+004
3.343710e+003, 4.376260e+004
3.345639e+003, 4.374148e+004
3.347567e+003, 4.373585e+004
3.349496e+003, 4.370247e+004
3.351424e+003, 4.363727e+004
3.353353e+003, 4.351021e+004
3.355281e+003, 4.339646e+004
3.357209e+003, 4.335555e+004
3.359138e+003, 4.330612e+004
3.361066e+003, 4.324038e+004
3.362995e+003, 4.316324e+004
3.364923e+003, 4.308074e+004
3.366852e+003, 4.300370e+004
3.368780e+003, 4.293623e+004
3.370709e+003, 4.288753e+004
3.372637e+003, 4.284296e+004
3.374566e+003, 4.277496e+004
3.376494e+003, 4.271856e+004
3.378423e+003, 4.269152e+004
3.380351e+003, 4.266768e+004
3.382280e+003, 4.265039e+004
3.384208e+003, 4.259120e+004
3.386136e+003, 4.249673e+004
3.388065e+003, 4.244673e+004
3.389993e+003, 4.242414e+004
3.391922e+003, 4.238645e+004
3.393851e+003, 4.235306e+004
3.395779e+003, 4.237480e+004
3.397708e+003, 4.235223e+004
3.399636e+003, 4.220682e+004
3.401564e+003, 4.208674e+004
3.403493e+003, 4.201144e+004
3.405421e+003, 4.193569e+004
3.407350e+003, 4.186224e+004
3.409278e+003, 4.186232e+004
3.411207e+003, 4.187118e+004
3.413135e+003, 4.174596e+004
3.415064e+003, 4.162828e+004
3.416992e+003, 4.166861e+004
3.418921e+003, 4.167518e+004
3.420849e+003, 4.158758e+004
3.422778e+003, 4.150362e+004
3.424706e+003, 4.143270e+004
3.426635e+003, 4.138929e+004
3.428563e+003, 4.136522e+004
3.430491e+003, 4.134758e+004
3.432420e+003, 4.132124e+004
3.434348e+003, 4.125245e+004
3.436277e+003, 4.119887e+004
3.438205e+003, 4.121726e+004
3.440134e+003, 4.118000e+004
3.442062e+003, 4.105175e+004
3.443991e+003, 4.095427e+004
3.445919e+003, 4.088784e+004
3.447848e+003, 4.082999e+004
3.449776e+003, 4.077375e+004
3.451705e+003, 4.070347e+004
3.453633e+003, 4.063682e+004
3.455562e+003, 4.059566e+004
3.457490e+003, 4.054443e+004
3.459418e+003, 4.047707e+004
3.461347e+003, 4.040770e+004
3.463275e+003, 4.033833e+004
3.465204e+003, 4.023970e+004
3.467132e+003, 4.013380e+004
3.469061e+003, 4.008025e+004
3.470989e+003, 4.004061e+004
3.472918e+003, 3.997696e+004
3.474846e+003, 3.992920e+004
3.476775e+003, 3.990539e+004
3.478703e+003, 3.989436e+004
3.480632e+003, 3.989219e+004
3.482560e+003, 3.981270e+004
3.484489e+003, 3.969602e+004
3.486417e+003, 3.968189e+004
3.488345e+003, 3.968678e+004
3.490274e+003, 3.962828e+004
3.492202e+003, 3.957321e+004
3.494131e+003, 3.954259e+004
3.496059e+003, 3.952687e+004
3.497988e+003, 3.952118e+004
3.499916e+003, 3.949730e+004
3.501845e+003, 3.945648e+004
3.503773e+003, 3.941790e+004
3.505702e+003, 3.937059e+004
3.507630e+003, 3.930781e+004
3.509559e+003, 3.923199e+004
3.511487e+003, 3.913343e+004
3.513416e+003, 3.907268e+004
3.515344e+003, 3.905658e+004
3.517272e+003, 3.900684e+004
3.519201e+003, 3.894377e+004
3.521129e+003, 3.893616e+004
3.523058e+003, 3.893850e+004
3.524986e+003, 3.891407e+004
3.526915e+003, 3.887187e+004
3.528843e+003, 3.878595e+004
3.530772e+003, 3.876294e+004
3.532700e+003, 3.879929e+004
3.534629e+003, 3.876481e+004
3.536557e+003, 3.868759e+004
3.538486e+003, 3.863535e+004
3.540414e+003, 3.859030e+004
3.542343e+003, 3.854650e+004
3.544271e+003, 3.849780e+004
3.546199e+003, 3.844525e+004
3.548128e+003, 3.838347e+004
3.550056e+003, 3.831563e+004
3.551985e+003, 3.827609e+004
3.553913e+003, 3.825188e+004
3.555842e+003, 3.822296e+004
3.557770e+003, 3.819664e+004
3.559699e+003, 3.818648e+004
3.561627e+003, 3.816448e+004
3.563556e+003, 3.812537e+004
3.565484e+003, 3.809880e+004
3.567413e+003, 3.808417e+004
3.569341e+003, 3.809552e+004
3.571270e+003, 3.809285e+004
3.573198e+003, 3.801576e+004
3.575126e+003, 3.794795e+004
3.577055e+003, 3.793975e+004
3.578983e+003, 3.790441e+004
3.580912e+003, 3.783421e+004
3.582840e+003, 3.778539e+004
3.584769e+003, 3.776255e+004
3.586697e+003, 3.778423e+004
3.588626e+003, 3.781320e+004
3.590554e+003, 3.782073e+004
3.592483e+003, 3.781494e+004
3.594411e+003, 3.779163e+004
3.596340e+003, 3.777856e+004
3.598268e+003, 3.777196e+004
3.600197e+003, 3.775122e+004
3.602125e+003, 3.771449e+004
3.604053e+003, 3.764463e+004
3.605982e+003, 3.759795e+004
3.607910e+003, 3.760991e+004
3.609839e+003, 3.760370e+004
3.611767e+003, 3.756823e+004
3.613696e+003, 3.753423e+004
3.615624e+003, 3.750785e+004
3.617553e+003, 3.751365e+004
3.619481e+003, 3.751239e+004
3.621410e+003, 3.746466e+004
3.623338e+003, 3.743078e+004
3.625267e+003, 3.742630e+004
3.627195e+003, 3.741103e+004
3.629124e+003, 3.739196e+004
3.631052e+003, 3.741676e+004
3.632980e+003, 3.744673e+004
3.634909e+003, 3.744337e+004
3.636837e+003, 3.742536e+004
3.638766e+003, 3.739757e+004
3.640694e+003, 3.736391e+004
3.642623e+003, 3.732900e+004
3.644551e+003, 3.731522e+004
3.646480e+003, 3.730555e+004
3.648408e+003, 3.726440e+004
3.650337e+003, 3.723605e+004
3.652265e+003, 3.723843e+004
3.654194e+003, 3.724194e+004
3.656122e+003, 3.724087e+004
3.658051e+003, 3.721759e+004
3.659979e+003, 3.718918e+004
3.661907e+003, 3.719399e+004
3.663836e+003, 3.719419e+004
3.665764e+003, 3.716168e+004
3.667693e+003, 3.714785e+004
3.669621e+003, 3.716807e+004
3.671550e+003, 3.714391e+004
3.673478e+003, 3.710317e+004
3.675407e+003, 3.711880e+004
3.677335e+003, 3.714300e+004
3.679264e+003, 3.714599e+004
3.681192e+003, 3.712236e+004
3.683121e+003, 3.706481e+004
3.685049e+003, 3.703398e+004
3.686978e+003, 3.702761e+004
3.688906e+003, 3.704604e+004
3.690834e+003, 3.705832e+004
3.692763e+003, 3.703665e+004
3.694691e+003, 3.700516e+004
3.696620e+003, 3.696522e+004
3.698548e+003, 3.694088e+004
3.700477e+003, 3.693709e+004
3.702405e+003, 3.699720e+004
3.704334e+003, 3.705578e+004
3.706262e+003, 3.704504e+004
3.708191e+003, 3.703580e+004
3.710119e+003, 3.704256e+004
3.712048e+003, 3.701211e+004
3.713976e+003, 3.695202e+004
3.715905e+003, 3.687673e+004
3.717833e+003, 3.683101e+004
3.719761e+003, 3.689454e+004
3.721690e+003, 3.692310e+004
3.723618e+003, 3.688872e+004
3.725547e+003, 3.684957e+004
3.727475e+003, 3.681424e+004
3.729404e+003, 3.680544e+004
3.731332e+003, 3.680316e+004
3.733261e+003, 3.678392e+004
3.735189e+003, 3.678969e+004
3.737118e+003, 3.683063e+004
3.739046e+003, 3.680571e+004
3.740975e+003, 3.674654e+004
3.742903e+003, 3.675902e+004
3.744832e+003, 3.677151e+004
3.746760e+003, 3.671996e+004
3.748688e+003, 3.667972e+004
3.750617e+003, 3.666096e+004
3.752545e+003, 3.667511e+004
3.754474e+003, 3.669951e+004
3.756402e+003, 3.666983e+004
3.758331e+003, 3.664739e+004
3.760259e+003, 3.666289e+004
3.762188e+003, 3.671549e+004
3.764116e+003, 3.679484e+004
3.766045e+003, 3.680912e+004
3.767973e+003, 3.679113e+004
3.769902e+003, 3.681334e+004
3.771830e+003, 3.681672e+004
3.773759e+003, 3.676205e+004
3.775687e+003, 3.672951e+004
3.777615e+003, 3.672287e+004
3.779544e+003, 3.670444e+004
3.781472e+003, 3.669653e+004
3.783401e+003, 3.674180e+004
3.785329e+003, 3.676770e+004
3.787258e+003, 3.672700e+004
3.789186e+003, 3.670993e+004
3.791115e+003, 3.670996e+004
3.793043e+003, 3.671079e+004
3.794972e+003, 3.670424e+004
3.796900e+003, 3.668089e+004
3.798829e+003, 3.666664e+004
3.800757e+003, 3.667359e+004
3.802686e+003, 3.664740e+004
3.804614e+003, 3.661741e+004
3.806542e+003, 3.665425e+004
3.808471e+003, 3.668849e+004
3.810399e+003, 3.667974e+004
3.812328e+003, 3.665478e+004
3.814256e+003, 3.661824e+004
3.816185e+003, 3.663293e+004
3.818113e+003, 3.665735e+004
3.820042e+003, 3.663619e+004
3.821970e+003, 3.661851e+004
3.823899e+003, 3.662118e+004
3.825827e+003, 3.664204e+004
3.827756e+003, 3.667124e+004
3.829684e+003, 3.667195e+004
3.831613e+003, 3.666055e+004
3.833541e+003, 3.663169e+004
3.835469e+003, 3.663795e+004
3.837398e+003, 3.668329e+004
3.839326e+003, 3.666497e+004
3.841255e+003, 3.662233e+004
3.843183e+003, 3.663129e+004
3.845112e+003, 3.664701e+004
3.847040e+003, 3.665668e+004
3.848969e+003, 3.664304e+004
3.850897e+003, 3.660912e+004
3.852826e+003, 3.656262e+004
3.854754e+003, 3.654176e+004
3.856683e+003, 3.659354e+004
3.858611e+003, 3.663504e+004
3.860540e+003, 3.664928e+004
3.862468e+003, 3.664385e+004
3.864396e+003, 3.662784e+004
3.866325e+003, 3.661180e+004
3.868253e+003, 3.660096e+004
3.870182e+003, 3.659350e+004
3.872110e+003, 3.661061e+004
3.874039e+003, 3.664562e+004
3.875967e+003, 3.666042e+004
3.877896e+003, 3.666550e+004
3.879824e+003, 3.665581e+004
3.881753e+003, 3.668676e+004
3.883681e+003, 3.677615e+004
3.885610e+003, 3.672943e+004
3.887538e+003, 3.664518e+004
3.889467e+003, 3.669637e+004
3.891395e+003, 3.674383e+004
3.893323e+003, 3.673766e+004
3.895252e+003, 3.673097e+004
3.897180e+003, 3.672545e+004
3.899109e+003, 3.670222e+004
3.901037e+003, 3.668223e+004
3.902966e+003, 3.667936e+004
3.904894e+003, 3.668949e+004
3.906823e+003, 3.671193e+004
3.908751e+003, 3.675118e+004
3.910680e+003, 3.678156e+004
3.912608e+003, 3.676441e+004
3.914537e+003, 3.674684e+004
3.916465e+003, 3.673470e+004
3.918394e+003, 3.677461e+004
3.920322e+003, 3.683150e+004
3.922250e+003, 3.682907e+004
3.924179e+003, 3.682245e+004
3.926107e+003, 3.684100e+004
3.928036e+003, 3.682568e+004
3.929964e+003, 3.678477e+004
3.931893e+003, 3.677221e+004
3.933821e+003, 3.676716e+004
3.935750e+003, 3.675671e+004
3.937678e+003, 3.674786e+004
3.939607e+003, 3.674375e+004
3.941535e+003, 3.676104e+004
3.943464e+003, 3.677505e+004
3.945392e+003, 3.674621e+004
3.947321e+003, 3.672840e+004
3.949249e+003, 3.672946e+004
3.951177e+003, 3.672838e+004
3.953106e+003, 3.672250e+004
3.955034e+003, 3.669899e+004
3.956963e+003, 3.670102e+004
3.958891e+003, 3.676921e+004
3.960820e+003, 3.679100e+004
3.962748e+003, 3.677911e+004
3.964677e+003, 3.675698e+004
3.966605e+003, 3.675309e+004
3.968534e+003, 3.678773e+004
3.970462e+003, 3.679041e+004
3.972391e+003, 3.675970e+004
3.974319e+003, 3.669713e+004
3.976248e+003, 3.664947e+004
3.978176e+003, 3.666896e+004
3.980104e+003, 3.665652e+004
3.982033e+003, 3.660963e+004
3.983961e+003, 3.663781e+004
3.985890e+003, 3.668224e+004
3.987818e+003, 3.668356e+004
3.989747e+003, 3.667533e+004
3.991675e+003, 3.666597e+004
3.993604e+003, 3.673566e+004
3.995532e+003, 3.681229e+004
3.997461e+003, 3.678883e+004
3.999389e+003, 3.678390e+004
4.001318e+003, 3.683884e+004
4.003246e+003, 3.681528e+004
4.005175e+003, 3.674903e+004
4.007103e+003, 3.667020e+004
4.009031e+003, 3.664294e+004
4.010960e+003, 3.669627e+004
4.012888e+003, 3.672357e+004
4.014817e+003, 3.672816e+004
4.016745e+003, 3.671358e+004
4.018674e+003, 3.670863e+004
4.020602e+003, 3.672324e+004
4.022531e+003, 3.672697e+004
4.024459e+003, 3.672908e+004
4.026388e+003, 3.676328e+004
4.028316e+003, 3.679867e+004
4.030245e+003, 3.682121e+004
4.032173e+003, 3.684418e+004
4.034102e+003, 3.685450e+004
4.036030e+003, 3.681096e+004
4.037958e+003, 3.675834e+004
4.039887e+003, 3.671136e+004
4.041815e+003, 3.672701e+004
4.043744e+003, 3.678344e+004
4.045672e+003, 3.680163e+004
4.047601e+003, 3.680168e+004
4.049529e+003, 3.678945e+004
4.051458e+003, 3.675976e+004
4.053386e+003, 3.672904e+004
4.055315e+003, 3.679495e+004
4.057243e+003, 3.685643e+004
4.059172e+003, 3.685032e+004
4.061100e+003, 3.685495e+004
4.063029e+003, 3.687098e+004
4.064957e+003, 3.686481e+004
4.066885e+003, 3.687436e+004
4.068814e+003, 3.692279e+004
4.070742e+003, 3.694941e+004
4.072671e+003, 3.695368e+004
4.074599e+003, 3.697727e+004
4.076528e+003, 3.695966e+004
4.078456e+003, 3.685935e+004
4.080385e+003, 3.684572e+004
4.082313e+003, 3.689848e+004
4.084242e+003, 3.689634e+004
4.086170e+003, 3.688150e+004
4.088099e+003, 3.686809e+004
4.090027e+003, 3.685663e+004
4.091956e+003, 3.685265e+004
4.093884e+003, 3.688680e+004
4.095813e+003, 3.692238e+004
4.097741e+003, 3.694632e+004
4.099669e+003, 3.695898e+004
4.101598e+003, 3.695937e+004
4.103526e+003, 3.693741e+004
4.105455e+003, 3.691793e+004
4.107383e+003, 3.690613e+004
4.109312e+003, 3.695193e+004
4.111240e+003, 3.701863e+004
4.113169e+003, 3.701744e+004
4.115097e+003, 3.702321e+004
4.117026e+003, 3.706274e+004
4.118954e+003, 3.706754e+004
4.120883e+003, 3.706108e+004
4.122811e+003, 3.710279e+004
4.124740e+003, 3.711161e+004
4.126668e+003, 3.704712e+004
4.128597e+003, 3.706947e+004
4.130525e+003, 3.713174e+004
4.132454e+003, 3.718940e+004
4.134382e+003, 3.720248e+004
4.136311e+003, 3.716263e+004
4.138239e+003, 3.716648e+004
4.140167e+003, 3.719638e+004
4.142096e+003, 3.725449e+004
4.144024e+003, 3.726123e+004
4.145953e+003, 3.721712e+004
4.147881e+003, 3.718683e+004
4.149810e+003, 3.718711e+004
4.151738e+003, 3.724073e+004
4.153667e+003, 3.727133e+004
4.155595e+003, 3.727032e+004
4.157523e+003, 3.721518e+004
4.159452e+003, 3.717193e+004
4.161380e+003, 3.717959e+004
4.163309e+003, 3.719515e+004
4.165237e+003, 3.721549e+004
4.167166e+003, 3.724889e+004
4.169094e+003, 3.727262e+004
4.171023e+003, 3.726932e+004
4.172951e+003, 3.729744e+004
4.174880e+003, 3.733762e+004
4.176808e+003, 3.735960e+004
4.178737e+003, 3.736812e+004
4.180665e+003, 3.736673e+004
4.182594e+003, 3.731569e+004
4.184522e+003, 3.726681e+004
4.186451e+003, 3.728165e+004
4.188379e+003, 3.732237e+004
4.190308e+003, 3.737699e+004
4.192236e+003, 3.740138e+004
4.194165e+003, 3.741024e+004
4.196093e+003, 3.741385e+004
4.198021e+003, 3.741007e+004
4.199950e+003, 3.740065e+004
4.201878e+003, 3.739103e+004
4.203807e+003, 3.738351e+004
4.205735e+003, 3.738210e+004
4.207664e+003, 3.735869e+004
4.209592e+003, 3.733986e+004
4.211521e+003, 3.737532e+004
4.213449e+003, 3.742092e+004
4.215377e+003, 3.746055e+004
4.217306e+003, 3.750526e+004
4.219234e+003, 3.752976e+004
4.221163e+003, 3.750701e+004
4.223091e+003, 3.748988e+004
4.225020e+003, 3.748951e+004
4.226948e+003, 3.748268e+004
4.228877e+003, 3.748830e+004
4.230805e+003, 3.751279e+004
4.232734e+003, 3.756051e+004
4.234662e+003, 3.761630e+004
4.236591e+003, 3.764401e+004
4.238519e+003, 3.767619e+004
4.240448e+003, 3.772252e+004
4.242376e+003, 3.770454e+004
##END=



