##NAMES=Reyerite
##RRUFFID=R060749
##IDEAL CHEMISTRY=Na_2_Ca_14_Al_2_Si_22_O_58_(OH)_8_·6H_2_O
##LOCALITY=Drynoch, Island of Skye, Scotland
##OWNER=RRUFF
##SOURCE=Michael Scott
##DESCRIPTION=Radiating aggregates of colorless thin hexagonal plates.
##STATUS=The identification of this mineral has been confirmed by single-crystal X-ray diffraction
##URL=https://www.rruff.net/odr/rruff_sample/R060749
##DIFFRACTION SAMPLE DESCRIPTION=Single crystal, powder profile is calculated
##CELL PARAMETERS=a: 9.756 b: 9.756 c: 19.04 alpha: 90 beta: 90 gamma: 120 volume: 1569 crystal system: hexagonal
##FILETYPE=Raman RAW
##RAMAN WAVELENGTH=780

7.084375e+001, 8.687886e+002
7.277222e+001, 8.242773e+002
7.470068e+001, 8.216719e+002
7.662915e+001, 8.747286e+002
7.855762e+001, 9.326671e+002
8.048608e+001, 9.839341e+002
8.241455e+001, 1.037786e+003
8.434302e+001, 1.101243e+003
8.627148e+001, 1.174173e+003
8.819995e+001, 1.249064e+003
9.012842e+001, 1.325454e+003
9.205688e+001, 1.404443e+003
9.398535e+001, 1.494617e+003
9.591382e+001, 1.491746e+003
9.784229e+001, 1.392194e+003
9.977075e+001, 1.307208e+003
1.016992e+002, 1.233707e+003
1.036277e+002, 1.164629e+003
1.055562e+002, 1.113169e+003
1.074846e+002, 1.087147e+003
1.094131e+002, 1.068181e+003
1.113416e+002, 1.048550e+003
1.132700e+002, 1.026284e+003
1.151985e+002, 9.916120e+002
1.171270e+002, 9.382697e+002
1.190554e+002, 8.925814e+002
1.209839e+002, 8.623297e+002
1.229124e+002, 8.401722e+002
1.248408e+002, 8.223553e+002
1.267693e+002, 8.089779e+002
1.286978e+002, 8.008639e+002
1.306262e+002, 7.984313e+002
1.325547e+002, 7.976673e+002
1.344832e+002, 7.979428e+002
1.364116e+002, 7.988568e+002
1.383401e+002, 8.008544e+002
1.402686e+002, 8.033046e+002
1.421970e+002, 8.049390e+002
1.441255e+002, 8.062809e+002
1.460540e+002, 8.037571e+002
1.479824e+002, 7.953821e+002
1.499109e+002, 7.841334e+002
1.518394e+002, 7.677670e+002
1.537678e+002, 7.504274e+002
1.556963e+002, 7.406172e+002
1.576248e+002, 7.386471e+002
1.595532e+002, 7.380814e+002
1.614817e+002, 7.383712e+002
1.634102e+002, 7.391116e+002
1.653386e+002, 7.428094e+002
1.672671e+002, 7.453983e+002
1.691956e+002, 7.417249e+002
1.711240e+002, 7.320714e+002
1.730525e+002, 7.182391e+002
1.749810e+002, 6.953878e+002
1.769094e+002, 6.748743e+002
1.788379e+002, 6.574896e+002
1.807664e+002, 6.444025e+002
1.826948e+002, 6.370543e+002
1.846233e+002, 6.348111e+002
1.865518e+002, 6.359950e+002
1.884802e+002, 6.412650e+002
1.904087e+002, 6.489790e+002
1.923372e+002, 6.578436e+002
1.942656e+002, 6.700377e+002
1.961941e+002, 6.897520e+002
1.981226e+002, 7.132059e+002
2.000510e+002, 7.333364e+002
2.019795e+002, 7.501046e+002
2.039080e+002, 7.625997e+002
2.058364e+002, 7.740533e+002
2.077649e+002, 7.779239e+002
2.096934e+002, 7.701940e+002
2.116218e+002, 7.539848e+002
2.135503e+002, 7.317429e+002
2.154788e+002, 7.027533e+002
2.174072e+002, 6.740286e+002
2.193357e+002, 6.458828e+002
2.212642e+002, 6.173052e+002
2.231926e+002, 5.839592e+002
2.251211e+002, 5.547451e+002
2.270496e+002, 5.354758e+002
2.289780e+002, 5.247555e+002
2.309065e+002, 5.170272e+002
2.328350e+002, 5.117055e+002
2.347634e+002, 5.117243e+002
2.366919e+002, 5.189632e+002
2.386204e+002, 5.288383e+002
2.405488e+002, 5.401985e+002
2.424773e+002, 5.523051e+002
2.444058e+002, 5.642083e+002
2.463342e+002, 5.758397e+002
2.482627e+002, 5.890226e+002
2.501912e+002, 6.046882e+002
2.521196e+002, 6.187394e+002
2.540481e+002, 6.278198e+002
2.559766e+002, 6.377119e+002
2.579050e+002, 6.517501e+002
2.598335e+002, 6.691166e+002
2.617620e+002, 6.874635e+002
2.636904e+002, 7.066072e+002
2.656189e+002, 7.290741e+002
2.675474e+002, 7.541461e+002
2.694758e+002, 7.848636e+002
2.714043e+002, 8.230885e+002
2.733328e+002, 8.665428e+002
2.752612e+002, 9.178351e+002
2.771897e+002, 9.735908e+002
2.791182e+002, 1.020937e+003
2.810466e+002, 1.061890e+003
2.829751e+002, 1.080400e+003
2.849036e+002, 1.069158e+003
2.868320e+002, 1.039028e+003
2.887605e+002, 9.817904e+002
2.906890e+002, 9.175494e+002
2.926174e+002, 8.699933e+002
2.945459e+002, 8.369916e+002
2.964744e+002, 8.075060e+002
2.984028e+002, 7.822274e+002
3.003313e+002, 7.553698e+002
3.022598e+002, 7.231170e+002
3.041882e+002, 6.918284e+002
3.061167e+002, 6.623068e+002
3.080452e+002, 6.360266e+002
3.099736e+002, 6.163990e+002
3.119021e+002, 6.020978e+002
3.138306e+002, 5.883082e+002
3.157590e+002, 5.748026e+002
3.176875e+002, 5.614877e+002
3.196160e+002, 5.460124e+002
3.215445e+002, 5.335433e+002
3.234729e+002, 5.283796e+002
3.254014e+002, 5.265841e+002
3.273299e+002, 5.217969e+002
3.292583e+002, 5.150605e+002
3.311868e+002, 5.128059e+002
3.331153e+002, 5.148213e+002
3.350437e+002, 5.235690e+002
3.369722e+002, 5.411733e+002
3.389007e+002, 5.625720e+002
3.408291e+002, 5.869170e+002
3.427576e+002, 6.129567e+002
3.446861e+002, 6.390880e+002
3.466145e+002, 6.654926e+002
3.485430e+002, 6.939429e+002
3.504715e+002, 7.308064e+002
3.523999e+002, 7.563478e+002
3.543284e+002, 7.733321e+002
3.562569e+002, 7.746754e+002
3.581853e+002, 7.515276e+002
3.601138e+002, 7.154296e+002
3.620423e+002, 6.736045e+002
3.639707e+002, 6.279758e+002
3.658992e+002, 5.908333e+002
3.678277e+002, 5.645944e+002
3.697561e+002, 5.422634e+002
3.716846e+002, 5.232769e+002
3.736131e+002, 5.089955e+002
3.755415e+002, 5.024343e+002
3.774700e+002, 4.983133e+002
3.793985e+002, 4.927466e+002
3.813269e+002, 4.864249e+002
3.832554e+002, 4.811068e+002
3.851839e+002, 4.766354e+002
3.871123e+002, 4.739357e+002
3.890408e+002, 4.722188e+002
3.909693e+002, 4.741249e+002
3.928977e+002, 4.826552e+002
3.948262e+002, 4.918146e+002
3.967547e+002, 4.990108e+002
3.986831e+002, 5.043033e+002
4.006116e+002, 5.085711e+002
4.025401e+002, 5.115765e+002
4.044685e+002, 5.086280e+002
4.063970e+002, 4.996940e+002
4.083255e+002, 4.861463e+002
4.102539e+002, 4.648554e+002
4.121824e+002, 4.458183e+002
4.141109e+002, 4.339581e+002
4.160393e+002, 4.253491e+002
4.179678e+002, 4.167458e+002
4.198963e+002, 4.092157e+002
4.218247e+002, 4.063625e+002
4.237532e+002, 4.080445e+002
4.256817e+002, 4.095019e+002
4.276101e+002, 4.100906e+002
4.295386e+002, 4.117867e+002
4.314671e+002, 4.159257e+002
4.333955e+002, 4.202741e+002
4.353240e+002, 4.231050e+002
4.372525e+002, 4.263188e+002
4.391809e+002, 4.324908e+002
4.411094e+002, 4.408860e+002
4.430379e+002, 4.481046e+002
4.449663e+002, 4.541614e+002
4.468948e+002, 4.636790e+002
4.488233e+002, 4.793928e+002
4.507517e+002, 4.934567e+002
4.526802e+002, 5.061439e+002
4.546087e+002, 5.141977e+002
4.565371e+002, 5.137652e+002
4.584656e+002, 5.093326e+002
4.603941e+002, 5.066506e+002
4.623225e+002, 5.045716e+002
4.642510e+002, 4.991568e+002
4.661795e+002, 4.899164e+002
4.681079e+002, 4.829901e+002
4.700364e+002, 4.805695e+002
4.719649e+002, 4.780990e+002
4.738933e+002, 4.756559e+002
4.758218e+002, 4.719898e+002
4.777503e+002, 4.658070e+002
4.796787e+002, 4.585923e+002
4.816072e+002, 4.508388e+002
4.835357e+002, 4.436579e+002
4.854641e+002, 4.397611e+002
4.873926e+002, 4.391909e+002
4.893211e+002, 4.424893e+002
4.912495e+002, 4.539938e+002
4.931780e+002, 4.626483e+002
4.951065e+002, 4.670536e+002
4.970349e+002, 4.692549e+002
4.989634e+002, 4.711595e+002
5.008919e+002, 4.701528e+002
5.028203e+002, 4.651564e+002
5.047488e+002, 4.554247e+002
5.066773e+002, 4.376122e+002
5.086057e+002, 4.109144e+002
5.105342e+002, 3.875681e+002
5.124626e+002, 3.671826e+002
5.143911e+002, 3.514735e+002
5.163196e+002, 3.428017e+002
5.182480e+002, 3.346955e+002
5.201765e+002, 3.238928e+002
5.221050e+002, 3.146415e+002
5.240334e+002, 3.105528e+002
5.259619e+002, 3.088651e+002
5.278904e+002, 3.061039e+002
5.298188e+002, 3.027143e+002
5.317473e+002, 3.012431e+002
5.336758e+002, 3.021289e+002
5.356042e+002, 3.027323e+002
5.375327e+002, 3.023981e+002
5.394612e+002, 3.040661e+002
5.413896e+002, 3.086885e+002
5.433181e+002, 3.147423e+002
5.452466e+002, 3.208361e+002
5.471750e+002, 3.289266e+002
5.491035e+002, 3.390199e+002
5.510320e+002, 3.527313e+002
5.529604e+002, 3.717389e+002
5.548889e+002, 3.964934e+002
5.568174e+002, 4.286517e+002
5.587458e+002, 4.672604e+002
5.606743e+002, 5.247604e+002
5.626028e+002, 6.028324e+002
5.645313e+002, 6.985609e+002
5.664598e+002, 8.259225e+002
5.683882e+002, 9.447916e+002
5.703167e+002, 1.064718e+003
5.722452e+002, 1.144344e+003
5.741736e+002, 1.149984e+003
5.761021e+002, 1.100970e+003
5.780306e+002, 1.006497e+003
5.799590e+002, 8.822289e+002
5.818875e+002, 7.858890e+002
5.838160e+002, 7.171013e+002
5.857444e+002, 6.734670e+002
5.876729e+002, 6.555465e+002
5.896014e+002, 6.597084e+002
5.915298e+002, 6.898054e+002
5.934583e+002, 7.351754e+002
5.953868e+002, 8.002237e+002
5.973152e+002, 8.702518e+002
5.992437e+002, 9.488986e+002
6.011722e+002, 1.018579e+003
6.031006e+002, 1.064091e+003
6.050291e+002, 1.084615e+003
6.069576e+002, 1.075858e+003
6.088860e+002, 1.042611e+003
6.108145e+002, 1.009087e+003
6.127430e+002, 9.774310e+002
6.146714e+002, 9.369762e+002
6.165999e+002, 8.843264e+002
6.185284e+002, 8.275157e+002
6.204568e+002, 7.621749e+002
6.223853e+002, 7.010592e+002
6.243138e+002, 6.462190e+002
6.262422e+002, 5.987650e+002
6.281707e+002, 5.594672e+002
6.300992e+002, 5.279018e+002
6.320276e+002, 5.070451e+002
6.339561e+002, 4.916833e+002
6.358846e+002, 4.719788e+002
6.378130e+002, 4.482685e+002
6.397415e+002, 4.251414e+002
6.416700e+002, 4.022260e+002
6.435984e+002, 3.814446e+002
6.455269e+002, 3.617677e+002
6.474554e+002, 3.461324e+002
6.493839e+002, 3.360469e+002
6.513123e+002, 3.277409e+002
6.532408e+002, 3.205825e+002
6.551693e+002, 3.143907e+002
6.570977e+002, 3.102276e+002
6.590262e+002, 3.057410e+002
6.609547e+002, 2.985647e+002
6.628831e+002, 2.902780e+002
6.648116e+002, 2.830170e+002
6.667401e+002, 2.766982e+002
6.686685e+002, 2.710697e+002
6.705970e+002, 2.661301e+002
6.725255e+002, 2.613932e+002
6.744539e+002, 2.564393e+002
6.763824e+002, 2.541986e+002
6.783109e+002, 2.560069e+002
6.802393e+002, 2.559622e+002
6.821678e+002, 2.514482e+002
6.840963e+002, 2.483250e+002
6.860247e+002, 2.493622e+002
6.879532e+002, 2.516255e+002
6.898817e+002, 2.535339e+002
6.918101e+002, 2.561131e+002
6.937386e+002, 2.601874e+002
6.956671e+002, 2.654242e+002
6.975955e+002, 2.720917e+002
6.995240e+002, 2.793712e+002
7.014525e+002, 2.856803e+002
7.033809e+002, 2.905940e+002
7.053094e+002, 2.909799e+002
7.072379e+002, 2.868716e+002
7.091663e+002, 2.808643e+002
7.110948e+002, 2.730147e+002
7.130233e+002, 2.641696e+002
7.149517e+002, 2.534240e+002
7.168802e+002, 2.447286e+002
7.188087e+002, 2.399758e+002
7.207371e+002, 2.362197e+002
7.226656e+002, 2.324904e+002
7.245941e+002, 2.296859e+002
7.265225e+002, 2.291451e+002
7.284510e+002, 2.288333e+002
7.303795e+002, 2.266398e+002
7.323079e+002, 2.238853e+002
7.342364e+002, 2.223208e+002
7.361649e+002, 2.215554e+002
7.380933e+002, 2.207683e+002
7.400218e+002, 2.200226e+002
7.419503e+002, 2.196606e+002
7.438787e+002, 2.196526e+002
7.458072e+002, 2.192833e+002
7.477357e+002, 2.184041e+002
7.496641e+002, 2.179056e+002
7.515926e+002, 2.177478e+002
7.535211e+002, 2.183278e+002
7.554495e+002, 2.192978e+002
7.573780e+002, 2.216317e+002
7.593065e+002, 2.264487e+002
7.612349e+002, 2.312171e+002
7.631634e+002, 2.342683e+002
7.650919e+002, 2.380782e+002
7.670203e+002, 2.445086e+002
7.689488e+002, 2.516263e+002
7.708773e+002, 2.595026e+002
7.728057e+002, 2.657663e+002
7.747342e+002, 2.682663e+002
7.766627e+002, 2.674782e+002
7.785911e+002, 2.632222e+002
7.805196e+002, 2.565627e+002
7.824481e+002, 2.510553e+002
7.843765e+002, 2.465710e+002
7.863050e+002, 2.411624e+002
7.882335e+002, 2.346995e+002
7.901619e+002, 2.283589e+002
7.920904e+002, 2.216683e+002
7.940189e+002, 2.168514e+002
7.959473e+002, 2.142887e+002
7.978758e+002, 2.122897e+002
7.998043e+002, 2.108236e+002
8.017327e+002, 2.095147e+002
8.036612e+002, 2.082771e+002
8.055897e+002, 2.072507e+002
8.075181e+002, 2.065043e+002
8.094466e+002, 2.059664e+002
8.113751e+002, 2.059109e+002
8.133035e+002, 2.055792e+002
8.152320e+002, 2.039196e+002
8.171605e+002, 2.025923e+002
8.190889e+002, 2.036114e+002
8.210174e+002, 2.046923e+002
8.229459e+002, 2.026285e+002
8.248743e+002, 1.998737e+002
8.268028e+002, 2.005356e+002
8.287313e+002, 2.029292e+002
8.306597e+002, 2.034116e+002
8.325882e+002, 2.025562e+002
8.345167e+002, 2.024571e+002
8.364451e+002, 2.028300e+002
8.383736e+002, 2.016668e+002
8.403021e+002, 1.992315e+002
8.422305e+002, 1.982023e+002
8.441590e+002, 1.986413e+002
8.460875e+002, 1.989617e+002
8.480159e+002, 1.990281e+002
8.499444e+002, 1.990632e+002
8.518729e+002, 1.990938e+002
8.538013e+002, 1.992187e+002
8.557298e+002, 1.997674e+002
8.576583e+002, 1.994340e+002
8.595867e+002, 1.972620e+002
8.615152e+002, 1.955727e+002
8.634437e+002, 1.948249e+002
8.653721e+002, 1.945719e+002
8.673006e+002, 1.955610e+002
8.692291e+002, 1.957381e+002
8.711575e+002, 1.931856e+002
8.730860e+002, 1.912527e+002
8.750145e+002, 1.919188e+002
8.769429e+002, 1.933641e+002
8.788714e+002, 1.954717e+002
8.807999e+002, 1.966412e+002
8.827283e+002, 1.943034e+002
8.846568e+002, 1.917362e+002
8.865853e+002, 1.927086e+002
8.885137e+002, 1.946737e+002
8.904422e+002, 1.948396e+002
8.923707e+002, 1.940690e+002
8.942991e+002, 1.931016e+002
8.962276e+002, 1.922740e+002
8.981561e+002, 1.922556e+002
9.000845e+002, 1.928514e+002
9.020130e+002, 1.937513e+002
9.039415e+002, 1.947859e+002
9.058699e+002, 1.949853e+002
9.077984e+002, 1.946072e+002
9.097269e+002, 1.956507e+002
9.116553e+002, 1.980255e+002
9.135838e+002, 1.995743e+002
9.155123e+002, 2.002594e+002
9.174407e+002, 2.008984e+002
9.193692e+002, 2.014224e+002
9.212977e+002, 2.024613e+002
9.232261e+002, 2.041950e+002
9.251546e+002, 2.053654e+002
9.270831e+002, 2.059376e+002
9.290115e+002, 2.059936e+002
9.309400e+002, 2.053988e+002
9.328685e+002, 2.051261e+002
9.347969e+002, 2.053181e+002
9.367254e+002, 2.056010e+002
9.386539e+002, 2.059672e+002
9.405823e+002, 2.063071e+002
9.425108e+002, 2.066588e+002
9.444393e+002, 2.066787e+002
9.463677e+002, 2.061132e+002
9.482962e+002, 2.059193e+002
9.502247e+002, 2.063273e+002
9.521531e+002, 2.071565e+002
9.540816e+002, 2.087324e+002
9.560101e+002, 2.096159e+002
9.579385e+002, 2.087030e+002
9.598670e+002, 2.086679e+002
9.617955e+002, 2.110972e+002
9.637239e+002, 2.130517e+002
9.656524e+002, 2.134417e+002
9.675809e+002, 2.134688e+002
9.695093e+002, 2.130650e+002
9.714378e+002, 2.130112e+002
9.733663e+002, 2.139224e+002
9.752947e+002, 2.147065e+002
9.772232e+002, 2.142704e+002
9.791517e+002, 2.145895e+002
9.810801e+002, 2.173080e+002
9.830086e+002, 2.198976e+002
9.849371e+002, 2.206264e+002
9.868655e+002, 2.215839e+002
9.887940e+002, 2.238305e+002
9.907225e+002, 2.267425e+002
9.926509e+002, 2.304934e+002
9.945794e+002, 2.340881e+002
9.965079e+002, 2.364162e+002
9.984363e+002, 2.390671e+002
1.000365e+003, 2.423951e+002
1.002293e+003, 2.473015e+002
1.004222e+003, 2.548217e+002
1.006150e+003, 2.635645e+002
1.008079e+003, 2.724701e+002
1.010007e+003, 2.822606e+002
1.011936e+003, 2.924570e+002
1.013864e+003, 3.049910e+002
1.015793e+003, 3.226452e+002
1.017721e+003, 3.415060e+002
1.019649e+003, 3.599002e+002
1.021578e+003, 3.767976e+002
1.023506e+003, 3.913520e+002
1.025435e+003, 4.042238e+002
1.027363e+003, 4.168078e+002
1.029292e+003, 4.266794e+002
1.031220e+003, 4.299284e+002
1.033149e+003, 4.324190e+002
1.035077e+003, 4.392005e+002
1.037006e+003, 4.461520e+002
1.038934e+003, 4.499531e+002
1.040863e+003, 4.531052e+002
1.042791e+003, 4.565614e+002
1.044719e+003, 4.611614e+002
1.046648e+003, 4.661171e+002
1.048576e+003, 4.742046e+002
1.050505e+003, 4.906705e+002
1.052433e+003, 5.066365e+002
1.054362e+003, 5.211040e+002
1.056290e+003, 5.265383e+002
1.058219e+003, 5.173409e+002
1.060147e+003, 4.983518e+002
1.062076e+003, 4.689966e+002
1.064004e+003, 4.357361e+002
1.065933e+003, 3.994149e+002
1.067861e+003, 3.646137e+002
1.069790e+003, 3.318022e+002
1.071718e+003, 3.043740e+002
1.073647e+003, 2.867564e+002
1.075575e+003, 2.713505e+002
1.077504e+003, 2.534471e+002
1.079432e+003, 2.379007e+002
1.081360e+003, 2.276016e+002
1.083289e+003, 2.193682e+002
1.085217e+003, 2.117934e+002
1.087146e+003, 2.059822e+002
1.089074e+003, 2.033564e+002
1.091003e+003, 2.010464e+002
1.092931e+003, 1.970432e+002
1.094860e+003, 1.947069e+002
1.096788e+003, 1.970949e+002
1.098717e+003, 1.980367e+002
1.100645e+003, 1.944000e+002
1.102574e+003, 1.914295e+002
1.104502e+003, 1.904588e+002
1.106431e+003, 1.902107e+002
1.108359e+003, 1.907973e+002
1.110287e+003, 1.914432e+002
1.112216e+003, 1.916578e+002
1.114144e+003, 1.926021e+002
1.116073e+003, 1.953535e+002
1.118001e+003, 1.970019e+002
1.119930e+003, 1.967046e+002
1.121858e+003, 1.965054e+002
1.123787e+003, 1.962698e+002
1.125715e+003, 1.968469e+002
1.127644e+003, 1.995598e+002
1.129572e+003, 1.994298e+002
1.131501e+003, 1.948330e+002
1.133429e+003, 1.923151e+002
1.135358e+003, 1.926929e+002
1.137286e+003, 1.920022e+002
1.139214e+003, 1.898804e+002
1.141143e+003, 1.894363e+002
1.143071e+003, 1.909497e+002
1.145000e+003, 1.894818e+002
1.146928e+003, 1.851144e+002
1.148857e+003, 1.844417e+002
1.150785e+003, 1.870392e+002
1.152714e+003, 1.890954e+002
1.154642e+003, 1.904718e+002
1.156571e+003, 1.900798e+002
1.158499e+003, 1.885365e+002
1.160428e+003, 1.881904e+002
1.162356e+003, 1.882560e+002
1.164285e+003, 1.863431e+002
1.166213e+003, 1.837575e+002
1.168141e+003, 1.832307e+002
1.170070e+003, 1.833479e+002
1.171998e+003, 1.821853e+002
1.173927e+003, 1.802669e+002
1.175855e+003, 1.777818e+002
1.177784e+003, 1.753520e+002
1.179712e+003, 1.735836e+002
1.181641e+003, 1.720952e+002
1.183569e+003, 1.705776e+002
1.185498e+003, 1.693150e+002
1.187426e+003, 1.684534e+002
1.189355e+003, 1.679291e+002
1.191283e+003, 1.680473e+002
1.193212e+003, 1.679201e+002
1.195140e+003, 1.671022e+002
1.197068e+003, 1.663487e+002
1.198997e+003, 1.658195e+002
1.200925e+003, 1.655064e+002
1.202854e+003, 1.655843e+002
1.204782e+003, 1.652419e+002
1.206711e+003, 1.642140e+002
1.208639e+003, 1.636699e+002
1.210568e+003, 1.637421e+002
1.212496e+003, 1.643204e+002
1.214425e+003, 1.653791e+002
1.216353e+003, 1.670422e+002
1.218282e+003, 1.690410e+002
1.220210e+003, 1.684194e+002
1.222139e+003, 1.657349e+002
1.224067e+003, 1.640739e+002
1.225995e+003, 1.633865e+002
1.227924e+003, 1.636211e+002
1.229852e+003, 1.642221e+002
1.231781e+003, 1.638433e+002
1.233709e+003, 1.633069e+002
1.235638e+003, 1.639929e+002
1.237566e+003, 1.649153e+002
1.239495e+003, 1.652826e+002
1.241423e+003, 1.650784e+002
1.243352e+003, 1.636016e+002
1.245280e+003, 1.625808e+002
1.247209e+003, 1.637458e+002
1.249137e+003, 1.644236e+002
1.251066e+003, 1.631379e+002
1.252994e+003, 1.617325e+002
1.254922e+003, 1.604679e+002
1.256851e+003, 1.599242e+002
1.258779e+003, 1.605288e+002
1.260708e+003, 1.609052e+002
1.262636e+003, 1.609075e+002
1.264565e+003, 1.605516e+002
1.266493e+003, 1.596372e+002
1.268422e+003, 1.603220e+002
1.270350e+003, 1.625355e+002
1.272279e+003, 1.628342e+002
1.274207e+003, 1.616172e+002
1.276136e+003, 1.609427e+002
1.278064e+003, 1.606393e+002
1.279993e+003, 1.602580e+002
1.281921e+003, 1.599736e+002
1.283849e+003, 1.602890e+002
1.285778e+003, 1.606352e+002
1.287706e+003, 1.602343e+002
1.289635e+003, 1.598749e+002
1.291563e+003, 1.600888e+002
1.293492e+003, 1.605964e+002
1.295420e+003, 1.614897e+002
1.297349e+003, 1.622093e+002
1.299277e+003, 1.627107e+002
1.301206e+003, 1.624176e+002
1.303134e+003, 1.608891e+002
1.305063e+003, 1.606821e+002
1.306991e+003, 1.622132e+002
1.308920e+003, 1.622624e+002
1.310848e+003, 1.608503e+002
1.312776e+003, 1.618508e+002
1.314705e+003, 1.645448e+002
1.316633e+003, 1.647240e+002
1.318562e+003, 1.633614e+002
1.320490e+003, 1.622763e+002
1.322419e+003, 1.619258e+002
1.324347e+003, 1.640103e+002
1.326276e+003, 1.658616e+002
1.328204e+003, 1.642817e+002
1.330133e+003, 1.623984e+002
1.332061e+003, 1.619025e+002
1.333990e+003, 1.621378e+002
1.335918e+003, 1.632383e+002
1.337847e+003, 1.643039e+002
1.339775e+003, 1.654383e+002
1.341703e+003, 1.657337e+002
1.343632e+003, 1.646483e+002
1.345560e+003, 1.651143e+002
1.347489e+003, 1.672388e+002
1.349417e+003, 1.684255e+002
1.351346e+003, 1.688021e+002
1.353274e+003, 1.689809e+002
1.355203e+003, 1.691609e+002
1.357131e+003, 1.697014e+002
1.359060e+003, 1.705602e+002
1.360988e+003, 1.716134e+002
1.362917e+003, 1.730454e+002
1.364845e+003, 1.754489e+002
1.366774e+003, 1.772704e+002
1.368702e+003, 1.775350e+002
1.370630e+003, 1.778229e+002
1.372559e+003, 1.787118e+002
1.374487e+003, 1.790476e+002
1.376416e+003, 1.785460e+002
1.378344e+003, 1.784351e+002
1.380273e+003, 1.787505e+002
1.382201e+003, 1.783993e+002
1.384130e+003, 1.775316e+002
1.386058e+003, 1.763852e+002
1.387987e+003, 1.755307e+002
1.389915e+003, 1.764666e+002
1.391844e+003, 1.777408e+002
1.393772e+003, 1.777823e+002
1.395701e+003, 1.777506e+002
1.397629e+003, 1.787090e+002
1.399557e+003, 1.787184e+002
1.401486e+003, 1.769207e+002
1.403414e+003, 1.753135e+002
1.405343e+003, 1.741823e+002
1.407271e+003, 1.746817e+002
1.409200e+003, 1.766948e+002
1.411128e+003, 1.772468e+002
1.413057e+003, 1.766516e+002
1.414985e+003, 1.765476e+002
1.416914e+003, 1.767014e+002
1.418842e+003, 1.766924e+002
1.420771e+003, 1.767486e+002
1.422699e+003, 1.777840e+002
1.424628e+003, 1.778695e+002
1.426556e+003, 1.743912e+002
1.428484e+003, 1.727710e+002
1.430413e+003, 1.752165e+002
1.432341e+003, 1.767621e+002
1.434270e+003, 1.769581e+002
1.436198e+003, 1.763741e+002
1.438127e+003, 1.751802e+002
1.440055e+003, 1.741419e+002
1.441984e+003, 1.734315e+002
1.443912e+003, 1.735149e+002
1.445841e+003, 1.739983e+002
1.447769e+003, 1.748011e+002
1.449698e+003, 1.752671e+002
1.451626e+003, 1.744695e+002
1.453555e+003, 1.741105e+002
1.455483e+003, 1.756114e+002
1.457411e+003, 1.756662e+002
1.459340e+003, 1.731056e+002
1.461268e+003, 1.725466e+002
1.463197e+003, 1.738543e+002
1.465125e+003, 1.723000e+002
1.467054e+003, 1.692462e+002
1.468982e+003, 1.682119e+002
1.470911e+003, 1.683896e+002
1.472839e+003, 1.695882e+002
1.474768e+003, 1.702841e+002
1.476696e+003, 1.693659e+002
1.478625e+003, 1.684096e+002
1.480553e+003, 1.678977e+002
1.482482e+003, 1.673706e+002
1.484410e+003, 1.667566e+002
1.486339e+003, 1.662144e+002
1.488267e+003, 1.657729e+002
1.490195e+003, 1.658823e+002
1.492124e+003, 1.658796e+002
1.494052e+003, 1.635247e+002
1.495981e+003, 1.615785e+002
1.497909e+003, 1.638780e+002
1.499838e+003, 1.650706e+002
1.501766e+003, 1.623569e+002
1.503695e+003, 1.613747e+002
1.505623e+003, 1.634240e+002
1.507552e+003, 1.637568e+002
1.509480e+003, 1.622076e+002
1.511409e+003, 1.612375e+002
1.513337e+003, 1.610108e+002
1.515266e+003, 1.627596e+002
1.517194e+003, 1.641773e+002
1.519122e+003, 1.618702e+002
1.521051e+003, 1.595309e+002
1.522979e+003, 1.590823e+002
1.524908e+003, 1.593729e+002
1.526836e+003, 1.605802e+002
1.528765e+003, 1.601168e+002
1.530693e+003, 1.580721e+002
1.532622e+003, 1.578615e+002
1.534550e+003, 1.586358e+002
1.536479e+003, 1.577800e+002
1.538407e+003, 1.566975e+002
1.540336e+003, 1.569455e+002
1.542264e+003, 1.574487e+002
1.544193e+003, 1.580443e+002
1.546121e+003, 1.578147e+002
1.548049e+003, 1.558428e+002
1.549978e+003, 1.558406e+002
1.551906e+003, 1.577295e+002
1.553835e+003, 1.580389e+002
1.555763e+003, 1.573473e+002
1.557692e+003, 1.569738e+002
1.559620e+003, 1.564546e+002
1.561549e+003, 1.545509e+002
1.563477e+003, 1.542995e+002
1.565406e+003, 1.584209e+002
1.567334e+003, 1.596720e+002
1.569263e+003, 1.557160e+002
1.571191e+003, 1.557013e+002
1.573120e+003, 1.585862e+002
1.575048e+003, 1.582881e+002
1.576976e+003, 1.565672e+002
1.578905e+003, 1.560925e+002
1.580833e+003, 1.555419e+002
1.582762e+003, 1.538285e+002
1.584690e+003, 1.531275e+002
1.586619e+003, 1.542782e+002
1.588547e+003, 1.542115e+002
1.590476e+003, 1.527301e+002
1.592404e+003, 1.525133e+002
1.594333e+003, 1.531902e+002
1.596261e+003, 1.546617e+002
1.598190e+003, 1.555319e+002
1.600118e+003, 1.536348e+002
1.602047e+003, 1.524893e+002
1.603975e+003, 1.532480e+002
1.605903e+003, 1.543509e+002
1.607832e+003, 1.554955e+002
1.609760e+003, 1.544744e+002
1.611689e+003, 1.522677e+002
1.613617e+003, 1.517851e+002
1.615546e+003, 1.519262e+002
1.617474e+003, 1.512946e+002
1.619403e+003, 1.512826e+002
1.621331e+003, 1.531418e+002
1.623260e+003, 1.534426e+002
1.625188e+003, 1.518459e+002
1.627117e+003, 1.520321e+002
1.629045e+003, 1.530642e+002
1.630974e+003, 1.509656e+002
1.632902e+003, 1.485466e+002
1.634830e+003, 1.490399e+002
1.636759e+003, 1.499250e+002
1.638687e+003, 1.502500e+002
1.640616e+003, 1.503250e+002
1.642544e+003, 1.501996e+002
1.644473e+003, 1.493147e+002
1.646401e+003, 1.479957e+002
1.648330e+003, 1.475048e+002
1.650258e+003, 1.469972e+002
1.652187e+003, 1.452811e+002
1.654115e+003, 1.441062e+002
1.656044e+003, 1.445324e+002
1.657972e+003, 1.446418e+002
1.659901e+003, 1.442869e+002
1.661829e+003, 1.438055e+002
1.663757e+003, 1.431172e+002
1.665686e+003, 1.412659e+002
1.667614e+003, 1.402603e+002
1.669543e+003, 1.419690e+002
1.671471e+003, 1.437284e+002
1.673400e+003, 1.447764e+002
1.675328e+003, 1.455781e+002
1.677257e+003, 1.460854e+002
1.679185e+003, 1.449607e+002
1.681114e+003, 1.430752e+002
1.683042e+003, 1.413924e+002
1.684971e+003, 1.405801e+002
1.686899e+003, 1.412897e+002
1.688828e+003, 1.416003e+002
1.690756e+003, 1.411333e+002
1.692684e+003, 1.400351e+002
1.694613e+003, 1.387617e+002
1.696541e+003, 1.391873e+002
1.698470e+003, 1.397577e+002
1.700398e+003, 1.383697e+002
1.702327e+003, 1.374831e+002
1.704255e+003, 1.380151e+002
1.706184e+003, 1.376618e+002
1.708112e+003, 1.364196e+002
1.710041e+003, 1.366803e+002
1.711969e+003, 1.372148e+002
1.713898e+003, 1.355060e+002
1.715826e+003, 1.338358e+002
1.717755e+003, 1.336797e+002
1.719683e+003, 1.339399e+002
1.721611e+003, 1.345208e+002
1.723540e+003, 1.333697e+002
1.725468e+003, 1.317459e+002
1.727397e+003, 1.344261e+002
1.729325e+003, 1.364606e+002
1.731254e+003, 1.320236e+002
1.733182e+003, 1.289703e+002
1.735111e+003, 1.297363e+002
1.737039e+003, 1.307632e+002
1.738968e+003, 1.318520e+002
1.740896e+003, 1.325581e+002
1.742825e+003, 1.326794e+002
1.744753e+003, 1.317225e+002
1.746682e+003, 1.307383e+002
1.748610e+003, 1.298255e+002
1.750538e+003, 1.304641e+002
1.752467e+003, 1.323719e+002
1.754395e+003, 1.296545e+002
1.756324e+003, 1.261558e+002
1.758252e+003, 1.285074e+002
1.760181e+003, 1.298172e+002
1.762109e+003, 1.262346e+002
1.764038e+003, 1.254608e+002
1.765966e+003, 1.282889e+002
1.767895e+003, 1.288876e+002
1.769823e+003, 1.281667e+002
1.771752e+003, 1.276934e+002
1.773680e+003, 1.265140e+002
1.775609e+003, 1.237098e+002
1.777537e+003, 1.231780e+002
1.779465e+003, 1.252995e+002
1.781394e+003, 1.241757e+002
1.783322e+003, 1.217034e+002
1.785251e+003, 1.213351e+002
1.787179e+003, 1.215540e+002
1.789108e+003, 1.217465e+002
1.791036e+003, 1.216402e+002
1.792965e+003, 1.212078e+002
1.794893e+003, 1.205955e+002
1.796822e+003, 1.201263e+002
1.798750e+003, 1.207608e+002
1.800679e+003, 1.210419e+002
1.802607e+003, 1.202454e+002
1.804536e+003, 1.188709e+002
1.806464e+003, 1.171055e+002
1.808392e+003, 1.159810e+002
1.810321e+003, 1.155498e+002
1.812249e+003, 1.161048e+002
1.814178e+003, 1.168654e+002
1.816106e+003, 1.174772e+002
1.818035e+003, 1.183365e+002
1.819963e+003, 1.192913e+002
1.821892e+003, 1.186358e+002
1.823820e+003, 1.176482e+002
1.825749e+003, 1.183885e+002
1.827677e+003, 1.183713e+002
1.829606e+003, 1.157797e+002
1.831534e+003, 1.145157e+002
1.833463e+003, 1.144990e+002
1.835391e+003, 1.156076e+002
1.837319e+003, 1.167473e+002
1.839248e+003, 1.174189e+002
1.841176e+003, 1.165498e+002
1.843105e+003, 1.129915e+002
1.845033e+003, 1.124895e+002
1.846962e+003, 1.138321e+002
1.848890e+003, 1.132413e+002
1.850819e+003, 1.127635e+002
1.852747e+003, 1.139703e+002
1.854676e+003, 1.141646e+002
1.856604e+003, 1.128018e+002
1.858533e+003, 1.107232e+002
1.860461e+003, 1.089680e+002
1.862390e+003, 1.105780e+002
1.864318e+003, 1.106201e+002
1.866246e+003, 1.066255e+002
1.868175e+003, 1.063668e+002
1.870103e+003, 1.096341e+002
1.872032e+003, 1.109073e+002
1.873960e+003, 1.108035e+002
1.875889e+003, 1.091741e+002
1.877817e+003, 1.081960e+002
1.879746e+003, 1.082866e+002
1.881674e+003, 1.081608e+002
1.883603e+003, 1.078668e+002
1.885531e+003, 1.075003e+002
1.887460e+003, 1.075076e+002
1.889388e+003, 1.085665e+002
1.891317e+003, 1.079044e+002
1.893245e+003, 1.057801e+002
1.895173e+003, 1.061017e+002
1.897102e+003, 1.067089e+002
1.899030e+003, 1.043965e+002
1.900959e+003, 1.032832e+002
1.902887e+003, 1.044173e+002
1.904816e+003, 1.046245e+002
1.906744e+003, 1.045051e+002
1.908673e+003, 1.064461e+002
1.910601e+003, 1.073836e+002
1.912530e+003, 1.042261e+002
1.914458e+003, 1.030541e+002
1.916387e+003, 1.039065e+002
1.918315e+003, 1.046982e+002
1.920244e+003, 1.048542e+002
1.922172e+003, 1.034707e+002
1.924100e+003, 1.022814e+002
1.926029e+003, 1.017482e+002
1.927957e+003, 1.007733e+002
1.929886e+003, 9.987450e+001
1.931814e+003, 1.003460e+002
1.933743e+003, 1.005284e+002
1.935671e+003, 9.955320e+001
1.937600e+003, 9.929281e+001
1.939528e+003, 9.963199e+001
1.941457e+003, 9.990092e+001
1.943385e+003, 9.991935e+001
1.945314e+003, 9.956137e+001
1.947242e+003, 9.895464e+001
1.949171e+003, 9.821701e+001
1.951099e+003, 9.843541e+001
1.953027e+003, 9.913461e+001
1.954956e+003, 9.988454e+001
1.956884e+003, 1.009783e+002
1.958813e+003, 1.024080e+002
1.960741e+003, 9.907689e+001
1.962670e+003, 9.433866e+001
1.964598e+003, 9.468388e+001
1.966527e+003, 9.525240e+001
1.968455e+003, 9.443291e+001
1.970384e+003, 9.416154e+001
1.972312e+003, 9.436064e+001
1.974241e+003, 9.432237e+001
1.976169e+003, 9.458702e+001
1.978098e+003, 9.580691e+001
1.980026e+003, 9.564583e+001
1.981954e+003, 9.432589e+001
1.983883e+003, 9.339017e+001
1.985811e+003, 9.259811e+001
1.987740e+003, 9.147615e+001
1.989668e+003, 9.126982e+001
1.991597e+003, 9.189922e+001
1.993525e+003, 9.196743e+001
1.995454e+003, 9.177063e+001
1.997382e+003, 9.192354e+001
1.999311e+003, 9.093698e+001
2.001239e+003, 8.865630e+001
2.003168e+003, 8.847739e+001
2.005096e+003, 8.900653e+001
2.007025e+003, 8.863844e+001
2.008953e+003, 8.822614e+001
2.010881e+003, 8.800381e+001
2.012810e+003, 8.706626e+001
2.014738e+003, 8.623820e+001
2.016667e+003, 8.683360e+001
2.018595e+003, 8.761292e+001
2.020524e+003, 8.826246e+001
2.022452e+003, 8.833913e+001
2.024381e+003, 8.798724e+001
2.026309e+003, 8.770125e+001
2.028238e+003, 8.624397e+001
2.030166e+003, 8.299556e+001
2.032095e+003, 8.276038e+001
2.034023e+003, 8.406983e+001
2.035952e+003, 8.365479e+001
2.037880e+003, 8.346701e+001
2.039808e+003, 8.414652e+001
2.041737e+003, 8.439013e+001
2.043665e+003, 8.393325e+001
2.045594e+003, 8.146449e+001
2.047522e+003, 8.022180e+001
2.049451e+003, 8.129945e+001
2.051379e+003, 8.085865e+001
2.053308e+003, 7.983138e+001
2.055236e+003, 8.083934e+001
2.057165e+003, 8.181111e+001
2.059093e+003, 8.217395e+001
2.061022e+003, 7.992388e+001
2.062950e+003, 7.711777e+001
2.064879e+003, 7.827319e+001
2.066807e+003, 7.920730e+001
2.068736e+003, 7.857005e+001
2.070664e+003, 7.776466e+001
2.072593e+003, 7.697948e+001
2.074521e+003, 7.633176e+001
2.076449e+003, 7.596657e+001
2.078378e+003, 7.596676e+001
2.080306e+003, 7.562498e+001
2.082235e+003, 7.529129e+001
2.084163e+003, 7.587491e+001
2.086092e+003, 7.556993e+001
2.088020e+003, 7.369885e+001
2.089949e+003, 7.385503e+001
2.091877e+003, 7.467868e+001
2.093806e+003, 7.487315e+001
2.095734e+003, 7.395832e+001
2.097663e+003, 7.187724e+001
2.099591e+003, 7.274830e+001
2.101520e+003, 7.406828e+001
2.103448e+003, 7.342635e+001
2.105376e+003, 7.296510e+001
2.107305e+003, 7.291528e+001
2.109233e+003, 7.118592e+001
2.111162e+003, 7.026064e+001
2.113090e+003, 7.233465e+001
2.115019e+003, 7.196758e+001
2.116947e+003, 6.952841e+001
2.118876e+003, 7.005044e+001
2.120804e+003, 7.062917e+001
2.122733e+003, 6.967463e+001
2.124661e+003, 6.986201e+001
2.126590e+003, 7.060362e+001
2.128518e+003, 6.948010e+001
2.130447e+003, 6.847765e+001
2.132375e+003, 6.827696e+001
2.134303e+003, 6.865575e+001
2.136232e+003, 6.904897e+001
2.138160e+003, 6.849442e+001
2.140089e+003, 6.779802e+001
2.142017e+003, 6.715434e+001
2.143946e+003, 6.662289e+001
2.145874e+003, 6.625451e+001
2.147803e+003, 6.619608e+001
2.149731e+003, 6.611399e+001
2.151660e+003, 6.597813e+001
2.153588e+003, 6.592160e+001
2.155517e+003, 6.578167e+001
2.157445e+003, 6.517216e+001
2.159374e+003, 6.559984e+001
2.161302e+003, 6.637313e+001
2.163230e+003, 6.519652e+001
2.165159e+003, 6.400359e+001
2.167087e+003, 6.359472e+001
2.169016e+003, 6.363609e+001
2.170944e+003, 6.390013e+001
2.172873e+003, 6.417770e+001
2.174801e+003, 6.408404e+001
2.176730e+003, 6.356383e+001
2.178658e+003, 6.342126e+001
2.180587e+003, 6.333562e+001
2.182515e+003, 6.312606e+001
2.184444e+003, 6.250409e+001
2.186372e+003, 6.165395e+001
2.188301e+003, 6.118467e+001
2.190229e+003, 6.102849e+001
2.192157e+003, 6.119944e+001
2.194086e+003, 6.058662e+001
2.196014e+003, 5.997329e+001
2.197943e+003, 6.106719e+001
2.199871e+003, 6.110115e+001
2.201800e+003, 5.975588e+001
2.203728e+003, 5.932053e+001
2.205657e+003, 5.881870e+001
2.207585e+003, 5.724500e+001
2.209514e+003, 5.850738e+001
2.211442e+003, 6.117263e+001
2.213371e+003, 6.068353e+001
2.215299e+003, 5.986685e+001
2.217228e+003, 5.956338e+001
2.219156e+003, 5.944650e+001
2.221084e+003, 5.921039e+001
2.223013e+003, 5.845673e+001
2.224941e+003, 5.758773e+001
2.226870e+003, 5.689985e+001
2.228798e+003, 5.749404e+001
2.230727e+003, 5.799855e+001
2.232655e+003, 5.765705e+001
2.234584e+003, 5.827987e+001
2.236512e+003, 5.879692e+001
2.238441e+003, 5.744423e+001
2.240369e+003, 5.602560e+001
2.242298e+003, 5.490170e+001
2.244226e+003, 5.489716e+001
2.246155e+003, 5.487864e+001
2.248083e+003, 5.380024e+001
2.250011e+003, 5.496815e+001
2.251940e+003, 5.656840e+001
2.253868e+003, 5.510350e+001
2.255797e+003, 5.450540e+001
2.257725e+003, 5.546148e+001
2.259654e+003, 5.620161e+001
2.261582e+003, 5.640184e+001
2.263511e+003, 5.587211e+001
2.265439e+003, 5.437840e+001
2.267368e+003, 5.316761e+001
2.269296e+003, 5.520488e+001
2.271225e+003, 5.603611e+001
2.273153e+003, 5.485292e+001
2.275082e+003, 5.292739e+001
2.277010e+003, 5.207717e+001
2.278938e+003, 5.332318e+001
2.280867e+003, 5.313551e+001
2.282795e+003, 5.241665e+001
2.284724e+003, 5.332285e+001
2.286652e+003, 5.385534e+001
2.288581e+003, 5.356583e+001
2.290509e+003, 5.171687e+001
2.292438e+003, 4.991551e+001
2.294366e+003, 4.883132e+001
2.296295e+003, 5.057342e+001
2.298223e+003, 5.263792e+001
2.300152e+003, 5.148287e+001
2.302080e+003, 4.929909e+001
2.304009e+003, 4.720175e+001
2.305937e+003, 4.835434e+001
2.307865e+003, 4.954990e+001
2.309794e+003, 4.953912e+001
2.311722e+003, 5.044992e+001
2.313651e+003, 5.105882e+001
2.315579e+003, 4.952213e+001
2.317508e+003, 4.981557e+001
2.319436e+003, 5.067889e+001
2.321365e+003, 4.723409e+001
2.323293e+003, 4.687893e+001
2.325222e+003, 5.103915e+001
2.327150e+003, 5.016102e+001
2.329079e+003, 4.877655e+001
2.331007e+003, 4.976283e+001
2.332936e+003, 4.968448e+001
2.334864e+003, 4.891635e+001
2.336792e+003, 4.797359e+001
2.338721e+003, 4.762949e+001
2.340649e+003, 4.786000e+001
2.342578e+003, 4.870583e+001
2.344506e+003, 4.818558e+001
2.346435e+003, 4.583268e+001
2.348363e+003, 4.694688e+001
2.350292e+003, 4.837823e+001
2.352220e+003, 4.797363e+001
2.354149e+003, 4.611758e+001
2.356077e+003, 4.426146e+001
2.358006e+003, 4.528403e+001
2.359934e+003, 4.517562e+001
2.361863e+003, 4.394622e+001
2.363791e+003, 4.355679e+001
2.365719e+003, 4.487740e+001
2.367648e+003, 4.774498e+001
2.369576e+003, 4.675789e+001
2.371505e+003, 4.487946e+001
2.373433e+003, 4.437378e+001
2.375362e+003, 4.275082e+001
2.377290e+003, 4.190354e+001
2.379219e+003, 4.647219e+001
2.381147e+003, 4.672919e+001
2.383076e+003, 4.376123e+001
2.385004e+003, 4.472203e+001
2.386933e+003, 4.508491e+001
2.388861e+003, 4.369347e+001
2.390790e+003, 4.298113e+001
2.392718e+003, 4.295975e+001
2.394646e+003, 4.418715e+001
2.396575e+003, 4.318116e+001
2.398503e+003, 4.178475e+001
2.400432e+003, 4.197898e+001
2.402360e+003, 4.158056e+001
2.404289e+003, 4.109378e+001
2.406217e+003, 4.204369e+001
2.408146e+003, 4.295514e+001
2.410074e+003, 4.339024e+001
2.412003e+003, 4.217000e+001
2.413931e+003, 4.170798e+001
2.415860e+003, 4.272606e+001
2.417788e+003, 4.196257e+001
2.419717e+003, 4.116030e+001
2.421645e+003, 4.129140e+001
2.423573e+003, 4.145753e+001
2.425502e+003, 4.117986e+001
2.427430e+003, 3.984373e+001
2.429359e+003, 3.957465e+001
2.431287e+003, 4.015363e+001
2.433216e+003, 4.156107e+001
2.435144e+003, 4.068629e+001
2.437073e+003, 3.842010e+001
2.439001e+003, 3.956738e+001
2.440930e+003, 3.952866e+001
2.442858e+003, 3.777042e+001
2.444787e+003, 3.849854e+001
2.446715e+003, 3.893409e+001
2.448644e+003, 3.792928e+001
2.450572e+003, 3.860106e+001
2.452500e+003, 3.932822e+001
2.454429e+003, 3.866674e+001
2.456357e+003, 3.943513e+001
2.458286e+003, 4.011728e+001
2.460214e+003, 3.858294e+001
2.462143e+003, 3.745953e+001
2.464071e+003, 3.711797e+001
2.466000e+003, 3.834649e+001
2.467928e+003, 3.788565e+001
2.469857e+003, 3.641096e+001
2.471785e+003, 3.705759e+001
2.473714e+003, 3.698985e+001
2.475642e+003, 3.600248e+001
2.477571e+003, 3.694623e+001
2.479499e+003, 3.675990e+001
2.481427e+003, 3.473797e+001
2.483356e+003, 3.537510e+001
2.485284e+003, 3.613643e+001
2.487213e+003, 3.590181e+001
2.489141e+003, 3.650944e+001
2.491070e+003, 3.628934e+001
2.492998e+003, 3.429385e+001
2.494927e+003, 3.443239e+001
2.496855e+003, 3.537485e+001
2.498784e+003, 3.593467e+001
2.500712e+003, 3.572778e+001
2.502641e+003, 3.498481e+001
2.504569e+003, 3.350576e+001
2.506498e+003, 3.450859e+001
2.508426e+003, 3.653782e+001
2.510354e+003, 3.708009e+001
2.512283e+003, 3.564398e+001
2.514211e+003, 3.360006e+001
2.516140e+003, 3.405958e+001
2.518068e+003, 3.502593e+001
2.519997e+003, 3.555745e+001
2.521925e+003, 3.364099e+001
2.523854e+003, 3.286896e+001
2.525782e+003, 3.330841e+001
2.527711e+003, 3.207392e+001
2.529639e+003, 3.175216e+001
2.531568e+003, 3.272634e+001
2.533496e+003, 3.325303e+001
2.535425e+003, 3.350289e+001
2.537353e+003, 3.354715e+001
2.539281e+003, 3.384181e+001
2.541210e+003, 3.314851e+001
2.543138e+003, 3.101856e+001
2.545067e+003, 3.181437e+001
2.546995e+003, 3.305307e+001
2.548924e+003, 3.352959e+001
2.550852e+003, 3.448436e+001
2.552781e+003, 3.478464e+001
2.554709e+003, 3.386679e+001
2.556638e+003, 3.515044e+001
2.558566e+003, 3.640062e+001
2.560495e+003, 3.630083e+001
2.562423e+003, 3.579976e+001
2.564352e+003, 3.593398e+001
2.566280e+003, 3.725797e+001
2.568208e+003, 3.440281e+001
2.570137e+003, 3.174196e+001
2.572065e+003, 3.250751e+001
2.573994e+003, 3.260091e+001
2.575922e+003, 3.276427e+001
2.577851e+003, 3.388728e+001
2.579779e+003, 3.351525e+001
2.581708e+003, 3.224840e+001
2.583636e+003, 3.042625e+001
2.585565e+003, 3.025897e+001
2.587493e+003, 3.083747e+001
2.589422e+003, 3.162694e+001
2.591350e+003, 2.987181e+001
2.593279e+003, 2.814085e+001
2.595207e+003, 2.980643e+001
2.597135e+003, 2.878283e+001
2.599064e+003, 2.787091e+001
2.600992e+003, 3.095713e+001
2.602921e+003, 3.030288e+001
2.604849e+003, 2.876029e+001
2.606778e+003, 2.940056e+001
2.608706e+003, 2.766039e+001
2.610635e+003, 2.626685e+001
2.612563e+003, 2.785363e+001
2.614492e+003, 2.800803e+001
2.616420e+003, 2.801769e+001
2.618349e+003, 2.911079e+001
2.620277e+003, 2.889365e+001
2.622206e+003, 2.798641e+001
2.624134e+003, 2.692265e+001
2.626063e+003, 2.838307e+001
2.627991e+003, 2.942075e+001
2.629919e+003, 2.820214e+001
2.631848e+003, 2.922635e+001
2.633776e+003, 2.930591e+001
2.635705e+003, 2.675922e+001
2.637633e+003, 2.748371e+001
2.639562e+003, 2.834650e+001
2.641490e+003, 2.768450e+001
2.643419e+003, 2.715399e+001
2.645347e+003, 2.686564e+001
2.647276e+003, 2.686528e+001
2.649204e+003, 2.828507e+001
2.651133e+003, 2.836512e+001
2.653061e+003, 2.649108e+001
2.654990e+003, 2.601734e+001
2.656918e+003, 2.631977e+001
2.658846e+003, 2.689810e+001
2.660775e+003, 2.621770e+001
2.662703e+003, 2.589952e+001
2.664632e+003, 2.616139e+001
2.666560e+003, 2.599548e+001
2.668489e+003, 2.523014e+001
2.670417e+003, 2.419704e+001
2.672346e+003, 2.410727e+001
2.674274e+003, 2.415830e+001
2.676203e+003, 2.373561e+001
2.678131e+003, 2.108270e+001
2.680060e+003, 2.170982e+001
2.681988e+003, 2.431314e+001
2.683917e+003, 2.570695e+001
2.685845e+003, 2.651179e+001
2.687773e+003, 2.619796e+001
2.689702e+003, 2.376705e+001
2.691630e+003, 2.250704e+001
2.693559e+003, 2.283146e+001
2.695487e+003, 2.490201e+001
2.697416e+003, 2.311235e+001
2.699344e+003, 2.185507e+001
2.701273e+003, 2.405835e+001
2.703201e+003, 2.475905e+001
2.705130e+003, 2.405243e+001
2.707058e+003, 2.253176e+001
2.708987e+003, 2.324977e+001
2.710915e+003, 2.442364e+001
2.712844e+003, 2.523569e+001
2.714772e+003, 2.548913e+001
2.716700e+003, 2.446499e+001
2.718629e+003, 2.285824e+001
2.720557e+003, 2.356269e+001
2.722486e+003, 2.305809e+001
2.724414e+003, 2.177729e+001
2.726343e+003, 2.180310e+001
2.728271e+003, 2.254424e+001
2.730200e+003, 2.306555e+001
2.732128e+003, 2.198305e+001
2.734057e+003, 2.179371e+001
2.735985e+003, 2.174619e+001
2.737914e+003, 2.090628e+001
2.739842e+003, 2.104706e+001
2.741771e+003, 2.141601e+001
2.743699e+003, 2.155469e+001
2.745627e+003, 2.211709e+001
2.747556e+003, 2.232600e+001
2.749484e+003, 2.192545e+001
2.751413e+003, 2.108505e+001
2.753341e+003, 1.994830e+001
2.755270e+003, 1.923577e+001
2.757198e+003, 2.123566e+001
2.759127e+003, 2.264850e+001
2.761055e+003, 2.259956e+001
2.762984e+003, 2.012014e+001
2.764912e+003, 2.055433e+001
2.766841e+003, 2.140663e+001
2.768769e+003, 2.038273e+001
2.770698e+003, 2.135614e+001
2.772626e+003, 2.199999e+001
2.774554e+003, 2.132267e+001
2.776483e+003, 2.119450e+001
2.778411e+003, 2.053608e+001
2.780340e+003, 1.957500e+001
2.782268e+003, 2.042236e+001
2.784197e+003, 2.005259e+001
2.786125e+003, 1.929866e+001
2.788054e+003, 2.105762e+001
2.789982e+003, 2.107542e+001
2.791911e+003, 1.965719e+001
2.793839e+003, 1.668645e+001
2.795768e+003, 1.722007e+001
2.797696e+003, 1.846170e+001
2.799625e+003, 1.891701e+001
2.801553e+003, 1.966437e+001
2.803481e+003, 1.923353e+001
2.805410e+003, 1.810601e+001
2.807338e+003, 1.952623e+001
2.809267e+003, 1.944202e+001
2.811195e+003, 1.836557e+001
2.813124e+003, 1.778729e+001
2.815052e+003, 1.722709e+001
2.816981e+003, 1.726135e+001
2.818909e+003, 1.820459e+001
2.820838e+003, 1.902842e+001
2.822766e+003, 1.917598e+001
2.824695e+003, 1.859112e+001
2.826623e+003, 1.764988e+001
2.828552e+003, 1.816155e+001
2.830480e+003, 1.880599e+001
2.832408e+003, 1.564257e+001
2.834337e+003, 1.681095e+001
2.836265e+003, 1.859202e+001
2.838194e+003, 1.745921e+001
2.840122e+003, 1.699082e+001
2.842051e+003, 1.700203e+001
2.843979e+003, 1.723618e+001
2.845908e+003, 1.710362e+001
2.847836e+003, 1.812859e+001
2.849765e+003, 1.920947e+001
2.851693e+003, 1.739836e+001
2.853622e+003, 1.764181e+001
2.855550e+003, 1.862287e+001
2.857479e+003, 1.887150e+001
2.859407e+003, 1.941350e+001
2.861335e+003, 2.005042e+001
2.863264e+003, 2.024306e+001
2.865192e+003, 1.716706e+001
2.867121e+003, 1.722743e+001
2.869049e+003, 1.882325e+001
2.870978e+003, 1.841511e+001
2.872906e+003, 1.719262e+001
2.874835e+003, 1.573700e+001
2.876763e+003, 1.451884e+001
2.878692e+003, 1.624507e+001
2.880620e+003, 1.689611e+001
2.882549e+003, 1.616501e+001
2.884477e+003, 1.638555e+001
2.886406e+003, 1.693280e+001
2.888334e+003, 1.701679e+001
2.890262e+003, 1.602227e+001
2.892191e+003, 1.363631e+001
2.894119e+003, 1.289507e+001
2.896048e+003, 1.419879e+001
2.897976e+003, 1.490646e+001
2.899905e+003, 1.474139e+001
2.901833e+003, 1.464639e+001
2.903762e+003, 1.630657e+001
2.905690e+003, 1.602005e+001
2.907619e+003, 1.539074e+001
2.909547e+003, 1.517629e+001
2.911476e+003, 1.325949e+001
2.913404e+003, 1.470400e+001
2.915333e+003, 1.718385e+001
2.917261e+003, 1.425654e+001
2.919189e+003, 1.423570e+001
2.921118e+003, 1.587638e+001
2.923046e+003, 1.786442e+001
2.924975e+003, 1.631707e+001
2.926903e+003, 1.556919e+001
2.928832e+003, 1.589316e+001
2.930760e+003, 1.564966e+001
2.932689e+003, 1.579953e+001
2.934617e+003, 1.547417e+001
2.936546e+003, 1.427076e+001
2.938474e+003, 1.598814e+001
2.940403e+003, 1.592838e+001
2.942331e+003, 1.431442e+001
2.944260e+003, 1.436491e+001
2.946188e+003, 1.521059e+001
2.948116e+003, 1.554180e+001
2.950045e+003, 1.475774e+001
2.951973e+003, 1.394492e+001
2.953902e+003, 1.367703e+001
2.955830e+003, 1.404384e+001
2.957759e+003, 1.527722e+001
2.959687e+003, 1.521857e+001
2.961616e+003, 1.482116e+001
2.963544e+003, 1.457907e+001
2.965473e+003, 1.241001e+001
2.967401e+003, 1.307059e+001
2.969330e+003, 1.508406e+001
2.971258e+003, 1.448619e+001
2.973187e+003, 1.242127e+001
2.975115e+003, 1.155733e+001
2.977043e+003, 1.274336e+001
2.978972e+003, 1.234955e+001
2.980900e+003, 1.238762e+001
2.982829e+003, 1.254352e+001
2.984757e+003, 1.197913e+001
2.986686e+003, 1.297090e+001
2.988614e+003, 1.369850e+001
2.990543e+003, 1.352278e+001
2.992471e+003, 1.274575e+001
2.994400e+003, 1.351793e+001
2.996328e+003, 1.405105e+001
2.998257e+003, 1.302352e+001
3.000185e+003, 1.333860e+001
3.002114e+003, 1.378430e+001
3.004042e+003, 1.398449e+001
3.005970e+003, 1.402522e+001
3.007899e+003, 1.237196e+001
3.009827e+003, 1.202262e+001
3.011756e+003, 1.372364e+001
3.013684e+003, 1.446818e+001
3.015613e+003, 1.376130e+001
3.017541e+003, 1.263911e+001
3.019470e+003, 1.221990e+001
3.021398e+003, 1.374391e+001
3.023327e+003, 1.332401e+001
3.025255e+003, 1.126983e+001
3.027184e+003, 1.062857e+001
3.029112e+003, 1.049383e+001
3.031041e+003, 1.045338e+001
3.032969e+003, 1.034897e+001
3.034897e+003, 1.059965e+001
3.036826e+003, 1.039827e+001
3.038754e+003, 9.953043e+000
3.040683e+003, 9.590184e+000
3.042611e+003, 9.620824e+000
3.044540e+003, 1.119494e+001
3.046468e+003, 1.300737e+001
3.048397e+003, 1.202994e+001
3.050325e+003, 9.260023e+000
3.052254e+003, 9.692172e+000
3.054182e+003, 1.347786e+001
3.056111e+003, 9.866179e+000
3.058039e+003, 1.059778e+001
3.059968e+003, 1.198640e+001
3.061896e+003, 1.062489e+001
3.063824e+003, 1.118446e+001
3.065753e+003, 1.299847e+001
3.067681e+003, 1.382732e+001
3.069610e+003, 1.116558e+001
3.071538e+003, 1.165551e+001
3.073467e+003, 1.167818e+001
3.075395e+003, 1.086533e+001
3.077324e+003, 1.174813e+001
3.079252e+003, 1.110954e+001
3.081181e+003, 1.051115e+001
3.083109e+003, 1.050859e+001
3.085038e+003, 9.583352e+000
3.086966e+003, 9.602680e+000
3.088895e+003, 1.009047e+001
3.090823e+003, 1.041527e+001
3.092751e+003, 9.215109e+000
3.094680e+003, 9.096045e+000
3.096608e+003, 9.591466e+000
3.098537e+003, 9.734358e+000
3.100465e+003, 1.053224e+001
3.102394e+003, 1.080330e+001
3.104322e+003, 1.043657e+001
3.106251e+003, 9.737755e+000
3.108179e+003, 9.763689e+000
3.110108e+003, 1.008720e+001
3.112036e+003, 1.039187e+001
3.113965e+003, 1.044939e+001
3.115893e+003, 9.813025e+000
3.117822e+003, 9.916142e+000
3.119750e+003, 1.079929e+001
3.121678e+003, 1.083731e+001
3.123607e+003, 1.023047e+001
3.125535e+003, 1.034967e+001
3.127464e+003, 1.138677e+001
3.129392e+003, 1.180901e+001
3.131321e+003, 1.140058e+001
3.133249e+003, 1.105801e+001
3.135178e+003, 1.124679e+001
3.137106e+003, 1.159302e+001
3.139035e+003, 1.044785e+001
3.140963e+003, 9.543554e+000
3.142892e+003, 1.013258e+001
3.144820e+003, 9.302084e+000
3.146749e+003, 8.932187e+000
3.148677e+003, 9.604816e+000
3.150605e+003, 1.131043e+001
3.152534e+003, 9.610510e+000
3.154462e+003, 9.174457e+000
3.156391e+003, 9.573537e+000
3.158319e+003, 9.631651e+000
3.160248e+003, 1.036382e+001
3.162176e+003, 1.070315e+001
3.164105e+003, 1.061449e+001
3.166033e+003, 1.025338e+001
3.167962e+003, 8.882221e+000
3.169890e+003, 8.878262e+000
3.171819e+003, 9.485198e+000
3.173747e+003, 9.429121e+000
3.175676e+003, 8.972773e+000
3.177604e+003, 9.081438e+000
3.179532e+003, 8.902517e+000
3.181461e+003, 7.724786e+000
3.183389e+003, 9.999838e+000
3.185318e+003, 9.371414e+000
3.187246e+003, 7.956685e+000
3.189175e+003, 9.039546e+000
3.191103e+003, 8.481807e+000
3.193032e+003, 9.294245e+000
3.194960e+003, 9.605235e+000
3.196889e+003, 7.251954e+000
3.198817e+003, 6.090724e+000
3.200746e+003, 8.605684e+000
3.202674e+003, 1.081617e+001
3.204603e+003, 9.412996e+000
3.206531e+003, 1.002531e+001
3.208459e+003, 8.791813e+000
3.210388e+003, 7.929198e+000
3.212316e+003, 9.235260e+000
3.214245e+003, 1.074829e+001
3.216173e+003, 8.202222e+000
3.218102e+003, 6.956847e+000
3.220030e+003, 9.233464e+000
3.221959e+003, 7.843802e+000
3.223887e+003, 8.584794e+000
3.225816e+003, 9.979383e+000
3.227744e+003, 1.045599e+001
3.229673e+003, 8.358480e+000
3.231601e+003, 9.105986e+000
3.233530e+003, 9.835039e+000
3.235458e+003, 9.465508e+000
3.237386e+003, 8.713011e+000
3.239315e+003, 8.519225e+000
3.241243e+003, 9.408147e+000
3.243172e+003, 1.032606e+001
3.245100e+003, 9.395578e+000
3.247029e+003, 7.674308e+000
3.248957e+003, 8.403602e+000
3.250886e+003, 9.650459e+000
3.252814e+003, 8.283539e+000
3.254743e+003, 5.695075e+000
3.256671e+003, 6.146119e+000
3.258600e+003, 7.939353e+000
3.260528e+003, 8.760396e+000
3.262457e+003, 6.830693e+000
3.264385e+003, 7.570096e+000
3.266313e+003, 7.791309e+000
3.268242e+003, 6.171994e+000
3.270170e+003, 6.059564e+000
3.272099e+003, 7.424299e+000
3.274027e+003, 8.184359e+000
3.275956e+003, 7.921642e+000
3.277884e+003, 7.556457e+000
3.279813e+003, 7.813652e+000
3.281741e+003, 7.567800e+000
3.283670e+003, 7.633531e+000
3.285598e+003, 9.003198e+000
3.287527e+003, 8.445874e+000
3.289455e+003, 9.066527e+000
3.291384e+003, 8.136642e+000
3.293312e+003, 5.267724e+000
3.295240e+003, 9.898169e+000
3.297169e+003, 1.009207e+001
3.299097e+003, 9.639857e+000
3.301026e+003, 9.941858e+000
3.302954e+003, 8.266001e+000
3.304883e+003, 8.113153e+000
3.306811e+003, 8.363953e+000
3.308740e+003, 8.509063e+000
3.310668e+003, 8.441166e+000
3.312597e+003, 8.776091e+000
3.314525e+003, 7.531091e+000
3.316454e+003, 6.995363e+000
3.318382e+003, 8.194098e+000
3.320311e+003, 8.719430e+000
3.322239e+003, 7.727094e+000
3.324167e+003, 6.826037e+000
3.326096e+003, 6.247607e+000
3.328024e+003, 5.521193e+000
3.329953e+003, 8.379463e+000
3.331881e+003, 9.707213e+000
3.333810e+003, 9.136855e+000
3.335738e+003, 8.047877e+000
3.337667e+003, 9.388674e+000
3.339595e+003, 7.080550e+000
3.341524e+003, 6.972903e+000
3.343452e+003, 9.117953e+000
3.345381e+003, 8.821765e+000
3.347309e+003, 8.831335e+000
3.349238e+003, 9.314271e+000
3.351166e+003, 9.353796e+000
3.353094e+003, 8.362663e+000
3.355023e+003, 7.190732e+000
3.356951e+003, 9.540898e+000
3.358880e+003, 9.767790e+000
3.360808e+003, 7.909945e+000
3.362737e+003, 8.720030e+000
3.364665e+003, 6.817433e+000
3.366594e+003, 6.009590e+000
3.368522e+003, 6.179530e+000
3.370451e+003, 6.493018e+000
3.372379e+003, 6.697984e+000
3.374308e+003, 6.534293e+000
3.376236e+003, 7.744105e+000
3.378165e+003, 9.024985e+000
3.380093e+003, 8.103518e+000
3.382021e+003, 7.468479e+000
3.383950e+003, 7.187990e+000
3.385878e+003, 8.483786e+000
3.387807e+003, 1.070380e+001
3.389735e+003, 1.072820e+001
3.391664e+003, 1.075433e+001
3.393592e+003, 8.621784e+000
3.395521e+003, 7.365250e+000
3.397449e+003, 9.276056e+000
3.399378e+003, 9.290584e+000
3.401306e+003, 8.712042e+000
3.403235e+003, 7.035925e+000
3.405163e+003, 6.346385e+000
3.407092e+003, 9.778154e+000
3.409020e+003, 8.203831e+000
3.410948e+003, 9.356840e+000
3.412877e+003, 9.982382e+000
3.414805e+003, 9.566981e+000
3.416734e+003, 1.256066e+001
3.418662e+003, 1.131130e+001
3.420591e+003, 9.989080e+000
3.422519e+003, 9.855221e+000
3.424448e+003, 1.003393e+001
3.426376e+003, 7.517751e+000
3.428305e+003, 9.837934e+000
3.430233e+003, 1.081646e+001
3.432162e+003, 9.176776e+000
3.434090e+003, 6.781665e+000
3.436019e+003, 7.458531e+000
3.437947e+003, 6.874709e+000
3.439875e+003, 7.261641e+000
3.441804e+003, 7.670146e+000
3.443732e+003, 6.303859e+000
3.445661e+003, 7.440957e+000
3.447589e+003, 7.752922e+000
3.449518e+003, 8.094226e+000
3.451446e+003, 8.518863e+000
##END=



