##NAMES=Reyerite
##RRUFFID=R060490
##IDEAL CHEMISTRY=Na_2_Ca_14_Al_2_Si_22_O_58_(OH)_8_·6H_2_O
##LOCALITY=Drynoch, Island of Skye, Scotland
##OWNER=RRUFF
##SOURCE=Michael Scott
##DESCRIPTION=Colorless deformed and contorted plates. The chemistry matched Henderson et al (1988)
##STATUS=The identification of this mineral is confirmed by single-crystal X-ray diffraction and chemical analysis
##URL=https://www.rruff.net/odr/rruff_sample/R060490
##MEASURED CHEMISTRY=(Ca_12.73_K_4.05_Na_0.49_)Al_2.00_Si_22.00_O_58_(OH)_8_·6H_2_O ; (OH) estimated by charge balance  H_2_O by difference
##DIFFRACTION SAMPLE DESCRIPTION=Single crystal, powder profile is calculated
##CELL PARAMETERS=a: 9.72 b: 9.72 c: 19.05 alpha: 90 beta: 90 gamma: 120 volume: 1560 crystal system: hexagonal
##FILETYPE=Raman RAW
##RAMAN WAVELENGTH=532

108.0420, 9203.313
109.9705, 9593.881
111.8989, 10000.95
113.8274, 10419.36
115.7559, 10781.98
117.6843, 11123.69
119.6128, 11452.59
121.5413, 11752.05
123.4697, 12020.77
125.3982, 12286.41
127.3267, 12544.70
129.2551, 12797.74
131.1836, 13062.73
133.1121, 13312.64
135.0405, 13569.18
136.9690, 13842.05
138.8975, 14130.11
140.8259, 14423.92
142.7544, 14724.99
144.6829, 15028.86
146.6113, 15318.40
148.5398, 15591.51
150.4683, 15847.68
152.3967, 16083.98
154.3252, 16271.46
156.2537, 16469.73
158.1821, 16694.83
160.1106, 16945.38
162.0391, 17212.35
163.9675, 17502.03
165.8960, 17802.63
167.8245, 18094.16
169.7529, 18385.79
171.6814, 18641.74
173.6099, 18844.83
175.5383, 18977.00
177.4668, 19078.45
179.3953, 19145.45
181.3237, 19183.18
183.2522, 19212.15
185.1807, 19233.66
187.1091, 19258.60
189.0376, 19294.71
190.9661, 19356.80
192.8945, 19426.60
194.8230, 19511.16
196.7515, 19607.98
198.6799, 19708.19
200.6084, 19822.34
202.5369, 19928.47
204.4653, 20014.18
206.3938, 20081.38
208.3223, 20118.80
210.2507, 20115.71
212.1792, 20077.46
214.1077, 20021.51
216.0361, 19934.15
217.9646, 19841.72
219.8931, 19758.13
221.8215, 19678.92
223.7500, 19619.54
225.6785, 19581.40
227.6069, 19564.36
229.5354, 19563.29
231.4639, 19569.08
233.3923, 19596.65
235.3208, 19653.78
237.2493, 19752.92
239.1777, 19863.77
241.1062, 19982.77
243.0347, 20112.07
244.9631, 20246.01
246.8916, 20386.83
248.8201, 20532.23
250.7485, 20679.32
252.6770, 20823.27
254.6055, 20972.60
256.5339, 21121.39
258.4624, 21272.64
260.3909, 21440.42
262.3193, 21634.39
264.2478, 21840.41
266.1763, 22050.07
268.1047, 22263.72
270.0332, 22480.85
271.9617, 22700.14
273.8901, 22922.88
275.8186, 23154.76
277.7471, 23423.26
279.6755, 23686.35
281.6040, 23926.43
283.5325, 24177.66
285.4609, 24338.25
287.3894, 24364.31
289.3179, 24278.09
291.2463, 24127.78
293.1748, 23844.50
295.1033, 23549.37
297.0317, 23317.55
298.9602, 23150.96
300.8887, 23000.69
302.8171, 22848.87
304.7456, 22699.38
306.6741, 22577.10
308.6025, 22486.11
310.5310, 22414.47
312.4595, 22361.21
314.3879, 22329.00
316.3164, 22296.12
318.2449, 22251.29
320.1733, 22202.75
322.1018, 22172.33
324.0303, 22167.78
325.9587, 22171.16
327.8872, 22168.81
329.8157, 22152.95
331.7441, 22179.68
333.6726, 22253.47
335.6011, 22370.00
337.5295, 22522.62
339.4580, 22718.50
341.3865, 22930.54
343.3149, 23149.15
345.2434, 23372.57
347.1719, 23594.55
349.1003, 23827.13
351.0288, 24048.53
352.9573, 24253.20
354.8857, 24470.64
356.8142, 24603.23
358.7427, 24631.04
360.6711, 24555.71
362.5996, 24429.06
364.5281, 24211.08
366.4565, 23978.80
368.3850, 23768.96
370.3135, 23576.68
372.2419, 23420.57
374.1704, 23307.25
376.0989, 23229.06
378.0273, 23159.86
379.9558, 23093.49
381.8843, 23043.97
383.8127, 23016.55
385.7412, 23012.22
387.6697, 23027.24
389.5981, 23067.17
391.5266, 23120.18
393.4551, 23168.47
395.3835, 23204.34
397.3120, 23244.60
399.2405, 23300.21
401.1689, 23372.09
403.0974, 23415.61
405.0259, 23428.61
406.9543, 23419.58
408.8828, 23390.29
410.8113, 23338.79
412.7397, 23293.38
414.6682, 23263.56
416.5967, 23247.71
418.5251, 23240.31
420.4536, 23237.15
422.3821, 23246.38
424.3105, 23270.90
426.2390, 23308.63
428.1675, 23361.06
430.0959, 23428.39
432.0244, 23507.38
433.9529, 23597.96
435.8813, 23704.81
437.8098, 23811.02
439.7383, 23910.09
441.6667, 24004.51
443.5952, 24104.02
445.5237, 24217.36
447.4521, 24328.45
449.3806, 24429.62
451.3091, 24519.56
453.2375, 24607.09
455.1660, 24692.21
457.0945, 24775.96
459.0229, 24859.51
460.9514, 24948.02
462.8799, 25031.06
464.8083, 25105.78
466.7368, 25172.79
468.6653, 25236.30
470.5938, 25296.78
472.5222, 25354.04
474.4507, 25410.97
476.3792, 25484.59
478.3076, 25528.11
480.2361, 25528.31
482.1646, 25504.21
484.0930, 25479.41
486.0215, 25443.54
487.9500, 25426.50
489.8784, 25435.26
491.8069, 25468.75
493.7354, 25509.54
495.6638, 25558.38
497.5923, 25610.32
499.5208, 25667.55
501.4492, 25733.71
503.3777, 25783.43
505.3062, 25808.39
507.2346, 25819.90
509.1631, 25830.84
511.0916, 25837.65
513.0200, 25853.88
514.9485, 25878.11
516.8770, 25913.40
518.8054, 25978.46
520.7339, 26077.26
522.6624, 26204.04
524.5908, 26355.59
526.5193, 26529.74
528.4478, 26739.48
530.3762, 27016.99
532.3047, 27309.85
534.2332, 27575.44
536.1616, 27829.15
538.0901, 28021.29
540.0186, 28137.28
541.9470, 28188.30
543.8755, 28209.03
545.8040, 28174.12
547.7324, 28162.53
549.6609, 28192.68
551.5894, 28260.63
553.5178, 28418.58
555.4463, 28680.08
557.3748, 29005.45
559.3032, 29370.39
561.2317, 29763.97
563.1602, 30209.65
565.0886, 30716.20
567.0171, 31272.77
568.9456, 31875.81
570.8740, 32738.99
572.8025, 33405.23
574.7310, 33824.05
576.6594, 33991.25
578.5879, 33923.25
580.5164, 33457.84
582.4448, 32959.54
584.3733, 32551.28
586.3018, 32238.48
588.2302, 32029.24
590.1587, 31933.97
592.0872, 31927.38
594.0156, 32006.77
595.9441, 32179.74
597.8726, 32360.21
599.8010, 32544.72
601.7295, 32720.88
603.6580, 32871.09
605.5864, 32986.23
607.5149, 33089.11
609.4434, 33182.51
611.3718, 33265.24
613.3003, 33337.95
615.2288, 33424.43
617.1572, 33466.94
619.0857, 33458.09
621.0142, 33395.11
622.9426, 33254.63
624.8711, 32986.08
626.7996, 32686.59
628.7280, 32391.57
630.6565, 32096.30
632.5850, 31843.98
634.5134, 31662.08
636.4419, 31508.99
638.3704, 31352.12
640.2988, 31187.19
642.2273, 31024.18
644.1558, 30858.05
646.0842, 30695.62
648.0127, 30546.27
649.9412, 30411.43
651.8696, 30289.21
653.7981, 30174.23
655.7266, 30072.56
657.6550, 30002.73
659.5835, 29977.12
661.5120, 29971.10
663.4404, 29985.60
665.3689, 30018.50
667.2974, 30050.90
669.2258, 30066.03
671.1543, 30092.00
673.0828, 30138.67
675.0112, 30205.16
676.9397, 30275.58
678.8682, 30348.97
680.7966, 30415.62
682.7251, 30469.16
684.6536, 30505.91
686.5820, 30537.74
688.5105, 30571.07
690.4390, 30603.25
692.3674, 30632.05
694.2959, 30660.91
696.2244, 30693.62
698.1528, 30731.51
700.0813, 30778.93
702.0098, 30842.17
703.9382, 30939.19
705.8667, 31022.31
707.7952, 31080.38
709.7236, 31117.82
711.6521, 31147.06
713.5806, 31160.77
715.5090, 31177.91
717.4375, 31203.56
719.3660, 31235.54
721.2944, 31271.38
723.2229, 31304.22
725.1514, 31344.17
727.0798, 31395.51
729.0083, 31456.78
730.9368, 31515.45
732.8652, 31569.57
734.7937, 31622.71
736.7222, 31679.07
738.6506, 31739.17
740.5791, 31794.41
742.5076, 31843.94
744.4360, 31890.31
746.3645, 31932.69
748.2930, 31970.35
750.2214, 32013.63
752.1499, 32064.90
754.0784, 32123.18
756.0068, 32188.58
757.9353, 32262.62
759.8638, 32343.65
761.7922, 32436.07
763.7207, 32533.72
765.6492, 32629.88
767.5776, 32718.29
769.5061, 32819.79
771.4346, 32948.17
773.3630, 33075.47
775.2915, 33183.51
777.2200, 33271.64
779.1484, 33331.63
781.0769, 33358.82
783.0054, 33364.32
784.9338, 33356.52
786.8623, 33330.07
788.7908, 33314.55
790.7192, 33332.54
792.6477, 33356.99
794.5762, 33355.26
796.5046, 33311.72
798.4331, 33288.75
800.3616, 33301.83
802.2900, 33338.89
804.2185, 33385.50
806.1470, 33443.55
808.0754, 33508.63
810.0039, 33584.51
811.9324, 33664.18
813.8608, 33738.54
815.7893, 33803.80
817.7178, 33864.86
819.6462, 33914.34
821.5747, 33960.01
823.5032, 34015.97
825.4316, 34097.58
827.3601, 34167.14
829.2886, 34219.49
831.2170, 34261.07
833.1455, 34298.93
835.0740, 34329.73
837.0024, 34372.36
838.9309, 34446.04
840.8594, 34528.81
842.7878, 34588.77
844.7163, 34599.68
846.6448, 34618.74
848.5732, 34648.80
850.5017, 34688.23
852.4302, 34735.76
854.3586, 34794.62
856.2871, 34854.37
858.2156, 34910.87
860.1440, 34969.05
862.0725, 35034.46
864.0010, 35112.44
865.9294, 35187.63
867.8579, 35259.93
869.7864, 35324.86
871.7148, 35374.00
873.6433, 35402.30
875.5718, 35426.76
877.5002, 35450.64
879.4287, 35471.04
881.3572, 35486.96
883.2856, 35503.07
885.2141, 35510.66
887.1426, 35502.74
889.0710, 35496.48
890.9995, 35514.34
892.9280, 35564.04
894.8564, 35607.64
896.7849, 35628.18
898.7134, 35652.01
900.6418, 35698.30
902.5703, 35769.79
904.4988, 35840.77
906.4272, 35903.37
908.3557, 35961.66
910.2842, 36013.80
912.2126, 36053.33
914.1411, 36096.84
916.0696, 36152.66
917.9980, 36201.72
919.9265, 36233.87
921.8550, 36252.62
923.7834, 36271.36
925.7119, 36300.45
927.6404, 36331.96
929.5688, 36361.84
931.4973, 36392.91
933.4258, 36444.73
935.3542, 36523.70
937.2827, 36613.86
939.2112, 36709.97
941.1396, 36809.16
943.0681, 36906.83
944.9966, 36995.61
946.9250, 37084.98
948.8535, 37178.30
950.7820, 37270.73
952.7104, 37352.37
954.6389, 37417.12
956.5674, 37475.95
958.4958, 37525.84
960.4243, 37574.45
962.3528, 37637.89
964.2813, 37725.66
966.2097, 37807.67
968.1382, 37871.49
970.0667, 37933.50
971.9951, 38006.20
973.9236, 38085.96
975.8521, 38184.68
977.7805, 38312.64
979.7090, 38442.82
981.6375, 38548.32
983.5659, 38617.73
985.4944, 38704.25
987.4229, 38829.93
989.3513, 38953.42
991.2798, 39055.56
993.2083, 39141.71
995.1367, 39224.98
997.0652, 39301.46
998.9937, 39394.88
1000.922, 39511.72
1002.851, 39653.25
1004.779, 39821.07
1006.708, 40016.27
1008.636, 40224.78
1010.564, 40440.61
1012.493, 40661.79
1014.421, 40889.14
1016.350, 41121.29
1018.278, 41355.60
1020.207, 41597.52
1022.135, 41842.58
1024.064, 42093.00
1025.992, 42369.00
1027.921, 42607.38
1029.849, 42801.88
1031.778, 42969.97
1033.706, 43116.39
1035.635, 43238.63
1037.563, 43357.00
1039.491, 43465.79
1041.420, 43568.68
1043.348, 43672.31
1045.277, 43768.00
1047.205, 43828.83
1049.134, 43845.65
1051.062, 43843.14
1052.991, 43845.69
1054.919, 43838.78
1056.848, 43793.06
1058.776, 43731.34
1060.705, 43604.38
1062.633, 43368.10
1064.562, 43090.14
1066.490, 42814.76
1068.418, 42535.58
1070.347, 42295.02
1072.275, 42101.83
1074.204, 41939.20
1076.132, 41795.56
1078.061, 41680.93
1079.989, 41575.27
1081.918, 41523.86
1083.846, 41488.22
1085.775, 41469.24
1087.703, 41462.20
1089.632, 41457.21
1091.560, 41459.58
1093.489, 41454.15
1095.417, 41431.76
1097.345, 41410.68
1099.274, 41406.27
1101.202, 41421.46
1103.131, 41454.16
1105.059, 41508.92
1106.988, 41578.80
1108.916, 41662.52
1110.845, 41756.62
1112.773, 41843.80
1114.702, 41904.56
1116.630, 41970.63
1118.559, 42059.43
1120.487, 42150.66
1122.416, 42207.43
1124.344, 42223.58
1126.272, 42245.14
1128.201, 42293.71
1130.129, 42346.73
1132.058, 42389.75
1133.986, 42423.88
1135.915, 42455.04
1137.843, 42475.70
1139.772, 42502.71
1141.700, 42542.71
1143.629, 42592.71
1145.557, 42643.04
1147.486, 42690.86
1149.414, 42741.54
1151.343, 42795.74
1153.271, 42852.13
1155.199, 42907.71
1157.128, 42961.90
1159.056, 43024.97
1160.985, 43105.36
1162.913, 43187.01
1164.842, 43266.81
1166.770, 43344.68
1168.699, 43412.59
1170.627, 43461.16
1172.556, 43519.23
1174.484, 43593.98
1176.413, 43678.74
1178.341, 43765.18
1180.270, 43850.64
1182.198, 43930.51
1184.126, 44001.98
1186.055, 44061.12
1187.983, 44098.75
1189.912, 44120.55
1191.840, 44149.64
1193.769, 44197.94
1195.697, 44240.58
1197.626, 44270.32
1199.554, 44300.04
1201.483, 44343.18
1203.411, 44404.31
1205.340, 44478.55
1207.268, 44560.07
1209.197, 44655.21
1211.125, 44765.19
1213.053, 44883.54
1214.982, 44995.66
1216.910, 45098.93
1218.839, 45184.14
1220.767, 45244.95
1222.696, 45288.18
1224.624, 45326.28
1226.553, 45364.74
1228.481, 45394.91
1230.410, 45408.71
1232.338, 45439.42
1234.267, 45507.33
1236.195, 45602.49
1238.124, 45692.15
1240.052, 45765.48
1241.980, 45843.70
1243.909, 45932.96
1245.837, 46019.75
1247.766, 46091.45
1249.694, 46146.66
1251.623, 46207.77
1253.551, 46284.36
1255.480, 46359.82
1257.408, 46426.01
1259.337, 46488.73
1261.265, 46556.35
1263.194, 46627.09
1265.122, 46701.46
1267.051, 46785.52
1268.979, 46866.39
1270.907, 46937.28
1272.836, 47000.76
1274.764, 47064.91
1276.693, 47129.57
1278.621, 47199.81
1280.550, 47277.27
1282.478, 47359.69
1284.407, 47443.96
1286.335, 47528.15
1288.264, 47615.61
1290.192, 47711.48
1292.121, 47802.08
1294.049, 47876.54
1295.978, 47944.44
1297.906, 48027.07
1299.834, 48128.58
1301.763, 48214.64
1303.691, 48272.43
1305.620, 48321.66
1307.548, 48368.46
1309.477, 48416.82
1311.405, 48479.53
1313.334, 48565.27
1315.262, 48645.83
1317.191, 48702.05
1319.119, 48762.56
1321.048, 48852.55
1322.976, 48973.75
1324.905, 49078.64
1326.833, 49150.97
1328.761, 49221.91
1330.690, 49295.62
1332.618, 49369.86
1334.547, 49441.88
1336.475, 49510.94
1338.404, 49587.32
1340.332, 49678.60
1342.261, 49771.64
1344.189, 49866.50
1346.118, 49958.19
1348.046, 50034.88
1349.975, 50092.90
1351.903, 50157.98
1353.832, 50240.35
1355.760, 50322.35
1357.688, 50392.82
1359.617, 50458.04
1361.545, 50534.37
1363.474, 50629.09
1365.402, 50713.61
1367.331, 50774.95
1369.259, 50830.73
1371.188, 50893.21
1373.116, 50958.52
1375.045, 51005.16
1376.973, 51008.80
1378.902, 51030.30
1380.830, 51088.11
1382.759, 51156.39
1384.687, 51213.80
1386.615, 51263.34
1388.544, 51333.91
1390.472, 51446.39
1392.401, 51541.85
1394.329, 51593.21
1396.258, 51632.45
1398.186, 51683.32
1400.115, 51743.55
1402.043, 51812.55
1403.972, 51895.71
1405.900, 51970.20
1407.829, 52020.50
1409.757, 52066.06
1411.686, 52127.63
1413.614, 52205.79
1415.542, 52279.52
1417.471, 52346.31
1419.399, 52414.70
1421.328, 52475.76
1423.256, 52541.50
1425.185, 52625.64
1427.113, 52727.44
1429.042, 52811.56
1430.970, 52861.99
1432.899, 52912.02
1434.827, 52989.00
1436.756, 53063.12
1438.684, 53099.70
1440.613, 53100.32
1442.541, 53124.95
1444.469, 53175.75
1446.398, 53251.13
1448.326, 53350.83
1450.255, 53467.30
1452.183, 53595.62
1454.112, 53728.77
1456.040, 53844.51
1457.969, 53928.12
1459.897, 54011.21
1461.826, 54111.17
1463.754, 54211.98
1465.683, 54302.54
1467.611, 54386.49
1469.540, 54470.75
1471.468, 54562.81
1473.396, 54643.85
1475.325, 54690.25
1477.253, 54736.13
1479.182, 54805.11
1481.110, 54893.01
1483.039, 54985.57
1484.967, 55086.57
1486.896, 55180.26
1488.824, 55259.89
1490.753, 55336.16
1492.681, 55416.57
1494.610, 55500.96
1496.538, 55582.67
1498.467, 55660.16
1500.395, 55734.31
1502.323, 55792.84
1504.252, 55857.72
1506.180, 55951.55
1508.109, 56060.98
1510.037, 56146.67
1511.966, 56199.59
1513.894, 56253.65
1515.823, 56309.14
1517.751, 56371.89
1519.680, 56442.88
1521.608, 56523.39
1523.537, 56617.61
1525.465, 56727.65
1527.394, 56829.46
1529.322, 56909.89
1531.250, 56992.94
1533.179, 57086.62
1535.107, 57182.66
1537.036, 57273.53
1538.964, 57360.29
1540.893, 57442.21
1542.821, 57515.89
1544.750, 57596.79
1546.678, 57700.94
1548.607, 57802.89
1550.535, 57878.63
1552.464, 57934.28
1554.392, 57990.98
1556.321, 58050.66
1558.249, 58102.03
1560.177, 58144.16
1562.106, 58182.83
1564.034, 58217.80
1565.963, 58260.09
1567.891, 58326.32
1569.820, 58418.57
1571.748, 58521.77
1573.677, 58633.39
1575.605, 58745.00
1577.534, 58849.59
1579.462, 58943.50
1581.391, 59021.77
1583.319, 59084.08
1585.248, 59143.89
1587.176, 59211.42
1589.104, 59259.89
1591.033, 59263.79
1592.961, 59271.05
1594.890, 59311.80
1596.818, 59376.28
1598.747, 59435.76
1600.675, 59491.45
1602.604, 59540.39
1604.532, 59579.49
1606.461, 59627.90
1608.389, 59700.69
1610.318, 59791.15
1612.246, 59885.92
1614.175, 59998.74
1616.103, 60106.82
1618.031, 60253.48
1619.960, 60403.53
1621.888, 60551.15
1623.817, 60678.81
1625.745, 60768.43
1627.674, 60826.06
1629.602, 60880.66
1631.531, 60949.93
1633.459, 60987.90
1635.388, 60987.90
1637.316, 60988.55
1639.245, 61000.02
1641.173, 61026.04
1643.102, 61071.05
1645.030, 61134.89
1646.958, 61206.44
1648.887, 61292.88
1650.815, 61372.90
1652.744, 61429.26
1654.672, 61493.07
1656.601, 61590.16
1658.529, 61699.80
1660.458, 61781.79
1662.386, 61827.51
1664.315, 61887.20
1666.243, 61968.49
1668.172, 62053.98
1670.100, 62144.53
1672.029, 62238.93
1673.957, 62336.64
1675.885, 62437.30
1677.814, 62539.25
1679.742, 62641.68
1681.671, 62742.90
1683.599, 62828.36
1685.528, 62923.85
1687.456, 63050.54
1689.385, 63173.71
1691.313, 63256.92
1693.242, 63304.14
1695.170, 63346.97
1697.099, 63387.36
1699.027, 63422.58
1700.956, 63459.63
1702.884, 63491.00
1704.813, 63511.15
1706.741, 63532.99
1708.669, 63570.69
1710.598, 63625.75
1712.526, 63694.14
1714.455, 63789.67
1716.383, 63872.86
1718.312, 63915.45
1720.240, 63969.64
1722.169, 64067.58
1724.097, 64177.42
1726.026, 64255.97
1727.954, 64299.04
1729.883, 64325.48
1731.811, 64326.04
1733.740, 64322.61
1735.668, 64319.15
1737.596, 64323.16
1739.525, 64364.66
1741.453, 64417.96
1743.382, 64430.21
1745.310, 64404.23
1747.239, 64438.27
1749.167, 64553.25
1751.096, 64683.02
1753.024, 64825.26
1754.953, 64954.68
1756.881, 65050.25
1758.810, 65118.89
1760.738, 65170.65
1762.667, 65206.57
1764.595, 65249.54
1766.523, 65332.46
1768.452, 65385.57
1770.380, 65382.58
1772.309, 65392.61
1774.237, 65443.96
1776.166, 65521.93
1778.094, 65615.48
1780.023, 65720.22
1781.951, 65803.84
1783.880, 65854.34
1785.808, 65905.30
1787.737, 65955.16
1789.665, 66006.34
1791.594, 66063.43
1793.522, 66116.97
1795.450, 66158.21
1797.379, 66186.77
1799.307, 66201.41
1801.236, 66194.63
1803.164, 66211.08
1805.093, 66287.14
1807.021, 66347.16
1808.950, 66361.23
1810.878, 66376.23
1812.807, 66419.83
1814.735, 66491.20
1816.664, 66585.31
1818.592, 66698.91
1820.521, 66830.09
1822.449, 66986.80
1824.377, 67110.64
1826.306, 67160.55
1828.234, 67194.71
1830.163, 67243.42
1832.091, 67295.12
1834.020, 67340.52
1835.948, 67381.73
1837.877, 67411.16
1839.805, 67430.71
1841.734, 67454.61
1843.662, 67484.10
1845.591, 67522.09
1847.519, 67578.10
1849.448, 67631.52
1851.376, 67657.24
1853.304, 67668.49
1855.233, 67696.60
1857.161, 67744.57
1859.090, 67800.70
1861.018, 67870.40
1862.947, 67953.34
1864.875, 68054.78
1866.804, 68169.63
1868.732, 68291.09
1870.661, 68419.06
1872.589, 68552.08
1874.518, 68680.91
1876.446, 68796.22
1878.375, 68890.80
1880.303, 68950.21
1882.231, 68956.61
1884.160, 68952.16
1886.088, 68965.47
1888.017, 68974.92
1889.945, 68970.84
1891.874, 68968.11
1893.802, 68984.56
1895.731, 69025.00
1897.659, 69078.59
1899.588, 69133.38
1901.516, 69203.63
1903.445, 69288.73
1905.373, 69363.14
1907.302, 69412.70
1909.230, 69447.14
1911.158, 69481.49
1913.087, 69511.35
1915.015, 69515.09
1916.944, 69496.83
1918.872, 69520.47
1920.801, 69601.73
1922.729, 69677.05
1924.658, 69725.82
1926.586, 69766.53
1928.515, 69805.43
1930.443, 69835.86
1932.372, 69853.02
1934.300, 69862.59
1936.229, 69873.20
1938.157, 69888.32
1940.085, 69913.90
1942.014, 69953.45
1943.942, 69994.29
1945.871, 70039.52
1947.799, 70071.30
1949.728, 70076.76
1951.656, 70070.66
1953.585, 70054.38
1955.513, 70042.59
1957.442, 70066.25
1959.370, 70128.34
1961.299, 70205.33
1963.227, 70312.10
1965.156, 70406.91
1967.084, 70467.88
1969.012, 70537.12
1970.941, 70627.88
1972.869, 70713.50
1974.798, 70773.70
1976.726, 70812.28
1978.655, 70840.18
1980.583, 70859.05
1982.512, 70865.20
1984.440, 70862.13
1986.369, 70882.51
1988.297, 70943.79
1990.226, 71017.15
1992.154, 71098.60
1994.083, 71181.28
1996.011, 71244.86
1997.939, 71307.96
1999.868, 71395.23
2001.796, 71492.65
2003.725, 71573.95
2005.653, 71641.29
2007.582, 71698.20
2009.510, 71739.41
2011.439, 71803.70
2013.367, 71914.52
2015.296, 72020.70
2017.224, 72088.55
2019.153, 72148.59
2021.081, 72227.24
2023.010, 72302.36
2024.938, 72348.09
2026.866, 72369.14
2028.795, 72373.84
2030.723, 72367.49
2032.652, 72378.25
2034.580, 72416.27
2036.509, 72470.54
2038.437, 72530.25
2040.366, 72608.07
2042.294, 72709.34
2044.223, 72809.10
2046.151, 72887.73
2048.080, 72947.34
2050.008, 72999.92
2051.937, 73045.82
2053.865, 73068.21
2055.793, 73068.92
2057.722, 73091.13
2059.650, 73146.71
2061.579, 73214.12
2063.507, 73286.30
2065.436, 73358.20
2067.364, 73431.26
2069.293, 73486.09
2071.221, 73503.88
2073.150, 73494.48
2075.078, 73474.05
2077.007, 73445.55
2078.935, 73422.37
2080.864, 73411.84
2082.792, 73393.35
2084.720, 73367.70
2086.649, 73347.70
2088.577, 73332.15
2090.506, 73342.80
2092.434, 73403.88
2094.363, 73479.16
2096.291, 73527.84
2098.220, 73574.12
2100.148, 73655.48
2102.077, 73750.25
2104.005, 73803.46
2105.934, 73804.98
2107.862, 73793.66
2109.791, 73791.08
2111.719, 73744.09
2113.647, 73650.98
2115.576, 73551.23
2117.504, 73450.98
2119.433, 73376.80
2121.361, 73342.39
2123.290, 73345.96
2125.218, 73390.99
2127.147, 73462.78
2129.075, 73532.61
2131.004, 73597.73
2132.932, 73672.02
2134.861, 73751.04
2136.789, 73811.86
2138.718, 73843.95
2140.646, 73873.35
2142.574, 73910.02
2144.503, 73941.16
2146.431, 73966.95
2148.360, 73990.55
2150.288, 74012.22
2152.217, 74037.82
2154.145, 74083.24
2156.074, 74131.42
2158.002, 74134.80
2159.931, 74100.86
2161.859, 74106.92
2163.788, 74153.37
2165.716, 74181.88
2167.645, 74187.28
2169.573, 74182.30
2171.501, 74165.30
2173.430, 74160.14
2175.358, 74184.89
2177.287, 74221.02
2179.215, 74262.71
2181.144, 74307.54
2183.072, 74345.05
2185.001, 74380.97
2186.929, 74424.87
2188.858, 74471.83
2190.786, 74517.80
2192.715, 74561.76
2194.643, 74607.46
2196.572, 74626.57
2198.500, 74685.17
2200.428, 74656.09
2202.357, 74637.20
2204.285, 74643.77
2206.214, 74662.63
2208.142, 74687.28
2210.071, 74717.90
2211.999, 74757.64
2213.928, 74797.83
2215.856, 74834.14
2217.785, 74869.45
2219.713, 74903.54
2221.642, 74942.89
2223.570, 75009.67
2225.499, 75062.80
2227.427, 75177.08
2229.355, 75216.46
2231.284, 75286.03
2233.212, 75405.91
2235.141, 75478.13
2237.069, 75449.05
2238.998, 75413.14
2240.926, 75416.97
2242.855, 75419.27
2244.783, 75406.00
2246.712, 75390.20
2248.640, 75386.46
2250.569, 75392.23
2252.497, 75393.73
2254.426, 75399.54
2256.354, 75438.48
2258.282, 75503.67
2260.211, 75559.77
2262.139, 75601.68
2264.068, 75644.85
2265.996, 75687.23
2267.925, 75725.88
2269.853, 75751.84
2271.782, 75786.47
2273.710, 75859.41
2275.639, 75909.82
2277.567, 75894.16
2279.496, 75883.02
2281.424, 75930.40
2283.353, 75983.30
2285.281, 75986.40
2287.209, 75969.34
2289.138, 75972.23
2291.066, 75991.28
2292.995, 76023.90
2294.923, 76070.95
2296.852, 76111.29
2298.780, 76145.84
2300.709, 76192.14
2302.637, 76254.05
2304.566, 76307.75
2306.494, 76333.46
2308.423, 76375.93
2310.351, 76448.33
2312.280, 76510.57
2314.208, 76556.80
2316.136, 76581.79
2318.065, 76575.77
2319.993, 76563.37
2321.922, 76550.61
2323.850, 76554.95
2325.779, 76596.33
2327.707, 76664.13
2329.636, 76756.88
2331.564, 76853.98
2333.493, 76898.98
2335.421, 76890.43
2337.350, 76831.09
2339.278, 76723.53
2341.207, 76658.92
2343.135, 76651.41
2345.063, 76643.12
2346.992, 76638.50
2348.920, 76631.59
2350.849, 76609.05
2352.777, 76615.48
2354.706, 76660.75
2356.634, 76718.30
2358.563, 76772.68
2360.491, 76826.02
2362.420, 76882.76
2364.348, 76926.05
2366.277, 76943.14
2368.205, 76948.98
2370.134, 76968.51
2372.062, 76985.71
2373.990, 76968.32
2375.919, 76935.45
2377.847, 76920.11
2379.776, 76926.98
2381.704, 76983.85
2383.633, 77087.91
2385.561, 77176.80
2387.490, 77248.52
2389.418, 77316.13
2391.347, 77375.17
2393.275, 77442.48
2395.204, 77519.23
2397.132, 77587.43
2399.061, 77637.09
2400.989, 77679.95
2402.917, 77730.16
2404.846, 77754.10
2406.774, 77721.36
2408.703, 77710.91
2410.631, 77789.90
2412.560, 77866.13
2414.488, 77863.04
2416.417, 77859.76
2418.345, 77932.45
2420.274, 78025.07
2422.202, 78065.87
2424.131, 78085.85
2426.059, 78134.28
2427.988, 78200.45
2429.916, 78269.61
2431.844, 78336.02
2433.773, 78385.85
2435.701, 78418.71
2437.630, 78421.64
2439.558, 78395.12
2441.487, 78387.43
2443.415, 78403.91
2445.344, 78423.20
2447.272, 78446.13
2449.201, 78463.85
2451.129, 78468.78
2453.058, 78489.39
2454.986, 78531.30
2456.915, 78581.12
2458.843, 78649.12
2460.771, 78700.36
2462.700, 78719.14
2464.628, 78730.70
2466.557, 78739.53
2468.485, 78749.62
2470.414, 78766.78
2472.342, 78779.98
2474.271, 78778.17
2476.199, 78776.41
2478.128, 78787.47
2480.056, 78802.65
2481.985, 78805.99
2483.913, 78812.59
2485.842, 78850.23
2487.770, 78896.40
2489.698, 78905.43
2491.627, 78901.54
2493.555, 78956.42
2495.484, 79039.49
2497.412, 79059.05
2499.341, 79033.13
2501.269, 79024.27
2503.198, 79032.53
2505.126, 79074.65
2507.055, 79149.90
2508.983, 79190.97
2510.912, 79192.47
2512.840, 79192.96
2514.769, 79192.79
2516.697, 79213.13
2518.625, 79217.90
2520.554, 79220.44
2522.482, 79249.96
2524.411, 79232.52
2526.339, 79259.76
2528.268, 79287.83
2530.196, 79312.35
2532.125, 79336.49
2534.053, 79360.02
2535.982, 79379.36
2537.910, 79383.99
2539.839, 79392.66
2541.767, 79407.16
2543.696, 79424.99
2545.624, 79456.66
2547.552, 79473.07
2549.481, 79460.23
2551.409, 79444.05
2553.338, 79440.54
2555.266, 79446.07
2557.195, 79455.16
2559.123, 79483.09
2561.052, 79543.17
2562.980, 79621.41
2564.909, 79713.02
2566.837, 79798.91
2568.766, 79849.66
2570.694, 79914.45
2572.623, 79944.28
2574.551, 79997.70
2576.479, 80023.67
2578.408, 80039.28
2580.336, 80077.73
2582.265, 80126.30
2584.193, 80141.66
2586.122, 80153.75
2588.050, 80233.66
2589.979, 80343.27
2591.907, 80397.80
2593.836, 80406.68
2595.764, 80410.80
2597.693, 80407.10
2599.621, 80385.18
2601.550, 80354.77
2603.478, 80357.72
2605.406, 80390.55
2607.335, 80423.57
2609.263, 80457.12
2611.192, 80465.25
2613.120, 80449.37
2615.049, 80462.13
2616.977, 80501.22
2618.906, 80543.36
2620.834, 80584.59
2622.763, 80618.38
2624.691, 80641.46
2626.620, 80680.47
2628.548, 80747.86
2630.477, 80757.80
2632.405, 80699.11
2634.333, 80689.61
2636.262, 80737.05
2638.190, 80772.35
2640.119, 80786.23
2642.047, 80801.96
2643.976, 80821.66
2645.904, 80828.43
2647.833, 80843.48
2649.761, 80825.90
2651.690, 80872.38
2653.618, 80886.43
2655.547, 80915.74
2657.475, 80958.76
2659.404, 80963.73
2661.332, 81034.58
2663.260, 81047.12
2665.189, 81067.03
2667.117, 81100.24
2669.046, 81091.52
2670.974, 81026.54
2672.903, 80968.66
2674.831, 80938.78
2676.760, 80910.61
2678.688, 80887.97
2680.617, 80867.30
2682.545, 80849.73
2684.474, 80849.05
2686.402, 80877.86
2688.331, 80885.97
2690.259, 80845.26
2692.188, 80840.20
2694.116, 80901.00
2696.044, 80960.24
2697.973, 80999.98
2699.901, 81069.11
2701.830, 81180.58
2703.758, 81274.55
2705.687, 81336.78
2707.615, 81370.43
2709.544, 81356.48
2711.472, 81340.21
2713.401, 81314.51
2715.329, 81325.49
2717.258, 81399.59
2719.186, 81436.71
2721.115, 81409.08
2723.043, 81390.99
2724.971, 81391.46
2726.900, 81426.73
2728.828, 81508.04
2730.757, 81580.15
2732.685, 81625.23
2734.614, 81675.87
2736.542, 81702.49
2738.471, 81770.45
2740.399, 81737.42
2742.328, 81723.10
2744.256, 81738.26
2746.185, 81769.90
2748.113, 81829.23
2750.042, 81854.30
2751.970, 81817.03
2753.898, 81811.27
2755.827, 81849.63
2757.755, 81864.46
2759.684, 81848.63
2761.612, 81864.62
2763.541, 81922.30
2765.469, 81991.62
2767.398, 82080.66
2769.326, 82111.77
2771.255, 82069.25
2773.183, 82086.96
2775.112, 82167.38
2777.040, 82212.51
2778.969, 82215.63
2780.897, 82191.30
2782.825, 82138.99
2784.754, 82126.12
2786.682, 82150.99
2788.611, 82149.88
2790.539, 82124.70
2792.468, 82105.65
2794.396, 82092.80
2796.325, 82079.70
2798.253, 82065.40
2800.182, 82033.26
2802.110, 81993.30
2804.039, 81995.84
2805.967, 82030.37
2807.896, 82069.24
2809.824, 82106.27
2811.752, 82111.18
2813.681, 82099.86
2815.609, 82101.84
2817.538, 82121.15
2819.466, 82168.83
2821.395, 82226.49
2823.323, 82256.84
2825.252, 82274.59
2827.180, 82313.05
2829.109, 82349.63
2831.037, 82360.10
2832.966, 82355.20
2834.894, 82337.96
2836.823, 82326.95
2838.751, 82354.58
2840.679, 82383.86
2842.608, 82370.57
2844.536, 82363.57
2846.465, 82408.60
2848.393, 82456.68
2850.322, 82477.35
2852.250, 82489.36
2854.179, 82504.20
2856.107, 82517.45
2858.036, 82510.83
2859.964, 82535.05
2861.893, 82625.74
2863.821, 82719.74
2865.750, 82800.76
2867.678, 82850.59
2869.606, 82844.65
2871.535, 82844.58
2873.463, 82881.62
2875.392, 82900.03
2877.320, 82900.34
2879.249, 82896.48
2881.177, 82893.54
2883.106, 82916.12
2885.034, 82968.59
2886.963, 83028.86
2888.891, 83085.95
2890.820, 83147.42
2892.748, 83206.55
2894.677, 83210.91
2896.605, 83166.39
2898.533, 83154.98
2900.462, 83177.30
2902.390, 83192.91
2904.319, 83205.66
2906.247, 83209.84
2908.176, 83215.01
2910.104, 83254.09
2912.033, 83298.52
2913.961, 83283.20
2915.890, 83247.79
2917.818, 83258.85
2919.747, 83284.93
2921.675, 83300.97
2923.604, 83306.53
2925.532, 83298.66
2927.460, 83284.70
2929.389, 83268.12
2931.317, 83252.61
2933.246, 83244.24
2935.174, 83233.79
2937.103, 83197.14
2939.031, 83191.71
2940.960, 83260.17
2942.888, 83293.20
2944.817, 83254.45
2946.745, 83226.27
2948.674, 83246.90
2950.602, 83245.09
2952.531, 83210.96
2954.459, 83205.87
2956.387, 83230.90
2958.316, 83284.63
2960.244, 83359.66
2962.173, 83401.14
2964.101, 83404.66
2966.030, 83380.07
2967.958, 83337.70
2969.887, 83302.92
2971.815, 83287.43
2973.744, 83308.58
2975.672, 83354.23
2977.601, 83394.23
2979.529, 83429.16
2981.458, 83445.11
2983.386, 83454.75
2985.314, 83487.43
2987.243, 83491.93
2989.171, 83417.33
2991.100, 83348.28
2993.028, 83338.61
2994.957, 83331.30
2996.885, 83307.09
2998.814, 83288.88
3000.742, 83287.62
3002.671, 83267.05
3004.599, 83216.15
3006.528, 83193.41
3008.456, 83216.30
3010.385, 83229.41
3012.313, 83230.02
3014.241, 83277.16
3016.170, 83356.34
3018.098, 83403.77
3020.027, 83417.34
3021.955, 83414.88
3023.884, 83391.18
3025.812, 83317.18
3027.741, 83241.41
3029.669, 83228.53
3031.598, 83237.08
3033.526, 83219.77
3035.455, 83204.39
3037.383, 83202.42
3039.312, 83198.15
3041.240, 83205.30
3043.168, 83171.82
3045.097, 83069.60
3047.025, 83004.09
3048.954, 83006.50
3050.882, 83010.38
3052.811, 82987.32
3054.739, 83037.60
3056.668, 83154.58
3058.596, 83209.91
3060.525, 83201.89
3062.453, 83170.40
3064.382, 83129.65
3066.310, 83134.86
3068.239, 83098.45
3070.167, 83112.68
3072.095, 83062.63
3074.024, 83050.72
3075.952, 83050.66
3077.881, 83044.55
3079.809, 83029.58
3081.738, 82999.55
3083.666, 82982.80
3085.595, 83033.77
3087.523, 83038.62
3089.452, 83077.41
3091.380, 83124.57
3093.309, 83141.73
3095.237, 83222.48
3097.166, 83212.26
3099.094, 83252.90
3101.022, 83320.34
3102.951, 83360.23
3104.879, 83372.37
3106.808, 83355.66
3108.736, 83325.68
3110.665, 83299.73
3112.593, 83283.20
3114.522, 83279.88
3116.450, 83289.95
3118.379, 83319.47
3120.307, 83345.47
3122.236, 83349.36
3124.164, 83381.02
3126.093, 83452.48
3128.021, 83538.24
3129.949, 83633.62
3131.878, 83695.88
3133.806, 83724.49
3135.735, 83769.91
3137.663, 83816.23
3139.592, 83793.46
3141.520, 83740.57
3143.449, 83720.41
3145.377, 83714.90
3147.306, 83707.27
3149.234, 83704.80
3151.163, 83700.02
3153.091, 83696.87
3155.020, 83693.88
3156.948, 83688.74
3158.876, 83686.05
3160.805, 83674.68
3162.733, 83695.13
3164.662, 83687.32
3166.590, 83718.82
3168.519, 83775.66
3170.447, 83850.87
3172.376, 83931.96
3174.304, 84006.46
3176.233, 84041.17
3178.161, 84076.98
3180.090, 84156.66
3182.018, 84235.80
3183.947, 84296.55
3185.875, 84330.09
3187.803, 84302.95
3189.732, 84307.61
3191.660, 84358.86
3193.589, 84393.22
3195.517, 84406.45
3197.446, 84376.27
3199.374, 84388.33
3201.303, 84325.60
3203.231, 84353.27
3205.160, 84332.04
3207.088, 84286.49
3209.017, 84221.98
3210.945, 84194.39
3212.874, 84248.63
3214.802, 84311.09
3216.730, 84325.04
3218.659, 84372.11
3220.587, 84449.80
3222.516, 84496.02
3224.444, 84499.77
3226.373, 84491.40
3228.301, 84472.04
3230.230, 84419.25
3232.158, 84358.18
3234.087, 84307.30
3236.015, 84280.33
3237.944, 84284.72
3239.872, 84306.63
3241.801, 84347.63
3243.729, 84355.48
3245.657, 84291.01
3247.586, 84236.84
3249.514, 84200.95
3251.443, 84192.36
3253.371, 84134.30
3255.300, 84148.40
3257.228, 84060.29
3259.157, 84042.29
3261.085, 84040.03
3263.014, 83981.29
3264.942, 83935.52
3266.871, 83953.96
3268.799, 83971.95
3270.728, 83969.88
3272.656, 83952.65
3274.584, 83909.20
3276.513, 83903.32
3278.441, 83860.13
3280.370, 83825.50
3282.298, 83790.59
3284.227, 83749.07
3286.155, 83727.66
3288.084, 83696.66
3290.012, 83674.93
3291.941, 83674.33
3293.869, 83673.66
3295.798, 83658.55
3297.726, 83668.48
3299.655, 83718.24
3301.583, 83736.03
3303.511, 83724.36
3305.440, 83711.98
3307.368, 83694.71
3309.297, 83662.70
3311.225, 83626.43
3313.154, 83602.46
3315.082, 83578.91
3317.011, 83554.10
3318.939, 83534.09
3320.868, 83511.51
3322.796, 83546.85
3324.725, 83639.36
3326.653, 83698.27
3328.582, 83719.95
3330.510, 83701.05
3332.438, 83675.52
3334.367, 83701.43
3336.295, 83740.73
3338.224, 83783.91
3340.152, 83801.91
3342.081, 83761.98
3344.009, 83765.84
3345.938, 83832.61
3347.866, 83884.87
3349.795, 83916.85
3351.723, 83905.38
3353.652, 83876.76
3355.580, 83866.65
3357.509, 83886.48
3359.437, 83942.22
3361.365, 84022.53
3363.294, 84122.91
3365.222, 84211.93
3367.151, 84276.22
3369.079, 84334.95
3371.008, 84385.01
3372.936, 84384.38
3374.865, 84366.38
3376.793, 84419.41
3378.722, 84472.51
3380.650, 84439.26
3382.579, 84421.32
3384.507, 84466.34
3386.436, 84492.66
3388.364, 84468.60
3390.292, 84463.38
3392.221, 84481.05
3394.149, 84582.84
3396.078, 84577.77
3398.006, 84682.84
3399.935, 84657.02
3401.863, 84751.20
3403.792, 84833.79
3405.720, 84823.97
3407.649, 84853.14
3409.577, 84934.98
3411.506, 84932.55
3413.434, 84984.03
3415.363, 84932.51
3417.291, 85034.80
3419.219, 85038.20
3421.148, 85023.77
3423.076, 85048.34
3425.005, 85059.59
3426.933, 85046.98
3428.862, 85014.15
3430.790, 84967.41
3432.719, 84948.84
3434.647, 84953.66
3436.576, 84956.18
3438.504, 84960.97
3440.433, 84953.59
3442.361, 84974.84
3444.290, 85005.95
3446.218, 85104.97
3448.146, 85100.54
3450.075, 85145.07
3452.003, 85212.88
3453.932, 85165.20
3455.860, 85064.77
3457.789, 85035.20
3459.717, 85011.76
3461.646, 84968.55
3463.574, 84917.37
3465.503, 84855.64
3467.431, 84851.62
3469.360, 84819.20
3471.288, 84875.63
3473.217, 84805.33
3475.145, 84810.20
3477.073, 84821.45
3479.002, 84789.41
3480.930, 84749.23
3482.859, 84714.13
3484.787, 84698.08
3486.716, 84702.23
3488.644, 84749.10
3490.573, 84804.23
3492.501, 84768.68
3494.430, 84693.41
3496.358, 84627.39
3498.287, 84563.98
3500.215, 84507.73
3502.144, 84475.86
3504.072, 84482.08
3506.000, 84463.41
3507.929, 84483.97
3509.857, 84477.90
3511.786, 84538.20
3513.714, 84581.71
3515.643, 84615.52
3517.571, 84644.14
3519.500, 84667.02
3521.428, 84689.48
3523.357, 84715.13
3525.285, 84745.89
3527.214, 84779.38
3529.142, 84809.25
3531.071, 84826.73
3532.999, 84835.47
3534.927, 84838.99
3536.856, 84833.08
3538.784, 84821.55
3540.713, 84829.76
3542.641, 84854.03
3544.570, 84894.41
3546.498, 84907.27
3548.427, 84817.51
3550.355, 84742.16
3552.284, 84724.72
3554.212, 84680.07
3556.141, 84599.80
3558.069, 84526.01
3559.998, 84462.91
3561.926, 84412.46
3563.854, 84375.22
3565.783, 84339.34
3567.711, 84329.29
3569.640, 84345.66
3571.568, 84361.18
3573.497, 84361.66
3575.425, 84261.23
3577.354, 84128.88
3579.282, 84088.91
3581.211, 84059.98
3583.139, 84001.35
3585.068, 83973.52
3586.996, 83989.83
3588.925, 84038.25
3590.853, 84108.52
3592.781, 84182.39
3594.710, 84260.00
3596.638, 84351.40
3598.567, 84441.01
3600.495, 84539.14
3602.424, 84591.49
3604.352, 84610.21
3606.281, 84771.96
3608.209, 85040.34
3610.138, 85349.59
3612.066, 85731.02
3613.995, 86200.20
3615.923, 86765.26
3617.852, 87456.54
3619.780, 88043.64
3621.708, 88532.24
3623.637, 88945.49
3625.565, 89341.13
3627.494, 89731.85
3629.422, 90207.22
3631.351, 90871.64
3633.279, 91513.66
3635.208, 92075.35
3637.136, 92239.68
3639.065, 92005.79
3640.993, 91233.09
3642.922, 90218.80
3644.850, 88938.26
3646.779, 87809.48
3648.707, 86866.73
3650.635, 86068.62
3652.564, 85374.48
3654.492, 84736.37
3656.421, 84127.27
3658.349, 83500.10
3660.278, 82962.32
3662.206, 82530.25
3664.135, 82209.01
3666.063, 81994.48
3667.992, 81901.53
3669.920, 81843.53
3671.849, 81727.27
3673.777, 81618.40
3675.706, 81532.99
3677.634, 81489.23
3679.563, 81399.14
3681.491, 81386.90
3683.419, 81278.97
3685.348, 81204.55
3687.276, 81175.20
3689.205, 81208.61
3691.133, 81217.36
3693.062, 81192.40
3694.990, 81144.24
3696.919, 81080.70
3698.847, 80998.24
3700.776, 80939.30
3702.704, 80934.03
3704.633, 80939.68
3706.561, 80948.09
3708.490, 80930.09
3710.418, 80909.03
3712.346, 80942.80
3714.275, 80967.39
3716.203, 80939.73
3718.132, 80925.84
3720.060, 80930.52
3721.989, 80894.90
3723.917, 80835.30
3725.846, 80746.91
3727.774, 80704.84
3729.703, 80778.38
3731.631, 80820.76
3733.560, 80817.93
3735.488, 80872.85
3737.417, 80933.16
3739.345, 80911.55
3741.273, 80859.64
3743.202, 80820.05
3745.130, 80737.34
3747.059, 80693.81
3748.987, 80592.25
3750.916, 80592.13
3752.844, 80547.59
3754.773, 80519.04
3756.701, 80526.87
3758.630, 80550.41
3760.558, 80577.01
3762.487, 80590.45
3764.415, 80572.23
3766.344, 80487.84
3768.272, 80396.88
3770.200, 80329.66
3772.129, 80292.91
3774.057, 80287.96
3775.986, 80268.38
3777.914, 80254.97
3779.843, 80256.39
3781.771, 80281.09
3783.700, 80272.84
3785.628, 80289.15
3787.557, 80285.97
3789.485, 80299.82
3791.414, 80317.57
3793.342, 80299.83
3795.271, 80280.88
3797.199, 80276.99
3799.127, 80246.86
3801.056, 80193.68
3802.984, 80111.34
3804.913, 80039.35
3806.841, 79996.36
3808.770, 79990.23
3810.698, 80019.40
3812.627, 80047.16
3814.555, 80070.95
3816.484, 80083.68
3818.412, 80090.62
3820.341, 80102.22
3822.269, 80018.97
3824.198, 79962.51
3826.126, 79808.27
3828.054, 79762.45
3829.983, 79616.38
3831.911, 79506.38
3833.840, 79463.65
3835.768, 79488.12
3837.697, 79541.55
3839.625, 79529.20
3841.554, 79502.20
3843.482, 79486.84
3845.411, 79461.95
3847.339, 79426.70
3849.268, 79374.82
3851.196, 79312.77
3853.125, 79228.57
3855.053, 79188.05
3856.981, 79209.54
3858.910, 79255.73
3860.838, 79308.64
3862.767, 79330.92
3864.695, 79334.16
3866.624, 79337.78
3868.552, 79282.77
3870.481, 79172.95
3872.409, 79149.66
3874.338, 79179.21
3876.266, 79231.28
3878.195, 79263.13
3880.123, 79246.26
3882.052, 79240.68
3883.980, 79249.49
3885.908, 79283.82
3887.837, 79313.26
3889.765, 79323.70
3891.694, 79287.03
3893.622, 79203.02
3895.551, 79260.38
3897.479, 79211.36
3899.408, 79278.30
3901.336, 79206.48
3903.265, 79166.99
3905.193, 79185.74
3907.122, 79234.73
3909.050, 79238.73
3910.979, 79227.80
3912.907, 79216.55
3914.835, 79218.70
3916.764, 79232.00
3918.692, 79245.42
3920.621, 79253.61
3922.549, 79257.18
3924.478, 79249.63
3926.406, 79237.16
3928.335, 79195.57
3930.263, 79149.84
3932.192, 79134.02
3934.120, 79139.77
3936.049, 79167.23
3937.977, 79165.09
3939.906, 79140.23
3941.834, 79160.02
3943.762, 79163.83
3945.691, 79097.48
3947.619, 79072.55
3949.548, 79097.29
3951.476, 79118.89
3953.405, 79135.68
3955.333, 79133.80
3957.262, 79159.26
3959.190, 79233.27
3961.119, 79262.59
3963.047, 79258.77
3964.976, 79295.49
3966.904, 79301.82
3968.833, 79295.11
3970.761, 79307.26
3972.689, 79261.25
3974.618, 79221.16
3976.546, 79175.97
3978.475, 79126.09
3980.403, 79057.00
3982.332, 78986.51
3984.260, 79018.01
3986.189, 79051.22
3988.117, 78981.60
3990.046, 78947.86
3991.974, 78954.15
3993.903, 78915.02
3995.831, 78868.73
3997.760, 78853.46
3999.688, 78876.41
4001.616, 78854.34
4003.545, 78845.43
4005.473, 78849.10
4007.402, 78812.70
4009.330, 78788.82
4011.259, 78773.86
4013.187, 78744.45
4015.116, 78712.73
4017.044, 78684.98
4018.973, 78690.28
4020.901, 78734.03
4022.830, 78805.41
4024.758, 78860.13
4026.687, 78763.42
4028.615, 78648.43
4030.543, 78589.84
4032.472, 78501.88
4034.400, 78409.14
4036.329, 78400.89
4038.257, 78394.80
4040.186, 78327.80
4042.114, 78314.33
4044.043, 78346.15
4045.971, 78386.74
4047.900, 78402.38
4049.828, 78367.52
4051.757, 78338.48
4053.685, 78319.93
4055.614, 78285.92
4057.542, 78264.02
4059.470, 78296.72
4061.399, 78287.13
4063.327, 78235.22
4065.256, 78191.91
4067.184, 78159.68
4069.113, 78128.05
4071.041, 78145.99
4072.970, 78194.77
4074.898, 78158.49
4076.827, 78096.13
4078.755, 78049.66
4080.684, 78005.73
4082.612, 77966.29
4084.541, 77968.74
4086.469, 77931.45
4088.397, 77885.39
4090.326, 77690.35
4092.254, 77791.68
4094.183, 77778.95
4096.111, 77761.40
4098.040, 77852.45
4099.968, 77874.75
4101.896, 77818.18
4103.825, 77739.97
4105.754, 77655.00
4107.682, 77556.41
4109.610, 77550.28
4111.539, 77616.07
4113.468, 77628.41
4115.396, 77598.33
4117.324, 77517.77
4119.253, 77508.52
4121.182, 77564.02
4123.110, 77614.73
4125.038, 77633.17
4126.967, 77580.66
4128.896, 77588.05
4130.824, 77644.46
4132.752, 77694.61
4134.681, 77734.98
4136.609, 77763.35
4138.538, 77773.25
4140.466, 77772.34
4142.395, 77783.18
4144.323, 77790.45
4146.251, 77785.84
4148.180, 77797.84
4150.108, 77814.23
4152.037, 77810.09
4153.965, 77806.66
4155.894, 77811.98
4157.822, 77833.84
4159.751, 77858.73
4161.679, 77864.38
4163.607, 77854.66
4165.536, 77828.32
4167.465, 77820.09
4169.393, 77809.24
4171.321, 77765.67
4173.250, 77761.48
4175.179, 77810.11
4177.107, 77871.77
4179.035, 77913.48
4180.964, 77946.59
4182.893, 77965.23
4184.821, 77982.79
4186.749, 77978.55
4188.678, 77957.97
4190.606, 77965.48
4192.535, 77964.76
4194.463, 77940.92
4196.392, 77857.91
4198.320, 77750.25
4200.249, 77627.16
4202.177, 77583.55
4204.105, 77582.03
4206.034, 77555.34
4207.962, 77535.35
4209.891, 77526.66
4211.819, 77471.13
4213.748, 77442.27
4215.676, 77538.77
4217.604, 77577.14
4219.533, 77553.20
4221.462, 77628.10
4223.390, 77651.73
4225.318, 77535.72
4227.247, 77414.20
4229.176, 77321.38
4231.104, 77290.09
4233.032, 77303.59
4234.961, 77343.00
4236.890, 77412.27
4238.818, 77459.17
4240.746, 77352.96
4242.675, 77215.78
##END=



