##NAMES=Rhodochrosite
##RRUFFID=R050019
##IDEAL CHEMISTRY=Mn(CO_3_)
##LOCALITY=Home Sweet Home mine, Colorado, USA
##OWNER=RRUFF
##SOURCE=Eugene Schlepp
##DESCRIPTION=Pink single crystal rhombs on quartz
##STATUS=The identification of this mineral has been confirmed by X-ray diffraction and chemical analysis
##URL=https://www.rruff.net/odr/rruff_sample/R050019
##MEASURED CHEMISTRY=Mn_1.00_CO_3_
##DIFFRACTION SAMPLE DESCRIPTION=Powder
##CELL PARAMETERS=a: 4.7806 b: 4.7806 c: 15.674 alpha: 90 beta: 90 gamma: 120 volume: 310.2 crystal system: hexagonal
##FILETYPE=Raman RAW
##RAMAN WAVELENGTH=785

112.6887, 16.01569
114.6172, 19.14661
116.5457, 22.87382
118.4741, 29.29749
120.4026, 38.87407
122.3311, 49.62152
124.2595, 59.05350
126.1880, 71.43442
128.1165, 92.23600
130.0449, 117.9081
131.9734, 138.1370
133.9019, 153.0385
135.8303, 163.1413
137.7588, 165.0086
139.6873, 167.2396
141.6157, 168.5873
143.5442, 173.8657
145.4727, 193.8322
147.4011, 224.0436
149.3296, 246.7265
151.2581, 258.3818
153.1865, 266.0949
155.1150, 264.5942
157.0435, 266.4016
158.9719, 279.2937
160.9004, 301.5089
162.8289, 327.1881
164.7573, 355.1612
166.6858, 398.5824
168.6143, 458.9084
170.5427, 533.1995
172.4712, 627.7807
174.3997, 732.2121
176.3281, 853.0742
178.2566, 976.5883
180.1851, 1062.732
182.1135, 1108.355
184.0420, 1108.543
185.9705, 1044.662
187.8989, 965.0168
189.8274, 878.9964
191.7559, 791.6768
193.6843, 708.8577
195.6128, 633.9466
197.5413, 566.9422
199.4697, 506.3687
201.3982, 453.3595
203.3267, 407.7290
205.2551, 369.3993
207.1836, 338.7487
209.1121, 312.8334
211.0405, 290.5030
212.9690, 271.3340
214.8975, 252.0726
216.8259, 232.2912
218.7544, 217.1648
220.6829, 208.0674
222.6113, 202.4530
224.5398, 202.4465
226.4683, 203.4671
228.3967, 198.6994
230.3252, 190.2221
232.2537, 188.5361
234.1821, 194.8807
236.1106, 199.0769
238.0391, 196.6013
239.9676, 195.4144
241.8960, 198.0744
243.8245, 202.7949
245.7530, 208.2931
247.6814, 214.9220
249.6099, 221.9984
251.5384, 228.7932
253.4668, 241.2013
255.3953, 256.8367
257.3238, 275.7216
259.2522, 295.7380
261.1807, 325.1309
263.1092, 370.0784
265.0376, 428.4120
266.9661, 496.0873
268.8946, 571.4324
270.8230, 661.3879
272.7515, 768.0679
274.6800, 886.2294
276.6084, 1017.182
278.5369, 1158.441
280.4654, 1328.840
282.3938, 1496.857
284.3223, 1629.637
286.2508, 1718.247
288.1792, 1751.964
290.1077, 1714.581
292.0362, 1653.008
293.9646, 1569.531
295.8931, 1480.431
297.8216, 1396.528
299.7500, 1314.851
301.6785, 1225.288
303.6070, 1134.347
305.5354, 1052.583
307.4639, 976.6047
309.3924, 909.7006
311.3208, 853.3786
313.2493, 792.2150
315.1778, 718.2844
317.1062, 642.7437
319.0347, 565.0508
320.9632, 492.0345
322.8916, 432.0839
324.8201, 384.6311
326.7486, 345.9964
328.6770, 315.0033
330.6055, 290.2113
332.5340, 273.2254
334.4624, 262.3211
336.3909, 259.5371
338.3194, 257.7390
340.2478, 252.7521
342.1763, 247.4725
344.1048, 245.5207
346.0332, 246.0414
347.9617, 243.5043
349.8902, 235.2858
351.8186, 228.4341
353.7471, 224.2154
355.6756, 221.3228
357.6040, 219.7803
359.5325, 218.7072
361.4610, 217.8632
363.3894, 217.4297
365.3179, 216.8066
367.2464, 215.8118
369.1748, 216.2216
371.1033, 218.9161
373.0318, 221.1332
374.9602, 224.1094
376.8887, 222.9443
378.8172, 212.0115
380.7456, 203.5895
382.6741, 206.6462
384.6026, 213.0554
386.5310, 213.8822
388.4595, 210.3320
390.3880, 209.9346
392.3164, 213.1830
394.2449, 214.5703
396.1734, 213.2852
398.1018, 212.5550
400.0303, 214.6335
401.9588, 214.9681
403.8872, 210.2402
405.8157, 205.0922
407.7442, 202.5014
409.6726, 201.7105
411.6011, 204.0911
413.5296, 209.1843
415.4580, 211.7453
417.3865, 211.0900
419.3150, 210.4188
421.2434, 210.9561
423.1719, 210.3341
425.1004, 206.7561
427.0289, 203.7934
428.9573, 203.9622
430.8858, 205.2665
432.8143, 205.2955
434.7427, 204.5133
436.6712, 204.4686
438.5997, 205.2478
440.5281, 203.6879
442.4566, 196.9420
444.3851, 193.4445
446.3135, 196.5485
448.2420, 198.5929
450.1705, 195.4606
452.0989, 192.8408
454.0274, 196.1531
455.9559, 200.6343
457.8843, 200.3862
459.8128, 196.8162
461.7413, 195.3117
463.6697, 195.9947
465.5982, 197.4476
467.5267, 201.1035
469.4551, 201.4872
471.3836, 195.6048
473.3121, 191.2818
475.2405, 192.4529
477.1690, 194.7671
479.0975, 196.7663
481.0259, 197.8617
482.9544, 196.0621
484.8829, 192.7039
486.8113, 191.7444
488.7398, 192.5612
490.6683, 191.5721
492.5967, 188.9474
494.5252, 187.2794
496.4537, 186.9318
498.3821, 186.9843
500.3106, 188.1806
502.2391, 188.3027
504.1675, 185.6170
506.0960, 182.8659
508.0245, 182.3159
509.9529, 183.2928
511.8814, 185.1834
513.8099, 187.9953
515.7383, 189.1263
517.6668, 188.1190
519.5953, 186.0128
521.5237, 182.5859
523.4522, 179.9915
525.3807, 178.5619
527.3091, 178.8591
529.2376, 182.2195
531.1661, 182.1364
533.0945, 175.7010
535.0230, 170.9318
536.9515, 171.5189
538.8799, 173.7085
540.8084, 175.6521
542.7369, 177.4251
544.6653, 177.4522
546.5938, 175.6363
548.5223, 176.2509
550.4507, 181.0072
552.3792, 181.9444
554.3077, 176.8163
556.2361, 173.4504
558.1646, 174.2396
560.0931, 176.0537
562.0215, 178.1397
563.9500, 180.7731
565.8785, 183.0951
567.8069, 182.6389
569.7354, 177.5879
571.6639, 173.7422
573.5923, 178.1218
575.5208, 185.7402
577.4493, 186.6415
579.3777, 182.4904
581.3062, 179.6910
583.2347, 178.4038
585.1631, 178.0022
587.0916, 177.8484
589.0201, 177.4733
590.9485, 177.8914
592.8770, 177.6864
594.8055, 176.4381
596.7339, 175.2127
598.6624, 172.7037
600.5909, 170.8267
602.5193, 172.1949
604.4478, 173.4691
606.3763, 172.1364
608.3047, 173.7041
610.2332, 179.3716
612.1617, 182.3894
614.0901, 177.6526
616.0186, 170.1056
617.9471, 168.4573
619.8755, 169.6767
621.8040, 168.8421
623.7325, 169.2847
625.6609, 172.6479
627.5894, 177.5488
629.5179, 180.2493
631.4464, 180.0253
633.3748, 177.8051
635.3033, 175.6529
637.2318, 177.6787
639.1602, 180.1897
641.0887, 179.5569
643.0172, 180.6549
644.9456, 183.3848
646.8741, 183.2101
648.8026, 179.5662
650.7310, 175.3033
652.6595, 173.2000
654.5880, 176.2100
656.5164, 181.4640
658.4449, 180.2277
660.3734, 174.2584
662.3018, 172.4305
664.2303, 175.4097
666.1588, 176.8317
668.0872, 173.3194
670.0157, 170.0027
671.9442, 173.7712
673.8726, 178.8458
675.8011, 179.6211
677.7296, 179.5269
679.6580, 181.3234
681.5865, 183.8358
683.5150, 187.6952
685.4434, 196.0504
687.3719, 205.6404
689.3004, 215.9284
691.2288, 227.2594
693.1573, 236.5471
695.0858, 246.1509
697.0142, 262.5532
698.9427, 287.5366
700.8712, 319.1768
702.7996, 357.5733
704.7281, 404.4887
706.6566, 470.1667
708.5850, 558.2457
710.5135, 645.2072
712.4420, 758.5460
714.3704, 870.9886
716.2989, 932.0481
718.2274, 949.7939
720.1558, 912.6584
722.0843, 853.6633
724.0128, 777.6772
725.9412, 678.1406
727.8697, 591.8964
729.7982, 508.0458
731.7266, 432.4239
733.6551, 384.7585
735.5836, 347.8995
737.5120, 313.5917
739.4405, 284.7218
741.3690, 261.3825
743.2974, 243.2339
745.2259, 228.9712
747.1544, 216.0747
749.0828, 202.7265
751.0113, 191.4934
752.9398, 184.0392
754.8682, 179.3850
756.7967, 175.6342
758.7252, 171.6952
760.6536, 170.1026
762.5821, 171.3326
764.5106, 171.0157
766.4390, 166.5500
768.3675, 163.0120
770.2960, 163.7260
772.2244, 165.2889
774.1529, 165.3061
776.0814, 163.4223
778.0098, 159.0817
779.9383, 154.8784
781.8668, 156.6870
783.7952, 163.0586
785.7237, 165.7260
787.6522, 163.6037
789.5806, 160.1578
791.5091, 156.9946
793.4376, 154.9308
795.3661, 154.3317
797.2946, 156.0117
799.2230, 158.6374
801.1515, 160.0782
803.0800, 161.6706
805.0084, 162.4222
806.9369, 159.1805
808.8654, 153.9743
810.7938, 150.2999
812.7223, 152.2523
814.6508, 159.4895
816.5792, 163.5413
818.5077, 162.4318
820.4362, 159.8868
822.3646, 156.0971
824.2931, 154.2612
826.2216, 156.8751
828.1500, 158.3714
830.0785, 155.6939
832.0070, 154.4834
833.9354, 158.0886
835.8639, 161.2819
837.7924, 161.1624
839.7208, 161.4708
841.6493, 162.9962
843.5778, 161.4723
845.5062, 157.5302
847.4347, 157.4436
849.3632, 160.1031
851.2916, 161.3541
853.2201, 162.0055
855.1486, 162.9013
857.0770, 163.2791
859.0055, 162.0587
860.9340, 161.6585
862.8624, 163.0117
864.7909, 161.7134
866.7194, 157.6434
868.6478, 154.5600
870.5763, 154.8903
872.5048, 157.8037
874.4332, 159.4871
876.3617, 159.4800
878.2902, 159.5849
880.2186, 161.4830
882.1471, 164.4660
884.0756, 163.0440
886.0040, 158.8170
887.9325, 158.9488
889.8610, 162.4758
891.7894, 165.0600
893.7179, 165.3270
895.6464, 161.5377
897.5748, 155.9950
899.5033, 155.5728
901.4318, 158.8827
903.3602, 160.8515
905.2887, 162.0349
907.2172, 162.0993
909.1456, 160.7093
911.0741, 161.0614
913.0026, 163.3312
914.9310, 166.4434
916.8595, 170.4631
918.7880, 172.0540
920.7164, 171.0046
922.6449, 171.8518
924.5734, 174.6280
926.5018, 173.9856
928.4303, 169.7118
930.3588, 169.5454
932.2872, 173.9769
934.2157, 176.8955
936.1442, 178.2441
938.0726, 176.6302
940.0011, 171.5434
941.9296, 169.1571
943.8580, 169.8194
945.7865, 169.9467
947.7150, 168.8824
949.6434, 170.9896
951.5719, 177.6555
953.5004, 181.4960
955.4288, 182.4119
957.3573, 180.3289
959.2858, 173.9185
961.2142, 170.1048
963.1427, 169.5704
965.0712, 170.3293
966.9996, 172.1940
968.9281, 173.3862
970.8566, 174.1600
972.7850, 175.6017
974.7135, 177.6652
976.6420, 177.7698
978.5704, 176.0857
980.4989, 175.6835
982.4274, 175.7521
984.3558, 179.6852
986.2843, 188.6837
988.2128, 192.0337
990.1412, 188.6859
992.0697, 188.7744
993.9982, 193.0434
995.9266, 198.4501
997.8551, 204.0676
999.7836, 205.8618
1001.712, 205.0198
1003.641, 208.3205
1005.569, 214.9090
1007.497, 219.0270
1009.426, 221.3876
1011.354, 227.3809
1013.283, 236.1719
1015.211, 244.7513
1017.140, 253.5869
1019.068, 260.5196
1020.997, 264.7318
1022.925, 267.4763
1024.854, 268.1994
1026.782, 265.1438
1028.711, 262.0935
1030.639, 266.4142
1032.568, 275.5198
1034.496, 284.6647
1036.424, 292.7864
1038.353, 293.8185
1040.281, 294.1142
1042.210, 310.6135
1044.138, 338.2363
1046.067, 360.1404
1047.995, 387.0206
1049.924, 443.9978
1051.852, 529.1179
1053.781, 646.7744
1055.709, 787.8536
1057.638, 929.6156
1059.566, 1077.808
1061.495, 1211.481
1063.423, 1373.571
1065.351, 1589.233
1067.280, 1892.292
1069.208, 2283.341
1071.137, 2823.786
1073.065, 3510.127
1074.994, 4449.219
1076.922, 5694.421
1078.851, 7089.628
1080.779, 8896.255
1082.708, 10185.55
1084.636, 10579.11
1086.565, 10336.57
1088.493, 9493.706
1090.422, 8377.961
1092.350, 6870.306
1094.278, 5365.049
1096.207, 3834.881
1098.135, 2593.286
1100.064, 1788.249
1101.992, 1196.058
1103.921, 881.3934
1105.849, 664.5374
1107.778, 530.0555
1109.706, 435.5041
1111.635, 370.8311
1113.563, 328.6677
1115.492, 301.4305
1117.420, 276.6602
1119.349, 250.7283
1121.277, 234.3896
1123.205, 229.2850
1125.134, 224.5403
1127.062, 217.2015
1128.991, 213.2722
1130.919, 213.6595
1132.848, 211.7133
1134.776, 206.8166
1136.705, 203.9729
1138.633, 203.0649
1140.562, 206.6329
1142.490, 211.3781
1144.419, 207.1863
1146.347, 199.8087
1148.276, 199.9810
1150.204, 202.8335
1152.132, 200.4620
1154.061, 198.9078
1155.989, 204.7094
1157.918, 209.4347
1159.846, 208.3148
1161.775, 206.9567
1163.703, 206.7560
1165.632, 207.2174
1167.560, 207.7413
1169.489, 207.2957
1171.417, 207.6122
1173.346, 210.7964
1175.274, 215.9479
1177.203, 215.6204
1179.131, 209.0333
1181.059, 208.0902
1182.988, 213.6536
1184.916, 212.4746
1186.845, 204.9850
1188.773, 207.2262
1190.702, 215.8574
1192.630, 215.5710
1194.559, 211.9989
1196.487, 216.9873
1198.416, 225.0374
1200.344, 226.4521
1202.273, 224.5762
1204.201, 224.6131
1206.130, 224.4274
1208.058, 224.0980
1209.986, 224.7077
1211.915, 224.8375
1213.843, 226.2251
1215.772, 227.4581
1217.700, 227.6864
1219.629, 230.7223
1221.557, 229.7630
1223.486, 221.3852
1225.414, 219.0057
1227.343, 223.9335
1229.271, 231.3988
1231.200, 240.8875
1233.128, 241.4472
1235.057, 234.2444
1236.985, 229.8977
1238.913, 228.5152
1240.842, 227.8596
1242.770, 228.0471
1244.699, 232.4852
1246.627, 237.8390
1248.556, 240.0815
1250.484, 240.2109
1252.413, 236.7281
1254.341, 235.3021
1256.270, 242.1856
1258.198, 245.8045
1260.127, 238.7032
1262.055, 235.7590
1263.984, 240.8284
1265.912, 241.2040
1267.840, 236.6378
1269.769, 236.1788
1271.697, 238.5981
1273.626, 241.1450
1275.554, 244.4264
1277.483, 251.5783
1279.411, 257.9257
1281.340, 255.2293
1283.268, 253.1285
1285.197, 260.2795
1287.125, 268.3519
1289.054, 273.1115
1290.982, 275.3893
1292.911, 273.5105
1294.839, 273.7469
1296.767, 281.3470
1298.696, 282.3800
1300.624, 272.5157
1302.553, 272.1314
1304.481, 280.3104
1306.410, 284.3235
1308.338, 287.0504
1310.267, 296.4222
1312.195, 305.9820
1314.124, 306.6835
1316.052, 304.6306
1317.981, 300.4752
1319.909, 299.4949
1321.838, 308.3355
1323.766, 316.4381
1325.694, 318.9658
1327.623, 320.7264
1329.551, 322.8100
1331.480, 322.7289
1333.408, 320.1776
1335.337, 322.8419
1337.265, 329.5113
1339.194, 337.9956
1341.122, 346.8263
1343.051, 350.2654
1344.979, 351.1753
1346.908, 354.2636
1348.836, 354.2569
1350.765, 344.0240
1352.693, 338.2917
1354.621, 344.6400
1356.550, 350.3941
1358.478, 352.5902
1360.407, 354.7801
1362.335, 357.1080
1364.264, 352.1313
1366.192, 343.0394
1368.121, 349.5030
1370.049, 362.1818
1371.978, 358.9007
1373.906, 353.8828
1375.835, 367.0443
1377.763, 377.4762
1379.692, 370.5197
1381.620, 365.7993
1383.548, 368.9920
1385.477, 370.1003
1387.405, 367.6758
1389.334, 363.8313
1391.262, 359.9628
1393.191, 365.7873
1395.119, 375.8456
1397.048, 377.6563
1398.976, 376.2260
1400.905, 374.5255
1402.833, 376.4055
1404.762, 387.4141
1406.690, 396.3462
1408.619, 399.0291
1410.547, 405.8613
1412.475, 418.0835
1414.404, 430.1200
1416.332, 438.8797
1418.261, 427.4359
1420.189, 406.1920
1422.118, 391.3481
1424.046, 382.0933
1425.975, 382.9064
1427.903, 380.2055
1429.832, 363.5253
1431.760, 349.3423
1433.689, 339.5899
1435.617, 336.5544
1437.546, 339.9414
1439.474, 337.8888
1441.402, 331.7119
1443.331, 325.3609
1445.259, 319.1415
1447.188, 310.6956
1449.116, 306.7150
1451.045, 316.3849
1452.973, 322.1141
1454.902, 316.8379
1456.830, 311.1630
1458.759, 305.1904
1460.687, 302.3938
1462.616, 301.7482
1464.544, 299.1100
1466.473, 294.7730
1468.401, 287.0169
1470.329, 281.4276
1472.258, 282.3444
1474.186, 284.4497
1476.115, 286.8113
1478.043, 287.4040
1479.972, 285.7043
1481.900, 288.3887
1483.829, 293.2130
1485.757, 290.2809
1487.686, 284.7083
1489.614, 281.1394
1491.543, 281.6736
1493.471, 290.4479
1495.400, 293.9171
1497.328, 287.1352
1499.256, 283.7993
1501.185, 284.7983
1503.113, 279.8653
1505.042, 272.4704
1506.970, 272.7921
1508.899, 274.1769
1510.827, 267.1199
1512.756, 265.0348
1514.684, 275.4063
1516.613, 277.7276
1518.541, 267.9303
1520.470, 266.0666
1522.398, 270.7314
1524.327, 270.7292
1526.255, 269.1664
1528.183, 269.5372
1530.112, 272.3181
1532.040, 278.8674
1533.969, 286.0786
1535.897, 294.3989
1537.826, 286.9917
1539.754, 266.6082
1541.683, 266.6018
1543.611, 275.7953
1545.540, 271.5138
1547.468, 266.9748
1549.397, 278.4557
1551.325, 279.5463
1553.254, 259.9831
1555.182, 256.0866
1557.111, 268.6317
1559.039, 270.8929
1560.968, 267.7232
1562.896, 273.3181
1564.824, 276.9113
1566.753, 264.3154
1568.681, 256.6909
1570.610, 262.1411
1572.538, 265.8428
1574.467, 266.7979
1576.395, 265.5376
1578.324, 262.4939
1580.252, 256.5197
1582.181, 252.5381
1584.109, 257.8474
1586.038, 259.7549
1587.966, 251.7282
1589.895, 248.8471
1591.823, 251.0364
1593.751, 249.3051
1595.680, 247.2986
1597.608, 252.5923
1599.537, 258.9484
1601.465, 262.7812
1603.394, 265.2597
1605.322, 267.3303
1607.251, 265.0894
1609.179, 259.2831
1611.108, 255.3095
1613.036, 252.1747
1614.965, 247.9651
1616.893, 245.1938
1618.822, 245.4541
1620.750, 246.3418
1622.678, 247.3471
1624.607, 252.7715
1626.535, 258.4222
1628.464, 245.5479
1630.392, 232.8314
1632.321, 236.7692
1634.249, 241.6889
1636.178, 243.1755
1638.106, 240.0762
1640.035, 233.3987
1641.963, 234.1774
1643.892, 238.5393
1645.820, 241.8188
1647.749, 242.8336
1649.677, 240.2055
1651.605, 239.6584
1653.534, 242.3109
1655.462, 236.0938
1657.391, 225.6942
1659.319, 224.3957
1661.248, 226.1873
1663.176, 228.1765
1665.105, 225.8531
1667.033, 217.3824
1668.962, 219.6617
1670.890, 229.7840
1672.819, 228.1057
1674.747, 222.7220
1676.676, 223.4082
1678.604, 223.0513
1680.532, 219.2789
1682.461, 215.6996
1684.389, 212.7416
1686.318, 209.5896
1688.246, 208.0324
1690.175, 213.5548
1692.103, 216.1551
1694.032, 207.8798
1695.960, 211.4069
1697.889, 226.7117
1699.817, 226.7514
1701.746, 221.1912
1703.674, 227.1156
1705.603, 235.7020
1707.531, 241.7713
1709.459, 248.4295
1711.388, 256.3851
1713.316, 277.7235
1715.245, 307.6992
1717.173, 341.2120
1719.102, 370.3909
1721.030, 389.8656
1722.959, 405.8980
1724.887, 419.3123
1726.816, 408.2080
1728.744, 384.0201
1730.673, 367.7446
1732.601, 351.3498
1734.530, 331.2060
1736.458, 306.0861
1738.386, 275.7192
1740.315, 249.6078
1742.243, 229.0111
1744.172, 216.5467
1746.100, 208.5636
1748.029, 204.8430
1749.957, 200.1596
1751.886, 194.1799
1753.814, 193.0161
1755.743, 195.0508
1757.671, 199.8462
1759.600, 202.3911
1761.528, 200.9642
1763.457, 193.2364
1765.385, 181.0947
1767.313, 179.8270
1769.242, 184.1171
1771.170, 189.8088
1773.099, 193.8249
1775.027, 195.3120
1776.956, 192.6494
1778.884, 187.8153
1780.813, 188.9761
1782.741, 191.2542
1784.670, 190.7905
1786.598, 190.4574
1788.527, 190.8695
1790.455, 191.4127
1792.384, 191.8647
1794.312, 192.6405
1796.240, 191.1506
1798.169, 184.7698
1800.097, 185.1772
1802.026, 192.3114
1803.954, 189.7207
1805.883, 184.4827
1807.811, 186.9034
1809.740, 188.7603
1811.668, 187.6489
1813.597, 190.0045
1815.525, 193.7466
1817.454, 190.5406
1819.382, 185.5386
1821.311, 181.3160
1823.239, 180.8905
1825.167, 183.9938
1827.096, 179.0808
1829.024, 174.0235
1830.953, 183.8343
1832.881, 192.7746
1834.810, 195.6020
1836.738, 193.3103
1838.667, 187.4374
1840.595, 179.7436
1842.524, 175.8866
1844.452, 184.4451
1846.381, 189.5900
1848.309, 189.3785
1850.238, 182.3157
1852.166, 175.2121
1854.094, 177.5396
1856.023, 180.7772
1857.951, 182.3546
1859.880, 184.1083
1861.808, 185.6160
1863.737, 187.8528
1865.665, 187.2475
1867.594, 178.2344
1869.522, 172.2582
1871.451, 170.7491
1873.379, 174.6275
1875.308, 177.5681
1877.236, 174.6609
1879.165, 171.0816
1881.093, 166.9892
1883.021, 165.5798
1884.950, 166.1576
1886.878, 167.0416
1888.807, 168.9120
1890.735, 173.8287
1892.664, 172.0105
1894.592, 166.5947
1896.521, 172.4536
1898.449, 175.0924
1900.378, 165.9461
1902.306, 164.4715
1904.235, 170.4500
1906.163, 171.2315
1908.092, 168.7227
1910.020, 163.0235
1911.948, 160.4884
1913.877, 162.4540
1915.805, 157.3344
1917.734, 153.2089
1919.662, 166.5126
1921.591, 170.2866
1923.519, 159.7445
1925.448, 155.5236
1927.376, 154.7985
1929.305, 153.4396
1931.233, 154.4541
1933.162, 157.2171
1935.090, 151.1591
1937.019, 143.1687
1938.947, 149.7417
1940.875, 152.2438
1942.804, 142.6918
1944.732, 139.2594
1946.661, 140.1033
1948.589, 140.3031
1950.518, 138.9434
1952.446, 133.2663
1954.375, 130.4640
1956.303, 130.7944
1958.232, 137.7739
1960.160, 143.5026
1962.089, 138.4422
1964.017, 133.2167
1965.946, 130.0183
1967.874, 129.7429
1969.802, 128.1479
1971.731, 120.5918
1973.659, 116.6752
1975.588, 117.2172
1977.516, 125.1989
1979.445, 130.1340
1981.373, 124.5256
1983.302, 121.2871
1985.230, 120.1990
1987.159, 120.1133
1989.087, 118.6614
1991.016, 112.7082
1992.944, 115.2340
1994.873, 123.3198
1996.801, 121.5223
1998.729, 118.1930
2000.658, 117.8683
2002.586, 117.3139
2004.515, 116.9004
2006.443, 112.4778
2008.372, 108.6183
2010.300, 109.7806
2012.229, 110.8647
2014.157, 111.1626
2016.086, 111.3745
2018.014, 111.4622
2019.943, 112.0744
2021.871, 110.4612
2023.800, 106.9395
2025.728, 104.2340
2027.656, 102.6200
2029.585, 102.3874
2031.513, 104.5616
2033.442, 106.3378
2035.370, 105.4581
2037.299, 103.6145
2039.227, 100.4737
2041.156, 104.5071
2043.084, 109.4051
2045.013, 100.0468
2046.941, 95.99010
2048.870, 100.9151
2050.798, 99.38566
2052.727, 95.91499
2054.655, 97.52187
2056.583, 99.60369
2058.512, 100.9388
2060.440, 100.2637
2062.369, 100.0030
2064.297, 102.2938
2066.226, 104.5968
2068.154, 105.8124
2070.083, 102.5949
2072.011, 98.13137
2073.940, 92.98707
2075.868, 93.67812
2077.797, 96.35130
2079.725, 88.80293
2081.654, 87.57984
2083.582, 99.77889
2085.510, 100.3169
2087.439, 95.44340
2089.367, 91.60476
2091.296, 89.27838
2093.224, 88.47731
2095.153, 87.30793
2097.081, 86.89559
2099.010, 88.39042
2100.938, 89.77779
2102.867, 91.00893
2104.795, 93.87204
2106.724, 94.04372
2108.652, 87.69986
2110.581, 90.50738
2112.509, 97.33521
2114.438, 99.34716
2116.366, 97.29824
2118.294, 91.28291
2120.223, 93.36272
2122.151, 97.85037
2124.080, 100.9086
2126.008, 97.07008
2127.937, 89.11527
2129.865, 94.14735
2131.794, 97.57742
2133.722, 92.43649
2135.651, 91.97325
2137.579, 94.87100
2139.508, 99.97215
2141.436, 100.0708
2143.365, 94.63795
2145.293, 95.15291
2147.221, 95.63165
2149.150, 90.84847
2151.078, 89.11338
2153.007, 89.46202
2154.935, 87.00018
2156.864, 85.13859
2158.792, 85.14236
2160.721, 86.88577
2162.649, 88.34220
2164.578, 87.33742
2166.506, 87.31961
2168.435, 87.86195
2170.363, 83.99208
2172.292, 82.09969
2174.220, 85.51587
2176.148, 89.48119
2178.077, 90.62663
2180.005, 82.98545
2181.934, 79.35986
2183.862, 81.09373
2185.791, 85.83938
2187.719, 87.12450
2189.648, 79.64064
2191.576, 78.45840
2193.505, 79.34387
2195.433, 76.43181
2197.362, 77.10728
2199.290, 80.60698
2201.219, 81.31918
2203.147, 81.55499
2205.075, 79.97239
2207.004, 75.70736
2208.932, 72.61887
2210.861, 75.18600
2212.789, 77.25635
2214.718, 77.77010
2216.646, 76.64837
2218.575, 74.93601
2220.503, 74.71397
2222.432, 76.02780
2224.360, 76.70522
2226.289, 73.90668
2228.217, 70.86739
2230.146, 70.30289
2232.074, 67.77212
2234.002, 66.90659
2235.931, 70.71473
2237.859, 70.52234
2239.788, 67.59793
2241.716, 65.88551
2243.645, 66.42952
2245.573, 66.55059
2247.502, 67.80885
2249.430, 67.11469
2251.359, 63.11045
2253.287, 64.58593
2255.216, 65.83552
2257.144, 63.96896
2259.073, 65.83514
2261.001, 68.53704
2262.929, 71.86332
2264.858, 70.15459
2266.786, 61.63573
2268.715, 61.43130
2270.643, 63.53220
2272.572, 61.19086
2274.500, 62.68822
2276.429, 64.99942
2278.357, 64.31925
2280.286, 65.37733
2282.214, 66.62910
2284.143, 67.44792
2286.071, 65.63997
2288.000, 62.37330
2289.928, 60.13614
2291.856, 61.00024
2293.785, 66.22303
2295.713, 65.45468
2297.642, 64.80782
2299.570, 66.12727
2301.499, 64.94850
2303.427, 63.49614
2305.356, 58.26520
2307.284, 57.23632
2309.213, 60.66289
2311.141, 57.66959
2313.070, 56.25887
2314.998, 60.01777
2316.927, 58.02966
2318.855, 56.82489
2320.783, 62.28882
2322.712, 62.13050
2324.640, 58.78719
2326.569, 59.48491
2328.497, 61.31846
2330.426, 61.90149
2332.354, 63.69776
2334.283, 60.78751
2336.211, 53.20518
2338.140, 52.32708
2340.068, 53.67554
2341.997, 55.15024
2343.925, 54.19798
2345.854, 54.93634
2347.782, 58.05644
2349.710, 58.46073
2351.639, 57.27357
2353.567, 52.57495
2355.496, 53.65847
2357.424, 58.12423
2359.353, 58.81294
2361.281, 58.32928
2363.210, 52.80521
2365.138, 48.89449
2367.067, 51.53104
2368.995, 56.71349
2370.924, 55.50990
2372.852, 52.37987
2374.781, 50.72810
2376.709, 51.18476
2378.637, 53.77561
2380.566, 55.75718
2382.494, 52.32687
2384.423, 49.20677
2386.351, 49.99249
2388.280, 51.35746
2390.208, 51.62472
2392.137, 51.72814
2394.065, 53.98376
2395.994, 55.76724
2397.922, 49.50140
2399.851, 48.26363
2401.779, 51.53432
2403.708, 55.01726
2405.636, 53.88128
2407.564, 49.48221
2409.493, 46.48595
2411.421, 45.71485
2413.350, 47.43300
2415.278, 47.37645
2417.207, 47.53401
2419.135, 46.34557
2421.064, 48.38099
2422.992, 51.79195
2424.921, 49.81359
2426.849, 48.37385
2428.778, 48.99962
2430.706, 47.32960
2432.635, 49.59150
2434.563, 51.86004
2436.491, 47.83608
2438.420, 46.50470
2440.348, 47.41129
2442.277, 45.77359
2444.205, 47.82138
2446.134, 50.28291
2448.062, 45.97540
2449.991, 42.68863
2451.919, 41.03598
2453.848, 42.74259
2455.776, 43.56967
2457.705, 45.19715
2459.633, 45.41648
2461.562, 46.39165
2463.490, 47.74194
2465.418, 44.94112
2467.347, 42.83410
2469.275, 42.17894
2471.204, 43.40563
2473.132, 44.63777
2475.061, 40.91629
2476.989, 42.84848
2478.918, 46.09459
2480.846, 41.28636
2482.775, 40.78996
2484.703, 42.61563
2486.632, 41.22392
2488.560, 42.80833
2490.489, 45.27013
2492.417, 43.81699
2494.345, 43.79100
2496.274, 43.45221
2498.202, 37.67261
2500.131, 39.21025
2502.059, 43.91793
2503.988, 42.49300
2505.916, 42.93389
2507.845, 44.02049
2509.773, 44.11618
2511.702, 44.88882
2513.630, 42.21682
2515.559, 36.40557
2517.487, 35.02731
2519.416, 35.78185
2521.344, 39.91669
2523.272, 40.28590
2525.201, 37.39649
2527.129, 38.81876
2529.058, 37.24581
2530.986, 35.10991
2532.915, 37.49818
2534.843, 38.96778
2536.772, 38.62467
2538.700, 35.55697
2540.629, 35.77986
2542.557, 39.05524
2544.486, 39.61880
2546.414, 38.23512
2548.343, 37.89359
2550.271, 38.65250
2552.199, 36.23055
2554.128, 32.70144
2556.056, 30.63233
2557.985, 33.11365
2559.913, 37.11026
2561.842, 35.26910
2563.770, 33.96934
2565.699, 32.92926
2567.627, 29.10454
2569.556, 30.59188
2571.484, 34.27004
2573.413, 35.45149
2575.341, 33.12463
2577.270, 31.34080
2579.198, 35.64913
2581.126, 35.45222
2583.055, 32.97968
2584.983, 30.93991
2586.912, 33.74001
2588.840, 37.10183
2590.769, 37.13477
2592.697, 32.73622
2594.626, 29.07715
2596.554, 29.93165
2598.483, 32.26706
2600.411, 32.86921
2602.340, 30.14435
2604.268, 29.40835
2606.197, 30.22745
2608.125, 31.76035
2610.053, 28.59081
2611.982, 27.40727
2613.910, 30.37248
2615.839, 31.07161
2617.767, 30.59950
2619.696, 29.68082
2621.624, 30.78240
2623.553, 29.29259
2625.481, 26.60724
2627.410, 31.90000
2629.338, 33.76154
2631.267, 32.04111
2633.195, 30.86362
2635.124, 27.13792
2637.052, 24.58729
2638.980, 29.26820
2640.909, 29.05122
2642.837, 26.51421
2644.766, 27.59345
2646.694, 30.71328
2648.623, 32.47309
2650.551, 26.73460
2652.480, 25.49450
2654.408, 27.72206
2656.337, 31.98060
2658.265, 29.48131
2660.194, 27.06228
2662.122, 27.79528
2664.051, 25.83564
2665.979, 23.80649
2667.907, 23.63011
2669.836, 25.62539
2671.764, 25.74078
2673.693, 25.49231
2675.621, 27.59271
2677.550, 28.54077
2679.478, 27.40696
2681.407, 24.73432
2683.335, 26.03847
2685.264, 27.30248
2687.192, 26.38229
2689.121, 27.51462
2691.049, 27.03651
2692.978, 23.68447
2694.906, 27.09876
2696.834, 27.68172
2698.763, 25.26101
2700.691, 26.20079
2702.620, 27.52784
2704.548, 27.03036
2706.477, 25.21116
2708.405, 25.09135
2710.334, 23.54526
2712.262, 22.59027
2714.191, 22.29322
2716.119, 20.43368
2718.048, 24.26765
2719.976, 25.77144
2721.905, 24.79393
2723.833, 27.31870
2725.761, 23.60276
2727.690, 19.57505
2729.618, 19.75474
2731.547, 23.76687
2733.475, 25.26250
2735.404, 24.72376
2737.332, 23.78318
2739.261, 23.73965
2741.189, 23.91089
2743.118, 24.99456
2745.046, 25.27777
2746.975, 23.49856
2748.903, 21.55180
2750.832, 21.38725
2752.760, 25.18965
2754.688, 23.94732
2756.617, 20.40871
2758.545, 21.97991
2760.474, 22.87235
2762.402, 23.80047
2764.331, 24.64217
2766.259, 23.19821
2768.188, 22.41020
2770.116, 22.48435
2772.045, 21.65619
2773.973, 20.44013
2775.902, 21.23197
2777.830, 21.50511
2779.759, 20.77995
2781.687, 21.76287
2783.615, 20.35536
2785.544, 19.47717
2787.472, 20.57575
2789.401, 20.07548
2791.329, 19.42257
2793.258, 18.41227
2795.186, 20.16254
2797.115, 20.51281
2799.043, 16.64504
2800.972, 15.71151
2802.900, 19.87112
2804.829, 22.63685
2806.757, 19.62874
2808.686, 15.92343
2810.614, 14.49857
2812.542, 17.57635
2814.471, 20.08722
2816.399, 19.51977
2818.328, 17.33528
2820.256, 15.92665
2822.185, 14.25964
2824.113, 15.03332
2826.042, 15.32626
2827.970, 17.06789
2829.899, 20.07221
2831.827, 19.80941
2833.756, 14.03111
2835.684, 13.48846
2837.613, 19.83525
2839.541, 17.85217
2841.469, 15.56500
2843.398, 14.30904
2845.326, 14.97808
2847.255, 18.05470
2849.183, 19.93895
2851.112, 16.70862
2853.040, 14.07103
2854.969, 13.82093
2856.897, 16.76145
2858.826, 16.07138
2860.754, 15.00845
2862.683, 14.08998
2864.611, 14.81815
2866.540, 14.35194
2868.468, 14.36645
2870.396, 12.36802
2872.325, 15.47347
2874.253, 15.16819
2876.182, 14.74652
2878.110, 13.27927
2880.039, 12.48137
2881.967, 13.57508
2883.896, 11.44145
2885.824, 13.33513
2887.753, 14.81949
2889.681, 13.64603
2891.610, 11.14494
2893.538, 10.55984
2895.467, 11.79768
2897.395, 13.47161
2899.323, 15.02640
2901.252, 14.01592
2903.180, 12.32904
2905.109, 13.59072
2907.037, 13.74098
2908.966, 13.42742
2910.894, 12.62747
2912.823, 14.88480
2914.751, 13.25959
2916.680, 11.81653
2918.608, 10.33442
2920.537, 11.15254
2922.465, 11.96071
2924.394, 11.30363
2926.322, 11.51903
2928.250, 11.77242
2930.179, 12.29286
2932.107, 11.35606
2934.036, 13.89277
2935.964, 14.68776
2937.893, 11.61695
2939.821, 13.66644
2941.750, 13.73248
2943.678, 12.18262
2945.607, 8.902804
2947.535, 7.800270
2949.464, 8.230897
2951.392, 9.025889
2953.321, 10.61674
2955.249, 11.99776
2957.177, 12.21002
2959.106, 9.569650
2961.034, 6.754655
2962.963, 8.670153
2964.891, 12.60588
2966.820, 13.24513
2968.748, 12.47192
2970.677, 11.67872
2972.605, 12.07173
2974.534, 10.51344
2976.462, 11.52792
2978.391, 12.36789
2980.319, 10.94258
2982.248, 11.89132
2984.176, 13.49634
2986.104, 14.74783
2988.033, 12.29233
2989.961, 12.69391
2991.890, 13.49461
2993.818, 13.12399
2995.747, 10.64241
2997.675, 8.051470
2999.604, 6.430840
3001.532, 6.676112
3003.461, 8.587166
3005.389, 8.251939
3007.318, 8.007224
3009.246, 12.37912
3011.175, 10.48440
3013.103, 7.716510
3015.032, 6.549177
3016.960, 11.17816
3018.889, 9.715475
3020.817, 7.862265
3022.746, 8.890172
3024.674, 9.920756
3026.603, 9.572818
3028.531, 9.134029
3030.459, 9.477769
3032.388, 7.104902
3034.316, 6.944718
3036.245, 9.335000
3038.173, 11.25956
3040.102, 13.19544
3042.030, 12.45098
3043.959, 9.068409
3045.887, 8.393350
3047.816, 9.492820
3049.744, 9.350940
3051.673, 7.074436
3053.601, 5.132349
3055.530, 5.932936
3057.458, 6.743732
3059.386, 5.640517
3061.315, 6.942919
3063.243, 7.942577
3065.172, 8.471643
3067.100, 8.701597
3069.029, 9.321651
3070.957, 9.923337
3072.886, 9.644513
3074.814, 6.784025
3076.743, 8.377403
3078.671, 8.742914
3080.600, 7.418944
3082.528, 6.541874
3084.457, 7.553271
3086.385, 7.439444
3088.313, 6.563864
3090.242, 8.008853
3092.170, 9.079460
3094.099, 7.948344
3096.027, 5.838995
3097.956, 8.199969
3099.884, 7.433636
3101.813, 7.411154
3103.741, 9.312518
3105.670, 9.083068
3107.598, 7.165391
3109.527, 5.976869
3111.455, 7.569104
3113.384, 11.30722
3115.312, 8.221182
3117.240, 5.671852
3119.169, 7.432608
3121.097, 6.006811
3123.026, 6.671781
3124.954, 6.678610
3126.883, 4.841926
3128.811, 6.153115
3130.740, 8.299781
3132.668, 7.646291
3134.597, 5.222765
3136.525, 8.402383
3138.454, 11.30218
3140.382, 11.65998
3142.311, 9.904950
3144.239, 6.987428
3146.167, 4.947247
3148.096, 5.764947
3150.024, 8.216116
3151.953, 8.831366
3153.881, 5.555988
3155.810, 6.768121
3157.738, 12.02420
3159.667, 9.838698
3161.595, 5.749025
3163.524, 5.631948
3165.452, 9.488187
3167.381, 9.151278
3169.309, 9.502919
3171.238, 8.480904
3173.166, 6.592784
3175.094, 5.143054
3177.023, 7.114523
3178.951, 6.607543
3180.880, 5.680748
3182.808, 8.730549
3184.737, 6.566192
3186.665, 6.598879
3188.594, 8.301066
3190.522, 6.130050
3192.451, 5.679245
3194.379, 3.842548
3196.308, 2.726532
3198.236, 5.530356
3200.165, 7.929951
3202.093, 8.340714
3204.021, 8.786414
3205.950, 9.070619
3207.878, 5.887341
3209.807, 6.394078
3211.735, 7.468773
3213.664, 6.520488
3215.592, 4.692756
3217.521, 6.187451
3219.449, 9.119904
3221.378, 11.30828
3223.306, 10.43104
3225.235, 12.90443
3227.163, 8.864283
3229.092, 4.498744
3231.020, 7.392481
3232.948, 8.292257
3234.877, 7.404693
3236.805, 9.560280
3238.734, 14.77452
3240.662, 10.00129
3242.591, 6.875536
3244.519, 6.611139
3246.448, 8.192204
3248.376, 8.980081
3250.305, 9.135347
3252.233, 8.383264
3254.162, 7.279893
3256.090, 5.986997
3258.019, 9.665469
3259.947, 9.778492
3261.875, 9.065150
3263.804, 8.144483
3265.732, 12.60454
3267.661, 8.356982
3269.589, 6.423194
3271.518, 10.00210
3273.446, 10.98892
3275.375, 10.19090
3277.303, 10.00758
3279.232, 10.38628
3281.160, 11.50387
3283.089, 12.28718
3285.017, 8.124574
3286.946, 5.516181
3288.874, 6.984011
3290.802, 13.11997
3292.731, 12.65035
3294.659, 9.348345
3296.588, 8.765179
3298.516, 11.41333
3300.445, 7.703573
3302.373, 9.856931
3304.302, 11.68873
3306.230, 10.65358
3308.159, 6.639654
3310.087, 7.163142
3312.016, 8.202895
3313.944, 9.967704
3315.873, 13.15235
3317.801, 12.56741
3319.729, 10.13147
3321.658, 8.216537
3323.586, 7.959683
3325.515, 7.546761
3327.443, 10.31105
3329.372, 9.054197
3331.300, 8.134507
3333.229, 11.57609
3335.157, 8.613922
3337.086, 8.096151
3339.014, 7.872356
3340.943, 6.943914
3342.871, 6.757062
3344.800, 6.649406
3346.728, 7.799440
3348.656, 9.446908
3350.585, 9.283409
3352.513, 5.858789
3354.442, 5.152030
3356.370, 4.529886
3358.299, 5.824347
3360.227, 8.421102
3362.156, 8.931153
3364.084, 7.447414
3366.013, 5.438445
3367.941, 4.247460
3369.870, 5.080968
3371.798, 6.765553
3373.727, 6.552000
3375.655, 5.899768
3377.583, 6.341846
3379.512, 8.680657
3381.440, 5.668643
3383.369, 9.168201
3385.297, 9.320904
3387.226, 4.930803
3389.154, 7.629522
3391.083, 6.078062
3393.011, 5.048338
3394.940, 7.628284
3396.868, 11.96722
3398.797, 7.304521
3400.725, 4.917065
3402.654, 4.621619
3404.582, 5.834806
3406.510, 7.062008
3408.439, 4.192735
3410.367, 2.569764
3412.296, 4.359581
3414.224, 6.067233
3416.153, 5.426699
3418.081, 6.593191
3420.010, 8.798985
3421.938, 7.565649
3423.867, 3.816009
3425.795, 1.001426
3427.724, 4.433449
3429.652, 7.086427
3431.581, 1.919761
3433.509, -1.538565
3435.438, 4.069811
3437.366, 3.719507
3439.294, 4.312870
3441.223, 4.144644
3443.151, 3.584521
3445.080, 3.630615
3447.008, 4.379637
3448.937, 4.657281
3450.865, 3.947551
3452.794, 3.939411
3454.722, 5.406671
3456.651, 6.385211
3458.579, 5.154356
3460.508, 4.765680
3462.436, 4.088084
3464.365, 2.853678
3466.293, 3.521612
3468.221, 3.329999
3470.150, 5.584840
3472.078, 4.808348
3474.007, 2.517235
3475.935, 6.380285
3477.864, 0.7640209
3479.792, -0.2266993
3481.721, 1.901320
3483.649, 3.502123
3485.578, 2.824489
3487.506, 3.050503
3489.435, 0.6469231
3491.363, 1.452571
3493.292, 3.731534
3495.220, 3.736660
3497.148, 2.068489
3499.077, 2.020987
3501.005, 4.976994
3502.934, 5.354839
3504.862, 1.903564
3506.791, 1.036592
3508.719, 1.023150
3510.648, -0.3407005
3512.576, 2.352135
3514.505, 6.441014
3516.433, 5.048164
3518.362, -0.9777888
3520.290, 1.084352
3522.219, 2.772077
3524.147, 2.823022
3526.075, 2.767079
3528.004, 1.974968
3529.932, 1.957076
3531.861, 1.255482
3533.789, 1.223315
3535.718, 1.853295
3537.646, 1.847372
3539.575, 1.764058
3541.503, 2.666045
3543.432, 2.058996
3545.360, 0.3944286
3547.289, 0.3205673
3549.217, 5.022333
3551.146, 3.886779
3553.074, 6.045453
3555.002, 3.757826
3556.931, 0.8624966
3558.859, 4.408717
3560.788, 2.179955
3562.716, 3.783775
3564.645, 0.6785360
3566.573, -1.613399
3568.502, 0.3554675
3570.430, 3.480418
3572.359, 3.189495
3574.287, 1.728547
3576.216, 2.1682570E-02
3578.144, 1.335845
3580.073, 4.423753
3582.001, 2.121728
3583.929, 2.993572
3585.858, 0.5461303
3587.786, -0.9373208
3589.715, -1.104230
3591.643, -0.9782092
3593.572, 1.590369
3595.500, 2.104006
3597.429, -4.891816
3599.357, -4.297898
3601.286, -0.6576517
3603.214, -2.769747
3605.143, 0.4404182
3607.071, 0.4234938
3609.000, 4.623554
3610.928, 1.600423
3612.856, -1.537353
3614.785, 4.402731
3616.713, 4.127153
3618.642, 1.381466
3620.570, 2.900571
3622.499, 2.756546
3624.427, 0.8708701
3626.356, -9.1476731E-02
3628.284, -1.946161
3630.213, 1.256465
3632.141, 9.9581972E-02
3634.070, -0.7479615
3635.998, 0.3432787
3637.927, 1.921322
3639.855, 2.870576
3641.783, 1.174363
3643.712, 2.243672
3645.640, 2.828491
3647.569, 0.5111501
3649.497, -1.212312
3651.426, 3.501821
3653.354, 1.218194
3655.283, 3.183298
3657.211, 2.575848
3659.140, 0.1811608
3661.068, -0.6695437
3662.997, 0.8657645
3664.925, 0.8730495
3666.854, 1.852498
3668.782, 0.4625159
3670.710, 1.315349
3672.639, 2.247018
3674.567, 0.9519881
3676.496, 4.495862
3678.424, 4.172624
3680.353, -4.104011
3682.281, 0.4005868
3684.210, 3.954598
3686.138, 8.8649087E-02
3688.067, 0.8828405
3689.995, 0.7899448
3691.924, 2.777817
3693.852, 0.7791264
3695.781, -1.970181
3697.709, -0.6673064
3699.637, 3.810476
3701.566, 4.048592
3703.494, -0.4795279
3705.423, 1.966755
3707.351, 5.924170
3709.280, 5.035985
3711.208, 1.926276
3713.137, 1.927099
3715.065, 1.927923
3716.994, 2.433168
3718.922, -1.751784
3720.851, -0.9312574
3722.779, 3.575959
3724.708, 4.851083
3726.636, 1.225973
3728.564, 3.916104
3730.493, -1.029733
3732.421, 0.4045276
3734.350, 2.190470
3736.278, 3.762522
3738.207, 4.574725
3740.135, 2.118984
3742.064, -1.526085
3743.992, -0.8855617
3745.921, -3.422091
3747.849, -1.712556
3749.778, 1.527970
3751.706, 3.534940
3753.635, 3.973208
3755.563, -7.599667
3757.491, -6.390246
3759.420, -0.2025921
3761.348, 1.880209
3763.277, -0.6414783
3765.205, -2.321402
3767.134, -1.351632
3769.062, -5.667017
3770.991, -1.077206
3772.919, 0.0000000E+00
3774.848, 0.1132425
3776.776, -0.1032578
3778.705, -2.310333
3780.633, -2.916813
3782.562, 4.426809
3784.490, 4.588637
3786.418, -1.726281
3788.347, -0.2282644
3790.275, -0.3508286
3792.204, 0.1845296
3794.132, 1.582232
3796.061, 0.1101628
3797.989, 0.1082001
3799.918, -1.889874
3801.846, 2.2551781E-02
3803.775, 2.276446
3805.703, -0.6567907
3807.632, -4.097618
3809.560, -3.793522
3811.489, -2.078139
3813.417, 0.4121595
3815.345, 4.648212
3817.274, 1.309261
3819.202, 1.584551
3821.131, 0.5060866
3823.059, -2.718916
3824.988, -3.771015
3826.916, -1.080663
3828.845, 2.950341
3830.773, -3.118596
3832.702, 0.6194660
3834.630, -0.4860537
3836.559, -1.334424
3838.487, 0.6212279
3840.416, 1.866470
3842.344, 1.154822
3844.272, 1.396582
3846.201, -4.392128
3848.129, -0.5803072
3850.058, -0.2918180
3851.986, 3.704554
3853.915, 3.592354
3855.843, -2.416841
3857.772, -3.843879
3859.700, -2.228839
3861.629, -0.5532098
3863.557, 2.154840
3865.486, 3.750663
3867.414, 4.292425
3869.343, 0.2559183
3871.271, -3.760741
3873.199, -4.560702
3875.128, -7.048755
3877.056, -1.503810
3878.985, -3.042190
3880.913, -1.9303640E-02
3882.842, 0.6323287
3884.770, -1.199199
3886.699, -1.373486
3888.627, 0.2116651
3890.556, 1.020158
3892.484, 0.9956680
3894.413, -3.0274431E-03
3896.341, 2.195909
3898.270, -2.175125
3900.198, -5.224527
3902.126, -2.895873
3904.055, 1.469632
3905.983, 2.067102
3907.912, -0.7120957
3909.840, -0.1724968
3911.769, -3.839039
3913.697, -1.734746
3915.626, 0.4835646
3917.554, 1.362876
3919.483, -1.187330
3921.411, 0.4142521
3923.340, 1.617463
3925.268, -7.0256062E-02
3927.197, 2.643354
3929.125, -1.774701
3931.053, -0.3610226
3932.982, 1.123762
3934.910, -1.086372
3936.839, -2.523015
3938.767, 0.1486701
3940.696, 1.192927
3942.624, -0.2295815
3944.553, 2.010416
3946.481, 8.096733
3948.410, -0.3474458
3950.338, 0.8138569
3952.267, -0.1880096
3954.195, 3.404143
3956.124, 0.8214327
3958.052, 0.4192653
3959.980, -0.7078306
3961.909, -2.486790
3963.837, -1.104708
3965.766, -2.097513
3967.694, -3.017227
3969.623, -1.125809
3971.551, -3.048521
3973.480, 0.2643352
3975.408, -1.386761
3977.337, 0.3848259
3979.265, 2.125150
3981.194, -2.968160
3983.122, -9.357569
3985.051, -7.566188
3986.979, -2.315414
3988.907, -2.213369
3990.836, 0.8218798
3992.764, -1.073133
3994.693, -4.456364
3996.621, -4.351368
3998.550, -0.5551332
4000.478, -0.5985491
4002.407, -1.237456
4004.335, 1.505689
4006.264, 3.072775
4008.192, 2.085079
4010.121, -0.8089427
4012.049, -1.256495
4013.978, 2.062202
4015.906, -2.726687
4017.834, -3.136925
4019.763, 0.5517702
4021.691, -2.935076
4023.620, -4.599661
4025.548, -2.524794
4027.477, -0.7865991
4029.405, 3.678446
4031.334, 0.1511109
4033.262, -1.922333
4035.191, -1.995063
4037.119, -2.911724
4039.048, -2.874130
4040.976, -5.220735
4042.905, -1.263886
4044.833, -1.7873799E-02
4046.761, -1.246196
4048.690, -0.1085574
4050.618, 0.5266930
4052.547, -2.621020
4054.475, -4.973062
4056.404, -1.076733
4058.332, -6.399834
4060.261, 4.015638
4062.189, 0.7434191
4064.118, 2.746934
4066.046, 0.4673131
4067.975, -2.035023
4069.903, -0.3708409
4071.832, 0.9273983
4073.760, -0.8851086
4075.688, -3.719918
4077.617, -5.350995
4079.545, -3.577891
4081.474, 1.719310
4083.402, -0.7944839
4085.331, -1.982764
4087.259, -2.454728
4089.188, 1.199182
4091.116, 2.464374
4093.045, -0.1051304
4094.973, -0.5500066
4096.902, 5.0818220E-02
4098.830, 3.039303
4100.759, 5.649415
4102.687, 1.791209
4104.616, -4.544414
4106.544, -3.422791
4108.473, 2.050078
4110.401, 2.156456
4112.330, 0.2050873
4114.258, -0.5715178
4116.187, -5.614174
4118.115, -6.247365
4120.043, 0.5037126
4121.972, -5.2117281E-02
4123.900, -1.057673
4125.829, -0.3260184
4127.757, -4.644458
4129.686, -5.376809
4131.614, -4.008651
4133.542, -5.014756
4135.471, -4.418716
4137.399, -3.779584
4139.328, -1.140015
4141.256, -2.288017
4143.185, -5.290378
4145.113, 0.8544309
4147.042, -4.700397
4148.970, -2.973258
4150.899, 0.6164407
4152.827, -0.5015992
4154.756, -1.187353
4156.684, -0.5178164
4158.613, 0.4904158
4160.541, 2.110040
4162.470, -5.1781651E-02
4164.398, -1.072025
4166.327, -1.122380
4168.255, -0.5277753
4170.184, 0.6424429
4172.112, -3.729690
4174.041, 4.1966099E-02
4175.969, -0.1194318
4177.897, -1.941455
4179.826, -0.1098027
4181.754, -4.130785
4183.683, -0.3823886
4185.611, -1.696820
4187.540, -2.898075
4189.468, -4.980595
4191.396, 3.047696
4193.325, -3.117150
4195.253, 0.1233343
4197.182, -2.272002
4199.110, -1.375102
4201.039, 1.319798
4202.967, 0.6914654
4204.896, -3.160225
4206.824, -7.043565
4208.753, -4.267186
4210.681, -1.304583
4212.610, -3.554602
4214.538, 5.8830108E-02
4216.467, -0.1638747
4218.395, -2.060807
4220.324, 0.9407187
4222.252, -2.989292
4224.181, -3.306230
4226.109, -2.459650
4228.038, 0.6080813
4229.966, 2.003647
4231.895, 2.467096
4233.823, -0.2906033
4235.751, -2.029980
4237.680, -1.758429
4239.608, 1.697986
4241.537, -0.8323944
4243.465, -1.109906
4245.394, -2.645892
4247.322, -6.981692
4249.250, -3.652738
4251.179, -4.071052
4253.107, -1.445059
4255.036, -0.2811596
4256.964, -2.142117
4258.893, -2.308970
4260.821, -4.126616
4262.750, -2.916646
4264.678, -2.554419
4266.607, -2.943209
4268.535, -0.7694566
4270.464, -0.5524340
4272.392, -4.049374
4274.321, -1.259135
4276.249, -4.680844
4278.178, -8.319868
4280.106, -0.3820251
4282.035, 1.062645
4283.963, -5.197999
4285.892, -1.451301
4287.820, -1.099123
4289.749, -1.099625
4291.677, -1.100127
4293.605, -1.190419
4295.534, -8.5368857E-02
4297.462, -1.221049
4299.391, 1.792652
4301.319, 0.3567387
4303.248, 1.197217
4305.176, -1.608329
4307.104, -0.7188817
4309.033, 1.284215
4310.961, -2.740784
4312.890, 1.996781
4314.818, -1.930670
4316.747, 2.352308
4318.675, -3.796972
4320.604, -8.124860
4322.532, -0.5909802
4324.461, -2.668121
4326.389, 1.083973
4328.318, 2.130591
4330.246, -0.7249092
4332.175, 0.3886519
4334.103, -5.293472
4336.032, -2.037228
4337.960, 2.767569
##END=



