##NAMES=Richelsdorfite
##RRUFFID=R130552
##IDEAL CHEMISTRY=Ca_2_Cu_5_Sb^5+^(AsO_4_)_4_(OH)_6_Cl·6H_2_O
##LOCALITY=Silberberg, Brixlegg, Austria
##OWNER=RRUFF
##SOURCE=Bob Jenkins
##DESCRIPTION=Platy blue crystals, with a 2-fold twin around [110]
##STATUS=The identification of this mineral has been confirmed only by single crystal X-ray diffraction
##URL=https://www.rruff.net/odr/rruff_sample/R130552
##DIFFRACTION SAMPLE DESCRIPTION=Single crystal, powder profile is calculated
##CELL PARAMETERS=a: 14.134 b: 14.216 c: 13.555 alpha: 90 beta: 101.28 gamma: 90 volume: 2671.2 crystal system: monoclinic
##FILETYPE=Raman Processed
##RAMAN WAVELENGTH=532

205.8943, 400.4229
207.8227, 412.3382
209.7512, 425.3872
211.6797, 436.3577
213.6081, 444.0901
215.5366, 449.6514
217.4651, 454.9926
219.3935, 460.3317
221.3220, 465.3488
223.2505, 470.1895
225.1789, 475.3703
227.1074, 478.6825
229.0359, 479.3756
230.9643, 477.8966
232.8928, 475.2521
234.8213, 470.6186
236.7497, 465.5425
238.6782, 460.4375
240.6067, 454.7195
242.5351, 450.6456
244.4636, 448.6215
246.3921, 448.4724
248.3205, 449.0894
250.2490, 449.8386
252.1775, 451.7023
254.1059, 455.1909
256.0344, 461.1341
257.9629, 466.8870
259.8913, 473.0094
261.8198, 478.8575
263.7483, 482.1003
265.6767, 481.1271
267.6052, 479.0477
269.5337, 477.5844
271.4621, 476.4674
273.3906, 476.5655
275.3191, 478.7693
277.2475, 482.3200
279.1760, 485.1835
281.1045, 487.8047
283.0329, 489.0029
284.9614, 487.9636
286.8899, 483.0238
288.8183, 478.3614
290.7468, 474.3717
292.6753, 470.8043
294.6037, 467.1865
296.5322, 462.8236
298.4607, 458.9564
300.3891, 456.1133
302.3176, 454.3502
304.2461, 453.4513
306.1745, 453.9613
308.1030, 455.3725
310.0315, 456.7521
311.9599, 457.8828
313.8884, 459.2379
315.8169, 461.0498
317.7453, 463.3126
319.6738, 465.8052
321.6023, 468.8003
323.5307, 471.8905
325.4592, 474.4356
327.3877, 475.1377
329.3161, 476.4168
331.2446, 479.2857
333.1731, 483.5221
335.1015, 487.6763
337.0300, 491.9738
338.9585, 495.9847
340.8869, 499.2670
342.8154, 502.6615
344.7439, 504.4956
346.6723, 503.8629
348.6008, 501.1542
350.5292, 497.9944
352.4577, 494.6637
354.3862, 490.8411
356.3146, 485.8785
358.2431, 479.2328
360.1716, 473.1097
362.1000, 468.4595
364.0285, 464.8630
365.9570, 460.5918
367.8854, 455.2256
369.8139, 449.4915
371.7424, 443.5112
373.6708, 437.2177
375.5993, 431.3053
377.5278, 426.0628
379.4562, 421.2819
381.3847, 416.6679
383.3132, 411.7919
385.2416, 407.5868
387.1701, 404.5237
389.0986, 402.4888
391.0270, 401.1577
392.9555, 400.4295
394.8840, 400.4092
396.8124, 401.4413
398.7409, 404.1122
400.6694, 406.5765
402.5978, 408.1747
404.5263, 409.1247
406.4548, 410.1648
408.3832, 411.9736
410.3117, 413.3686
412.2402, 413.4544
414.1686, 411.9486
416.0971, 410.8404
418.0256, 410.9380
419.9540, 411.5728
421.8825, 411.7380
423.8110, 410.5551
425.7394, 409.7428
427.6679, 409.7381
429.5964, 410.5081
431.5248, 411.6530
433.4533, 412.8877
435.3818, 414.7552
437.3102, 417.6391
439.2387, 422.5891
441.1672, 427.4902
443.0956, 432.2597
445.0241, 436.9438
446.9526, 441.6538
448.8810, 446.3001
450.8095, 450.9764
452.7380, 455.7852
454.6664, 460.8174
456.5949, 465.3591
458.5234, 469.5908
460.4518, 473.1728
462.3803, 476.0561
464.3088, 478.4268
466.2372, 479.6493
468.1657, 478.8451
470.0942, 476.6012
472.0226, 475.8943
473.9511, 477.0466
475.8796, 479.3663
477.8080, 483.0770
479.7365, 488.7430
481.6650, 492.5026
483.5934, 494.3056
485.5219, 494.2032
487.4504, 491.6671
489.3788, 485.8225
491.3073, 480.2827
493.2358, 475.6301
495.1642, 471.8773
497.0927, 469.8027
499.0212, 469.2067
500.9496, 470.2935
502.8781, 473.8615
504.8066, 479.8734
506.7350, 485.8762
508.6635, 490.9562
510.5920, 496.1839
512.5204, 502.4572
514.4489, 510.2607
516.3774, 518.6843
518.3058, 527.4879
520.2343, 536.9576
522.1628, 547.5353
524.0912, 559.0130
526.0197, 572.1171
527.9482, 586.9677
529.8766, 603.7070
531.8051, 622.4007
533.7336, 643.5867
535.6620, 666.3903
537.5905, 690.7554
539.5190, 717.5160
541.4474, 742.0193
543.3759, 764.1063
545.3044, 783.3425
547.2328, 798.3690
549.1613, 811.2150
551.0898, 818.1003
553.0182, 816.9866
554.9467, 808.9965
556.8752, 795.5477
558.8036, 772.5296
560.7321, 747.4218
562.6606, 722.2760
564.5891, 696.6030
566.5175, 673.7128
568.4460, 652.4881
570.3745, 635.1735
572.3029, 623.1693
574.2314, 617.4493
576.1599, 615.4922
578.0883, 617.6349
580.0168, 622.9246
581.9453, 628.8497
583.8737, 635.8549
585.8022, 642.6227
587.7307, 648.3322
589.6591, 653.1624
591.5876, 658.7977
593.5161, 664.1613
595.4445, 671.4006
597.3729, 681.4847
599.3014, 694.3524
601.2299, 710.9460
603.1583, 731.3279
605.0868, 756.0040
607.0153, 785.2326
608.9437, 819.9346
610.8722, 858.3611
612.8007, 901.2028
614.7291, 947.5595
616.6576, 996.5624
618.5861, 1053.358
620.5145, 1102.407
622.4430, 1142.926
624.3715, 1174.239
626.2999, 1181.554
628.2284, 1156.965
630.1569, 1116.559
632.0853, 1060.617
634.0138, 989.8685
635.9423, 918.3515
637.8707, 843.4553
639.7992, 772.2136
641.7277, 708.2309
643.6561, 651.9695
645.5846, 604.0499
647.5131, 565.4466
649.4415, 534.2576
651.3700, 508.5932
653.2985, 488.5180
655.2269, 472.0937
657.1554, 459.4473
659.0839, 449.7844
661.0123, 442.1363
662.9408, 437.6711
664.8693, 433.8132
666.7977, 430.0697
668.7262, 426.5797
670.6547, 423.7730
672.5831, 421.9562
674.5116, 420.3920
676.4401, 418.9009
678.3685, 417.5233
680.2970, 415.6725
682.2255, 412.5184
684.1539, 409.6387
686.0824, 408.1498
688.0109, 407.9523
689.9393, 407.5839
691.8678, 406.6918
693.7963, 405.6378
695.7247, 404.6795
697.6532, 404.0351
699.5817, 403.1532
701.5101, 401.7035
703.4386, 400.2572
705.3671, 399.3910
707.2955, 399.1280
709.2240, 399.2452
711.1525, 399.9851
713.0809, 400.9598
715.0094, 401.6249
716.9379, 401.6195
718.8663, 401.7051
720.7948, 401.7913
722.7233, 402.0463
724.6517, 402.7597
726.5802, 404.0557
728.5087, 405.5543
730.4371, 406.9815
732.3656, 408.4200
734.2941, 410.4154
736.2225, 413.4450
738.1510, 416.4835
740.0795, 419.1767
742.0079, 421.6428
743.9364, 424.3440
745.8649, 427.3841
747.7933, 430.6527
749.7218, 434.0908
751.6503, 437.6992
753.5787, 441.5483
755.5072, 444.7299
757.4357, 448.8742
759.3641, 455.0046
761.2926, 462.9757
763.2211, 471.4851
765.1495, 480.5174
767.0780, 489.8763
769.0065, 499.5118
770.9349, 509.5947
772.8634, 519.4269
774.7919, 528.2381
776.7203, 537.4809
778.6488, 549.0058
780.5773, 563.0397
782.5057, 575.2630
784.4342, 584.9437
786.3627, 592.3619
788.2911, 597.5514
790.2196, 599.7537
792.1481, 601.2946
794.0765, 601.1431
796.0050, 601.0453
797.9335, 602.2686
799.8619, 604.5123
801.7904, 609.5326
803.7189, 620.4079
805.6473, 632.6232
807.5758, 642.6056
809.5043, 650.0482
811.4327, 655.8595
813.3612, 659.3852
815.2897, 661.8334
817.2181, 664.4352
819.1466, 667.2820
821.0751, 669.6301
823.0035, 670.7839
824.9320, 671.7354
826.8605, 672.9955
828.7889, 673.7168
830.7174, 677.7012
832.6459, 683.4619
834.5743, 693.3141
836.5028, 709.7591
838.4313, 732.4534
840.3597, 762.0450
842.2882, 799.3942
844.2167, 843.6461
846.1451, 893.5406
848.0736, 949.0499
850.0021, 1009.827
851.9305, 1084.000
853.8590, 1158.334
855.7875, 1222.374
857.7159, 1281.421
859.6444, 1315.866
861.5729, 1322.660
863.5013, 1303.967
865.4298, 1260.080
867.3583, 1188.134
869.2867, 1113.079
871.2152, 1032.578
873.1437, 955.9271
875.0721, 890.7197
877.0006, 839.7851
878.9291, 795.3293
880.8575, 759.1684
882.7860, 728.1506
884.7145, 700.0150
886.6429, 674.5756
888.5714, 652.1781
890.4999, 633.6218
892.4283, 617.6617
894.3568, 603.6615
896.2853, 591.6556
898.2137, 581.5368
900.1422, 573.9630
902.0707, 567.4816
903.9991, 560.9445
905.9276, 554.4909
907.8561, 550.2271
909.7845, 548.3427
911.7130, 549.0656
913.6415, 551.9293
915.5699, 556.9018
917.4984, 565.5377
919.4269, 578.5721
921.3553, 594.3901
923.2838, 613.0323
925.2123, 634.3519
927.1407, 656.9622
929.0692, 683.0312
930.9976, 707.0627
932.9261, 729.0817
934.8546, 747.6400
936.7830, 757.1166
938.7115, 757.0243
940.6400, 747.4521
942.5684, 726.2200
944.4969, 696.1782
946.4254, 663.5134
948.3538, 625.7616
950.2823, 590.2187
952.2108, 557.9342
954.1392, 529.0269
956.0677, 502.8549
957.9962, 479.1643
959.9246, 459.4937
961.8531, 445.3043
963.7816, 434.4733
965.7100, 425.2502
967.6385, 417.6073
969.5670, 411.7575
971.4954, 409.1604
973.4239, 407.2281
975.3524, 403.7866
977.2808, 398.9333
979.2093, 394.3824
981.1378, 390.0691
983.0662, 386.5993
984.9947, 384.3632
986.9232, 383.4335
988.8516, 382.8543
990.7801, 382.7412
992.7086, 382.9093
994.6370, 383.2865
996.5655, 383.8869
998.4940, 384.7631
1000.422, 385.9205
1002.351, 387.1472
1004.279, 388.3799
1006.208, 389.5338
1008.136, 390.5721
1010.065, 391.6699
1011.993, 392.1957
1013.922, 391.5816
1015.850, 390.7474
1017.779, 390.6458
1019.707, 391.3121
1021.636, 393.0165
1023.564, 395.8432
1025.493, 399.7144
1027.421, 404.8047
1029.349, 410.9686
1031.278, 417.4713
1033.206, 423.7957
1035.135, 430.9276
1037.063, 439.8868
1038.992, 450.4345
1040.920, 459.1859
1042.849, 469.0464
1044.777, 473.5313
1046.706, 469.7031
1048.634, 459.6682
1050.563, 447.7092
1052.491, 432.9020
1054.420, 419.1551
1056.348, 406.8987
1058.276, 396.5815
1060.205, 388.5949
1062.133, 383.1591
1064.062, 378.8358
1065.990, 375.9336
1067.919, 373.6578
1069.847, 371.5320
1071.776, 369.5099
1073.704, 368.3895
1075.633, 368.7982
1077.561, 369.2157
1079.490, 369.0574
1081.418, 368.4772
1083.347, 367.9615
1085.275, 367.5903
1087.203, 367.0908
1089.132, 366.3208
1091.060, 365.5045
1092.989, 364.8690
1094.917, 364.4903
1096.846, 364.2630
1098.774, 364.1548
1100.703, 364.1916
1102.631, 364.3375
1104.560, 364.5472
1106.488, 364.8960
1108.417, 365.6107
1110.345, 366.0093
1112.273, 365.6616
1114.202, 364.8438
1116.130, 364.0466
1118.059, 363.2602
1119.987, 362.7960
1121.916, 363.0052
1123.844, 363.5102
1125.773, 363.9997
1127.701, 364.5203
1129.630, 364.9775
1131.558, 364.8843
1133.487, 365.1689
1135.415, 366.6267
1137.344, 368.9712
1139.272, 370.4172
1141.200, 370.4269
1143.129, 370.4884
1145.057, 371.4821
1146.986, 372.5937
1148.914, 372.5968
1150.843, 371.0927
1152.771, 370.1878
1154.700, 371.3644
1156.628, 372.2839
1158.557, 371.3617
1160.485, 368.5122
1162.414, 366.2219
1164.342, 364.5689
1166.271, 363.3807
1168.199, 363.1832
1170.127, 363.3084
1172.056, 362.2883
1173.984, 359.7827
1175.913, 357.8693
1177.841, 357.6195
1179.770, 357.6066
1181.698, 356.6157
1183.627, 354.6714
1185.555, 353.4415
1187.484, 353.4337
1189.412, 353.6302
1191.341, 353.7460
1193.269, 353.8083
1195.198, 353.9135
1197.126, 354.1337
1199.054, 354.2793
1200.983, 354.4364
1202.911, 354.4897
1204.840, 354.3010
1206.768, 353.9181
1208.697, 353.6177
1210.625, 353.4027
1212.554, 353.3118
1214.482, 353.4427
1216.411, 353.6594
1218.339, 353.7305
1220.268, 353.5879
1222.196, 353.4913
1224.125, 353.6230
1226.053, 353.7005
1227.981, 353.5629
1229.910, 353.2253
1231.838, 352.8257
1233.767, 351.9686
1235.695, 351.5868
1237.624, 352.2242
1239.552, 353.2796
1241.481, 353.8130
1243.409, 353.7500
1245.338, 353.9348
1247.266, 354.8463
1249.195, 355.6092
1251.123, 355.5686
1253.052, 355.0078
1254.980, 354.8013
1256.908, 355.0972
1258.837, 355.4990
1260.765, 356.0779
1262.694, 356.5648
1264.622, 356.6172
1266.551, 356.0697
1268.479, 355.9483
1270.408, 356.6501
1272.336, 357.2909
1274.265, 357.6824
1276.193, 357.8737
1278.122, 357.8237
1280.050, 357.4007
1281.979, 357.4816
1283.907, 358.4852
1285.835, 359.7144
1287.764, 360.8586
1289.692, 361.8366
1291.621, 362.3802
1293.549, 362.2437
1295.478, 362.1725
1297.406, 362.4435
1299.335, 362.8354
1301.263, 363.2576
1303.192, 363.7905
1305.120, 363.9643
1307.049, 363.3370
1308.977, 362.9395
1310.906, 363.4073
1312.834, 364.1444
1314.762, 364.0569
1316.691, 362.7059
1318.619, 361.9427
1320.548, 362.3177
1322.476, 362.7527
1324.405, 362.5839
1326.333, 362.0951
1328.262, 362.0784
1330.190, 362.7062
1332.119, 363.1030
1334.047, 362.8717
1335.976, 362.5625
1337.904, 362.4980
1339.833, 362.6664
1341.761, 363.0095
1343.689, 363.7085
1345.618, 364.1182
1347.546, 363.8204
1349.475, 363.3502
1351.403, 363.1843
1353.332, 363.3680
1355.260, 363.5713
1357.189, 363.7277
1359.117, 364.0734
1361.046, 364.7097
1362.974, 365.5405
1364.903, 366.5194
1366.831, 367.6697
1368.760, 368.3096
1370.688, 367.8542
1372.616, 367.4766
1374.545, 367.7660
1376.473, 368.3428
1378.402, 368.6428
1380.330, 368.7020
1382.259, 368.8788
1384.187, 369.4935
1386.116, 369.9789
1388.044, 369.7806
1389.973, 369.3375
1391.901, 369.5239
1393.830, 370.4095
1395.758, 371.4123
1397.687, 372.3356
1399.615, 373.4147
1401.543, 375.1099
1403.472, 377.0209
1405.400, 377.9536
1407.329, 377.3507
1409.257, 376.9455
1411.186, 376.8601
1413.114, 376.9688
1415.043, 377.6618
1416.971, 378.5290
1418.900, 378.0204
1420.828, 375.3826
1422.757, 373.2768
1424.685, 372.2627
1426.614, 371.4922
1428.542, 370.4454
1430.470, 369.2801
1432.399, 368.4408
1434.327, 367.9774
1436.256, 367.7096
1438.184, 367.7749
1440.113, 367.8499
1442.041, 367.7169
1443.970, 367.3988
1445.898, 366.9503
1447.827, 366.3046
1449.755, 365.6078
1451.684, 364.9307
1453.612, 364.1414
1455.541, 363.0780
1457.469, 361.9201
1459.397, 361.2218
1461.326, 361.3181
1463.254, 361.0374
1465.183, 359.7747
1467.111, 358.6766
1469.040, 358.4370
1470.968, 358.6587
1472.897, 358.3781
1474.825, 357.2660
1476.754, 356.2662
1478.682, 355.0077
1480.611, 354.2691
1482.539, 354.8615
1484.468, 356.0339
1486.396, 356.2416
1488.324, 355.0254
1490.253, 354.4910
1492.181, 354.9879
1494.110, 355.6844
1496.038, 356.6109
1497.967, 357.3681
1499.895, 357.3065
1501.824, 356.4638
1503.752, 355.6577
1505.681, 355.0088
1507.609, 354.4718
1509.538, 353.8732
1511.466, 353.6061
1513.395, 354.3053
1515.323, 355.7829
1517.251, 356.6906
1519.180, 356.7180
1521.108, 356.5612
1523.037, 355.9806
1524.965, 355.5879
1526.894, 356.0799
1528.822, 357.1129
1530.751, 357.3266
1532.679, 356.5058
1534.608, 355.5976
1536.536, 354.7042
1538.465, 354.1320
1540.393, 354.1583
1542.322, 354.7065
1544.250, 355.4637
1546.178, 356.4184
1548.107, 357.5650
1550.035, 359.1276
1551.964, 360.3450
1553.892, 360.6505
1555.821, 360.4712
1557.749, 360.4110
1559.678, 360.4691
1561.606, 360.6769
1563.535, 361.2817
1565.463, 361.8514
1567.392, 362.1675
1569.320, 362.6230
1571.249, 363.7416
1573.177, 365.3826
1575.105, 366.3729
1577.034, 366.3203
1578.962, 366.1296
1580.891, 365.3629
1582.819, 365.0159
1584.748, 366.1628
1586.676, 368.0509
1588.605, 368.8609
1590.533, 368.1259
1592.462, 368.2574
1594.390, 369.8802
1596.319, 371.5214
1598.247, 372.5341
1600.176, 373.3976
1602.104, 374.6337
1604.032, 376.1774
1605.961, 377.5991
1607.889, 378.8248
1609.818, 380.0621
1611.746, 381.5669
1613.675, 382.9433
1615.603, 384.0599
1617.532, 384.9169
1619.460, 385.5101
1621.389, 385.8828
1623.317, 385.8505
1625.246, 385.7324
1627.174, 384.6183
1629.103, 381.3644
1631.031, 377.5018
1632.959, 374.7135
1634.888, 372.6653
1636.816, 369.8353
1638.745, 365.8973
1640.673, 362.2490
1642.602, 359.0823
1644.530, 356.4953
1646.459, 354.8454
1648.387, 353.7176
1650.316, 352.4007
1652.244, 350.9108
1654.173, 349.7182
1656.101, 348.7906
1658.030, 348.2718
1659.958, 348.5513
1661.886, 348.8611
1663.815, 348.5553
1665.743, 347.8780
1667.672, 347.3933
1669.600, 347.1619
1671.529, 347.0185
1673.457, 347.0793
1675.386, 347.0560
1677.314, 346.6644
1679.243, 346.2525
1681.171, 346.2021
1683.100, 346.3639
1685.028, 346.2145
1686.957, 345.6707
1688.885, 344.8983
1690.813, 343.8011
1692.742, 342.6546
1694.670, 341.3889
1696.599, 340.3075
1698.527, 340.1071
1700.456, 340.5745
1702.384, 339.8391
1704.313, 337.2339
1706.241, 335.5757
1708.170, 336.4305
1710.098, 337.3350
1712.027, 336.6105
1713.955, 335.2643
1715.884, 334.8163
1717.812, 335.1748
1719.740, 334.8806
1721.669, 333.4173
1723.597, 332.4689
1725.526, 332.8874
1727.454, 333.3941
1729.383, 333.1738
1731.311, 332.4959
1733.240, 331.6968
1735.168, 330.8111
1737.097, 330.2347
1739.025, 330.1824
1740.954, 330.0326
1742.882, 329.4268
1744.811, 328.9330
1746.739, 329.0110
1748.667, 329.3832
1750.596, 329.6839
1752.524, 329.8921
1754.453, 329.7849
1756.381, 329.2133
1758.310, 328.7303
1760.238, 328.4330
1762.167, 328.3200
1764.095, 328.4412
1766.024, 328.6726
1767.952, 328.8904
1769.880, 329.0540
1771.809, 328.9245
1773.737, 328.3859
1775.666, 327.8491
1777.594, 327.5209
1779.523, 327.1502
1781.451, 326.5637
1783.380, 325.9479
1785.308, 325.5519
1787.237, 325.3561
1789.165, 325.1430
1791.094, 324.8383
1793.022, 324.7273
1794.951, 325.2352
1796.879, 325.4562
1798.807, 324.7348
1800.736, 323.8004
1802.664, 323.3745
1804.593, 323.4210
1806.521, 323.8307
1808.450, 324.8679
1810.378, 325.2215
1812.307, 324.1948
1814.235, 323.2675
1816.164, 322.5953
1818.092, 322.3437
1820.021, 323.0186
1821.949, 324.1425
1823.878, 324.5429
1825.806, 324.2423
1827.734, 323.2703
1829.663, 320.6188
1831.591, 318.9629
1833.520, 319.0075
1835.448, 319.6657
1837.377, 320.8342
1839.305, 321.9616
1841.234, 322.1475
1843.162, 321.4037
1845.091, 320.7659
1847.019, 320.1302
1848.948, 319.8056
1850.876, 320.2962
1852.805, 320.5009
1854.733, 319.9277
1856.661, 319.1994
1858.590, 318.6904
1860.518, 318.4477
1862.447, 318.7242
1864.375, 319.5732
1866.304, 319.8932
1868.232, 319.3229
1870.161, 318.9771
1872.089, 319.4242
1874.018, 319.7246
1875.946, 319.1099
1877.875, 318.3355
1879.803, 318.3602
1881.732, 318.9326
1883.660, 319.1081
1885.589, 318.8271
1887.517, 318.3531
1889.445, 317.4533
1891.374, 317.0126
1893.302, 317.8421
1895.231, 318.6608
1897.159, 318.6743
1899.088, 318.1933
1901.016, 317.5535
1902.945, 316.8042
1904.873, 316.2284
1906.802, 315.8080
1908.730, 315.6662
1910.659, 316.2064
1912.587, 316.4547
1914.516, 315.8726
1916.444, 315.1927
1918.372, 314.9387
1920.301, 314.9548
1922.229, 314.9433
1924.158, 314.9039
1926.086, 315.0511
1928.015, 315.7309
1929.943, 315.8463
1931.872, 314.8429
1933.800, 313.9699
1935.729, 313.5829
1937.657, 313.3805
1939.586, 313.2379
1941.514, 313.1469
1943.443, 313.0600
1945.371, 313.0039
1947.299, 313.1227
1949.228, 313.4659
1951.156, 313.7798
1953.085, 314.2321
1955.013, 314.1494
1956.942, 312.5716
1958.870, 311.2568
1960.799, 311.7003
1962.727, 312.8955
1964.656, 313.6172
1966.584, 313.9149
1968.513, 313.9854
1970.441, 313.7857
1972.370, 313.5560
1974.298, 313.3174
1976.226, 312.9889
1978.155, 312.4266
1980.083, 311.9393
1982.012, 311.6749
1983.940, 311.6272
1985.869, 311.9359
1987.797, 312.4570
1989.726, 312.6140
1991.654, 312.3143
1993.583, 312.1328
1995.511, 312.3301
1997.440, 312.0544
1999.368, 310.5420
2001.297, 309.4526
2003.225, 309.6497
2005.153, 310.1073
2007.082, 310.2158
2009.010, 310.0531
2010.939, 309.5918
2012.867, 308.9503
2014.796, 308.8530
2016.724, 309.4043
2018.653, 309.5098
2020.581, 308.7251
2022.510, 308.2228
2024.438, 308.5067
2026.367, 308.9079
2028.295, 309.2888
2030.224, 309.4385
2032.152, 308.9195
2034.080, 308.0928
2036.009, 307.8882
2037.937, 308.3346
2039.866, 308.5779
2041.794, 308.4643
2043.723, 308.4705
2045.651, 309.0642
2047.580, 309.0811
2049.508, 307.6342
2051.437, 306.3661
2053.365, 306.2938
2055.294, 306.6324
2057.222, 306.5448
2059.151, 306.2348
2061.079, 306.3153
2063.008, 306.7469
2064.936, 306.9707
2066.865, 306.9266
2068.793, 307.0272
2070.721, 307.5395
2072.650, 307.7562
2074.578, 307.2383
2076.507, 306.6023
2078.435, 305.8569
2080.364, 305.3549
2082.292, 305.7592
2084.220, 306.5381
2086.149, 306.4102
2088.077, 305.4245
2090.006, 304.9212
2091.934, 305.1422
2093.863, 305.1294
2095.791, 304.5478
2097.720, 304.4456
2099.648, 305.4633
2101.577, 306.2464
2103.505, 306.1549
2105.434, 305.7030
2107.362, 304.9767
2109.291, 304.3605
2111.219, 304.5921
2113.147, 305.3918
2115.076, 305.6474
2117.004, 305.3068
2118.933, 305.2523
2120.861, 305.5368
2122.790, 305.8300
2124.718, 306.1787
2126.647, 306.2453
2128.575, 305.7438
2130.504, 305.2181
2132.432, 304.7273
2134.361, 304.6681
2136.289, 306.1383
2138.218, 308.0009
2140.146, 307.7069
2142.074, 305.7819
2144.003, 304.6393
2145.931, 304.3159
2147.860, 304.3033
2149.788, 304.6903
2151.717, 304.5477
2153.645, 303.0855
2155.574, 302.1685
2157.502, 302.9303
2159.431, 303.6763
2161.359, 303.3503
2163.288, 302.8362
2165.216, 303.1182
2167.145, 303.6635
2169.073, 303.3584
2171.001, 302.4052
2172.930, 302.1733
2174.858, 302.6585
2176.787, 302.5606
2178.715, 301.6459
2180.644, 301.0853
2182.572, 301.2091
2184.501, 301.2962
2186.429, 300.8817
2188.358, 300.8170
2190.286, 302.1546
2192.215, 303.2410
2194.143, 302.6230
2196.072, 301.2999
2198.000, 300.3272
2199.928, 299.6884
2201.857, 299.3380
2203.785, 299.2766
2205.714, 299.7745
2207.642, 300.9297
2209.571, 301.3947
2211.499, 300.8856
2213.428, 300.6834
2215.356, 301.3024
2217.285, 301.5780
2219.213, 300.6826
2221.142, 299.9063
2223.070, 299.7801
2224.999, 299.9953
2226.927, 300.5722
2228.855, 301.1599
2230.784, 301.1805
2232.712, 300.9333
2234.641, 301.3932
2236.569, 302.4134
2238.498, 302.0759
2240.426, 300.3306
2242.355, 299.7636
2244.283, 300.8153
2246.212, 301.3002
2248.140, 300.5482
2250.069, 300.0029
2251.997, 300.1662
2253.926, 300.4535
2255.854, 300.7616
2257.782, 301.0301
2259.711, 301.3388
2261.639, 301.4539
2263.568, 300.8858
2265.496, 300.1332
2267.425, 300.1841
2269.353, 300.6788
2271.282, 300.5427
2273.210, 299.8657
2275.139, 299.0038
2277.067, 297.9375
2278.996, 297.8952
2280.924, 299.5966
2282.853, 300.3781
2284.781, 299.2794
2286.709, 298.3104
2288.638, 297.6399
2290.566, 297.2519
2292.495, 297.3289
2294.423, 297.4767
2296.352, 297.6477
2298.280, 297.6992
2300.209, 297.4167
2302.137, 297.0445
2304.066, 296.8147
2305.994, 296.7232
2307.923, 296.8576
2309.851, 297.1209
2311.780, 296.9937
2313.708, 296.4195
2315.636, 296.2282
2317.565, 296.4741
2319.493, 296.9226
2321.422, 297.7192
2323.350, 298.1660
2325.279, 298.1412
2327.207, 297.9267
2329.136, 297.7584
2331.064, 297.1513
2332.993, 295.1839
2334.921, 293.6625
2336.850, 293.7455
2338.778, 294.3257
2340.707, 294.7836
2342.635, 295.0602
2344.563, 295.0004
2346.492, 294.8011
2348.420, 294.9084
2350.349, 295.1465
2352.277, 294.7592
2354.206, 293.9831
2356.134, 294.4405
2358.063, 296.3047
2359.991, 296.8172
2361.920, 295.2712
2363.848, 294.4039
2365.777, 294.6073
2367.705, 294.4190
2369.634, 293.4197
2371.562, 292.9508
2373.490, 293.7166
2375.419, 294.2101
2377.347, 293.8478
2379.276, 293.1461
2381.204, 291.9091
2383.133, 290.9295
2385.061, 290.9015
2386.990, 291.1443
2388.918, 290.9858
2390.847, 290.8141
2392.775, 291.2429
2394.704, 291.9177
2396.632, 292.2755
2398.561, 292.2871
2400.489, 291.6303
2402.417, 290.5244
2404.346, 290.4531
2406.274, 291.4766
2408.203, 291.8993
2410.131, 291.6195
2412.060, 291.3497
2413.988, 291.0650
2415.917, 290.9862
2417.845, 291.1840
2419.774, 291.1283
2421.702, 290.2770
2423.631, 290.3357
2425.559, 293.0614
2427.488, 294.6663
2429.416, 292.9858
2431.344, 291.5815
2433.273, 292.1440
2435.201, 293.0088
2437.130, 293.6710
2439.058, 293.8466
2440.987, 292.9414
2442.915, 291.9034
2444.844, 291.7780
2446.772, 291.8978
2448.701, 291.3142
2450.629, 290.5108
2452.558, 290.3545
2454.486, 290.6414
2456.415, 290.8377
2458.343, 290.9315
2460.271, 290.8514
2462.200, 290.6305
2464.128, 290.6147
2466.057, 290.7923
2467.985, 291.1387
2469.914, 291.6935
2471.842, 292.2851
2473.771, 293.2417
2475.699, 293.3236
2477.628, 292.2616
2479.556, 291.4201
2481.485, 290.8869
2483.413, 290.8398
2485.342, 291.5518
2487.270, 292.0215
2489.198, 291.7602
2491.127, 291.5555
2493.055, 291.6862
2494.984, 291.8371
2496.912, 291.8716
2498.841, 292.0030
2500.769, 292.4552
2502.698, 292.7805
2504.626, 292.5595
2506.555, 292.2606
2508.483, 292.1263
2510.412, 292.1283
2512.340, 292.4624
2514.269, 292.7609
2516.197, 292.4094
2518.125, 292.0234
2520.054, 292.6982
2521.982, 293.5768
2523.911, 293.1880
2525.839, 292.2104
2527.768, 291.9312
2529.696, 292.0958
2531.625, 291.9798
2533.553, 291.7669
2535.482, 292.3656
2537.410, 293.5392
2539.339, 293.6178
2541.267, 292.8133
2543.196, 292.6214
2545.124, 293.0290
2547.052, 293.0273
2548.981, 292.4972
2550.909, 292.1525
2552.838, 291.9981
2554.766, 292.0154
2556.695, 292.2567
2558.623, 292.4699
2560.552, 292.7113
2562.480, 292.5637
2564.409, 291.8205
2566.337, 291.2773
2568.266, 291.0639
2570.194, 290.9637
2572.123, 291.0517
2574.051, 290.9604
2575.979, 290.5488
2577.908, 290.1814
2579.836, 289.8248
2581.765, 289.7838
2583.693, 290.4365
2585.622, 290.8985
2587.550, 290.6854
2589.479, 290.7044
2591.407, 291.5669
2593.336, 291.8164
2595.264, 290.2326
2597.193, 289.2573
2599.121, 290.8765
2601.050, 292.0159
2602.978, 290.8284
2604.906, 289.5826
2606.835, 289.3012
2608.763, 289.4253
2610.692, 289.9801
2612.620, 290.4292
2614.549, 290.2219
2616.477, 290.0598
2618.406, 290.7423
2620.334, 291.1954
2622.263, 290.1488
2624.191, 289.1485
2626.120, 289.4664
2628.048, 290.2947
2629.977, 291.4449
2631.905, 292.3371
2633.833, 292.0353
2635.762, 291.6156
2637.690, 292.4526
2639.619, 293.3621
2641.547, 292.7799
2643.476, 291.9475
2645.404, 292.4335
2647.333, 293.1984
2649.261, 293.0296
2651.190, 292.5547
2653.118, 292.4844
2655.047, 292.6168
2656.975, 292.7726
2658.904, 292.8286
2660.832, 292.3843
2662.760, 291.9264
2664.689, 292.3136
2666.617, 292.9641
2668.546, 293.1001
2670.474, 292.8557
2672.403, 292.2984
2674.331, 291.6288
2676.260, 291.0061
2678.188, 290.6325
2680.117, 291.0981
2682.045, 291.7924
2683.974, 291.4688
2685.902, 290.7401
2687.831, 290.9010
2689.759, 291.3446
2691.688, 290.7622
2693.616, 289.8153
2695.544, 289.7594
2697.473, 290.0352
2699.401, 289.5765
2701.330, 288.7792
2703.258, 288.1315
2705.187, 287.8586
2707.115, 288.8897
2709.044, 290.2078
2710.972, 289.9465
2712.901, 288.9380
2714.829, 288.4940
2716.758, 288.4579
2718.686, 288.6597
2720.615, 288.9979
2722.543, 289.2641
2724.471, 289.5595
2726.400, 290.2191
2728.328, 290.8286
2730.257, 290.4852
2732.185, 289.8213
2734.114, 290.0276
2736.042, 290.4797
2737.971, 290.1337
2739.899, 289.6029
2741.828, 289.7543
2743.756, 290.1454
2745.685, 290.1532
2747.613, 290.0325
2749.542, 290.1454
2751.470, 290.2573
2753.398, 290.1396
2755.327, 289.8445
2757.255, 289.4917
2759.184, 288.9702
2761.112, 287.7265
2763.041, 286.7649
2764.969, 287.4338
2766.898, 288.5193
2768.826, 289.2459
2770.755, 289.5684
2772.683, 289.0009
2774.612, 288.5055
2776.540, 288.8016
2778.469, 289.5412
2780.397, 291.0837
2782.325, 292.0578
2784.254, 291.0147
2786.182, 289.8422
2788.111, 289.6343
2790.039, 289.8779
2791.968, 290.6981
2793.896, 291.3638
2795.825, 291.5074
2797.753, 291.5551
2799.682, 291.5075
2801.610, 291.7278
2803.539, 292.8495
2805.467, 293.3519
2807.396, 292.2020
2809.324, 291.6407
2811.252, 292.8287
2813.181, 293.8173
2815.109, 293.6800
2817.038, 293.9071
2818.966, 295.0190
2820.895, 295.9252
2822.823, 296.4215
2824.752, 296.8537
2826.680, 297.0451
2828.609, 297.9094
2830.537, 299.9204
2832.466, 301.4716
2834.394, 302.3197
2836.323, 303.5254
2838.251, 305.1752
2840.179, 307.5023
2842.108, 310.8488
2844.036, 313.4908
2845.965, 315.3997
2847.893, 317.1231
2849.822, 318.6823
2851.750, 320.1666
2853.679, 321.5676
2855.607, 323.1062
2857.536, 324.7495
2859.464, 326.1288
2861.393, 327.4002
2863.321, 329.7523
2865.250, 332.3596
2867.178, 332.2565
2869.106, 330.5126
2871.035, 329.3612
2872.963, 328.9027
2874.892, 329.8161
2876.820, 331.1401
2878.749, 331.4820
2880.677, 331.5016
2882.606, 332.0648
2884.534, 332.7593
2886.463, 333.2875
2888.391, 333.6121
2890.320, 333.3358
2892.248, 333.3342
2894.177, 334.8337
2896.105, 335.8662
2898.033, 334.8038
2899.962, 333.9603
2901.890, 334.1568
2903.819, 334.9255
2905.747, 336.8392
2907.676, 337.8960
2909.604, 337.1120
2911.533, 336.8731
2913.461, 337.8524
2915.390, 338.2206
2917.318, 337.3050
2919.247, 336.8186
2921.175, 337.0641
2923.104, 336.7158
2925.032, 335.6879
2926.960, 335.5404
2928.889, 336.3855
2930.817, 336.9806
2932.746, 337.2815
2934.674, 336.4288
2936.603, 334.7930
2938.531, 333.9992
2940.460, 333.7322
2942.388, 333.0042
2944.317, 332.1783
2946.245, 332.1783
2948.174, 332.3791
2950.102, 331.8109
2952.031, 331.0425
2953.959, 330.4140
2955.887, 330.1333
2957.816, 330.8693
2959.744, 331.2778
2961.673, 330.5504
2963.601, 329.4401
2965.530, 327.7383
2967.458, 326.7220
2969.387, 327.7822
2971.315, 327.6343
2973.244, 325.2734
2975.172, 323.5514
2977.101, 323.1686
2979.029, 323.1457
2980.958, 323.5328
2982.886, 323.4620
2984.814, 322.8940
2986.743, 322.4796
2988.671, 322.2094
2990.600, 321.4420
2992.528, 320.3546
2994.457, 319.9567
2996.385, 320.0294
2998.314, 319.9993
3000.242, 320.0110
3002.171, 320.6513
3004.099, 321.0928
3006.028, 319.6562
3007.956, 318.3433
3009.885, 318.9863
3011.813, 319.8991
3013.741, 319.8607
3015.670, 320.0833
3017.598, 321.2508
3019.527, 322.1705
3021.455, 322.4804
3023.384, 322.5059
3025.312, 321.9922
3027.241, 321.9293
3029.169, 322.3982
3031.098, 323.0194
3033.026, 323.7889
3034.955, 324.3749
3036.883, 324.7878
3038.812, 325.0556
3040.740, 325.1310
3042.668, 324.3128
3044.597, 323.5423
3046.525, 325.1024
3048.454, 327.3000
3050.382, 327.5463
3052.311, 327.6587
3054.239, 329.3091
3056.168, 331.0985
3058.096, 332.3224
3060.025, 333.2238
3061.953, 333.9966
3063.882, 334.1059
3065.810, 332.7139
3067.739, 332.9878
3069.667, 336.6718
3071.595, 338.5009
3073.524, 338.3432
3075.452, 339.2231
3077.381, 341.1343
3079.309, 341.5880
3081.238, 341.1239
3083.166, 342.5025
3085.095, 344.4273
3087.023, 344.1774
3088.952, 343.2997
3090.880, 343.2498
3092.809, 344.0679
3094.737, 346.5536
3096.666, 348.7144
3098.594, 349.2364
3100.522, 349.8059
3102.451, 350.8207
3104.379, 352.2622
3106.308, 354.2404
3108.236, 355.7094
3110.165, 356.3670
3112.093, 357.5334
3114.022, 359.2181
3115.950, 360.1982
3117.879, 360.8966
3119.807, 363.0308
3121.736, 365.6137
3123.664, 366.2966
3125.593, 366.8097
3127.521, 369.2896
3129.449, 372.0845
3131.378, 374.1489
3133.306, 375.9753
3135.235, 377.4617
3137.163, 379.4084
3139.092, 382.1601
3141.020, 384.6641
3142.949, 386.7339
3144.877, 388.3993
3146.806, 389.6983
3148.734, 391.6885
3150.663, 394.2517
3152.591, 396.9123
3154.520, 399.3566
3156.448, 400.5065
3158.376, 401.4342
3160.305, 403.2829
3162.233, 405.4531
3164.162, 407.5337
3166.090, 409.6849
3168.019, 411.9755
3169.947, 414.0965
3171.876, 415.6608
3173.804, 417.7809
3175.733, 420.6390
3177.661, 422.2817
3179.590, 422.8713
3181.518, 424.3448
3183.447, 426.6506
3185.375, 430.0338
3187.303, 433.4096
3189.232, 434.9271
3191.160, 435.9363
3193.089, 437.1932
3195.017, 439.0222
3196.946, 442.0775
3198.874, 444.3089
3200.803, 444.3883
3202.731, 445.5499
3204.660, 448.2693
3206.588, 450.7049
3208.517, 452.7904
3210.445, 454.8218
3212.374, 456.7357
3214.302, 458.2231
3216.230, 459.5615
3218.159, 461.0073
3220.087, 462.7758
3222.016, 465.4086
3223.944, 467.8637
3225.873, 469.7720
3227.801, 471.2773
3229.730, 472.2623
3231.658, 473.3038
3233.587, 474.4048
3235.515, 476.6058
3237.444, 479.5817
3239.372, 480.5791
3241.301, 480.7615
3243.229, 483.4046
3245.157, 486.5479
3247.086, 488.1327
3249.014, 489.0281
3250.943, 489.6749
3252.871, 489.8870
3254.800, 489.4901
3256.728, 489.4627
3258.657, 490.4238
3260.585, 490.2189
3262.514, 488.9767
3264.442, 489.1367
3266.371, 490.0000
3268.299, 489.4638
3270.228, 488.1775
3272.156, 486.6247
3274.084, 485.3107
3276.013, 485.0400
3277.941, 484.2693
3279.870, 482.0500
3281.798, 480.4445
3283.727, 479.8099
3285.655, 479.2184
3287.584, 478.6014
3289.512, 477.4710
3291.441, 476.0386
3293.369, 474.9395
3295.298, 473.9327
3297.226, 472.9451
3299.155, 471.5654
3301.083, 469.5602
3303.011, 467.1710
3304.940, 463.6299
3306.868, 462.0028
3308.797, 462.7103
3310.725, 461.7675
3312.654, 459.2319
3314.582, 457.0717
3316.511, 455.3844
3318.439, 454.9596
3320.368, 454.3507
3322.296, 451.7581
3324.225, 449.2598
3326.153, 447.9045
3328.082, 446.7659
3330.010, 445.7884
3331.938, 444.5166
3333.867, 442.9294
3335.795, 440.5186
3337.724, 437.9290
3339.652, 437.7915
3341.581, 437.8501
3343.509, 434.6901
3345.438, 430.9519
3347.366, 427.6674
3349.295, 425.4240
3351.223, 425.0734
3353.152, 424.0932
3355.080, 422.3422
3357.009, 419.4172
3358.937, 415.8503
3360.865, 414.2254
3362.794, 413.2483
3364.722, 410.6606
3366.651, 408.3527
3368.579, 408.3366
3370.508, 407.6789
3372.436, 405.3062
3374.365, 403.6631
3376.293, 403.3446
3378.222, 401.9045
3380.150, 399.7251
3382.079, 398.5659
3384.007, 397.5630
3385.936, 394.9432
3387.864, 392.5529
3389.792, 391.8234
3391.721, 390.9360
3393.649, 388.8853
3395.578, 387.6785
3397.506, 387.3813
3399.435, 386.4654
3401.363, 385.1219
3403.292, 384.2835
3405.220, 383.4255
3407.148, 381.7390
3409.077, 379.9907
3411.005, 378.4077
3412.934, 377.3887
3414.862, 377.1797
3416.791, 376.1400
3418.719, 374.1746
3420.648, 372.0810
3422.576, 370.0993
3424.505, 368.8109
3426.433, 367.7539
3428.362, 366.2385
3430.290, 365.2816
3432.219, 365.8195
3434.147, 364.8314
3436.075, 361.2873
3438.004, 360.0443
3439.932, 360.3249
3441.861, 358.2205
3443.789, 355.2700
3445.718, 353.9056
3447.646, 352.9237
3449.575, 351.9443
3451.503, 350.5702
3453.432, 348.6595
3455.360, 346.8148
3457.289, 345.0592
3459.217, 342.9839
3461.146, 341.1132
3463.074, 341.6524
3465.002, 341.8523
3466.931, 339.1939
3468.859, 335.9634
3470.788, 332.5938
3472.716, 330.1014
3474.645, 328.6794
3476.573, 328.0171
3478.502, 327.5228
3480.430, 324.7813
3482.359, 321.7753
3484.287, 320.9342
3486.216, 319.8570
3488.144, 317.2312
3490.073, 316.1580
3492.001, 317.6830
3493.929, 316.8292
3495.858, 314.2994
3497.786, 312.4037
3499.715, 310.9175
3501.643, 309.7206
3503.572, 308.6581
3505.500, 307.8180
3507.429, 306.7594
3509.357, 305.3892
3511.286, 304.2046
3513.214, 303.4741
3515.143, 304.5164
3517.071, 305.9198
3519.000, 306.0440
3520.928, 305.7332
3522.856, 304.9492
3524.785, 304.9759
3526.713, 305.9624
3528.642, 306.1833
3530.570, 305.8596
3532.499, 306.1951
3534.427, 306.4065
3536.356, 305.7119
3538.284, 304.5924
3540.213, 303.4425
3542.141, 301.0970
3544.070, 297.4239
3545.998, 294.3055
3547.927, 291.7081
3549.855, 289.4795
3551.783, 287.4439
3553.712, 285.6851
3555.640, 283.4365
3557.569, 280.2676
3559.497, 277.8755
3561.426, 276.4176
3563.354, 274.7559
3565.283, 272.8110
3567.211, 270.1887
3569.140, 267.7267
3571.068, 266.1709
3572.997, 264.6642
3574.925, 263.0070
3576.854, 261.5703
3578.782, 260.3712
3580.710, 259.6205
3582.639, 258.8527
3584.567, 257.0183
3586.496, 255.7775
3588.424, 256.3315
3590.353, 255.3822
3592.281, 252.1156
3594.210, 250.1665
3596.138, 249.1401
3598.067, 248.0231
3599.995, 247.0522
3601.924, 246.7422
3603.852, 245.8444
3605.781, 243.6035
3607.709, 241.4835
3609.637, 239.7333
3611.566, 240.2266
3613.494, 241.3889
3615.423, 241.0640
3617.351, 240.2715
3619.280, 239.4050
3621.208, 238.2975
3623.137, 236.9345
3625.065, 235.8039
3626.994, 234.9423
3628.922, 234.3614
3630.851, 234.1416
3632.779, 234.7043
3634.708, 234.4943
3636.636, 232.7739
3638.564, 232.2477
3640.493, 232.5374
3642.421, 231.4687
3644.350, 230.3584
3646.278, 231.0642
3648.207, 231.3618
3650.135, 229.9051
3652.064, 229.1003
3653.992, 228.8480
3655.921, 227.6300
3657.849, 226.2578
3659.778, 226.2794
3661.706, 226.4048
3663.635, 226.1090
3665.563, 225.4619
3667.491, 224.5227
3669.420, 224.7683
3671.348, 225.4246
3673.277, 224.8298
3675.205, 223.9697
3677.134, 223.3518
3679.062, 222.8505
3680.991, 222.4463
3682.919, 222.7771
3684.848, 223.4693
3686.776, 223.5583
3688.705, 223.3768
3690.633, 223.1849
3692.562, 222.7686
3694.490, 222.1269
3696.418, 220.3837
3698.347, 218.3109
3700.275, 218.7285
3702.204, 219.5640
3704.132, 219.1254
3706.061, 218.8431
3707.989, 219.1817
3709.918, 218.4958
3711.846, 217.1880
3713.775, 216.9326
3715.703, 216.7900
3717.632, 215.6888
3719.560, 215.2589
3721.489, 216.0716
3723.417, 216.7758
3725.345, 217.2125
3727.274, 216.9430
3729.202, 216.4393
3731.131, 215.9782
3733.059, 215.7385
3734.988, 215.8221
3736.916, 215.6728
3738.845, 215.3425
3740.773, 214.8823
3742.702, 214.7375
3744.630, 215.6908
3746.559, 215.6629
3748.487, 213.8196
3750.416, 213.5977
3752.344, 214.3469
3754.272, 214.2489
3756.201, 213.9277
3758.129, 213.7893
3760.058, 213.5531
3761.986, 213.1091
3763.915, 213.4852
3765.843, 214.0227
3767.772, 212.9235
3769.700, 212.0807
3771.629, 212.6034
3773.557, 213.1340
3775.486, 213.4834
3777.414, 212.6077
3779.343, 211.3311
3781.271, 211.0138
3783.199, 210.8338
3785.128, 210.4431
3787.056, 210.1373
3788.985, 209.9576
3790.913, 210.1843
3792.842, 210.5676
3794.770, 211.0440
3796.699, 210.9250
3798.627, 209.7881
3800.556, 210.4987
3802.484, 212.4011
3804.413, 211.6391
3806.341, 210.1644
3808.270, 209.1686
3810.198, 208.9506
3812.126, 209.6075
3814.055, 209.8376
3815.983, 209.8245
3817.912, 210.0671
3819.840, 210.4186
3821.769, 211.1342
3823.697, 210.7169
3825.626, 209.1398
3827.554, 208.4703
3829.483, 208.5224
3831.411, 209.5253
3833.340, 209.8947
3835.268, 209.0035
3837.197, 208.3985
3839.125, 208.1799
3841.053, 208.4983
3842.982, 208.8059
3844.910, 208.7213
3846.839, 208.3656
3848.767, 207.7686
3850.696, 207.8082
3852.624, 208.0224
3854.553, 207.5366
3856.481, 207.0198
3858.410, 206.5660
3860.338, 207.1946
3862.267, 208.4365
3864.195, 207.6026
3866.124, 206.7783
3868.052, 208.1622
3869.980, 208.7697
3871.909, 207.7108
3873.837, 207.6903
3875.766, 208.1115
3877.694, 207.9540
3879.623, 207.7366
3881.551, 207.7301
3883.480, 207.4494
3885.408, 206.9376
3887.337, 206.5058
3889.265, 206.1346
3891.194, 205.8716
3893.122, 205.3558
3895.051, 204.5522
3896.979, 205.0628
3898.907, 206.0244
3900.836, 205.9892
3902.764, 205.9030
3904.693, 206.1682
3906.621, 205.9718
3908.550, 205.4351
3910.478, 205.1706
3912.407, 204.8975
3914.335, 204.2128
3916.264, 204.0954
3918.192, 204.5449
3920.121, 204.7222
3922.049, 204.8480
3923.978, 205.2715
3925.906, 205.5426
3927.834, 205.5774
3929.763, 204.7741
3931.691, 203.8220
3933.620, 204.2210
3935.548, 204.8065
3937.477, 205.1842
3939.405, 204.8381
3941.334, 204.0518
3943.262, 204.5126
3945.191, 204.7511
3947.119, 203.1603
3949.048, 202.7554
3950.976, 203.8078
3952.905, 204.6162
3954.833, 204.8092
3956.761, 203.3528
3958.690, 202.9988
3960.618, 204.1969
3962.547, 204.2004
3964.475, 203.4708
3966.404, 202.5184
3968.332, 202.1770
3970.261, 203.2352
3972.189, 202.9352
3974.118, 202.0299
3976.046, 202.8031
3977.975, 203.4368
3979.903, 202.9205
3981.832, 202.8546
3983.760, 203.1434
3985.688, 202.5578
3987.617, 201.8095
3989.545, 201.2334
3991.474, 201.4110
3993.402, 202.2547
3995.331, 201.8456
3997.259, 201.2177
3999.188, 201.3161
4001.116, 201.7498
4003.045, 202.3907
4004.973, 202.5912
4006.902, 202.2511
4008.830, 200.7140
4010.759, 200.2756
4012.687, 201.5446
4014.615, 201.9254
4016.544, 201.5402
4018.472, 200.1335
4020.401, 199.1298
4022.329, 199.0201
4024.258, 199.7021
4026.186, 200.5262
4028.115, 200.1901
4030.043, 199.6403
4031.972, 199.0823
4033.900, 200.4714
4035.829, 202.7681
4037.757, 203.6792
4039.686, 203.2885
4041.614, 201.2237
4043.542, 200.1231
4045.471, 199.9701
4047.399, 200.8056
4049.328, 201.3179
4051.256, 200.6250
4053.185, 200.0156
4055.113, 199.5101
4057.042, 198.8923
4058.970, 198.5457
4060.899, 198.6893
4062.827, 198.6862
4064.756, 198.5330
4066.684, 198.5233
4068.613, 198.3731
4070.541, 197.8846
4072.469, 197.5546
4074.398, 197.3745
4076.326, 197.0794
4078.255, 196.8440
4080.183, 196.7803
4082.112, 196.9089
4084.040, 197.0613
4085.969, 196.5821
4087.897, 196.0241
4089.826, 195.4951
4091.754, 196.1799
4093.683, 197.4838
4095.611, 197.2227
4097.540, 196.7299
4099.468, 196.7168
4101.396, 196.3355
4103.325, 195.7170
4105.253, 195.4308
4107.182, 195.2236
4109.110, 195.0171
4111.039, 194.3533
4112.967, 193.6729
4114.896, 194.6950
4116.824, 195.3120
4118.752, 194.1304
4120.681, 194.2381
4122.609, 194.9841
4124.538, 195.0858
4126.466, 194.5846
4128.395, 193.4358
4130.323, 192.8019
4132.252, 192.7243
4134.180, 193.5204
4136.109, 193.9088
4138.037, 193.5923
4139.966, 193.0966
4141.894, 192.8448
4143.823, 193.5858
4145.751, 194.1459
4147.680, 194.2517
4149.608, 193.8519
4151.537, 193.2737
4153.465, 192.7164
4155.394, 192.6200
4157.322, 193.0014
4159.250, 192.8451
4161.179, 192.5477
4163.107, 192.6457
4165.036, 191.9227
4166.964, 190.7060
4168.893, 191.3322
4170.821, 192.3247
4172.750, 192.9048
4174.678, 192.9022
4176.606, 192.4880
4178.535, 191.9538
4180.463, 191.7430
4182.392, 192.0168
4184.320, 192.7409
4186.249, 193.3215
4188.177, 192.5704
4190.106, 191.6038
4192.034, 190.7414
4193.963, 190.3524
4195.891, 190.4920
4197.820, 191.5739
4199.748, 191.8997
4201.677, 191.3128
4203.605, 191.4778
4205.534, 191.9128
4207.462, 192.3107
4209.391, 192.5256
4211.319, 192.5253
4213.248, 192.0455
4215.176, 191.8266
4217.104, 192.5126
4219.033, 191.6950
4220.961, 190.0902
4222.890, 189.1594
4224.818, 188.7849
4226.747, 189.0197
4228.675, 189.5499
4230.604, 189.8665
4232.532, 188.8292
4234.460, 188.7961
4236.389, 189.9229
4238.317, 190.7019
4240.246, 190.9905
4242.174, 190.4242
4244.103, 189.7695
##END=



