##NAMES=Rockbridgeite
##RRUFFID=R060858
##IDEAL CHEMISTRY=(Fe^2+^_0.5_Fe^3+^_0.5_)_2_Fe^3+^_3_(PO_4_)_3_(OH)_5_
##LOCALITY=Tip Top mine, Custer County, South Dakota, USA
##OWNER=RRUFF
##SOURCE=Marcus Origlieri
##DESCRIPTION=Dark reddish brown elongated prismatic crystals associated with jahnsite-(CaMnMg), R060213
##STATUS=The identification of this mineral is confirmed by single-crystal X-ray diffraction and chemical analysis
##URL=https://www.rruff.net/odr/rruff_sample/R060858
##MEASURED CHEMISTRY=(Fe^2+^_0.62_Mn^2+^_0.33_Mg_0.05_)Fe^3+^_4.00_(P_1.00_O_4_)_3_(OH)_5_ ; OH estimated by difference  Fe2+ and Fe3+ by charge balance
##DIFFRACTION SAMPLE DESCRIPTION=Single crystal, powder profile is calculated
##CELL PARAMETERS=a: 13.975 b: 16.814 c: 5.1706 alpha: 90 beta: 90 gamma: 90 volume: 1214.9 crystal system: orthorhombic
##FILETYPE=Raman RAW
##RAMAN WAVELENGTH=532

204.8853, 108.3950
206.8138, 108.4670
208.7422, 108.2043
210.6707, 106.8763
212.5992, 106.0033
214.5276, 106.0856
216.4561, 106.8569
218.3846, 107.4436
220.3130, 107.6579
222.2415, 107.7179
224.1700, 107.6425
226.0984, 107.2760
228.0269, 107.1313
229.9554, 107.4881
231.8838, 108.2833
233.8123, 108.9238
235.7408, 109.3732
237.6692, 109.5526
239.5977, 109.4747
241.5262, 109.0962
243.4546, 109.0287
245.3831, 109.4502
247.3116, 110.1257
249.2400, 110.3319
251.1685, 109.8089
253.0970, 109.3593
255.0254, 109.2263
256.9539, 109.4479
258.8824, 109.7996
260.8108, 110.2599
262.7393, 110.9173
264.6678, 111.8282
266.5962, 113.0347
268.5247, 114.3495
270.4532, 115.7353
272.3816, 117.1847
274.3101, 118.8171
276.2386, 120.9362
278.1670, 123.1103
280.0955, 124.8380
282.0240, 125.7831
283.9524, 126.4521
285.8809, 127.0672
287.8094, 127.6878
289.7378, 128.2255
291.6663, 128.4176
293.5948, 128.2175
295.5232, 127.8705
297.4517, 127.4853
299.3802, 127.3241
301.3086, 127.2441
303.2371, 127.2274
305.1656, 127.3305
307.0940, 127.4663
309.0225, 127.8140
310.9510, 128.5984
312.8794, 130.1203
314.8079, 131.2926
316.7364, 131.6575
318.6648, 131.5783
320.5933, 131.7369
322.5218, 132.3499
324.4502, 133.2741
326.3787, 134.5574
328.3072, 136.1253
330.2356, 137.2848
332.1641, 137.8298
334.0926, 138.1131
336.0210, 138.3129
337.9495, 138.2435
339.8780, 137.7761
341.8064, 136.7707
343.7349, 135.5556
345.6634, 135.0217
347.5918, 135.9068
349.5203, 137.0001
351.4488, 137.6249
353.3772, 137.6161
355.3057, 137.6977
357.2342, 138.1993
359.1626, 138.8584
361.0911, 139.1973
363.0196, 138.8406
364.9480, 138.5069
366.8765, 138.4034
368.8050, 138.5341
370.7334, 138.7925
372.6619, 139.1808
374.5904, 139.6515
376.5188, 140.2006
378.4473, 140.9088
380.3758, 141.4227
382.3042, 142.0285
384.2327, 142.5323
386.1612, 142.4006
388.0896, 140.3997
390.0181, 138.2112
391.9466, 136.4137
393.8750, 135.3240
395.8035, 134.7442
397.7320, 134.7773
399.6604, 135.0433
401.5889, 135.2375
403.5174, 135.2181
405.4458, 135.3408
407.3743, 135.7020
409.3028, 136.1603
411.2312, 136.4470
413.1597, 136.5500
415.0882, 136.6097
417.0166, 136.6335
418.9451, 136.5589
420.8736, 136.8373
422.8020, 137.5525
424.7305, 138.4608
426.6590, 139.3574
428.5874, 140.5111
430.5159, 141.7241
432.4444, 142.8463
434.3728, 143.6965
436.3013, 144.4582
438.2298, 145.1414
440.1582, 145.6945
442.0867, 146.0677
444.0152, 146.2741
445.9436, 146.8754
447.8721, 148.1720
449.8006, 149.6622
451.7290, 150.8791
453.6575, 151.6099
455.5860, 152.3399
457.5144, 153.4234
459.4429, 154.6752
461.3714, 155.5276
463.2998, 155.4705
465.2283, 154.6787
467.1568, 153.0436
469.0852, 151.3365
471.0137, 149.9546
472.9422, 148.6572
474.8706, 147.1315
476.7991, 145.1803
478.7276, 143.0173
480.6560, 141.0806
482.5845, 139.6180
484.5130, 138.3719
486.4414, 136.9930
488.3699, 135.2642
490.2984, 133.7869
492.2268, 132.6538
494.1553, 131.8020
496.0838, 131.3082
498.0122, 131.5917
499.9407, 131.4707
501.8692, 130.2134
503.7976, 127.5776
505.7261, 125.9156
507.6546, 125.8624
509.5830, 126.2510
511.5115, 126.2474
513.4399, 125.5592
515.3684, 124.8494
517.2969, 124.3344
519.2253, 123.9228
521.1538, 123.2266
523.0823, 122.1609
525.0107, 121.4259
526.9392, 121.5886
528.8677, 122.0287
530.7961, 121.9924
532.7246, 121.5162
534.6531, 121.0880
536.5815, 120.8540
538.5100, 120.5791
540.4385, 120.2856
542.3669, 119.8684
544.2954, 119.7719
546.2239, 120.2583
548.1523, 121.3582
550.0808, 122.1307
552.0093, 122.3417
553.9377, 122.3301
555.8662, 122.3826
557.7947, 122.5455
559.7231, 123.2389
561.6516, 124.8434
563.5801, 126.8683
565.5085, 128.1908
567.4370, 128.4860
569.3655, 129.0757
571.2939, 131.0206
573.2224, 133.4232
575.1509, 134.6192
577.0793, 133.8759
579.0078, 132.6054
580.9363, 131.0552
582.8647, 129.3803
584.7932, 128.2894
586.7217, 128.3947
588.6501, 128.5352
590.5786, 127.9335
592.5071, 126.6109
594.4355, 125.6381
596.3640, 125.1757
598.2925, 124.7731
600.2209, 124.4013
602.1494, 124.1799
604.0779, 124.0037
606.0063, 123.6667
607.9348, 123.3347
609.8633, 123.2741
611.7917, 123.5088
613.7202, 123.7222
615.6487, 123.9605
617.5771, 124.2224
619.5056, 124.1789
621.4341, 123.5792
623.3625, 122.8824
625.2910, 122.2461
627.2195, 121.8614
629.1479, 121.6809
631.0764, 121.7745
633.0049, 121.8905
634.9333, 121.8471
636.8618, 121.6362
638.7903, 121.7633
640.7188, 122.7411
642.6472, 123.7255
644.5757, 124.0717
646.5042, 123.5634
648.4326, 123.1094
650.3611, 122.8365
652.2896, 122.7009
654.2180, 122.5774
656.1465, 122.3563
658.0750, 122.4254
660.0034, 123.0484
661.9319, 123.9012
663.8604, 124.4724
665.7888, 124.7153
667.7173, 124.7838
669.6458, 124.4972
671.5742, 124.1112
673.5027, 124.0871
675.4312, 124.9131
677.3596, 125.5982
679.2881, 125.9623
681.2166, 126.0509
683.1450, 126.1228
685.0735, 126.1402
687.0020, 126.2100
688.9304, 126.3529
690.8589, 126.5610
692.7874, 126.8199
694.7158, 127.1093
696.6443, 127.4330
698.5728, 127.8103
700.5012, 128.2386
702.4297, 128.6374
704.3582, 129.0000
706.2866, 129.2925
708.2151, 129.6164
710.1436, 130.1678
712.0720, 130.2119
714.0005, 129.2064
715.9290, 128.1653
717.8574, 127.9206
719.7859, 128.4591
721.7144, 128.7332
723.6428, 128.1634
725.5713, 127.5068
727.4998, 127.2789
729.4282, 127.6639
731.3567, 127.7989
733.2852, 127.5686
735.2136, 127.1977
737.1421, 126.7035
739.0706, 126.0533
740.9990, 125.6631
742.9275, 125.9147
744.8560, 126.2228
746.7844, 126.1806
748.7129, 125.7170
750.6414, 125.3579
752.5698, 125.1665
754.4983, 124.9635
756.4268, 124.8240
758.3552, 124.8122
760.2837, 124.7088
762.2122, 124.3759
764.1406, 123.9400
766.0691, 123.4733
767.9976, 122.9178
769.9260, 122.4103
771.8545, 122.0256
773.7830, 121.6579
775.7114, 121.2169
777.6399, 120.6941
779.5684, 120.3751
781.4968, 120.4619
783.4253, 120.4666
785.3538, 120.3653
787.2822, 120.3994
789.2107, 120.3384
791.1392, 119.8221
793.0676, 119.1571
794.9961, 118.7960
796.9246, 118.8039
798.8530, 118.6251
800.7815, 118.0588
802.7100, 117.4977
804.6384, 117.1262
806.5669, 116.9023
808.4954, 116.7260
810.4238, 116.7574
812.3523, 116.8256
814.2808, 116.5950
816.2092, 115.9519
818.1377, 115.3733
820.0662, 115.0481
821.9946, 114.8065
823.9231, 114.4834
825.8516, 113.9999
827.7800, 113.5482
829.7085, 113.1726
831.6370, 112.9433
833.5654, 112.7858
835.4939, 112.6735
837.4224, 112.5253
839.3508, 112.2869
841.2793, 112.2627
843.2078, 112.2542
845.1362, 111.9910
847.0647, 111.8417
848.9932, 112.2548
850.9216, 112.8032
852.8501, 112.8080
854.7786, 112.1787
856.7070, 111.6233
858.6355, 111.1468
860.5640, 111.1452
862.4924, 111.5641
864.4209, 111.8623
866.3494, 111.7295
868.2778, 111.1822
870.2063, 110.9392
872.1348, 111.1797
874.0632, 111.8605
875.9917, 112.2464
877.9202, 111.8666
879.8486, 111.5007
881.7771, 111.5707
883.7056, 111.6510
885.6340, 111.4640
887.5625, 110.9967
889.4910, 111.0538
891.4194, 111.8782
893.3479, 113.0657
895.2764, 113.7435
897.2048, 113.4788
899.1333, 112.9629
901.0618, 112.8120
902.9902, 113.1134
904.9187, 113.7019
906.8472, 114.7088
908.7756, 115.9090
910.7041, 116.6908
912.6326, 116.2224
914.5610, 115.7381
916.4895, 115.5669
918.4180, 116.1091
920.3464, 117.2234
922.2749, 118.3852
924.2034, 119.3059
926.1318, 119.9789
928.0603, 120.5659
929.9888, 120.8363
931.9172, 120.7394
933.8457, 121.8758
935.7742, 125.0612
937.7026, 128.8560
939.6311, 131.2824
941.5596, 132.1465
943.4880, 134.0577
945.4165, 136.7222
947.3450, 139.4935
949.2734, 142.3490
951.2019, 146.4536
953.1304, 151.4597
955.0588, 156.6534
956.9873, 161.0479
958.9158, 164.3369
960.8442, 166.0780
962.7727, 166.0795
964.7012, 164.8285
966.6296, 163.0804
968.5581, 161.0447
970.4866, 158.8843
972.4150, 156.5650
974.3435, 154.2530
976.2720, 152.7066
978.2004, 152.0421
980.1289, 151.8609
982.0574, 151.4510
983.9858, 150.8057
985.9143, 150.9294
987.8428, 152.1170
989.7712, 153.9965
991.6997, 155.9052
993.6282, 157.5548
995.5566, 158.8739
997.4851, 159.7547
999.4136, 160.1401
1001.342, 160.1097
1003.271, 160.1203
1005.199, 160.6469
1007.127, 161.2465
1009.056, 161.5492
1010.984, 161.4174
1012.913, 160.9022
1014.841, 159.8999
1016.770, 158.4259
1018.698, 157.1756
1020.627, 156.7898
1022.555, 157.1322
1024.484, 157.2340
1026.412, 156.7844
1028.341, 157.0414
1030.269, 157.8528
1032.198, 158.7260
1034.126, 159.1270
1036.054, 160.1586
1037.983, 161.5373
1039.911, 162.7326
1041.840, 163.6354
1043.768, 164.3927
1045.697, 165.0736
1047.625, 165.7546
1049.554, 166.6549
1051.482, 167.6568
1053.411, 168.3652
1055.339, 168.4972
1057.268, 168.5721
1059.196, 169.2034
1061.125, 170.0118
1063.053, 170.8179
1064.981, 171.6471
1066.910, 172.4522
1068.838, 172.6857
1070.767, 173.1219
1072.695, 174.4513
1074.624, 176.0197
1076.552, 176.4776
1078.481, 175.5492
1080.409, 175.1081
1082.338, 176.0099
1084.266, 177.6353
1086.195, 178.9779
1088.123, 179.7073
1090.052, 180.2873
1091.980, 180.7372
1093.908, 180.9014
1095.837, 181.3633
1097.765, 182.4495
1099.694, 183.8041
1101.622, 184.9742
1103.551, 186.1672
1105.479, 187.6579
1107.408, 189.5835
1109.336, 191.5437
1111.265, 193.2622
1113.193, 193.9686
1115.122, 194.5728
1117.050, 195.5566
1118.979, 196.4457
1120.907, 196.7005
1122.835, 196.7382
1124.764, 197.2756
1126.692, 198.3579
1128.621, 199.1833
1130.549, 199.3465
1132.478, 199.2757
1134.406, 199.2277
1136.335, 199.7204
1138.263, 200.8459
1140.192, 202.4226
1142.120, 204.0237
1144.049, 205.6426
1145.977, 207.0399
1147.906, 207.9606
1149.834, 208.8044
1151.762, 210.1802
1153.691, 212.2740
1155.619, 213.9428
1157.548, 214.7797
1159.476, 215.6741
1161.405, 216.7478
1163.333, 218.0461
1165.262, 219.2557
1167.190, 220.1841
1169.119, 221.3446
1171.047, 222.3962
1172.976, 223.3198
1174.904, 224.4688
1176.833, 225.3254
1178.761, 226.2451
1180.689, 227.0291
1182.618, 227.9110
1184.546, 229.4379
1186.475, 231.5593
1188.403, 233.4854
1190.332, 234.8501
1192.260, 236.3947
1194.189, 238.3494
1196.117, 239.8952
1198.046, 241.0597
1199.974, 242.1852
1201.903, 243.5145
1203.831, 244.9080
1205.760, 246.1459
1207.688, 247.2841
1209.616, 248.3890
1211.545, 249.8219
1213.473, 251.5735
1215.402, 253.6286
1217.330, 256.5066
1219.259, 259.3158
1221.187, 260.9118
1223.116, 260.9853
1225.044, 261.4081
1226.973, 262.3080
1228.901, 263.2314
1230.830, 264.3481
1232.758, 266.0589
1234.687, 268.1097
1236.615, 270.5829
1238.543, 272.8549
1240.472, 274.5676
1242.400, 276.2539
1244.329, 278.5273
1246.257, 281.4395
1248.186, 283.6010
1250.114, 284.1719
1252.043, 284.6754
1253.971, 285.6190
1255.900, 287.1880
1257.828, 289.2937
1259.757, 292.4382
1261.685, 294.9073
1263.614, 296.1175
1265.542, 297.3916
1267.470, 299.5182
1269.399, 302.4585
1271.327, 304.9527
1273.256, 306.8654
1275.184, 308.3593
1277.113, 309.1088
1279.041, 309.7886
1280.970, 311.1694
1282.898, 313.3412
1284.827, 315.5035
1286.755, 317.7020
1288.684, 319.6795
1290.612, 321.1710
1292.541, 322.4160
1294.469, 324.1690
1296.397, 326.6297
1298.326, 329.2311
1300.254, 332.1678
1302.183, 334.7183
1304.111, 336.2339
1306.040, 337.0731
1307.968, 338.6708
1309.897, 341.4490
1311.825, 343.8691
1313.754, 345.4142
1315.682, 346.7339
1317.611, 348.4838
1319.539, 350.5728
1321.468, 352.0583
1323.396, 352.2102
1325.324, 353.1095
1327.253, 356.3138
1329.181, 360.2684
1331.110, 363.1261
1333.038, 364.6484
1334.967, 366.4740
1336.895, 369.0836
1338.824, 371.5862
1340.752, 373.7206
1342.681, 375.5043
1344.609, 376.9816
1346.538, 377.9577
1348.466, 378.9958
1350.395, 379.9931
1352.323, 381.2156
1354.251, 382.9411
1356.180, 385.0362
1358.108, 387.0234
1360.037, 388.8412
1361.965, 390.6089
1363.894, 392.3338
1365.822, 394.1516
1367.751, 396.1564
1369.679, 398.1314
1371.608, 399.7950
1373.536, 401.1498
1375.465, 402.4863
1377.393, 403.7583
1379.322, 405.1677
1381.250, 406.5583
1383.178, 407.9559
1385.107, 409.4384
1387.035, 410.8627
1388.964, 412.3227
1390.892, 413.7929
1392.821, 415.1434
1394.749, 416.0736
1396.678, 416.5089
1398.606, 418.4796
1400.535, 423.8031
1402.463, 427.8192
1404.392, 428.6104
1406.320, 428.3446
1408.249, 429.3902
1410.177, 431.5204
1412.105, 432.9826
1414.034, 433.1183
1415.962, 434.0795
1417.891, 437.3093
1419.819, 441.0546
1421.748, 443.2115
1423.676, 443.8741
1425.605, 445.2064
1427.533, 447.8473
1429.462, 450.2051
1431.390, 451.1860
1433.319, 451.9887
1435.247, 453.9752
1437.176, 457.1243
1439.104, 459.2876
1441.032, 459.4606
1442.961, 459.9365
1444.889, 461.6693
1446.818, 464.0457
1448.746, 466.1784
1450.675, 468.0313
1452.603, 470.0412
1454.532, 472.2077
1456.460, 474.6913
1458.389, 477.8466
1460.317, 480.8836
1462.246, 483.0693
1464.174, 484.4249
1466.103, 485.7841
1468.031, 487.3173
1469.959, 489.0313
1471.888, 490.8364
1473.816, 492.5482
1475.745, 494.2236
1477.673, 496.2588
1479.602, 498.6553
1481.530, 501.2409
1483.459, 503.5356
1485.387, 505.5352
1487.316, 507.3802
1489.244, 508.8551
1491.173, 509.7999
1493.101, 510.4032
1495.030, 510.4645
1496.958, 511.0757
1498.886, 513.4763
1500.815, 515.8801
1502.743, 516.8585
1504.672, 516.4926
1506.600, 516.4874
1508.529, 517.5708
1510.457, 518.6896
1512.386, 519.2640
1514.314, 519.7681
1516.243, 520.5928
1518.171, 521.5656
1520.100, 522.1329
1522.028, 522.1215
1523.957, 522.9290
1525.885, 525.7497
1527.813, 527.7513
1529.742, 527.6799
1531.670, 526.1767
1533.599, 524.1669
1535.527, 521.1544
1537.456, 519.5894
1539.384, 521.0898
1541.313, 521.7726
1543.241, 520.3566
1545.170, 518.1072
1547.098, 516.2332
1549.027, 514.5405
1550.955, 512.6307
1552.884, 510.5053
1554.812, 508.7159
1556.740, 507.7978
1558.669, 506.6203
1560.597, 504.2311
1562.526, 500.8423
1564.454, 497.5167
1566.383, 494.2221
1568.311, 491.5538
1570.240, 490.5251
1572.168, 488.9358
1574.097, 484.6086
1576.025, 479.2212
1577.954, 476.8178
1579.882, 477.7613
1581.811, 476.3705
1583.739, 471.1854
1585.667, 465.1811
1587.596, 458.9590
1589.524, 452.7198
1591.453, 446.5892
1593.381, 440.6624
1595.310, 435.2024
1597.238, 430.3605
1599.167, 425.1001
1601.095, 418.6205
1603.024, 412.3583
1604.952, 407.6454
1606.881, 403.7015
1608.809, 399.1041
1610.738, 393.8340
1612.666, 388.0530
1614.594, 381.5347
1616.523, 374.9096
1618.451, 368.2619
1620.380, 361.8414
1622.308, 355.7213
1624.237, 349.8773
1626.165, 344.5473
1628.094, 339.9171
1630.022, 335.2493
1631.951, 330.7354
1633.879, 325.6659
1635.808, 319.3125
1637.736, 312.2885
1639.665, 305.6324
1641.593, 299.3257
1643.521, 294.0523
1645.450, 290.7078
1647.378, 286.8501
1649.307, 280.8175
1651.235, 274.6233
1653.164, 270.1584
1655.092, 266.9811
1657.021, 262.7065
1658.949, 256.9240
1660.878, 251.4790
1662.806, 246.5716
1664.735, 242.1961
1666.663, 238.7362
1668.592, 235.5151
1670.520, 231.5743
1672.448, 226.9361
1674.377, 222.6461
1676.305, 218.7467
1678.234, 215.2865
1680.162, 212.9965
1682.091, 210.4232
1684.019, 206.4720
1685.948, 201.8708
1687.876, 198.0504
1689.805, 195.0442
1691.733, 192.4510
1693.662, 190.4256
1695.590, 188.4304
1697.519, 186.3859
1699.447, 184.2405
1701.375, 181.8751
1703.304, 179.3757
1705.232, 177.0484
1707.161, 174.9158
1709.089, 172.7787
1711.018, 170.7045
1712.946, 168.4792
1714.875, 165.6752
1716.803, 163.0328
1718.732, 161.2938
1720.660, 160.2478
1722.589, 158.9153
1724.517, 157.2370
1726.446, 155.5406
1728.374, 153.6128
1730.302, 152.0710
1732.231, 151.6039
1734.159, 151.1785
1736.088, 149.8226
1738.016, 147.7209
1739.945, 145.6504
1741.873, 143.4893
1743.802, 142.1457
1745.730, 142.3502
1747.659, 142.3751
1749.587, 141.4290
1751.516, 140.1283
1753.444, 138.6841
1755.373, 137.2852
1757.301, 136.9786
1759.229, 138.0483
1761.158, 138.3212
1763.086, 137.0711
1765.015, 135.8313
1766.943, 135.4064
1768.872, 135.0809
1770.800, 134.2213
1772.729, 133.0313
1774.657, 132.0887
1776.586, 131.4110
1778.514, 130.7565
1780.443, 130.0208
1782.371, 129.3842
1784.300, 128.7902
1786.228, 128.4202
1788.156, 128.4893
1790.085, 128.8612
1792.013, 129.3908
1793.942, 130.0880
1795.870, 130.2653
1797.799, 129.6990
1799.727, 129.0245
1801.656, 128.2404
1803.584, 127.6069
1805.513, 127.3791
1807.441, 127.3464
1809.370, 127.1769
1811.298, 126.8955
1813.227, 126.7349
1815.155, 126.7424
1817.083, 126.8207
1819.012, 127.0124
1820.940, 127.2117
1822.869, 127.5572
1824.797, 127.7463
1826.726, 127.1687
1828.654, 126.0459
1830.583, 125.6715
1832.511, 126.1735
1834.440, 126.8527
1836.368, 127.7547
1838.297, 128.6567
1840.225, 129.9703
1842.154, 130.7884
1844.082, 129.9506
1846.010, 128.2058
1847.939, 127.3210
1849.867, 127.3757
1851.796, 127.7303
1853.724, 129.1101
1855.653, 129.6628
1857.581, 128.4547
1859.510, 127.3521
1861.438, 127.2969
1863.367, 127.7614
1865.295, 128.2596
1867.224, 128.7429
1869.152, 128.8445
1871.081, 128.4261
1873.009, 127.9916
1874.938, 127.3315
1876.866, 126.9896
1878.794, 127.3393
1880.723, 127.7555
1882.651, 127.7377
1884.580, 127.5832
1886.508, 127.8550
1888.437, 128.5384
1890.365, 129.2469
1892.294, 130.0683
1894.222, 130.4652
1896.151, 129.9677
1898.079, 129.7292
1900.008, 130.7580
1901.936, 131.7183
1903.865, 131.3056
1905.793, 130.1908
1907.721, 129.6850
1909.650, 129.7724
1911.578, 129.9476
1913.507, 130.1592
1915.435, 130.4156
1917.364, 130.9099
1919.292, 131.1183
1921.221, 130.3211
1923.149, 129.5699
1925.078, 130.1025
1927.006, 131.4121
1928.935, 132.1367
1930.863, 132.2248
1932.792, 132.3040
1934.720, 132.4150
1936.648, 132.4709
1938.577, 132.4121
1940.505, 132.3719
1942.434, 132.5040
1944.362, 132.5835
1946.291, 132.3085
1948.219, 131.8371
1950.148, 131.5412
1952.076, 131.3771
1954.005, 131.7222
1955.933, 132.8503
1957.862, 133.7268
1959.790, 134.1437
1961.719, 134.3785
1963.647, 134.6564
1965.575, 134.6728
1967.504, 133.9974
1969.432, 133.0082
1971.361, 132.3384
1973.289, 131.9857
1975.218, 131.9365
1977.146, 132.2229
1979.075, 132.5553
1981.003, 132.7333
1982.932, 133.2678
1984.860, 134.9497
1986.789, 136.3656
1988.717, 136.3337
1990.646, 135.6987
1992.574, 135.7415
1994.502, 136.2522
1996.431, 135.9498
1998.359, 134.3720
2000.288, 133.6946
2002.216, 134.7698
2004.145, 135.3756
2006.073, 134.6618
2008.002, 134.2706
2009.930, 135.2956
2011.859, 136.5458
2013.787, 136.8878
2015.716, 136.6693
2017.644, 136.6582
2019.573, 136.8352
2021.501, 137.0023
2023.429, 137.0987
2025.358, 137.4898
2027.286, 138.5320
2029.215, 139.1205
2031.143, 138.5309
2033.072, 137.8780
2035.000, 137.4209
2036.929, 137.5858
2038.857, 139.6191
2040.786, 142.5439
2042.714, 143.2336
2044.643, 141.4574
2046.571, 140.2461
2048.500, 139.4395
2050.428, 139.4640
2052.356, 141.4531
2054.285, 142.6089
2056.213, 141.4086
2058.142, 140.1589
2060.070, 140.3440
2061.999, 141.1121
2063.927, 141.2722
2065.856, 141.1986
2067.784, 142.6613
2069.713, 142.6604
2071.641, 142.5173
2073.570, 143.6798
2075.498, 142.0917
2077.427, 142.4709
2079.355, 143.0200
2081.283, 143.3191
2083.212, 143.3227
2085.140, 142.7588
2087.069, 142.0808
2088.997, 141.8050
2090.926, 141.7791
2092.854, 141.5246
2094.783, 141.0404
2096.711, 141.2925
2098.640, 141.1977
2100.568, 140.9128
2102.497, 141.8304
2104.425, 140.8565
2106.354, 141.7887
2108.282, 142.7478
2110.210, 143.2417
2112.139, 143.2303
2114.067, 142.0251
2115.996, 140.6987
2117.924, 141.3405
2119.853, 140.4896
2121.781, 140.2863
2123.710, 140.9525
2125.638, 140.2153
2127.567, 141.8244
2129.495, 142.6744
2131.424, 141.7657
2133.352, 141.0167
2135.281, 141.0176
2137.209, 141.1120
2139.137, 141.2098
2141.066, 141.0244
2142.994, 139.7947
2144.923, 140.2160
2146.851, 138.5337
2148.780, 139.9785
2150.708, 140.3989
2152.637, 139.7312
2154.565, 139.5241
2156.494, 140.1001
2158.422, 140.2227
2160.351, 139.2878
2162.279, 138.5630
2164.208, 138.5269
2166.136, 138.6874
2168.064, 139.0507
2169.993, 139.2583
2171.921, 138.7141
2173.850, 137.9727
2175.778, 138.2583
2177.707, 137.4870
2179.635, 137.1445
2181.564, 137.0611
2183.492, 136.4042
2185.421, 137.2354
2187.349, 137.4061
2189.278, 136.1604
2191.206, 135.5390
2193.135, 136.7925
2195.063, 137.7322
2196.991, 137.3401
2198.920, 136.4685
2200.848, 135.2878
2202.777, 134.3044
2204.705, 134.1508
2206.634, 134.6192
2208.562, 135.4085
2210.491, 136.4376
2212.419, 136.7505
2214.348, 136.2952
2216.276, 135.8491
2218.205, 135.4308
2220.133, 135.2521
2222.062, 135.5789
2223.990, 135.5581
2225.918, 134.4832
2227.847, 133.6708
2229.775, 133.9070
2231.704, 134.3144
2233.632, 133.9881
2235.561, 133.7673
2237.489, 135.1094
2239.418, 137.0420
2241.346, 137.3877
2243.275, 136.3689
2245.203, 135.3859
2247.132, 134.4463
2249.060, 134.1252
2250.989, 134.5803
2252.917, 134.5340
2254.845, 133.5328
2256.774, 132.8397
2258.702, 132.7203
2260.631, 133.0067
2262.559, 134.0244
2264.488, 134.9561
2266.416, 135.6831
2268.345, 135.8288
2270.273, 134.4202
2272.202, 132.7579
2274.130, 132.7006
2276.059, 133.6659
2277.987, 134.5904
2279.916, 135.3305
2281.844, 134.9746
2283.772, 133.4892
2285.701, 133.0582
2287.629, 134.1810
2289.558, 134.9711
2291.486, 135.0425
2293.415, 135.2274
2295.343, 135.8245
2297.272, 136.1906
2299.200, 136.0043
2301.129, 135.8491
2303.057, 136.2101
2304.986, 136.3942
2306.914, 135.5466
2308.843, 134.6492
2310.771, 134.8994
2312.699, 135.6408
2314.628, 135.7431
2316.556, 135.4285
2318.485, 135.1348
2320.413, 134.9345
2322.342, 136.8352
2324.270, 141.2058
2326.199, 143.7678
2328.127, 144.2379
2330.056, 143.6582
2331.984, 141.9004
2333.913, 140.0375
2335.841, 137.9005
2337.770, 136.5250
2339.698, 136.6332
2341.626, 136.9925
2343.555, 137.2126
2345.483, 137.4120
2347.412, 137.5681
2349.340, 137.8300
2351.269, 138.5390
2353.197, 139.2569
2355.126, 139.3730
2357.054, 139.1306
2358.983, 138.7859
2360.911, 138.4914
2362.840, 139.0083
2364.768, 140.2533
2366.697, 140.5593
2368.625, 139.7003
2370.553, 139.1992
2372.482, 139.1232
2374.410, 139.1419
2376.339, 139.1886
2378.267, 139.6386
2380.196, 140.9211
2382.124, 141.5461
2384.053, 140.4692
2385.981, 139.7107
2387.910, 140.2403
2389.838, 140.8696
2391.767, 140.9705
2393.695, 141.0774
2395.624, 141.8359
2397.552, 142.4777
2399.480, 141.9514
2401.409, 142.5383
2403.337, 141.6733
2405.266, 142.6055
2407.194, 142.8405
2409.123, 142.5624
2411.051, 142.1668
2412.980, 141.7324
2414.908, 141.9919
2416.837, 142.9989
2418.765, 143.7804
2420.694, 144.3466
2422.622, 144.5562
2424.551, 144.3486
2426.479, 144.2845
2428.407, 144.5016
2430.336, 144.5995
2432.264, 144.0533
2434.193, 144.1730
2436.121, 145.9158
2438.050, 147.1569
2439.978, 147.2094
2441.907, 146.9720
2443.835, 146.2937
2445.764, 146.0835
2447.692, 147.5018
2449.621, 148.6943
2451.549, 147.8468
2453.478, 146.8421
2455.406, 147.7732
2457.334, 146.9969
2459.263, 148.4672
2461.191, 147.2818
2463.120, 147.5330
2465.048, 148.6706
2466.977, 149.9095
2468.905, 150.9853
2470.834, 150.7594
2472.762, 151.4261
2474.691, 151.6099
2476.619, 151.3046
2478.548, 151.8226
2480.476, 151.2009
2482.405, 151.1332
2484.333, 151.6631
2486.261, 152.0524
2488.190, 152.2677
2490.118, 152.1006
2492.047, 151.2625
2493.975, 151.0584
2495.904, 152.2608
2497.832, 153.0887
2499.761, 153.3047
2501.689, 153.3247
2503.618, 153.0129
2505.546, 152.9787
2507.475, 153.5727
2509.403, 154.1167
2511.332, 154.2742
2513.260, 154.3795
2515.188, 154.4986
2517.117, 154.6907
2519.045, 154.9673
2520.974, 155.3459
2522.902, 156.1554
2524.831, 156.7136
2526.759, 156.1097
2528.688, 155.4919
2530.616, 156.2375
2532.545, 155.8690
2534.473, 157.0717
2536.402, 156.5568
2538.330, 157.2545
2540.259, 158.4177
2542.187, 158.6536
2544.115, 158.3547
2546.044, 158.1145
2547.972, 158.0862
2549.901, 158.8296
2551.829, 160.1070
2553.758, 161.0059
2555.686, 161.5660
2557.615, 162.0335
2559.543, 162.4018
2561.472, 162.4577
2563.400, 162.2512
2565.329, 162.2437
2567.257, 162.4476
2569.186, 163.2145
2571.114, 163.0552
2573.042, 163.3419
2574.971, 163.6848
2576.899, 163.4875
2578.828, 164.8125
2580.756, 164.9988
2582.685, 163.4225
2584.613, 163.3845
2586.542, 166.3491
2588.470, 167.8682
2590.399, 166.8540
2592.327, 165.9953
2594.256, 165.1830
2596.184, 165.4876
2598.113, 167.5802
2600.041, 168.9596
2601.969, 168.7011
2603.898, 168.4516
2605.826, 168.3086
2607.755, 168.6860
2609.683, 169.9246
2611.612, 171.2218
2613.540, 172.6492
2615.469, 173.5500
2617.397, 173.5741
2619.326, 173.2760
2621.254, 172.3088
2623.183, 171.9151
2625.111, 173.2536
2627.040, 174.1679
2628.968, 173.5064
2630.896, 173.0472
2632.825, 173.4646
2634.753, 174.3543
2636.682, 176.0011
2638.610, 177.3388
2640.539, 177.8150
2642.467, 177.8075
2644.396, 176.8361
2646.324, 176.3839
2648.253, 177.6786
2650.181, 179.0451
2652.110, 179.5002
2654.038, 179.6338
2655.967, 179.5804
2657.895, 179.6617
2659.823, 180.4975
2661.752, 181.0255
2663.680, 180.1512
2665.609, 179.2561
2667.537, 179.2512
2669.466, 179.6902
2671.394, 180.6541
2673.323, 181.3920
2675.251, 180.8399
2677.180, 180.3646
2679.108, 181.2235
2681.037, 182.4046
2682.965, 183.5752
2684.894, 184.2359
2686.822, 183.0846
2688.750, 182.2632
2690.679, 184.5110
2692.607, 186.9433
2694.536, 186.6660
2696.464, 185.8987
2698.393, 186.5387
2700.321, 187.3199
2702.250, 186.8308
2704.178, 186.3260
2706.107, 187.4047
2708.035, 188.4859
2709.964, 187.8955
2711.892, 187.1030
2713.821, 187.1493
2715.749, 187.6705
2717.677, 188.7695
2719.606, 189.6707
2721.534, 189.2766
2723.463, 188.8570
2725.391, 189.6519
2727.320, 190.5581
2729.248, 190.6721
2731.177, 190.6830
2733.105, 191.1124
2735.034, 191.7319
2736.962, 192.5775
2738.891, 193.2580
2740.819, 193.3757
2742.748, 193.3730
2744.676, 193.3564
2746.604, 193.5493
2748.533, 194.3380
2750.461, 195.0841
2752.390, 194.4165
2754.318, 194.9994
2756.247, 200.3371
2758.175, 204.2882
2760.104, 201.8761
2762.032, 199.0440
2763.961, 199.1541
2765.889, 199.5212
2767.818, 198.8073
2769.746, 198.1673
2771.675, 198.2255
2773.603, 198.2686
2775.531, 197.7327
2777.460, 197.5062
2779.388, 198.7248
2781.317, 198.9913
2783.245, 196.5056
2785.174, 195.6073
2787.102, 199.2547
2789.031, 202.1860
2790.959, 202.3760
2792.888, 202.2626
2794.816, 201.8940
2796.745, 202.2672
2798.673, 204.0739
2800.602, 205.0081
2802.530, 203.8911
2804.458, 203.0850
2806.387, 202.9131
2808.315, 203.4125
2810.244, 203.1346
2812.172, 203.1079
2814.101, 203.7917
2816.029, 203.0121
2817.958, 203.9452
2819.886, 204.4570
2821.815, 204.3445
2823.743, 204.8378
2825.672, 206.0561
2827.600, 206.8667
2829.529, 207.1761
2831.457, 207.0555
2833.385, 206.4232
2835.314, 206.4203
2837.242, 207.0080
2839.171, 207.9838
2841.099, 209.1159
2843.028, 208.2196
2844.956, 205.7858
2846.885, 205.7446
2848.813, 207.5200
2850.742, 208.3083
2852.670, 208.3268
2854.599, 207.8488
2856.527, 207.2976
2858.456, 207.7897
2860.384, 208.8358
2862.313, 209.5716
2864.241, 210.0913
2866.169, 210.4992
2868.098, 210.8064
2870.026, 210.9629
2871.955, 211.0620
2873.883, 211.1349
2875.812, 211.2586
2877.740, 211.6018
2879.669, 211.8639
2881.597, 211.7186
2883.526, 211.5923
2885.454, 211.7218
2887.383, 212.0213
2889.311, 212.5422
2891.240, 213.0546
2893.168, 213.4563
2895.096, 213.8606
2897.025, 214.4537
2898.953, 214.7564
2900.882, 214.5931
2902.810, 214.4111
2904.739, 214.2892
2906.667, 214.1606
2908.596, 213.9054
2910.524, 213.9587
2912.453, 214.3704
2914.381, 215.0717
2916.310, 216.0807
2918.238, 216.2790
2920.167, 215.5417
2922.095, 215.1162
2924.023, 214.9951
2925.952, 215.7145
2927.880, 216.9587
2929.809, 217.4681
2931.737, 217.4372
2933.666, 217.4456
2935.594, 217.4114
2937.523, 217.0921
2939.451, 216.6650
2941.380, 216.3310
2943.308, 216.0690
2945.237, 215.5164
2947.165, 215.3629
2949.094, 216.5584
2951.022, 217.8825
2952.950, 218.9392
2954.879, 219.2955
2956.807, 217.8372
2958.736, 217.1402
2960.664, 219.0278
2962.593, 220.2327
2964.521, 220.0080
2966.450, 219.2529
2968.378, 217.6941
2970.307, 216.8348
2972.235, 216.8130
2974.164, 217.3228
2976.092, 218.3671
2978.021, 218.9841
2979.949, 219.0776
2981.877, 219.2004
2983.806, 219.3081
2985.734, 218.7101
2987.663, 217.6808
2989.591, 216.8474
2991.520, 216.5107
2993.448, 218.0126
2995.377, 219.8406
2997.305, 219.4948
2999.234, 218.2617
3001.162, 216.7619
3003.091, 215.8732
3005.019, 216.9833
3006.948, 217.8598
3008.876, 216.9321
3010.804, 216.2295
3012.733, 216.6711
3014.661, 217.1857
3016.590, 218.0195
3018.518, 217.5237
3020.447, 218.3039
3022.375, 218.4910
3024.304, 217.9524
3026.232, 218.5964
3028.161, 216.0281
3030.089, 214.7683
3032.018, 214.6189
3033.946, 213.9918
3035.875, 213.3482
3037.803, 214.6129
3039.731, 216.6641
3041.660, 217.3339
3043.588, 217.1553
3045.517, 216.5274
3047.445, 215.7829
3049.374, 214.9206
3051.302, 214.4858
3053.231, 215.3352
3055.159, 215.6859
3057.088, 214.2475
3059.016, 213.5854
3060.945, 215.3521
3062.873, 216.0647
3064.802, 215.3047
3066.730, 214.4821
3068.658, 213.7194
3070.587, 213.4657
3072.515, 212.9739
3074.444, 213.3928
3076.372, 212.7629
3078.301, 213.0632
3080.229, 213.6194
3082.158, 212.8003
3084.086, 211.6742
3086.015, 211.9857
3087.943, 212.3234
3089.872, 210.8457
3091.800, 210.0827
3093.729, 212.7976
3095.657, 214.1492
3097.585, 212.2239
3099.514, 210.5158
3101.442, 209.8726
3103.371, 209.7104
3105.299, 210.2259
3107.228, 209.5686
3109.156, 209.6127
3111.085, 209.5112
3113.013, 209.0908
3114.942, 209.3145
3116.870, 208.9309
3118.799, 209.0887
3120.727, 209.1215
3122.656, 207.9807
3124.584, 206.6775
3126.512, 205.8403
3128.441, 205.5370
3130.369, 205.9118
3132.298, 206.5814
3134.226, 207.9200
3136.155, 208.4677
3138.083, 207.9893
3140.012, 207.2652
3141.940, 206.3378
3143.869, 205.7903
3145.797, 205.6064
3147.726, 205.7770
3149.654, 206.0876
3151.583, 206.2566
3153.511, 205.9138
3155.439, 203.7152
3157.368, 201.8129
3159.296, 202.3204
3161.225, 203.3347
3163.153, 204.4850
3165.082, 204.8214
3167.010, 203.6195
3168.939, 202.7909
3170.867, 202.5824
3172.796, 202.3445
3174.724, 202.0099
3176.653, 201.5313
3178.581, 201.0742
3180.510, 202.0110
3182.438, 203.3100
3184.366, 202.8107
3186.295, 201.6414
3188.223, 201.1292
3190.152, 200.5266
3192.080, 198.8961
3194.009, 197.8535
3195.937, 198.6216
3197.866, 198.8399
3199.794, 198.0727
3201.723, 197.6169
3203.651, 197.6772
3205.580, 197.6696
3207.508, 197.5295
3209.437, 196.2347
3211.365, 194.7514
3213.293, 195.5620
3215.222, 196.8078
3217.150, 195.9418
3219.079, 194.9300
3221.007, 194.6805
3222.936, 195.1156
3224.864, 196.9059
3226.793, 197.9279
3228.721, 197.9263
3230.650, 197.1475
3232.578, 195.5372
3234.507, 196.4207
3236.435, 195.0818
3238.364, 197.3894
3240.292, 194.7250
3242.220, 195.8555
3244.149, 197.8859
3246.077, 198.6353
3248.006, 198.1820
3249.934, 195.2167
3251.863, 193.7908
3253.791, 195.7525
3255.720, 196.8784
3257.648, 196.8587
3259.577, 196.7017
3261.505, 196.4549
3263.434, 196.0251
3265.362, 195.4073
3267.291, 194.1780
3269.219, 193.2822
3271.147, 194.2601
3273.076, 195.1414
3275.004, 194.8363
3276.933, 194.3113
3278.861, 193.5818
3280.790, 193.4727
3282.718, 194.1042
3284.647, 194.4887
3286.575, 194.6369
3288.504, 194.9167
3290.432, 195.2224
3292.361, 195.3911
3294.289, 195.3046
3296.218, 194.8089
3298.146, 194.0893
3300.074, 192.7709
3302.003, 192.2583
3303.931, 193.0169
3305.860, 193.6496
3307.788, 194.0434
3309.717, 193.4113
3311.645, 192.0788
3313.574, 190.9063
3315.502, 190.7485
3317.431, 195.0496
3319.359, 198.2935
3321.288, 195.2181
3323.216, 191.9218
3325.145, 191.0138
3327.073, 190.5514
3329.001, 190.2881
3330.930, 190.2523
3332.858, 190.4665
3334.787, 191.5860
3336.715, 192.9585
3338.644, 192.6225
3340.572, 191.5808
3342.501, 190.6664
3344.429, 189.7208
3346.358, 188.2128
3348.286, 187.9519
3350.215, 190.1165
3352.143, 190.6529
3354.072, 189.3067
3356.000, 187.7768
3357.928, 186.3426
3359.857, 185.4831
3361.785, 185.3830
3363.714, 186.8431
3365.642, 188.3799
3367.571, 189.6185
3369.499, 189.6590
3371.428, 187.7819
3373.356, 186.8159
3375.285, 186.9929
3377.213, 187.5272
3379.142, 188.0854
3381.070, 187.2150
3382.999, 185.9729
3384.927, 185.7588
3386.855, 185.6198
3388.784, 184.7751
3390.712, 184.3367
3392.641, 184.6385
3394.569, 185.1619
3396.498, 185.8825
3398.426, 186.2831
3400.355, 186.2817
3402.283, 185.2989
3404.212, 184.3701
3406.140, 185.5039
3408.069, 185.9689
3409.997, 183.4209
3411.926, 182.1078
3413.854, 183.0224
3415.782, 183.3403
3417.711, 183.0059
3419.639, 183.2104
3421.568, 183.6504
3423.496, 183.4380
3425.425, 183.2894
3427.353, 184.1877
3429.282, 184.5960
3431.210, 183.7741
3433.139, 183.2203
3435.067, 183.1786
3436.996, 183.0761
3438.924, 182.9711
3440.853, 183.4859
3442.781, 184.0331
3444.709, 183.9184
3446.638, 183.3508
3448.566, 183.7574
3450.495, 183.7377
3452.423, 183.4949
3454.352, 183.8533
3456.280, 182.8209
3458.209, 181.9068
3460.137, 181.4268
3462.066, 182.4549
3463.994, 183.4943
3465.923, 183.5632
3467.851, 183.0675
3469.780, 181.5202
3471.708, 181.0397
3473.636, 181.6437
3475.565, 181.9053
3477.493, 181.8730
3479.422, 181.3976
3481.350, 181.4254
3483.279, 183.7447
3485.207, 185.1213
3487.136, 183.7677
3489.064, 182.8107
3490.993, 182.6289
3492.921, 182.3817
3494.850, 182.0483
3496.778, 181.4600
3498.707, 181.0158
3500.635, 180.9441
3502.563, 181.6076
3504.492, 183.5558
3506.420, 184.4842
3508.349, 183.6702
3510.277, 183.5318
3512.206, 183.9894
3514.134, 185.1993
3516.063, 186.1143
3517.991, 184.9333
3519.920, 183.9866
3521.848, 184.4002
3523.777, 184.4921
3525.705, 183.8594
3527.634, 183.5173
3529.562, 183.4075
3531.490, 183.2557
3533.419, 183.3248
3535.347, 184.1130
3537.276, 184.9562
3539.204, 185.9594
3541.133, 185.9810
3543.061, 184.9713
3544.990, 184.9828
3546.918, 185.6029
3548.847, 185.4932
3550.775, 185.2768
3552.704, 185.3406
3554.632, 185.8316
3556.561, 187.2068
3558.489, 187.6983
3560.417, 187.3145
3562.346, 187.4370
3564.274, 187.8356
3566.203, 187.8048
3568.131, 187.9687
3570.060, 188.6428
3571.988, 189.9060
3573.917, 191.7497
3575.845, 193.9200
3577.774, 196.5523
3579.702, 200.9591
3581.631, 206.1634
3583.559, 211.8131
3585.488, 215.9367
3587.416, 217.6788
3589.344, 216.9653
3591.273, 213.6198
3593.201, 209.4996
3595.130, 204.9771
3597.058, 200.6777
3598.987, 197.0206
3600.915, 194.2972
3602.844, 192.7788
3604.772, 192.6891
3606.701, 192.3072
3608.629, 191.5704
3610.558, 192.0293
3612.486, 191.5433
3614.415, 192.0735
3616.343, 191.3088
3618.271, 190.9136
3620.200, 190.8287
3622.128, 191.0508
3624.057, 192.2333
3625.985, 193.4571
3627.914, 191.6301
3629.842, 189.6924
3631.771, 190.2619
3633.699, 191.4045
3635.628, 192.9491
3637.556, 193.6333
3639.485, 193.4706
3641.413, 192.0998
3643.342, 190.9272
3645.270, 192.3323
3647.198, 193.1060
3649.127, 191.7835
3651.055, 191.2383
3652.984, 191.7221
3654.912, 193.7284
3656.841, 195.8760
3658.769, 195.8084
3660.698, 195.1583
3662.626, 194.7108
3664.555, 194.1856
3666.483, 193.5312
3668.412, 192.8008
3670.340, 192.5629
3672.269, 194.6796
3674.197, 196.4220
3676.125, 195.4580
3678.054, 195.2626
3679.982, 197.1741
3681.911, 196.6731
3683.839, 194.8813
3685.768, 194.9483
3687.696, 195.7237
3689.625, 196.6370
3691.553, 196.8544
3693.482, 197.2997
3695.410, 196.0732
3697.339, 197.4871
3699.267, 198.0442
3701.196, 197.8243
3703.124, 196.1162
3705.052, 195.3155
3706.981, 196.2920
3708.909, 197.6293
3710.838, 198.9249
3712.766, 198.1579
3714.695, 197.0421
3716.623, 197.3900
3718.552, 197.9776
3720.480, 198.6926
3722.409, 198.1077
3724.337, 196.6301
3726.266, 196.5072
3728.194, 196.9896
3730.123, 197.5431
3732.051, 198.0427
3733.979, 198.4045
3735.908, 199.0562
3737.836, 199.9523
3739.765, 201.3588
3741.693, 201.9998
3743.622, 201.9360
3745.550, 201.9260
3747.479, 200.8539
3749.407, 201.1996
3751.336, 199.9561
3753.264, 200.5888
3755.193, 201.6175
3757.121, 201.7171
3759.050, 202.0754
3760.978, 202.9914
3762.906, 203.4827
3764.835, 203.4384
3766.763, 201.6615
3768.692, 200.7481
3770.620, 203.7862
3772.549, 205.7595
3774.477, 205.9050
3776.406, 203.9686
3778.334, 201.5182
3780.263, 201.9203
3782.191, 203.2690
3784.120, 204.8300
3786.048, 206.1367
3787.977, 207.1288
3789.905, 208.1969
3791.833, 208.8376
3793.762, 208.2151
3795.690, 207.1506
3797.619, 205.7408
3799.547, 205.2487
3801.476, 205.5907
3803.404, 205.2569
3805.333, 205.2388
3807.261, 207.1633
3809.190, 208.0623
3811.118, 207.1033
3813.047, 206.3336
3814.975, 206.0203
3816.904, 206.9668
3818.832, 208.0663
3820.760, 208.7554
3822.689, 208.8668
3824.617, 208.4704
3826.546, 208.5636
3828.474, 208.9337
3830.403, 209.3377
3832.331, 209.4954
3834.260, 208.6713
3836.188, 209.8773
3838.117, 209.8680
3840.045, 212.0940
3841.974, 210.7835
3843.902, 209.8167
3845.831, 209.8912
3847.759, 211.5635
3849.688, 212.6997
3851.616, 213.2551
3853.544, 213.2633
3855.473, 212.5275
3857.401, 210.5195
3859.330, 210.1290
3861.258, 211.5878
3863.187, 214.3160
3865.115, 216.5574
3867.044, 215.4314
3868.972, 215.1186
3870.901, 216.7000
3872.829, 217.0925
3874.758, 216.8074
3876.686, 217.2181
3878.615, 217.3860
3880.543, 216.5205
3882.471, 216.4608
3884.400, 217.1456
3886.328, 216.5830
3888.257, 216.2204
3890.185, 217.8057
3892.114, 219.3001
3894.042, 220.3654
3895.971, 220.1016
3897.899, 219.3499
3899.828, 219.9169
3901.756, 220.8338
3903.685, 222.2106
3905.613, 221.6600
3907.542, 219.8074
3909.470, 219.9721
3911.398, 221.5718
3913.327, 224.7860
3915.255, 225.9550
3917.184, 224.2811
3919.112, 223.6988
3921.041, 223.9678
3922.969, 224.7174
3924.898, 225.9975
3926.826, 227.7921
3928.755, 227.9444
3930.683, 229.4095
3932.612, 229.3849
3934.540, 230.9156
3936.469, 230.4798
3938.397, 230.1094
3940.325, 229.9010
3942.254, 229.4495
3944.182, 229.6084
3946.111, 231.3886
3948.039, 232.9892
3949.968, 234.0200
3951.896, 233.4157
3953.825, 232.6707
3955.753, 234.8834
3957.682, 235.7318
3959.610, 232.4440
3961.539, 232.3095
3963.467, 234.0740
3965.396, 233.8428
3967.324, 233.5748
3969.252, 234.6721
3971.181, 236.3749
3973.109, 237.9992
3975.038, 237.0591
3976.966, 236.3796
3978.895, 238.2852
3980.823, 239.5640
3982.752, 239.9277
3984.680, 240.6153
3986.609, 241.2677
3988.537, 241.3986
3990.466, 241.6261
3992.394, 242.0268
3994.323, 241.9775
3996.251, 242.1666
3998.179, 242.8612
4000.108, 245.0488
4002.036, 244.6715
4003.965, 246.0409
4005.893, 247.7624
4007.822, 246.1382
4009.750, 245.1965
4011.679, 246.9632
4013.607, 248.5844
4015.536, 249.7242
4017.464, 250.4854
4019.393, 250.8733
4021.321, 250.4557
4023.250, 249.8283
4025.178, 249.6034
4027.106, 250.6689
4029.035, 251.5939
4030.963, 251.5660
4032.892, 251.9701
4034.820, 252.4521
4036.749, 253.6918
4038.677, 255.0483
4040.606, 255.8509
4042.534, 255.9359
4044.463, 257.2556
4046.391, 256.7529
4048.320, 258.6231
4050.248, 258.2627
4052.177, 257.7611
4054.105, 257.3618
4056.033, 257.4891
4057.962, 257.8695
4059.890, 258.6871
4061.819, 259.1203
4063.747, 259.9763
4065.676, 259.4361
4067.604, 261.5706
4069.533, 261.6682
4071.461, 262.1120
4073.390, 264.4668
4075.318, 264.0305
4077.247, 262.1245
4079.175, 262.5515
4081.104, 262.9999
4083.032, 262.7685
4084.960, 263.5667
4086.889, 264.9101
4088.817, 265.6930
4090.746, 265.7950
4092.674, 266.0090
4094.603, 266.8864
4096.531, 266.9252
4098.460, 267.4014
4100.388, 268.2570
4102.317, 269.2373
4104.245, 270.3412
4106.174, 270.7274
4108.102, 270.8301
4110.031, 271.7307
4111.959, 273.2254
4113.888, 273.2187
4115.816, 274.1298
4117.745, 272.5567
4119.673, 274.9848
4121.602, 275.0546
4123.530, 275.2235
4125.458, 276.8398
4127.387, 279.2922
4129.315, 282.3719
4131.244, 281.2843
4133.172, 278.6051
4135.101, 276.3969
4137.029, 277.4922
4138.958, 279.8802
4140.886, 280.4522
4142.814, 280.7815
4144.743, 280.3073
4146.671, 280.4590
4148.600, 281.8389
4150.528, 282.6064
4152.457, 283.0165
4154.385, 283.7979
4156.314, 284.1343
4158.242, 284.6293
4160.171, 285.2675
4162.099, 285.5273
4164.028, 287.0547
4165.956, 287.0186
4167.885, 285.6077
4169.813, 286.2987
4171.742, 287.0938
4173.670, 286.7558
4175.599, 287.4730
4177.527, 288.9691
4179.456, 289.8192
4181.384, 290.4332
4183.313, 291.2179
4185.241, 292.1598
4187.169, 292.6767
4189.098, 292.9243
4191.026, 295.2349
4192.955, 293.9903
4194.883, 298.0072
4196.812, 293.5093
4198.740, 293.8519
4200.668, 295.9281
4202.597, 298.4145
4204.525, 299.3002
4206.454, 299.2184
4208.382, 299.7203
4210.311, 299.9277
4212.239, 299.6374
4214.168, 299.6205
4216.096, 299.5967
4218.025, 300.6602
4219.953, 302.0411
4221.882, 303.0663
4223.810, 302.4740
4225.739, 302.2751
4227.667, 304.5791
4229.596, 304.5927
4231.524, 302.8672
4233.453, 305.7038
4235.381, 308.6942
4237.310, 309.5807
4239.238, 308.3633
4241.167, 306.3618
4243.095, 308.0676
4245.023, 310.0070
4246.952, 310.4178
4248.880, 311.0290
4250.809, 311.9459
4252.737, 311.6635
4254.666, 311.4082
4256.594, 311.3617
4258.522, 310.2532
4260.451, 310.3031
4262.379, 310.5116
4264.308, 312.2556
4266.236, 315.4872
4268.165, 315.2801
4270.093, 313.7884
4272.022, 312.1117
4273.950, 311.6986
4275.879, 312.4952
4277.807, 314.6229
4279.736, 315.5977
4281.664, 316.7073
4283.593, 317.9362
4285.521, 318.2917
4287.450, 319.2082
4289.378, 319.1125
4291.307, 318.4171
4293.235, 318.8674
4295.164, 319.7069
4297.092, 320.3672
4299.021, 319.6782
4300.949, 317.6771
4302.877, 316.4206
4304.806, 317.2080
4306.734, 322.4739
4308.663, 324.2008
4310.591, 323.1266
4312.520, 322.5623
4314.448, 322.5898
4316.376, 323.3932
4318.305, 323.5650
4320.233, 323.5604
4322.162, 324.4319
4324.090, 323.8580
4326.019, 325.0321
4327.947, 323.6044
4329.876, 326.0171
4331.804, 326.3310
4333.733, 324.7238
4335.661, 322.5097
4337.590, 323.7625
4339.518, 325.4830
4341.447, 326.5905
4343.375, 328.4922
4345.304, 329.8606
4347.232, 330.3342
4349.161, 330.8869
4351.089, 330.7051
4353.018, 330.7524
4354.946, 330.1628
4356.875, 330.0161
4358.803, 328.9565
4360.731, 328.1281
4362.660, 330.9599
4364.588, 332.8860
4366.517, 332.7953
4368.445, 333.1114
4370.374, 333.7232
4372.302, 333.3137
4374.230, 334.4056
4376.159, 332.9727
4378.087, 333.4095
4380.016, 333.6653
4381.944, 332.5698
4383.873, 333.8455
4385.801, 335.9775
4387.730, 337.2392
4389.658, 336.8607
4391.587, 335.1105
4393.515, 334.8768
4395.444, 335.3366
4397.372, 336.2309
4399.301, 336.4776
4401.229, 336.5067
4403.158, 337.2697
4405.086, 338.0188
4407.015, 338.4549
4408.943, 334.5773
4410.872, 331.4763
4412.800, 332.3729
4414.729, 335.4486
4416.657, 338.1603
4418.585, 334.2634
4420.514, 332.8198
4422.442, 335.2325
4424.371, 335.6350
4426.299, 335.8374
4428.228, 337.7346
4430.156, 337.5263
4432.084, 336.1772
4434.013, 336.5725
4435.941, 336.0040
4437.870, 333.8936
4439.798, 335.7120
4441.727, 336.8081
4443.655, 332.2695
4445.584, 331.6982
4447.512, 333.9616
4449.441, 336.8434
4451.369, 336.6405
4453.298, 337.3091
4455.226, 334.6250
4457.155, 336.5928
4459.083, 335.7233
4461.012, 336.1454
4462.940, 337.2654
4464.869, 337.6678
4466.797, 337.0550
4468.726, 335.9315
4470.654, 338.6666
4472.583, 340.7248
4474.511, 338.4237
4476.439, 338.3015
4478.368, 339.2717
4480.296, 339.5891
4482.225, 340.6013
4484.153, 342.1563
4486.082, 343.1549
4488.010, 341.6288
4489.938, 336.7631
4491.867, 336.0454
4493.795, 337.2219
4495.724, 338.1920
4497.652, 338.0010
4499.581, 337.4076
4501.509, 339.1698
4503.438, 339.4996
4505.366, 337.4019
4507.295, 338.9907
4509.223, 339.9584
4511.152, 335.8454
4513.080, 336.3178
4515.009, 338.8957
4516.937, 339.0870
4518.866, 339.0617
4520.794, 339.0837
4522.723, 337.6045
4524.651, 337.2847
4526.580, 339.0301
4528.508, 337.6532
4530.437, 336.5093
4532.365, 340.6762
4534.293, 339.3279
4536.222, 335.3395
4538.150, 337.8359
4540.079, 339.5507
4542.007, 339.1281
4543.936, 339.7633
4545.864, 340.0151
4547.792, 339.1322
4549.721, 340.8073
4551.649, 342.3280
4553.578, 340.0984
4555.506, 338.9334
4557.435, 338.8606
4559.363, 338.6471
4561.292, 338.9489
4563.220, 339.7941
4565.149, 339.0450
4567.077, 338.5962
4569.006, 339.4349
4570.934, 340.2333
4572.863, 340.4755
4574.791, 339.3462
4576.720, 339.4132
4578.648, 340.3626
4580.577, 341.3839
4582.505, 341.0040
4584.434, 341.8927
4586.362, 341.1891
4588.291, 342.1147
4590.219, 340.2799
4592.147, 339.0625
4594.076, 338.5361
4596.004, 338.8091
4597.933, 338.2928
4599.861, 338.0778
4601.790, 340.7729
4603.718, 342.2012
4605.646, 341.8969
4607.575, 340.5594
4609.503, 338.9782
4611.432, 337.4971
4613.360, 338.5470
4615.289, 340.5362
4617.217, 342.7058
4619.146, 341.3535
4621.074, 339.3528
4623.003, 340.6363
4624.931, 339.7115
4626.860, 337.7836
4628.788, 338.3887
4630.717, 339.5043
4632.645, 340.3600
4634.574, 338.1660
4636.502, 337.3898
4638.431, 339.1074
4640.359, 340.3648
4642.288, 340.4569
4644.216, 338.2010
4646.145, 338.0797
4648.073, 338.8795
4650.001, 339.6580
4651.930, 338.7382
4653.858, 337.6054
4655.787, 339.7209
4657.715, 340.2742
4659.644, 339.2697
4661.572, 338.6552
4663.500, 338.8794
4665.429, 339.9342
4667.357, 340.7045
4669.286, 341.7749
4671.214, 343.2186
4673.143, 340.2253
4675.071, 336.7980
4677.000, 335.9039
4678.928, 336.2797
4680.857, 337.1052
4682.785, 337.2694
4684.714, 339.5415
4686.642, 338.7394
4688.571, 339.5040
4690.499, 338.1514
4692.428, 338.2643
4694.356, 338.3135
4696.285, 339.3633
4698.213, 338.8125
4700.142, 339.7998
4702.070, 338.4390
4703.999, 338.2217
4705.927, 338.4287
4707.855, 338.9572
4709.784, 339.8808
4711.712, 340.2563
4713.641, 340.4497
4715.569, 340.9347
4717.498, 338.8714
4719.426, 336.6591
4721.354, 337.2769
4723.283, 338.8663
4725.211, 340.1788
4727.140, 338.9562
4729.068, 338.5340
4730.997, 338.8776
4732.925, 338.4196
4734.854, 339.2999
4736.782, 340.5666
4738.711, 339.5680
4740.639, 339.8129
4742.568, 338.3506
4744.496, 338.8099
4746.425, 338.4594
4748.353, 338.3734
4750.282, 339.0745
4752.210, 339.9041
4754.139, 340.5468
4756.067, 339.5700
4757.996, 339.1343
4759.924, 340.8271
4761.853, 343.0382
4763.781, 344.1236
4765.709, 342.4762
4767.638, 341.4044
4769.566, 340.7826
4771.495, 340.5020
4773.423, 337.6890
4775.352, 335.3024
4777.280, 339.0054
4779.208, 341.1548
4781.137, 341.2730
4783.065, 339.5332
4784.994, 339.2065
4786.922, 339.9911
4788.851, 339.7486
4790.779, 340.5439
4792.708, 341.8659
4794.636, 340.7395
4796.565, 340.1017
4798.493, 340.4824
4800.422, 341.1752
4802.350, 341.3314
4804.279, 340.8107
4806.207, 339.9335
4808.136, 339.1283
4810.064, 338.6037
4811.993, 338.6179
4813.921, 340.2968
4815.850, 340.1839
4817.778, 342.0450
4819.707, 340.8253
4821.635, 341.9026
4823.563, 340.7761
4825.492, 340.5531
4827.420, 342.4940
4829.349, 344.1219
4831.277, 344.4710
4833.206, 342.7676
4835.134, 341.5823
4837.063, 341.3787
4838.991, 342.4258
4840.919, 341.4405
4842.848, 341.1118
4844.776, 341.2167
4846.705, 340.1612
4848.633, 340.7651
4850.562, 341.9644
4852.490, 344.1353
4854.419, 344.8346
4856.347, 341.1901
4858.276, 339.2329
4860.204, 339.6900
4862.133, 343.2373
4864.061, 342.3221
4865.990, 341.1143
4867.918, 344.5746
4869.847, 343.2799
4871.775, 341.5050
4873.704, 342.6866
4875.632, 342.2298
4877.561, 341.8527
4879.489, 343.5067
4881.417, 344.7783
4883.346, 345.0527
4885.274, 343.8676
4887.203, 342.4878
4889.131, 341.8720
4891.060, 342.7142
4892.988, 341.8355
4894.917, 342.6377
4896.845, 342.2617
4898.773, 343.1357
4900.702, 344.8487
4902.630, 343.4854
4904.559, 344.5508
4906.487, 346.1599
4908.416, 347.0052
4910.344, 346.4282
4912.273, 346.2437
4914.201, 347.5849
4916.130, 347.1178
4918.058, 345.4275
4919.987, 345.9779
4921.915, 344.2277
4923.844, 344.9628
4925.772, 342.8336
4927.701, 341.6153
4929.629, 342.0586
4931.558, 344.3867
4933.486, 345.3253
4935.415, 346.1894
4937.343, 347.2141
4939.271, 345.9919
4941.200, 344.8281
4943.128, 344.5963
4945.057, 345.4487
4946.985, 346.8446
4948.914, 348.2770
4950.842, 348.2474
4952.771, 347.3720
4954.699, 346.9187
4956.627, 347.1082
4958.556, 346.7341
4960.484, 347.7151
4962.413, 346.9901
4964.341, 347.6638
4966.270, 348.3335
4968.198, 346.7499
4970.127, 348.0026
4972.055, 349.9458
4973.984, 347.1984
4975.912, 346.9907
4977.841, 348.4310
4979.769, 349.6694
4981.698, 348.5853
4983.626, 347.4701
4985.555, 348.9137
4987.483, 348.4733
4989.412, 348.5611
4991.340, 351.5539
4993.269, 350.1353
4995.197, 348.6146
4997.125, 349.9522
4999.054, 352.0558
5000.982, 351.8643
5002.911, 348.9168
5004.839, 352.6461
5006.768, 353.7946
5008.696, 350.1976
5010.625, 352.1823
5012.553, 353.0813
5014.481, 351.7828
5016.410, 349.9264
5018.338, 349.9181
5020.267, 351.1954
5022.195, 351.4727
5024.124, 352.9827
5026.052, 354.4308
5027.981, 353.2533
5029.909, 352.1442
5031.838, 351.9689
5033.766, 353.4698
5035.695, 356.1452
5037.623, 356.9971
5039.552, 353.9556
5041.480, 353.0421
5043.409, 353.0944
5045.337, 353.4517
5047.266, 353.2683
5049.194, 356.1907
5051.123, 353.7067
5053.051, 355.6750
5054.979, 356.0312
5056.908, 354.3286
5058.836, 352.0453
5060.765, 354.4140
5062.693, 358.0037
5064.622, 354.6747
5066.550, 356.3419
5068.479, 358.2806
5070.407, 354.4064
5072.335, 356.2647
5074.264, 358.4406
5076.192, 356.5998
5078.121, 354.4456
5080.049, 353.9137
5081.978, 355.4152
5083.906, 355.4459
5085.835, 356.2137
5087.763, 357.4269
5089.692, 355.5469
5091.620, 356.8409
5093.549, 359.2755
5095.477, 357.3394
5097.406, 354.9315
5099.334, 354.0824
5101.263, 356.5399
5103.191, 356.8650
5105.120, 357.3775
5107.048, 359.8217
5108.977, 357.0086
5110.905, 356.7727
5112.833, 360.3711
5114.762, 361.6480
5116.690, 360.6596
5118.619, 358.2740
5120.547, 359.6817
5122.476, 357.0649
5124.404, 360.4518
5126.333, 360.3940
5128.261, 360.5064
5130.189, 360.3726
5132.118, 359.5639
5134.046, 358.3520
5135.975, 359.6523
5137.903, 359.2116
5139.832, 361.3051
5141.760, 359.8807
5143.689, 360.9885
5145.617, 360.8741
5147.546, 361.8603
5149.474, 362.6334
5151.403, 363.8582
5153.331, 363.4388
5155.260, 362.7291
5157.188, 362.6832
5159.117, 362.7536
5161.045, 365.7758
5162.974, 363.0804
5164.902, 365.1573
5166.831, 364.8059
5168.759, 363.1758
5170.688, 363.9573
5172.616, 362.8569
5174.544, 362.6325
5176.473, 363.0814
5178.401, 362.9693
5180.330, 364.1476
5182.258, 363.7183
5184.187, 365.0049
5186.115, 365.1552
5188.043, 365.1674
5189.972, 365.8148
5191.900, 367.7355
5193.829, 366.2775
5195.757, 367.6428
5197.686, 367.7548
5199.614, 367.6436
5201.543, 367.8416
5203.471, 368.7910
5205.400, 368.9398
5207.328, 368.2402
5209.257, 366.8543
5211.185, 367.1612
5213.114, 367.8401
5215.042, 367.6025
5216.971, 368.1256
5218.899, 367.4694
5220.828, 366.0456
5222.756, 366.9777
5224.685, 367.0217
5226.613, 367.5762
5228.542, 368.5785
5230.470, 368.2522
5232.398, 368.6430
5234.327, 371.1415
5236.255, 369.0935
5238.184, 369.8423
5240.112, 373.3630
5242.041, 371.8200
5243.969, 371.5365
5245.897, 371.6458
5247.826, 369.4911
5249.754, 370.8950
5251.683, 371.5212
5253.611, 369.7432
5255.540, 369.9540
5257.468, 372.3999
5259.397, 374.5226
5261.325, 374.2124
5263.254, 374.6277
5265.182, 373.0509
5267.111, 373.3883
5269.039, 373.4069
5270.968, 370.5092
5272.896, 373.4972
5274.825, 373.8139
5276.753, 372.9220
5278.682, 372.0423
5280.610, 372.6032
5282.539, 371.2932
5284.467, 371.2890
5286.396, 373.0554
5288.324, 370.7592
5290.252, 372.6717
5292.181, 375.9191
5294.109, 373.7403
5296.038, 375.7360
5297.966, 377.3641
5299.895, 376.1444
5301.823, 374.5735
5303.751, 375.5861
5305.680, 374.3584
5307.608, 376.2076
5309.537, 374.3683
5311.465, 373.7845
5313.394, 375.2681
5315.322, 374.5633
5317.251, 374.6693
5319.179, 375.5962
5321.108, 375.8282
5323.036, 375.0012
5324.965, 375.8552
5326.893, 374.8378
5328.822, 375.2474
5330.750, 375.6747
5332.679, 375.9217
5334.607, 376.7910
5336.536, 377.9109
5338.464, 378.7070
5340.393, 378.6465
5342.321, 376.5979
5344.250, 376.9433
5346.178, 376.3039
5348.106, 375.8443
5350.035, 375.9633
5351.963, 376.9023
5353.892, 377.1202
5355.820, 374.7961
5357.749, 376.3181
5359.677, 375.8870
5361.605, 377.3254
5363.534, 376.5026
5365.462, 376.3015
5367.391, 376.2319
5369.319, 378.4580
5371.248, 379.7417
5373.176, 379.0346
5375.105, 375.4161
5377.033, 375.4712
5378.962, 377.5772
5380.890, 379.6268
5382.819, 376.2803
5384.747, 375.3131
5386.676, 376.2093
5388.604, 377.0447
5390.533, 380.3063
5392.461, 381.1718
5394.390, 379.0509
5396.318, 377.1796
5398.247, 376.4561
5400.175, 377.5341
5402.104, 376.6827
5404.032, 379.4716
5405.960, 378.1084
5407.889, 377.8107
5409.817, 380.7573
5411.746, 379.1701
5413.674, 378.0497
5415.603, 379.4527
5417.531, 379.1988
5419.459, 378.5966
5421.388, 378.0519
5423.316, 377.7216
5425.245, 380.7441
5427.173, 381.9046
5429.102, 380.5827
5431.030, 380.1100
5432.959, 379.8744
5434.887, 379.1310
5436.816, 377.7930
5438.744, 378.6967
5440.673, 380.4851
5442.601, 381.3600
5444.530, 379.5034
5446.458, 377.9373
5448.387, 378.6385
5450.315, 380.8126
5452.244, 380.1004
5454.172, 378.9252
5456.101, 378.4489
5458.029, 379.0778
5459.958, 379.8852
5461.886, 377.4869
5463.814, 375.1602
5465.743, 377.4673
5467.671, 379.2951
5469.600, 380.3383
5471.528, 381.3256
5473.457, 385.1652
5475.385, 383.7509
5477.313, 381.2755
5479.242, 380.7061
5481.170, 383.0422
5483.099, 382.0129
5485.027, 380.7355
5486.956, 382.8723
5488.884, 382.4987
5490.813, 381.5679
5492.741, 380.8961
5494.670, 380.1636
5496.598, 384.0975
5498.527, 386.3404
5500.455, 385.1617
5502.384, 384.0274
5504.312, 381.3782
5506.241, 379.6395
5508.169, 380.1841
5510.098, 380.6016
5512.026, 383.9791
5513.955, 385.9349
5515.883, 381.4654
5517.812, 382.9353
5519.740, 381.7254
5521.668, 379.8409
5523.597, 385.0494
5525.525, 382.8639
5527.454, 382.5336
5529.382, 384.7785
5531.311, 381.3389
5533.239, 380.5011
5535.167, 382.0310
5537.096, 384.3772
5539.024, 382.8085
5540.953, 384.4361
5542.881, 385.8421
5544.810, 384.1460
5546.738, 384.4283
5548.667, 385.0425
5550.595, 386.6922
5552.524, 385.3921
5554.452, 385.8932
5556.381, 383.6376
5558.309, 383.7850
5560.238, 383.7428
5562.166, 383.4564
5564.095, 384.2516
5566.023, 385.1617
5567.952, 384.9569
5569.880, 384.1510
5571.809, 385.3007
5573.737, 384.7411
5575.666, 385.2882
5577.594, 385.3096
5579.522, 384.0931
5581.451, 382.5978
5583.379, 385.5612
5585.308, 386.4533
5587.236, 385.0439
5589.165, 382.8193
5591.093, 383.5636
5593.021, 386.5800
5594.950, 383.8665
5596.878, 386.1457
5598.807, 387.3642
5600.735, 386.0361
5602.664, 385.2350
5604.592, 387.1357
5606.521, 385.7262
5608.449, 386.9515
5610.378, 388.4532
5612.306, 387.1489
5614.235, 386.1927
5616.163, 387.2799
5618.092, 388.4733
5620.020, 387.4908
5621.949, 382.5639
5623.877, 381.3636
5625.806, 383.8884
5627.734, 387.6594
5629.663, 384.5830
5631.591, 383.9497
5633.520, 384.1437
5635.448, 380.8611
5637.376, 384.0905
5639.305, 385.4055
5641.233, 385.5157
5643.162, 388.2799
5645.090, 386.0619
5647.019, 384.2395
5648.947, 384.4781
5650.875, 387.2387
5652.804, 387.1742
5654.732, 385.7057
5656.661, 383.4722
5658.589, 380.8948
5660.518, 382.7114
5662.446, 384.8184
5664.375, 385.5556
5666.303, 384.5117
5668.232, 383.9985
5670.160, 384.7837
5672.089, 385.9593
5674.017, 386.4279
5675.946, 385.3121
5677.874, 384.5993
5679.803, 384.7201
5681.731, 385.5721
5683.660, 384.7448
5685.588, 383.7614
5687.517, 384.3043
5689.445, 387.0942
5691.374, 388.4613
5693.302, 386.8330
5695.230, 385.4270
5697.159, 386.1498
5699.087, 383.6439
5701.016, 385.7257
5702.944, 388.4500
5704.873, 388.5402
5706.801, 386.6152
5708.729, 382.9593
5710.658, 382.8175
5712.586, 386.8123
5714.515, 386.8040
5716.443, 387.3030
5718.372, 388.0281
5720.300, 388.3201
5722.229, 387.4147
5724.157, 387.9858
5726.086, 385.3631
5728.014, 386.2066
5729.943, 384.9745
5731.871, 386.6466
5733.800, 386.6192
5735.728, 386.9558
5737.657, 389.8896
5739.585, 387.9371
5741.514, 385.0970
5743.442, 383.9982
5745.371, 385.7746
5747.299, 386.4569
5749.228, 382.0781
5751.156, 380.2404
5753.084, 384.3132
5755.013, 381.0374
5756.941, 383.5850
5758.870, 386.5711
5760.798, 386.2924
5762.727, 383.1774
5764.655, 382.8983
5766.583, 382.9047
5768.512, 383.2360
5770.440, 385.8547
5772.369, 386.1269
5774.297, 383.0665
5776.226, 381.3299
5778.154, 385.1784
5780.083, 381.5347
5782.011, 381.4774
5783.940, 383.4571
5785.868, 384.3211
5787.797, 384.8978
5789.725, 385.4669
5791.654, 385.3593
5793.582, 385.5376
5795.511, 385.0672
5797.439, 384.6624
5799.368, 383.6276
5801.296, 383.0866
5803.225, 382.0163
5805.153, 380.4854
5807.082, 381.7940
5809.010, 384.2834
5810.938, 385.8388
5812.867, 385.2517
5814.795, 385.6762
5816.724, 387.8920
5818.652, 389.9221
5820.581, 385.9294
5822.509, 383.0872
5824.438, 384.8779
5826.366, 387.4046
5828.294, 384.6067
5830.223, 382.9056
5832.151, 384.0988
5834.080, 384.5290
5836.008, 382.8893
5837.937, 385.6050
5839.865, 384.1806
5841.794, 382.5089
5843.722, 382.7887
5845.651, 381.5453
5847.579, 379.8502
5849.508, 380.0015
5851.436, 381.8014
5853.365, 380.2742
5855.293, 380.1193
5857.222, 384.4687
5859.150, 385.4977
5861.079, 382.2798
5863.007, 381.0294
5864.936, 382.2466
5866.864, 382.3281
5868.792, 382.7991
5870.721, 385.3606
5872.649, 382.9384
5874.578, 383.3154
5876.506, 381.9653
5878.435, 378.6727
5880.363, 379.5501
5882.292, 382.7103
5884.220, 383.1131
5886.148, 381.3842
5888.077, 379.7622
5890.005, 380.4368
5891.934, 377.4045
5893.862, 377.4293
5895.791, 379.7329
5897.719, 376.4714
5899.648, 378.8628
5901.576, 381.4260
5903.505, 381.7737
5905.433, 379.9247
5907.362, 378.7740
5909.290, 380.6408
5911.219, 381.2499
5913.147, 380.0810
5915.076, 379.4014
5917.004, 378.9139
5918.933, 378.0273
5920.861, 377.2799
5922.790, 377.5414
5924.718, 376.7963
5926.646, 378.4133
5928.575, 376.4826
5930.503, 374.8080
5932.432, 378.3242
5934.360, 377.4565
5936.289, 373.4954
5938.217, 374.1060
5940.146, 378.8961
5942.074, 380.7939
5944.002, 378.3961
5945.931, 378.1569
5947.859, 378.9642
5949.788, 379.0880
5951.716, 378.8809
5953.645, 378.2104
5955.573, 376.4738
5957.502, 375.7873
5959.430, 376.0349
5961.359, 378.2018
5963.287, 379.3517
5965.216, 379.5391
5967.144, 375.8814
5969.073, 377.1889
5971.001, 376.5066
5972.930, 375.7426
5974.858, 377.7490
5976.787, 374.6505
5978.715, 376.6129
5980.644, 376.5551
5982.572, 377.4219
5984.500, 376.2866
5986.429, 375.7696
5988.357, 377.2554
5990.286, 377.6323
5992.214, 376.2665
5994.143, 377.1920
5996.071, 374.0237
5998.000, 374.4478
5999.928, 376.4218
6001.856, 375.1568
6003.785, 376.1189
6005.713, 376.2328
6007.642, 375.9441
6009.570, 375.9152
6011.499, 376.1133
6013.427, 374.2675
6015.356, 374.6388
6017.284, 369.7195
6019.213, 370.1948
6021.141, 373.1980
6023.070, 373.7329
6024.998, 367.8729
6026.927, 369.6781
6028.855, 370.7522
6030.784, 372.3404
6032.712, 372.6024
6034.641, 372.6610
6036.569, 372.4271
6038.498, 371.5259
6040.426, 370.5247
6042.354, 369.4251
6044.283, 370.1332
6046.211, 371.9004
6048.140, 368.9711
6050.068, 368.1930
6051.997, 370.4240
6053.925, 369.3326
6055.854, 372.7358
6057.782, 375.9016
6059.710, 372.7457
6061.639, 366.8828
6063.567, 369.0514
6065.496, 365.4370
6067.424, 364.9754
6069.353, 367.6674
6071.281, 369.9174
6073.210, 367.7156
6075.138, 369.3105
6077.067, 367.1743
6078.995, 366.8394
6080.924, 367.7794
6082.852, 365.2262
6084.781, 366.1616
6086.709, 364.5306
6088.638, 365.5319
6090.566, 367.9655
6092.495, 367.3293
6094.423, 364.3222
6096.352, 363.6997
6098.280, 365.4784
6100.208, 366.3668
6102.137, 364.4577
6104.065, 365.7981
6105.994, 365.2442
6107.922, 363.8493
6109.851, 362.8662
6111.779, 362.0312
6113.708, 362.2975
6115.636, 360.3140
6117.564, 362.6865
6119.493, 362.8643
6121.421, 361.2140
6123.350, 360.6020
6125.278, 361.8790
6127.207, 357.5494
6129.135, 358.2153
6131.064, 363.6181
6132.992, 364.4400
6134.921, 360.5825
6136.849, 357.5075
6138.778, 359.1232
6140.706, 360.6801
6142.635, 357.4012
6144.563, 356.5050
6146.492, 357.9511
6148.420, 360.9639
6150.349, 362.4060
6152.277, 360.7762
6154.206, 357.7008
6156.134, 356.2101
6158.063, 356.8442
6159.991, 356.5236
6161.919, 355.2111
6163.848, 355.3713
6165.776, 358.5283
6167.705, 358.4039
6169.633, 358.5804
6171.562, 358.7878
6173.490, 357.6958
6175.418, 356.8484
6177.347, 356.6791
6179.275, 353.6029
6181.204, 355.7954
6183.132, 355.6495
6185.061, 355.0273
6186.989, 358.6916
6188.918, 355.1370
6190.846, 352.6526
6192.775, 353.6840
6194.703, 356.2740
6196.632, 358.9763
6198.560, 354.9770
6200.489, 353.7846
6202.417, 354.5036
6204.346, 354.3094
6206.274, 351.9790
6208.203, 354.1721
6210.131, 356.8257
6212.060, 356.0985
6213.988, 353.6476
6215.917, 351.8940
6217.845, 350.7421
6219.773, 349.8277
6221.702, 349.8846
6223.630, 352.8152
6225.559, 351.0267
6227.487, 353.3905
6229.416, 354.4298
6231.344, 350.8925
6233.272, 351.0502
6235.201, 351.5480
6237.129, 349.8634
6239.058, 348.1136
6240.986, 347.3035
6242.915, 346.8855
6244.843, 346.1548
6246.772, 348.2665
6248.700, 345.8693
6250.629, 348.9793
6252.557, 349.6328
6254.486, 350.5467
6256.414, 349.1441
6258.343, 350.1512
6260.271, 349.7241
6262.200, 350.4920
6264.128, 348.8788
6266.057, 348.5572
6267.985, 347.1007
6269.914, 345.8277
6271.842, 347.3698
6273.771, 347.8111
6275.699, 348.3843
6277.627, 344.2037
6279.556, 344.2603
6281.484, 346.2788
6283.413, 342.4479
6285.341, 342.9435
6287.270, 345.2310
6289.198, 346.0597
6291.126, 344.9291
6293.055, 343.2377
6294.983, 342.8803
6296.912, 345.2314
6298.840, 344.2432
6300.769, 344.2949
6302.697, 343.9487
6304.626, 342.6467
6306.554, 341.9565
6308.483, 344.2818
6310.411, 338.3570
6312.340, 336.7078
6314.268, 338.9178
6316.197, 340.4977
6318.125, 338.9601
6320.054, 336.6659
6321.982, 336.8839
6323.911, 337.8885
6325.839, 337.3080
6327.768, 336.9954
6329.696, 338.9344
6331.625, 338.9064
6333.553, 336.8664
6335.481, 337.8774
6337.410, 334.7267
6339.338, 331.4316
6341.267, 333.5836
6343.195, 335.5786
6345.124, 335.3483
6347.052, 337.9019
6348.980, 337.4189
6350.909, 336.4268
6352.837, 337.3429
6354.766, 336.8776
6356.694, 335.7989
6358.623, 335.3458
6360.551, 334.2184
6362.480, 332.4456
6364.408, 331.7303
6366.337, 333.6461
6368.265, 334.7430
6370.194, 333.0007
6372.122, 336.4013
6374.051, 335.6104
6375.979, 332.1778
6377.908, 332.5786
6379.836, 334.5031
6381.765, 335.1358
6383.693, 330.7272
6385.622, 332.5747
6387.550, 332.6958
6389.479, 328.2255
6391.407, 328.7823
6393.335, 331.2495
6395.264, 330.9537
6397.192, 331.0191
6399.121, 331.4813
6401.049, 330.0694
6402.978, 326.9990
6404.906, 327.8334
6406.834, 327.4617
6408.763, 326.2372
6410.691, 328.4338
6412.620, 328.1654
6414.548, 325.9959
6416.477, 329.1186
6418.405, 331.7073
6420.334, 327.9773
6422.262, 328.4239
6424.191, 328.5048
6426.119, 328.4464
6428.048, 328.5181
6429.976, 327.7749
6431.905, 328.1396
6433.833, 328.1781
6435.762, 327.6306
6437.690, 325.5171
6439.619, 324.2928
6441.547, 325.6068
6443.476, 326.0772
6445.404, 323.8348
6447.333, 324.7213
6449.261, 328.4086
6451.189, 327.3364
6453.118, 325.1571
6455.046, 326.3832
6456.975, 324.1864
6458.903, 321.2810
6460.832, 322.3691
6462.760, 323.0163
6464.688, 323.9818
6466.617, 324.1318
6468.545, 322.9308
6470.474, 322.8857
6472.402, 318.1845
6474.331, 319.6740
6476.259, 325.1725
6478.188, 323.5503
6480.116, 319.7411
6482.045, 322.1420
6483.973, 321.0416
6485.902, 322.2512
6487.830, 318.9999
6489.759, 318.6221
6491.687, 320.4792
6493.616, 322.1704
6495.544, 322.0962
6497.473, 321.5759
6499.401, 318.8613
6501.330, 318.5235
6503.258, 316.6021
6505.187, 314.9662
6507.115, 315.6611
6509.043, 316.5714
6510.972, 313.3507
6512.900, 312.2191
6514.829, 313.8637
6516.757, 316.9405
6518.686, 315.0350
6520.614, 313.5940
6522.542, 314.7296
6524.471, 313.6827
6526.399, 310.0772
6528.328, 313.8068
6530.256, 315.2545
6532.185, 312.4411
6534.113, 313.5191
6536.042, 314.9762
6537.970, 312.5001
6539.899, 312.5599
6541.827, 309.3072
6543.756, 311.9822
6545.684, 312.5997
6547.613, 312.7609
6549.541, 310.5515
6551.470, 309.6899
6553.398, 313.6024
6555.327, 310.0112
6557.255, 313.4510
6559.184, 312.2981
6561.112, 310.1635
6563.041, 310.9021
6564.969, 307.7686
6566.897, 303.5264
6568.826, 309.1848
6570.754, 310.3756
6572.683, 309.4599
6574.611, 308.0807
6576.540, 310.4842
6578.468, 308.8263
6580.396, 309.5193
6582.325, 304.4193
6584.253, 309.1051
6586.182, 308.1852
6588.110, 305.9887
6590.039, 307.7560
6591.967, 305.3466
6593.896, 305.7800
6595.824, 306.5652
6597.753, 304.1314
6599.681, 304.3091
6601.610, 309.1071
6603.538, 306.3098
6605.467, 308.6736
6607.395, 305.7838
6609.324, 304.3195
6611.252, 303.5378
6613.181, 302.4888
6615.109, 305.5746
6617.038, 307.3229
6618.966, 308.7634
6620.895, 305.5987
6622.823, 303.1409
6624.751, 302.2401
6626.680, 302.2462
6628.608, 302.2239
6630.537, 302.3377
##END=



