##NAMES=Roeblingite
##RRUFFID=R140328
##IDEAL CHEMISTRY=Ca_6_Mn^2+^Pb_2_(Si_3_O_9_)_2_(SO_4_)_2_(OH)_2_·4H_2_O
##LOCALITY=Långban, Varmland, Sweden
##OWNER=RRUFF
##SOURCE=Benjamin N. Schumer
##DESCRIPTION=Tabular, colorless crystals
##STATUS=The identification of this mineral has been confirmed by single-crystal X-ray diffraction
##URL=https://www.rruff.net/odr/rruff_sample/R140328
##DIFFRACTION SAMPLE DESCRIPTION=Single crystal, powder profile is calculated
##CELL PARAMETERS=a: 13.182 b: 8.284 c: 13.079 alpha: 90 beta: 105.29 gamma: 90 volume: 1377.7 crystal system: monoclinic
##FILETYPE=Raman RAW
##RAMAN WAVELENGTH=532

1.036855e+002, 2.908527e+001
1.056140e+002, 2.908141e+001
1.075425e+002, 2.908317e+001
1.094709e+002, 2.910388e+001
1.113994e+002, 2.914441e+001
1.133279e+002, 2.914281e+001
1.152563e+002, 2.901995e+001
1.171848e+002, 2.888472e+001
1.191133e+002, 2.885216e+001
1.210417e+002, 2.918193e+001
1.229702e+002, 2.938482e+001
1.248987e+002, 2.916435e+001
1.268271e+002, 2.850044e+001
1.287556e+002, 2.814889e+001
1.306841e+002, 2.850965e+001
1.326125e+002, 2.929207e+001
1.345410e+002, 2.977755e+001
1.364695e+002, 2.982022e+001
1.383979e+002, 2.972895e+001
1.403264e+002, 2.965002e+001
1.422549e+002, 2.962294e+001
1.441833e+002, 2.950031e+001
1.461118e+002, 2.915757e+001
1.480403e+002, 2.865418e+001
1.499687e+002, 2.835131e+001
1.518972e+002, 2.820354e+001
1.538257e+002, 2.831598e+001
1.557541e+002, 2.873749e+001
1.576826e+002, 3.008872e+001
1.596111e+002, 3.113696e+001
1.615395e+002, 3.145520e+001
1.634680e+002, 3.119183e+001
1.653965e+002, 3.130851e+001
1.673249e+002, 3.215692e+001
1.692534e+002, 3.337214e+001
1.711819e+002, 3.456789e+001
1.731103e+002, 3.492125e+001
1.750388e+002, 3.625594e+001
1.769673e+002, 3.910353e+001
1.788957e+002, 4.334549e+001
1.808242e+002, 4.895148e+001
1.827527e+002, 5.486481e+001
1.846811e+002, 6.222704e+001
1.866096e+002, 7.286150e+001
1.885381e+002, 8.791285e+001
1.904665e+002, 1.045105e+002
1.923950e+002, 1.216341e+002
1.943235e+002, 1.386253e+002
1.962519e+002, 1.491929e+002
1.981804e+002, 1.561106e+002
2.001089e+002, 1.617842e+002
2.020373e+002, 1.688762e+002
2.039658e+002, 1.785568e+002
2.058943e+002, 1.884679e+002
2.078227e+002, 1.979328e+002
2.097512e+002, 2.074663e+002
2.116797e+002, 2.155035e+002
2.136081e+002, 2.213701e+002
2.155366e+002, 2.257382e+002
2.174651e+002, 2.297706e+002
2.193935e+002, 2.328210e+002
2.213220e+002, 2.360841e+002
2.232505e+002, 2.402071e+002
2.251789e+002, 2.451980e+002
2.271074e+002, 2.505742e+002
2.290359e+002, 2.568904e+002
2.309643e+002, 2.638101e+002
2.328928e+002, 2.692591e+002
2.348213e+002, 2.717902e+002
2.367497e+002, 2.742178e+002
2.386782e+002, 2.780335e+002
2.406067e+002, 2.831899e+002
2.425351e+002, 2.892784e+002
2.444636e+002, 2.968880e+002
2.463921e+002, 3.055497e+002
2.483205e+002, 3.125367e+002
2.502490e+002, 3.185683e+002
2.521775e+002, 3.223303e+002
2.541059e+002, 3.230810e+002
2.560344e+002, 3.190698e+002
2.579629e+002, 3.159344e+002
2.598913e+002, 3.142597e+002
2.618198e+002, 3.142336e+002
2.637483e+002, 3.156541e+002
2.656767e+002, 3.188472e+002
2.676052e+002, 3.233694e+002
2.695337e+002, 3.288814e+002
2.714621e+002, 3.362134e+002
2.733906e+002, 3.435352e+002
2.753191e+002, 3.514276e+002
2.772475e+002, 3.592555e+002
2.791760e+002, 3.654797e+002
2.811045e+002, 3.687122e+002
2.830329e+002, 3.712408e+002
2.849614e+002, 3.740759e+002
2.868899e+002, 3.768275e+002
2.888183e+002, 3.805365e+002
2.907468e+002, 3.862437e+002
2.926753e+002, 3.929443e+002
2.946037e+002, 3.985883e+002
2.965322e+002, 4.037774e+002
2.984607e+002, 4.071651e+002
3.003891e+002, 4.079028e+002
3.023176e+002, 4.058105e+002
3.042461e+002, 4.020769e+002
3.061745e+002, 3.952552e+002
3.081030e+002, 3.869162e+002
3.100315e+002, 3.802450e+002
3.119599e+002, 3.752061e+002
3.138884e+002, 3.718646e+002
3.158169e+002, 3.706370e+002
3.177453e+002, 3.714044e+002
3.196738e+002, 3.735790e+002
3.216023e+002, 3.780992e+002
3.235307e+002, 3.837150e+002
3.254592e+002, 3.886650e+002
3.273877e+002, 3.926521e+002
3.293161e+002, 3.961915e+002
3.312446e+002, 3.993838e+002
3.331731e+002, 4.022505e+002
3.351015e+002, 4.045039e+002
3.370300e+002, 4.059916e+002
3.389585e+002, 4.069815e+002
3.408869e+002, 4.076604e+002
3.428154e+002, 4.079456e+002
3.447439e+002, 4.083031e+002
3.466723e+002, 4.086102e+002
3.486008e+002, 4.089469e+002
3.505292e+002, 4.104097e+002
3.524577e+002, 4.129409e+002
3.543862e+002, 4.165980e+002
3.563146e+002, 4.216500e+002
3.582431e+002, 4.279809e+002
3.601716e+002, 4.353746e+002
3.621000e+002, 4.437168e+002
3.640285e+002, 4.529285e+002
3.659570e+002, 4.633181e+002
3.678854e+002, 4.743036e+002
3.698139e+002, 4.866679e+002
3.717424e+002, 5.013323e+002
3.736708e+002, 5.181881e+002
3.755993e+002, 5.355579e+002
3.775278e+002, 5.537986e+002
3.794562e+002, 5.722637e+002
3.813847e+002, 5.896689e+002
3.833132e+002, 6.098637e+002
3.852416e+002, 6.257302e+002
3.871701e+002, 6.345994e+002
3.890986e+002, 6.374737e+002
3.910270e+002, 6.356853e+002
3.929555e+002, 6.259900e+002
3.948840e+002, 6.136224e+002
3.968124e+002, 6.030278e+002
3.987409e+002, 5.941824e+002
4.006694e+002, 5.866556e+002
4.025978e+002, 5.805737e+002
4.045263e+002, 5.756915e+002
4.064548e+002, 5.719025e+002
4.083832e+002, 5.677654e+002
4.103117e+002, 5.657936e+002
4.122402e+002, 5.672113e+002
4.141686e+002, 5.717160e+002
4.160971e+002, 5.803772e+002
4.180256e+002, 5.948870e+002
4.199540e+002, 6.136086e+002
4.218825e+002, 6.346990e+002
4.238110e+002, 6.631631e+002
4.257394e+002, 6.891184e+002
4.276679e+002, 7.127380e+002
4.295964e+002, 7.332091e+002
4.315248e+002, 7.431123e+002
4.334533e+002, 7.363835e+002
4.353818e+002, 7.214010e+002
4.373102e+002, 7.036600e+002
4.392387e+002, 6.769278e+002
4.411672e+002, 6.547584e+002
4.430956e+002, 6.375829e+002
4.450241e+002, 6.255898e+002
4.469526e+002, 6.182704e+002
4.488810e+002, 6.175978e+002
4.508095e+002, 6.197928e+002
4.527380e+002, 6.234486e+002
4.546664e+002, 6.287138e+002
4.565949e+002, 6.352628e+002
4.585234e+002, 6.435695e+002
4.604518e+002, 6.529796e+002
4.623803e+002, 6.628777e+002
4.643088e+002, 6.736332e+002
4.662372e+002, 6.842979e+002
4.681657e+002, 6.963571e+002
4.700942e+002, 7.087342e+002
4.720226e+002, 7.163953e+002
4.739511e+002, 7.192174e+002
4.758796e+002, 7.177933e+002
4.778080e+002, 7.116176e+002
4.797365e+002, 6.997429e+002
4.816650e+002, 6.893105e+002
4.835934e+002, 6.802077e+002
4.855219e+002, 6.729997e+002
4.874504e+002, 6.684440e+002
4.893788e+002, 6.660839e+002
4.913073e+002, 6.665673e+002
4.932358e+002, 6.711825e+002
4.951642e+002, 6.790280e+002
4.970927e+002, 6.866029e+002
4.990212e+002, 6.927860e+002
5.009496e+002, 6.995869e+002
5.028781e+002, 7.078625e+002
5.048066e+002, 7.175885e+002
5.067350e+002, 7.282526e+002
5.086635e+002, 7.412700e+002
5.105920e+002, 7.544592e+002
5.125204e+002, 7.659608e+002
5.144489e+002, 7.755959e+002
5.163774e+002, 7.834930e+002
5.183058e+002, 7.902115e+002
5.202343e+002, 7.949029e+002
5.221628e+002, 7.961960e+002
5.240912e+002, 7.917189e+002
5.260197e+002, 7.867853e+002
5.279482e+002, 7.831688e+002
5.298766e+002, 7.810112e+002
5.318051e+002, 7.802980e+002
5.337336e+002, 7.808914e+002
5.356620e+002, 7.830247e+002
5.375905e+002, 7.869083e+002
5.395190e+002, 7.926967e+002
5.414474e+002, 7.991061e+002
5.433759e+002, 8.060988e+002
5.453044e+002, 8.133321e+002
5.472328e+002, 8.201506e+002
5.491613e+002, 8.262823e+002
5.510898e+002, 8.322963e+002
5.530182e+002, 8.379268e+002
5.549467e+002, 8.434496e+002
5.568752e+002, 8.500882e+002
5.588036e+002, 8.607472e+002
5.607321e+002, 8.704464e+002
5.626606e+002, 8.766201e+002
5.645891e+002, 8.779670e+002
5.665175e+002, 8.807639e+002
5.684460e+002, 8.859694e+002
5.703745e+002, 8.924844e+002
5.723029e+002, 8.992353e+002
5.742314e+002, 9.061542e+002
5.761599e+002, 9.133154e+002
5.780883e+002, 9.211974e+002
5.800168e+002, 9.291536e+002
5.819453e+002, 9.353632e+002
5.838737e+002, 9.382565e+002
5.858022e+002, 9.418253e+002
5.877307e+002, 9.482413e+002
5.896591e+002, 9.571724e+002
5.915876e+002, 9.648703e+002
5.935161e+002, 9.701379e+002
5.954445e+002, 9.752291e+002
5.973729e+002, 9.814880e+002
5.993014e+002, 9.891431e+002
6.012299e+002, 9.964343e+002
6.031583e+002, 1.001992e+003
6.050868e+002, 1.007873e+003
6.070153e+002, 1.015929e+003
6.089437e+002, 1.027735e+003
6.108722e+002, 1.039047e+003
6.128007e+002, 1.049711e+003
6.147291e+002, 1.059567e+003
6.166576e+002, 1.068193e+003
6.185861e+002, 1.074899e+003
6.205145e+002, 1.081800e+003
6.224430e+002, 1.088652e+003
6.243715e+002, 1.095654e+003
6.262999e+002, 1.105996e+003
6.282284e+002, 1.123413e+003
6.301569e+002, 1.140219e+003
6.320853e+002, 1.153607e+003
6.340138e+002, 1.163423e+003
6.359423e+002, 1.170519e+003
6.378707e+002, 1.172535e+003
6.397992e+002, 1.173681e+003
6.417277e+002, 1.176396e+003
6.436561e+002, 1.180598e+003
6.455846e+002, 1.187261e+003
6.475131e+002, 1.197494e+003
6.494415e+002, 1.209967e+003
6.513700e+002, 1.222530e+003
6.532985e+002, 1.234098e+003
6.552269e+002, 1.250249e+003
6.571554e+002, 1.274209e+003
6.590839e+002, 1.303567e+003
6.610123e+002, 1.334101e+003
6.629408e+002, 1.369048e+003
6.648693e+002, 1.401489e+003
6.667977e+002, 1.434121e+003
6.687262e+002, 1.462965e+003
6.706547e+002, 1.477845e+003
6.725831e+002, 1.473002e+003
6.745116e+002, 1.460333e+003
6.764401e+002, 1.442634e+003
6.783685e+002, 1.419025e+003
6.802970e+002, 1.401156e+003
6.822255e+002, 1.389815e+003
6.841539e+002, 1.382480e+003
6.860824e+002, 1.378647e+003
6.880109e+002, 1.378036e+003
6.899393e+002, 1.379268e+003
6.918678e+002, 1.382995e+003
6.937963e+002, 1.388004e+003
6.957247e+002, 1.393683e+003
6.976532e+002, 1.400976e+003
6.995817e+002, 1.407403e+003
7.015101e+002, 1.412010e+003
7.034386e+002, 1.416439e+003
7.053671e+002, 1.422430e+003
7.072955e+002, 1.430114e+003
7.092240e+002, 1.438548e+003
7.111525e+002, 1.447653e+003
7.130809e+002, 1.457252e+003
7.150094e+002, 1.467165e+003
7.169379e+002, 1.477323e+003
7.188663e+002, 1.487901e+003
7.207948e+002, 1.498643e+003
7.227233e+002, 1.509902e+003
7.246517e+002, 1.522254e+003
7.265802e+002, 1.536462e+003
7.285087e+002, 1.550152e+003
7.304371e+002, 1.563000e+003
7.323656e+002, 1.574820e+003
7.342941e+002, 1.584579e+003
7.362225e+002, 1.588846e+003
7.381510e+002, 1.594758e+003
7.400795e+002, 1.605463e+003
7.420079e+002, 1.620021e+003
7.439364e+002, 1.633806e+003
7.458649e+002, 1.646232e+003
7.477933e+002, 1.658496e+003
7.497218e+002, 1.671563e+003
7.516503e+002, 1.685679e+003
7.535787e+002, 1.697957e+003
7.555072e+002, 1.707186e+003
7.574357e+002, 1.715770e+003
7.593641e+002, 1.724500e+003
7.612926e+002, 1.733237e+003
7.632211e+002, 1.742097e+003
7.651495e+002, 1.751398e+003
7.670780e+002, 1.760252e+003
7.690065e+002, 1.768031e+003
7.709349e+002, 1.774259e+003
7.728634e+002, 1.781599e+003
7.747919e+002, 1.790660e+003
7.767203e+002, 1.800700e+003
7.786488e+002, 1.811354e+003
7.805773e+002, 1.822687e+003
7.825057e+002, 1.835178e+003
7.844342e+002, 1.849570e+003
7.863627e+002, 1.864408e+003
7.882911e+002, 1.878421e+003
7.902196e+002, 1.890811e+003
7.921481e+002, 1.903497e+003
7.940765e+002, 1.917294e+003
7.960050e+002, 1.930582e+003
7.979335e+002, 1.941677e+003
7.998619e+002, 1.950594e+003
8.017904e+002, 1.959378e+003
8.037189e+002, 1.968975e+003
8.056473e+002, 1.978811e+003
8.075758e+002, 1.988090e+003
8.095043e+002, 1.995823e+003
8.114327e+002, 2.006016e+003
8.133612e+002, 2.019971e+003
8.152897e+002, 2.035473e+003
8.172181e+002, 2.050469e+003
8.191466e+002, 2.064931e+003
8.210751e+002, 2.078424e+003
8.230035e+002, 2.090465e+003
8.249320e+002, 2.101757e+003
8.268605e+002, 2.112904e+003
8.287889e+002, 2.123827e+003
8.307174e+002, 2.135795e+003
8.326459e+002, 2.149194e+003
8.345743e+002, 2.163689e+003
8.365028e+002, 2.178618e+003
8.384313e+002, 2.193379e+003
8.403597e+002, 2.209909e+003
8.422882e+002, 2.230448e+003
8.442167e+002, 2.251148e+003
8.461451e+002, 2.268524e+003
8.480736e+002, 2.281423e+003
8.500021e+002, 2.294235e+003
8.519305e+002, 2.308135e+003
8.538590e+002, 2.322119e+003
8.557875e+002, 2.335270e+003
8.577159e+002, 2.347500e+003
8.596444e+002, 2.359886e+003
8.615729e+002, 2.373211e+003
8.635013e+002, 2.386650e+003
8.654298e+002, 2.399362e+003
8.673583e+002, 2.411254e+003
8.692867e+002, 2.423578e+003
8.712152e+002, 2.436321e+003
8.731437e+002, 2.449764e+003
8.750721e+002, 2.464178e+003
8.770006e+002, 2.480053e+003
8.789291e+002, 2.495718e+003
8.808575e+002, 2.509813e+003
8.827860e+002, 2.524620e+003
8.847145e+002, 2.542291e+003
8.866429e+002, 2.562724e+003
8.885714e+002, 2.583338e+003
8.904999e+002, 2.603463e+003
8.924283e+002, 2.623515e+003
8.943568e+002, 2.644003e+003
8.962853e+002, 2.665609e+003
8.982137e+002, 2.684494e+003
9.001422e+002, 2.697893e+003
9.020707e+002, 2.710983e+003
9.039991e+002, 2.727573e+003
9.059276e+002, 2.747403e+003
9.078561e+002, 2.765538e+003
9.097845e+002, 2.781216e+003
9.117130e+002, 2.795794e+003
9.136415e+002, 2.809771e+003
9.155699e+002, 2.823163e+003
9.174984e+002, 2.837484e+003
9.194269e+002, 2.853067e+003
9.213553e+002, 2.868989e+003
9.232838e+002, 2.884491e+003
9.252123e+002, 2.899568e+003
9.271407e+002, 2.915857e+003
9.290692e+002, 2.934321e+003
9.309976e+002, 2.952183e+003
9.329261e+002, 2.968214e+003
9.348546e+002, 2.982951e+003
9.367830e+002, 2.997270e+003
9.387115e+002, 3.010830e+003
9.406400e+002, 3.025323e+003
9.425684e+002, 3.041609e+003
9.444969e+002, 3.059327e+003
9.464254e+002, 3.077383e+003
9.483538e+002, 3.094689e+003
9.502823e+002, 3.114157e+003
9.522108e+002, 3.136691e+003
9.541392e+002, 3.161556e+003
9.560677e+002, 3.187408e+003
9.579962e+002, 3.213586e+003
9.599246e+002, 3.242281e+003
9.618531e+002, 3.274928e+003
9.637816e+002, 3.309521e+003
9.657100e+002, 3.343817e+003
9.676385e+002, 3.375755e+003
9.695670e+002, 3.411499e+003
9.714954e+002, 3.456023e+003
9.734239e+002, 3.500243e+003
9.753524e+002, 3.537588e+003
9.772808e+002, 3.568441e+003
9.792093e+002, 3.592182e+003
9.811378e+002, 3.604495e+003
9.830662e+002, 3.614478e+003
9.849947e+002, 3.625028e+003
9.869232e+002, 3.636160e+003
9.888516e+002, 3.656523e+003
9.907801e+002, 3.688125e+003
9.927086e+002, 3.727705e+003
9.946370e+002, 3.773711e+003
9.965655e+002, 3.827090e+003
9.984940e+002, 3.891194e+003
1.000422e+003, 3.974392e+003
1.002351e+003, 4.051326e+003
1.004279e+003, 4.125717e+003
1.006208e+003, 4.183066e+003
1.008136e+003, 4.195985e+003
1.010065e+003, 4.149683e+003
1.011993e+003, 4.093933e+003
1.013922e+003, 4.027937e+003
1.015850e+003, 3.965906e+003
1.017779e+003, 3.923954e+003
1.019707e+003, 3.909759e+003
1.021636e+003, 3.904085e+003
1.023564e+003, 3.907805e+003
1.025493e+003, 3.920020e+003
1.027421e+003, 3.941778e+003
1.029349e+003, 3.971921e+003
1.031278e+003, 4.005137e+003
1.033206e+003, 4.042700e+003
1.035135e+003, 4.079568e+003
1.037063e+003, 4.114514e+003
1.038992e+003, 4.147154e+003
1.040920e+003, 4.173338e+003
1.042849e+003, 4.185249e+003
1.044777e+003, 4.199786e+003
1.046706e+003, 4.222703e+003
1.048634e+003, 4.250488e+003
1.050563e+003, 4.275519e+003
1.052491e+003, 4.298378e+003
1.054420e+003, 4.317663e+003
1.056348e+003, 4.331634e+003
1.058276e+003, 4.342649e+003
1.060205e+003, 4.352560e+003
1.062133e+003, 4.361114e+003
1.064062e+003, 4.371402e+003
1.065990e+003, 4.383638e+003
1.067919e+003, 4.398528e+003
1.069847e+003, 4.416995e+003
1.071776e+003, 4.439270e+003
1.073704e+003, 4.461909e+003
1.075633e+003, 4.481728e+003
1.077561e+003, 4.504385e+003
1.079490e+003, 4.533290e+003
1.081418e+003, 4.565523e+003
1.083347e+003, 4.594664e+003
1.085275e+003, 4.620412e+003
1.087203e+003, 4.643814e+003
1.089132e+003, 4.664836e+003
1.091060e+003, 4.685204e+003
1.092989e+003, 4.706882e+003
1.094917e+003, 4.731239e+003
1.096846e+003, 4.755187e+003
1.098774e+003, 4.778131e+003
1.100703e+003, 4.800997e+003
1.102631e+003, 4.823555e+003
1.104560e+003, 4.845140e+003
1.106488e+003, 4.866724e+003
1.108417e+003, 4.884971e+003
1.110345e+003, 4.905422e+003
1.112273e+003, 4.934647e+003
1.114202e+003, 4.966429e+003
1.116130e+003, 4.987998e+003
1.118059e+003, 4.995423e+003
1.119987e+003, 5.006063e+003
1.121916e+003, 5.028954e+003
1.123844e+003, 5.055752e+003
1.125773e+003, 5.078351e+003
1.127701e+003, 5.093476e+003
1.129630e+003, 5.115377e+003
1.131558e+003, 5.148104e+003
1.133487e+003, 5.182386e+003
1.135415e+003, 5.212465e+003
1.137344e+003, 5.239117e+003
1.139272e+003, 5.269317e+003
1.141200e+003, 5.303796e+003
1.143129e+003, 5.338900e+003
1.145057e+003, 5.372839e+003
1.146986e+003, 5.406214e+003
1.148914e+003, 5.440591e+003
1.150843e+003, 5.476738e+003
1.152771e+003, 5.509627e+003
1.154700e+003, 5.536831e+003
1.156628e+003, 5.561995e+003
1.158557e+003, 5.587286e+003
1.160485e+003, 5.612970e+003
1.162414e+003, 5.637886e+003
1.164342e+003, 5.662340e+003
1.166271e+003, 5.686900e+003
1.168199e+003, 5.712764e+003
1.170127e+003, 5.739106e+003
1.172056e+003, 5.763688e+003
1.173984e+003, 5.786253e+003
1.175913e+003, 5.809793e+003
1.177841e+003, 5.836383e+003
1.179770e+003, 5.863027e+003
1.181698e+003, 5.885307e+003
1.183627e+003, 5.903179e+003
1.185555e+003, 5.928550e+003
1.187484e+003, 5.968451e+003
1.189412e+003, 6.006825e+003
1.191341e+003, 6.036123e+003
1.193269e+003, 6.060141e+003
1.195198e+003, 6.088178e+003
1.197126e+003, 6.124964e+003
1.199054e+003, 6.157850e+003
1.200983e+003, 6.184561e+003
1.202911e+003, 6.209425e+003
1.204840e+003, 6.235797e+003
1.206768e+003, 6.263892e+003
1.208697e+003, 6.291959e+003
1.210625e+003, 6.319295e+003
1.212554e+003, 6.347924e+003
1.214482e+003, 6.379805e+003
1.216411e+003, 6.412731e+003
1.218339e+003, 6.443254e+003
1.220268e+003, 6.470860e+003
1.222196e+003, 6.496823e+003
1.224125e+003, 6.518516e+003
1.226053e+003, 6.541470e+003
1.227981e+003, 6.571316e+003
1.229910e+003, 6.608269e+003
1.231838e+003, 6.639118e+003
1.233767e+003, 6.654825e+003
1.235695e+003, 6.677250e+003
1.237624e+003, 6.715381e+003
1.239552e+003, 6.760583e+003
1.241481e+003, 6.800321e+003
1.243409e+003, 6.834260e+003
1.245338e+003, 6.866558e+003
1.247266e+003, 6.896653e+003
1.249195e+003, 6.926553e+003
1.251123e+003, 6.956624e+003
1.253052e+003, 6.987585e+003
1.254980e+003, 7.021831e+003
1.256908e+003, 7.061442e+003
1.258837e+003, 7.099847e+003
1.260765e+003, 7.135263e+003
1.262694e+003, 7.168611e+003
1.264622e+003, 7.200028e+003
1.266551e+003, 7.228549e+003
1.268479e+003, 7.258663e+003
1.270408e+003, 7.292354e+003
1.272336e+003, 7.325772e+003
1.274265e+003, 7.357944e+003
1.276193e+003, 7.390228e+003
1.278122e+003, 7.424818e+003
1.280050e+003, 7.462155e+003
1.281979e+003, 7.501784e+003
1.283907e+003, 7.544237e+003
1.285835e+003, 7.587485e+003
1.287764e+003, 7.628921e+003
1.289692e+003, 7.668706e+003
1.291621e+003, 7.709480e+003
1.293549e+003, 7.751879e+003
1.295478e+003, 7.791723e+003
1.297406e+003, 7.826489e+003
1.299335e+003, 7.859335e+003
1.301263e+003, 7.893568e+003
1.303192e+003, 7.930339e+003
1.305120e+003, 7.964322e+003
1.307049e+003, 7.992276e+003
1.308977e+003, 8.022584e+003
1.310906e+003, 8.060368e+003
1.312834e+003, 8.101157e+003
1.314762e+003, 8.136737e+003
1.316691e+003, 8.164561e+003
1.318619e+003, 8.195476e+003
1.320548e+003, 8.229905e+003
1.322476e+003, 8.266857e+003
1.324405e+003, 8.308405e+003
1.326333e+003, 8.351449e+003
1.328262e+003, 8.387691e+003
1.330190e+003, 8.414563e+003
1.332119e+003, 8.445171e+003
1.334047e+003, 8.485587e+003
1.335976e+003, 8.528806e+003
1.337904e+003, 8.569633e+003
1.339833e+003, 8.609191e+003
1.341761e+003, 8.653238e+003
1.343689e+003, 8.706194e+003
1.345618e+003, 8.753265e+003
1.347546e+003, 8.784316e+003
1.349475e+003, 8.812417e+003
1.351403e+003, 8.850299e+003
1.353332e+003, 8.899657e+003
1.355260e+003, 8.945134e+003
1.357189e+003, 8.983354e+003
1.359117e+003, 9.024218e+003
1.361046e+003, 9.071632e+003
1.362974e+003, 9.122058e+003
1.364903e+003, 9.170489e+003
1.366831e+003, 9.215199e+003
1.368760e+003, 9.258887e+003
1.370688e+003, 9.300011e+003
1.372616e+003, 9.338985e+003
1.374545e+003, 9.378312e+003
1.376473e+003, 9.414874e+003
1.378402e+003, 9.443752e+003
1.380330e+003, 9.465803e+003
1.382259e+003, 9.491115e+003
1.384187e+003, 9.523063e+003
1.386116e+003, 9.559308e+003
1.388044e+003, 9.600128e+003
1.389973e+003, 9.643637e+003
1.391901e+003, 9.686252e+003
1.393830e+003, 9.726771e+003
1.395758e+003, 9.766309e+003
1.397687e+003, 9.802755e+003
1.399615e+003, 9.839013e+003
1.401543e+003, 9.877097e+003
1.403472e+003, 9.916034e+003
1.405400e+003, 9.952563e+003
1.407329e+003, 9.984983e+003
1.409257e+003, 1.002048e+004
1.411186e+003, 1.006280e+004
1.413114e+003, 1.010588e+004
1.415043e+003, 1.014693e+004
1.416971e+003, 1.018650e+004
1.418900e+003, 1.022580e+004
1.420828e+003, 1.026200e+004
1.422757e+003, 1.030279e+004
1.424685e+003, 1.035074e+004
1.426614e+003, 1.040045e+004
1.428542e+003, 1.044946e+004
1.430470e+003, 1.049813e+004
1.432399e+003, 1.054742e+004
1.434327e+003, 1.059798e+004
1.436256e+003, 1.064963e+004
1.438184e+003, 1.070499e+004
1.440113e+003, 1.075911e+004
1.442041e+003, 1.080527e+004
1.443970e+003, 1.084689e+004
1.445898e+003, 1.089332e+004
1.447827e+003, 1.094509e+004
1.449755e+003, 1.099268e+004
1.451684e+003, 1.103199e+004
1.453612e+003, 1.106805e+004
1.455541e+003, 1.110476e+004
1.457469e+003, 1.114181e+004
1.459397e+003, 1.117681e+004
1.461326e+003, 1.121090e+004
1.463254e+003, 1.124663e+004
1.465183e+003, 1.128357e+004
1.467111e+003, 1.132510e+004
1.469040e+003, 1.137357e+004
1.470968e+003, 1.142688e+004
1.472897e+003, 1.148065e+004
1.474825e+003, 1.153654e+004
1.476754e+003, 1.158760e+004
1.478682e+003, 1.162568e+004
1.480611e+003, 1.166830e+004
1.482539e+003, 1.172569e+004
1.484468e+003, 1.179146e+004
1.486396e+003, 1.185377e+004
1.488324e+003, 1.191126e+004
1.490253e+003, 1.196669e+004
1.492181e+003, 1.201516e+004
1.494110e+003, 1.206344e+004
1.496038e+003, 1.211400e+004
1.497967e+003, 1.216393e+004
1.499895e+003, 1.221106e+004
1.501824e+003, 1.225631e+004
1.503752e+003, 1.229608e+004
1.505681e+003, 1.233173e+004
1.507609e+003, 1.236511e+004
1.509538e+003, 1.239669e+004
1.511466e+003, 1.243035e+004
1.513395e+003, 1.246832e+004
1.515323e+003, 1.251096e+004
1.517251e+003, 1.256003e+004
1.519180e+003, 1.261417e+004
1.521108e+003, 1.267307e+004
1.523037e+003, 1.273803e+004
1.524965e+003, 1.280145e+004
1.526894e+003, 1.285776e+004
1.528822e+003, 1.290612e+004
1.530751e+003, 1.294793e+004
1.532679e+003, 1.298447e+004
1.534608e+003, 1.301545e+004
1.536536e+003, 1.303982e+004
1.538465e+003, 1.306811e+004
1.540393e+003, 1.310912e+004
1.542322e+003, 1.316153e+004
1.544250e+003, 1.321580e+004
1.546178e+003, 1.326895e+004
1.548107e+003, 1.333407e+004
1.550035e+003, 1.341668e+004
1.551964e+003, 1.349706e+004
1.553892e+003, 1.356326e+004
1.555821e+003, 1.362019e+004
1.557749e+003, 1.367670e+004
1.559678e+003, 1.373338e+004
1.561606e+003, 1.378632e+004
1.563535e+003, 1.384259e+004
1.565463e+003, 1.389098e+004
1.567392e+003, 1.392295e+004
1.569320e+003, 1.395500e+004
1.571249e+003, 1.400316e+004
1.573177e+003, 1.406450e+004
1.575105e+003, 1.411706e+004
1.577034e+003, 1.415308e+004
1.578962e+003, 1.418918e+004
1.580891e+003, 1.422985e+004
1.582819e+003, 1.426815e+004
1.584748e+003, 1.430008e+004
1.586676e+003, 1.433058e+004
1.588605e+003, 1.436871e+004
1.590533e+003, 1.441804e+004
1.592462e+003, 1.447050e+004
1.594390e+003, 1.452103e+004
1.596319e+003, 1.457932e+004
1.598247e+003, 1.464748e+004
1.600176e+003, 1.472030e+004
1.602104e+003, 1.479294e+004
1.604032e+003, 1.486350e+004
1.605961e+003, 1.493008e+004
1.607889e+003, 1.499312e+004
1.609818e+003, 1.504942e+004
1.611746e+003, 1.509785e+004
1.613675e+003, 1.514287e+004
1.615603e+003, 1.518811e+004
1.617532e+003, 1.523411e+004
1.619460e+003, 1.527929e+004
1.621389e+003, 1.532359e+004
1.623317e+003, 1.537530e+004
1.625246e+003, 1.543929e+004
1.627174e+003, 1.550303e+004
1.629103e+003, 1.555799e+004
1.631031e+003, 1.561152e+004
1.632959e+003, 1.567236e+004
1.634888e+003, 1.573765e+004
1.636816e+003, 1.579625e+004
1.638745e+003, 1.584609e+004
1.640673e+003, 1.589595e+004
1.642602e+003, 1.595102e+004
1.644530e+003, 1.600516e+004
1.646459e+003, 1.605359e+004
1.648387e+003, 1.610184e+004
1.650316e+003, 1.615802e+004
1.652244e+003, 1.622173e+004
1.654173e+003, 1.628485e+004
1.656101e+003, 1.634404e+004
1.658030e+003, 1.640374e+004
1.659958e+003, 1.646630e+004
1.661886e+003, 1.652596e+004
1.663815e+003, 1.657646e+004
1.665743e+003, 1.662177e+004
1.667672e+003, 1.667315e+004
1.669600e+003, 1.673402e+004
1.671529e+003, 1.678662e+004
1.673457e+003, 1.682069e+004
1.675386e+003, 1.686465e+004
1.677314e+003, 1.693688e+004
1.679243e+003, 1.701953e+004
1.681171e+003, 1.709603e+004
1.683100e+003, 1.716622e+004
1.685028e+003, 1.723342e+004
1.686957e+003, 1.729476e+004
1.688885e+003, 1.735921e+004
1.690813e+003, 1.743532e+004
1.692742e+003, 1.750397e+004
1.694670e+003, 1.755116e+004
1.696599e+003, 1.758936e+004
1.698527e+003, 1.763563e+004
1.700456e+003, 1.768824e+004
1.702384e+003, 1.772860e+004
1.704313e+003, 1.775165e+004
1.706241e+003, 1.777974e+004
1.708170e+003, 1.782199e+004
1.710098e+003, 1.786827e+004
1.712027e+003, 1.791476e+004
1.713955e+003, 1.796294e+004
1.715884e+003, 1.801314e+004
1.717812e+003, 1.806602e+004
1.719740e+003, 1.812506e+004
1.721669e+003, 1.818965e+004
1.723597e+003, 1.825842e+004
1.725526e+003, 1.833550e+004
1.727454e+003, 1.840630e+004
1.729383e+003, 1.845517e+004
1.731311e+003, 1.849260e+004
1.733240e+003, 1.853796e+004
1.735168e+003, 1.859129e+004
1.737097e+003, 1.863580e+004
1.739025e+003, 1.866635e+004
1.740954e+003, 1.870681e+004
1.742882e+003, 1.877667e+004
1.744811e+003, 1.884638e+004
1.746739e+003, 1.889050e+004
1.748667e+003, 1.892608e+004
1.750596e+003, 1.898140e+004
1.752524e+003, 1.905482e+004
1.754453e+003, 1.912507e+004
1.756381e+003, 1.918938e+004
1.758310e+003, 1.925427e+004
1.760238e+003, 1.931829e+004
1.762167e+003, 1.938668e+004
1.764095e+003, 1.946448e+004
1.766024e+003, 1.954428e+004
1.767952e+003, 1.961455e+004
1.769880e+003, 1.967445e+004
1.771809e+003, 1.973029e+004
1.773737e+003, 1.978065e+004
1.775666e+003, 1.983051e+004
1.777594e+003, 1.988802e+004
1.779523e+003, 1.994051e+004
1.781451e+003, 1.998105e+004
1.783380e+003, 2.001697e+004
1.785308e+003, 2.005548e+004
1.787237e+003, 2.009723e+004
1.789165e+003, 2.014553e+004
1.791094e+003, 2.020294e+004
1.793022e+003, 2.025671e+004
1.794951e+003, 2.030184e+004
1.796879e+003, 2.034629e+004
1.798807e+003, 2.039066e+004
1.800736e+003, 2.043882e+004
1.802664e+003, 2.049591e+004
1.804593e+003, 2.056100e+004
1.806521e+003, 2.062807e+004
1.808450e+003, 2.069728e+004
1.810378e+003, 2.076320e+004
1.812307e+003, 2.081978e+004
1.814235e+003, 2.087649e+004
1.816164e+003, 2.093475e+004
1.818092e+003, 2.099260e+004
1.820021e+003, 2.105054e+004
1.821949e+003, 2.110706e+004
1.823878e+003, 2.115869e+004
1.825806e+003, 2.120763e+004
1.827734e+003, 2.125157e+004
1.829663e+003, 2.128804e+004
1.831591e+003, 2.132972e+004
1.833520e+003, 2.137976e+004
1.835448e+003, 2.143507e+004
1.837377e+003, 2.149208e+004
1.839305e+003, 2.155200e+004
1.841234e+003, 2.161859e+004
1.843162e+003, 2.168955e+004
1.845091e+003, 2.174929e+004
1.847019e+003, 2.178956e+004
1.848948e+003, 2.183628e+004
1.850876e+003, 2.190134e+004
1.852805e+003, 2.196295e+004
1.854733e+003, 2.201588e+004
1.856661e+003, 2.206672e+004
1.858590e+003, 2.211957e+004
1.860518e+003, 2.217508e+004
1.862447e+003, 2.223439e+004
1.864375e+003, 2.229714e+004
1.866304e+003, 2.235715e+004
1.868232e+003, 2.240919e+004
1.870161e+003, 2.246783e+004
1.872089e+003, 2.254408e+004
1.874018e+003, 2.261609e+004
1.875946e+003, 2.266924e+004
1.877875e+003, 2.271569e+004
1.879803e+003, 2.276634e+004
1.881732e+003, 2.282135e+004
1.883660e+003, 2.288477e+004
1.885589e+003, 2.295781e+004
1.887517e+003, 2.301866e+004
1.889445e+003, 2.305741e+004
1.891374e+003, 2.309955e+004
1.893302e+003, 2.316032e+004
1.895231e+003, 2.322077e+004
1.897159e+003, 2.327026e+004
1.899088e+003, 2.331313e+004
1.901016e+003, 2.335383e+004
1.902945e+003, 2.339345e+004
1.904873e+003, 2.343633e+004
1.906802e+003, 2.348253e+004
1.908730e+003, 2.353181e+004
1.910659e+003, 2.358501e+004
1.912587e+003, 2.363874e+004
1.914516e+003, 2.369500e+004
1.916444e+003, 2.374827e+004
1.918372e+003, 2.378851e+004
1.920301e+003, 2.382702e+004
1.922229e+003, 2.388536e+004
1.924158e+003, 2.396337e+004
1.926086e+003, 2.403977e+004
1.928015e+003, 2.411578e+004
1.929943e+003, 2.418277e+004
1.931872e+003, 2.423193e+004
1.933800e+003, 2.427902e+004
1.935729e+003, 2.432877e+004
1.937657e+003, 2.437636e+004
1.939586e+003, 2.442005e+004
1.941514e+003, 2.446238e+004
1.943443e+003, 2.450722e+004
1.945371e+003, 2.455598e+004
1.947299e+003, 2.460522e+004
1.949228e+003, 2.465525e+004
1.951156e+003, 2.470423e+004
1.953085e+003, 2.474826e+004
1.955013e+003, 2.479598e+004
1.956942e+003, 2.485400e+004
1.958870e+003, 2.491221e+004
1.960799e+003, 2.495933e+004
1.962727e+003, 2.500735e+004
1.964656e+003, 2.507549e+004
1.966584e+003, 2.515816e+004
1.968513e+003, 2.522949e+004
1.970441e+003, 2.528466e+004
1.972370e+003, 2.534478e+004
1.974298e+003, 2.541491e+004
1.976226e+003, 2.547862e+004
1.978155e+003, 2.553047e+004
1.980083e+003, 2.557834e+004
1.982012e+003, 2.563327e+004
1.983940e+003, 2.568472e+004
1.985869e+003, 2.571012e+004
1.987797e+003, 2.572291e+004
1.989726e+003, 2.577291e+004
1.991654e+003, 2.586922e+004
1.993583e+003, 2.594262e+004
1.995511e+003, 2.597687e+004
1.997440e+003, 2.601269e+004
1.999368e+003, 2.605564e+004
2.001297e+003, 2.609664e+004
2.003225e+003, 2.613739e+004
2.005153e+003, 2.617351e+004
2.007082e+003, 2.620098e+004
2.009010e+003, 2.622540e+004
2.010939e+003, 2.625402e+004
2.012867e+003, 2.628870e+004
2.014796e+003, 2.633238e+004
2.016724e+003, 2.638542e+004
2.018653e+003, 2.644159e+004
2.020581e+003, 2.649684e+004
2.022510e+003, 2.655760e+004
2.024438e+003, 2.663100e+004
2.026367e+003, 2.669939e+004
2.028295e+003, 2.674493e+004
2.030224e+003, 2.678800e+004
2.032152e+003, 2.685874e+004
2.034080e+003, 2.694072e+004
2.036009e+003, 2.699024e+004
2.037937e+003, 2.700688e+004
2.039866e+003, 2.703386e+004
2.041794e+003, 2.706859e+004
2.043723e+003, 2.712042e+004
2.045651e+003, 2.721591e+004
2.047580e+003, 2.728904e+004
2.049508e+003, 2.730298e+004
2.051437e+003, 2.732065e+004
2.053365e+003, 2.738179e+004
2.055294e+003, 2.745398e+004
2.057222e+003, 2.750174e+004
2.059151e+003, 2.753429e+004
2.061079e+003, 2.757907e+004
2.063008e+003, 2.763507e+004
2.064936e+003, 2.768434e+004
2.066865e+003, 2.772634e+004
2.068793e+003, 2.776939e+004
2.070721e+003, 2.781381e+004
2.072650e+003, 2.786404e+004
2.074578e+003, 2.792179e+004
2.076507e+003, 2.798193e+004
2.078435e+003, 2.803869e+004
2.080364e+003, 2.809319e+004
2.082292e+003, 2.815088e+004
2.084220e+003, 2.820482e+004
2.086149e+003, 2.823884e+004
2.088077e+003, 2.825518e+004
2.090006e+003, 2.828492e+004
2.091934e+003, 2.833740e+004
2.093863e+003, 2.838389e+004
2.095791e+003, 2.842033e+004
2.097720e+003, 2.846088e+004
2.099648e+003, 2.850716e+004
2.101577e+003, 2.855448e+004
2.103505e+003, 2.860190e+004
2.105434e+003, 2.864644e+004
2.107362e+003, 2.868541e+004
2.109291e+003, 2.872526e+004
2.111219e+003, 2.877662e+004
2.113147e+003, 2.883871e+004
2.115076e+003, 2.889930e+004
2.117004e+003, 2.895693e+004
2.118933e+003, 2.902716e+004
2.120861e+003, 2.911136e+004
2.122790e+003, 2.918282e+004
2.124718e+003, 2.922164e+004
2.126647e+003, 2.925753e+004
2.128575e+003, 2.930820e+004
2.130504e+003, 2.934354e+004
2.132432e+003, 2.934733e+004
2.134361e+003, 2.934382e+004
2.136289e+003, 2.935829e+004
2.138218e+003, 2.938735e+004
2.140146e+003, 2.941789e+004
2.142074e+003, 2.945211e+004
2.144003e+003, 2.949495e+004
2.145931e+003, 2.954337e+004
2.147860e+003, 2.959804e+004
2.149788e+003, 2.965636e+004
2.151717e+003, 2.971238e+004
2.153645e+003, 2.976219e+004
2.155574e+003, 2.981323e+004
2.157502e+003, 2.987584e+004
2.159431e+003, 2.993501e+004
2.161359e+003, 2.998244e+004
2.163288e+003, 3.002693e+004
2.165216e+003, 3.007590e+004
2.167145e+003, 3.012696e+004
2.169073e+003, 3.016996e+004
2.171001e+003, 3.020819e+004
2.172930e+003, 3.027272e+004
2.174858e+003, 3.036194e+004
2.176787e+003, 3.043129e+004
2.178715e+003, 3.047438e+004
2.180644e+003, 3.051210e+004
2.182572e+003, 3.054899e+004
2.184501e+003, 3.057900e+004
2.186429e+003, 3.060194e+004
2.188358e+003, 3.062116e+004
2.190286e+003, 3.063496e+004
2.192215e+003, 3.065410e+004
2.194143e+003, 3.069165e+004
2.196072e+003, 3.073500e+004
2.198000e+003, 3.076535e+004
2.199928e+003, 3.078762e+004
2.201857e+003, 3.081642e+004
2.203785e+003, 3.085085e+004
2.205714e+003, 3.088501e+004
2.207642e+003, 3.091972e+004
2.209571e+003, 3.095441e+004
2.211499e+003, 3.098776e+004
2.213428e+003, 3.103723e+004
2.215356e+003, 3.111633e+004
2.217285e+003, 3.118705e+004
2.219213e+003, 3.122199e+004
2.221142e+003, 3.126071e+004
2.223070e+003, 3.132371e+004
2.224999e+003, 3.138901e+004
2.226927e+003, 3.144735e+004
2.228855e+003, 3.149274e+004
2.230784e+003, 3.150639e+004
2.232712e+003, 3.150773e+004
2.234641e+003, 3.155300e+004
2.236569e+003, 3.163662e+004
2.238498e+003, 3.167932e+004
2.240426e+003, 3.167900e+004
2.242355e+003, 3.172220e+004
2.244283e+003, 3.182550e+004
2.246212e+003, 3.189416e+004
2.248140e+003, 3.189905e+004
2.250069e+003, 3.190236e+004
2.251997e+003, 3.192201e+004
2.253926e+003, 3.194393e+004
2.255854e+003, 3.195979e+004
2.257782e+003, 3.198278e+004
2.259711e+003, 3.202577e+004
2.261639e+003, 3.207202e+004
2.263568e+003, 3.210546e+004
2.265496e+003, 3.212944e+004
2.267425e+003, 3.215020e+004
2.269353e+003, 3.216799e+004
2.271282e+003, 3.218381e+004
2.273210e+003, 3.220032e+004
2.275139e+003, 3.221991e+004
2.277067e+003, 3.224442e+004
2.278996e+003, 3.227731e+004
2.280924e+003, 3.232171e+004
2.282853e+003, 3.236164e+004
2.284781e+003, 3.238846e+004
2.286709e+003, 3.241370e+004
2.288638e+003, 3.243083e+004
2.290566e+003, 3.245328e+004
2.292495e+003, 3.248901e+004
2.294423e+003, 3.252867e+004
2.296352e+003, 3.257513e+004
2.298280e+003, 3.262046e+004
2.300209e+003, 3.265368e+004
2.302137e+003, 3.268721e+004
2.304066e+003, 3.273997e+004
2.305994e+003, 3.280014e+004
2.307923e+003, 3.283883e+004
2.309851e+003, 3.285954e+004
2.311780e+003, 3.289097e+004
2.313708e+003, 3.293263e+004
2.315636e+003, 3.296738e+004
2.317565e+003, 3.299737e+004
2.319493e+003, 3.301107e+004
2.321422e+003, 3.300642e+004
2.323350e+003, 3.300491e+004
2.325279e+003, 3.301241e+004
2.327207e+003, 3.302761e+004
2.329136e+003, 3.305264e+004
2.331064e+003, 3.308397e+004
2.332993e+003, 3.311330e+004
2.334921e+003, 3.315361e+004
2.336850e+003, 3.322002e+004
2.338778e+003, 3.328331e+004
2.340707e+003, 3.331656e+004
2.342635e+003, 3.333639e+004
2.344563e+003, 3.336724e+004
2.346492e+003, 3.339783e+004
2.348420e+003, 3.340059e+004
2.350349e+003, 3.339200e+004
2.352277e+003, 3.341154e+004
2.354206e+003, 3.345707e+004
2.356134e+003, 3.350967e+004
2.358063e+003, 3.356688e+004
2.359991e+003, 3.361850e+004
2.361920e+003, 3.366329e+004
2.363848e+003, 3.368914e+004
2.365777e+003, 3.368798e+004
2.367705e+003, 3.368626e+004
2.369634e+003, 3.368855e+004
2.371562e+003, 3.369642e+004
2.373490e+003, 3.372190e+004
2.375419e+003, 3.373739e+004
2.377347e+003, 3.372024e+004
2.379276e+003, 3.371062e+004
2.381204e+003, 3.372977e+004
2.383133e+003, 3.375634e+004
2.385061e+003, 3.377366e+004
2.386990e+003, 3.379571e+004
2.388918e+003, 3.384679e+004
2.390847e+003, 3.390138e+004
2.392775e+003, 3.391993e+004
2.394704e+003, 3.392304e+004
2.396632e+003, 3.395119e+004
2.398561e+003, 3.399018e+004
2.400489e+003, 3.400184e+004
2.402417e+003, 3.399124e+004
2.404346e+003, 3.400280e+004
2.406274e+003, 3.404018e+004
2.408203e+003, 3.405113e+004
2.410131e+003, 3.402907e+004
2.412060e+003, 3.403307e+004
2.413988e+003, 3.406851e+004
2.415917e+003, 3.411339e+004
2.417845e+003, 3.416426e+004
2.419774e+003, 3.421479e+004
2.421702e+003, 3.426162e+004
2.423631e+003, 3.429897e+004
2.425559e+003, 3.431504e+004
2.427488e+003, 3.433696e+004
2.429416e+003, 3.438533e+004
2.431344e+003, 3.442679e+004
2.433273e+003, 3.444089e+004
2.435201e+003, 3.445470e+004
2.437130e+003, 3.448743e+004
2.439058e+003, 3.451559e+004
2.440987e+003, 3.452509e+004
2.442915e+003, 3.452123e+004
2.444844e+003, 3.450198e+004
2.446772e+003, 3.448396e+004
2.448701e+003, 3.449866e+004
2.450629e+003, 3.452683e+004
2.452558e+003, 3.452187e+004
2.454486e+003, 3.450477e+004
2.456415e+003, 3.452895e+004
2.458343e+003, 3.458604e+004
2.460271e+003, 3.464895e+004
2.462200e+003, 3.471153e+004
2.464128e+003, 3.475794e+004
2.466057e+003, 3.478529e+004
2.467985e+003, 3.480787e+004
2.469914e+003, 3.482886e+004
2.471842e+003, 3.483538e+004
2.473771e+003, 3.483039e+004
2.475699e+003, 3.481811e+004
2.477628e+003, 3.479560e+004
2.479556e+003, 3.479270e+004
2.481485e+003, 3.481486e+004
2.483413e+003, 3.484588e+004
2.485342e+003, 3.488596e+004
2.487270e+003, 3.491453e+004
2.489198e+003, 3.491938e+004
2.491127e+003, 3.491985e+004
2.493055e+003, 3.491262e+004
2.494984e+003, 3.492095e+004
2.496912e+003, 3.496782e+004
2.498841e+003, 3.501513e+004
2.500769e+003, 3.505384e+004
2.502698e+003, 3.507705e+004
2.504626e+003, 3.505858e+004
2.506555e+003, 3.504293e+004
2.508483e+003, 3.506967e+004
2.510412e+003, 3.510040e+004
2.512340e+003, 3.510788e+004
2.514269e+003, 3.510443e+004
2.516197e+003, 3.509949e+004
2.518125e+003, 3.509789e+004
2.520054e+003, 3.510602e+004
2.521982e+003, 3.511721e+004
2.523911e+003, 3.511425e+004
2.525839e+003, 3.510722e+004
2.527768e+003, 3.512164e+004
2.529696e+003, 3.514739e+004
2.531625e+003, 3.516281e+004
2.533553e+003, 3.517231e+004
2.535482e+003, 3.518398e+004
2.537410e+003, 3.520011e+004
2.539339e+003, 3.521268e+004
2.541267e+003, 3.522340e+004
2.543196e+003, 3.524265e+004
2.545124e+003, 3.526673e+004
2.547052e+003, 3.530688e+004
2.548981e+003, 3.536227e+004
2.550909e+003, 3.538360e+004
2.552838e+003, 3.536496e+004
2.554766e+003, 3.534989e+004
2.556695e+003, 3.534463e+004
2.558623e+003, 3.532549e+004
2.560552e+003, 3.529293e+004
2.562480e+003, 3.526320e+004
2.564409e+003, 3.523791e+004
2.566337e+003, 3.522870e+004
2.568266e+003, 3.525484e+004
2.570194e+003, 3.525856e+004
2.572123e+003, 3.521727e+004
2.574051e+003, 3.520928e+004
2.575979e+003, 3.525451e+004
2.577908e+003, 3.530048e+004
2.579836e+003, 3.533048e+004
2.581765e+003, 3.536558e+004
2.583693e+003, 3.542034e+004
2.585622e+003, 3.546249e+004
2.587550e+003, 3.546455e+004
2.589479e+003, 3.548218e+004
2.591407e+003, 3.554079e+004
2.593336e+003, 3.558722e+004
2.595264e+003, 3.560418e+004
2.597193e+003, 3.560096e+004
2.599121e+003, 3.557254e+004
2.601050e+003, 3.554110e+004
2.602978e+003, 3.551671e+004
2.604906e+003, 3.549763e+004
2.606835e+003, 3.548806e+004
2.608763e+003, 3.548326e+004
2.610692e+003, 3.547905e+004
2.612620e+003, 3.548316e+004
2.614549e+003, 3.549824e+004
2.616477e+003, 3.552155e+004
2.618406e+003, 3.556521e+004
2.620334e+003, 3.559543e+004
2.622263e+003, 3.557180e+004
2.624191e+003, 3.554547e+004
2.626120e+003, 3.556091e+004
2.628048e+003, 3.558952e+004
2.629977e+003, 3.561507e+004
2.631905e+003, 3.563731e+004
2.633833e+003, 3.564402e+004
2.635762e+003, 3.565235e+004
2.637690e+003, 3.568867e+004
2.639619e+003, 3.572030e+004
2.641547e+003, 3.570846e+004
2.643476e+003, 3.568173e+004
2.645404e+003, 3.567581e+004
2.647333e+003, 3.567566e+004
2.649261e+003, 3.566075e+004
2.651190e+003, 3.564911e+004
2.653118e+003, 3.566339e+004
2.655047e+003, 3.568906e+004
2.656975e+003, 3.570237e+004
2.658904e+003, 3.571168e+004
2.660832e+003, 3.573871e+004
2.662760e+003, 3.575998e+004
2.664689e+003, 3.574030e+004
2.666617e+003, 3.570149e+004
2.668546e+003, 3.567149e+004
2.670474e+003, 3.565220e+004
2.672403e+003, 3.565535e+004
2.674331e+003, 3.566544e+004
2.676260e+003, 3.565312e+004
2.678188e+003, 3.563171e+004
2.680117e+003, 3.561473e+004
2.682045e+003, 3.560658e+004
2.683974e+003, 3.561594e+004
2.685902e+003, 3.563580e+004
2.687831e+003, 3.565869e+004
2.689759e+003, 3.567823e+004
2.691688e+003, 3.568886e+004
2.693616e+003, 3.568486e+004
2.695544e+003, 3.565021e+004
2.697473e+003, 3.560455e+004
2.699401e+003, 3.558365e+004
2.701330e+003, 3.557963e+004
2.703258e+003, 3.558007e+004
2.705187e+003, 3.558345e+004
2.707115e+003, 3.558567e+004
2.709044e+003, 3.558615e+004
2.710972e+003, 3.558248e+004
2.712901e+003, 3.557540e+004
2.714829e+003, 3.556015e+004
2.716758e+003, 3.554881e+004
2.718686e+003, 3.556877e+004
2.720615e+003, 3.560613e+004
2.722543e+003, 3.564063e+004
2.724471e+003, 3.567123e+004
2.726400e+003, 3.568743e+004
2.728328e+003, 3.570188e+004
2.730257e+003, 3.574643e+004
2.732185e+003, 3.579093e+004
2.734114e+003, 3.578250e+004
2.736042e+003, 3.574998e+004
2.737971e+003, 3.573686e+004
2.739899e+003, 3.573222e+004
2.741828e+003, 3.572404e+004
2.743756e+003, 3.571515e+004
2.745685e+003, 3.570853e+004
2.747613e+003, 3.570087e+004
2.749542e+003, 3.568561e+004
2.751470e+003, 3.566413e+004
2.753398e+003, 3.563918e+004
2.755327e+003, 3.560895e+004
2.757255e+003, 3.557415e+004
2.759184e+003, 3.553612e+004
2.761112e+003, 3.548889e+004
2.763041e+003, 3.545238e+004
2.764969e+003, 3.545489e+004
2.766898e+003, 3.547079e+004
2.768826e+003, 3.547919e+004
2.770755e+003, 3.548600e+004
2.772683e+003, 3.548533e+004
2.774612e+003, 3.549200e+004
2.776540e+003, 3.552463e+004
2.778469e+003, 3.555462e+004
2.780397e+003, 3.556698e+004
2.782325e+003, 3.555718e+004
2.784254e+003, 3.550315e+004
2.786182e+003, 3.545335e+004
2.788111e+003, 3.545821e+004
2.790039e+003, 3.545693e+004
2.791968e+003, 3.541610e+004
2.793896e+003, 3.536776e+004
2.795825e+003, 3.532170e+004
2.797753e+003, 3.528667e+004
2.799682e+003, 3.526817e+004
2.801610e+003, 3.525894e+004
2.803539e+003, 3.525080e+004
2.805467e+003, 3.525233e+004
2.807396e+003, 3.526719e+004
2.809324e+003, 3.527687e+004
2.811252e+003, 3.527698e+004
2.813181e+003, 3.525933e+004
2.815109e+003, 3.521094e+004
2.817038e+003, 3.516568e+004
2.818966e+003, 3.513825e+004
2.820895e+003, 3.510574e+004
2.822823e+003, 3.506789e+004
2.824752e+003, 3.502554e+004
2.826680e+003, 3.496746e+004
2.828609e+003, 3.494112e+004
2.830537e+003, 3.496543e+004
2.832466e+003, 3.497783e+004
2.834394e+003, 3.497152e+004
2.836323e+003, 3.495164e+004
2.838251e+003, 3.491350e+004
2.840179e+003, 3.489805e+004
2.842108e+003, 3.491814e+004
2.844036e+003, 3.492517e+004
2.845965e+003, 3.492016e+004
2.847893e+003, 3.489793e+004
2.849822e+003, 3.486022e+004
2.851750e+003, 3.485678e+004
2.853679e+003, 3.488469e+004
2.855607e+003, 3.487002e+004
2.857536e+003, 3.481711e+004
2.859464e+003, 3.478628e+004
2.861393e+003, 3.477154e+004
2.863321e+003, 3.474070e+004
2.865250e+003, 3.470262e+004
2.867178e+003, 3.467301e+004
2.869106e+003, 3.465587e+004
2.871035e+003, 3.466056e+004
2.872963e+003, 3.467698e+004
2.874892e+003, 3.468947e+004
2.876820e+003, 3.469396e+004
2.878749e+003, 3.468041e+004
2.880677e+003, 3.466346e+004
2.882606e+003, 3.467275e+004
2.884534e+003, 3.468149e+004
2.886463e+003, 3.465816e+004
2.888391e+003, 3.462870e+004
2.890320e+003, 3.460814e+004
2.892248e+003, 3.459355e+004
2.894177e+003, 3.459522e+004
2.896105e+003, 3.458218e+004
2.898033e+003, 3.452061e+004
2.899962e+003, 3.447042e+004
2.901890e+003, 3.446075e+004
2.903819e+003, 3.445773e+004
2.905747e+003, 3.446166e+004
2.907676e+003, 3.444319e+004
2.909604e+003, 3.437919e+004
2.911533e+003, 3.433321e+004
2.913461e+003, 3.432331e+004
2.915390e+003, 3.430255e+004
2.917318e+003, 3.425610e+004
2.919247e+003, 3.422318e+004
2.921175e+003, 3.421274e+004
2.923104e+003, 3.418671e+004
2.925032e+003, 3.414221e+004
2.926960e+003, 3.411159e+004
2.928889e+003, 3.409607e+004
2.930817e+003, 3.407358e+004
2.932746e+003, 3.404407e+004
2.934674e+003, 3.400492e+004
2.936603e+003, 3.396039e+004
2.938531e+003, 3.392228e+004
2.940460e+003, 3.389501e+004
2.942388e+003, 3.389780e+004
2.944317e+003, 3.391052e+004
2.946245e+003, 3.388353e+004
2.948174e+003, 3.384590e+004
2.950102e+003, 3.384307e+004
2.952031e+003, 3.384793e+004
2.953959e+003, 3.382619e+004
2.955887e+003, 3.380679e+004
2.957816e+003, 3.382961e+004
2.959744e+003, 3.383776e+004
2.961673e+003, 3.378811e+004
2.963601e+003, 3.373663e+004
2.965530e+003, 3.371935e+004
2.967458e+003, 3.369227e+004
2.969387e+003, 3.363545e+004
2.971315e+003, 3.358482e+004
2.973244e+003, 3.354982e+004
2.975172e+003, 3.351752e+004
2.977101e+003, 3.348414e+004
2.979029e+003, 3.345821e+004
2.980958e+003, 3.343952e+004
2.982886e+003, 3.342071e+004
2.984814e+003, 3.339909e+004
2.986743e+003, 3.336696e+004
2.988671e+003, 3.332382e+004
2.990600e+003, 3.329035e+004
2.992528e+003, 3.326440e+004
2.994457e+003, 3.323004e+004
2.996385e+003, 3.319222e+004
2.998314e+003, 3.315992e+004
3.000242e+003, 3.313241e+004
3.002171e+003, 3.310885e+004
3.004099e+003, 3.308651e+004
3.006028e+003, 3.305852e+004
3.007956e+003, 3.303182e+004
3.009885e+003, 3.300652e+004
3.011813e+003, 3.298870e+004
3.013741e+003, 3.297866e+004
3.015670e+003, 3.298078e+004
3.017598e+003, 3.300903e+004
3.019527e+003, 3.301251e+004
3.021455e+003, 3.296520e+004
3.023384e+003, 3.291723e+004
3.025312e+003, 3.288535e+004
3.027241e+003, 3.284005e+004
3.029169e+003, 3.277937e+004
3.031098e+003, 3.273338e+004
3.033026e+003, 3.270707e+004
3.034955e+003, 3.267355e+004
3.036883e+003, 3.263472e+004
3.038812e+003, 3.259987e+004
3.040740e+003, 3.256945e+004
3.042668e+003, 3.254317e+004
3.044597e+003, 3.252033e+004
3.046525e+003, 3.249932e+004
3.048454e+003, 3.247983e+004
3.050382e+003, 3.246896e+004
3.052311e+003, 3.244970e+004
3.054239e+003, 3.239402e+004
3.056168e+003, 3.234806e+004
3.058096e+003, 3.234797e+004
3.060025e+003, 3.235401e+004
3.061953e+003, 3.236479e+004
3.063882e+003, 3.234540e+004
3.065810e+003, 3.227019e+004
3.067739e+003, 3.221776e+004
3.069667e+003, 3.221465e+004
3.071595e+003, 3.220199e+004
3.073524e+003, 3.217943e+004
3.075452e+003, 3.214508e+004
3.077381e+003, 3.210117e+004
3.079309e+003, 3.207974e+004
3.081238e+003, 3.207220e+004
3.083166e+003, 3.204720e+004
3.085095e+003, 3.201096e+004
3.087023e+003, 3.198284e+004
3.088952e+003, 3.194781e+004
3.090880e+003, 3.188200e+004
3.092809e+003, 3.181550e+004
3.094737e+003, 3.178507e+004
3.096666e+003, 3.174919e+004
3.098594e+003, 3.167423e+004
3.100522e+003, 3.161318e+004
3.102451e+003, 3.158563e+004
3.104379e+003, 3.156431e+004
3.106308e+003, 3.154578e+004
3.108236e+003, 3.151366e+004
3.110165e+003, 3.145966e+004
3.112093e+003, 3.142100e+004
3.114022e+003, 3.139827e+004
3.115950e+003, 3.136045e+004
3.117879e+003, 3.131228e+004
3.119807e+003, 3.126183e+004
3.121736e+003, 3.121659e+004
3.123664e+003, 3.119243e+004
3.125593e+003, 3.117763e+004
3.127521e+003, 3.115610e+004
3.129449e+003, 3.113703e+004
3.131378e+003, 3.112299e+004
3.133306e+003, 3.111468e+004
3.135235e+003, 3.111272e+004
3.137163e+003, 3.110910e+004
3.139092e+003, 3.110449e+004
3.141020e+003, 3.108212e+004
3.142949e+003, 3.103406e+004
3.144877e+003, 3.098442e+004
3.146806e+003, 3.093309e+004
3.148734e+003, 3.088126e+004
3.150663e+003, 3.082810e+004
3.152591e+003, 3.076488e+004
3.154520e+003, 3.069847e+004
3.156448e+003, 3.063518e+004
3.158376e+003, 3.058588e+004
3.160305e+003, 3.057120e+004
3.162233e+003, 3.056135e+004
3.164162e+003, 3.052335e+004
3.166090e+003, 3.049698e+004
3.168019e+003, 3.049888e+004
3.169947e+003, 3.049009e+004
3.171876e+003, 3.044677e+004
3.173804e+003, 3.041439e+004
3.175733e+003, 3.039687e+004
3.177661e+003, 3.036769e+004
3.179590e+003, 3.032629e+004
3.181518e+003, 3.025912e+004
3.183447e+003, 3.017921e+004
3.185375e+003, 3.011962e+004
3.187303e+003, 3.007584e+004
3.189232e+003, 3.004206e+004
3.191160e+003, 3.001349e+004
3.193089e+003, 2.998798e+004
3.195017e+003, 2.995838e+004
3.196946e+003, 2.991822e+004
3.198874e+003, 2.988340e+004
3.200803e+003, 2.986475e+004
3.202731e+003, 2.984038e+004
3.204660e+003, 2.980726e+004
3.206588e+003, 2.977963e+004
3.208517e+003, 2.975552e+004
3.210445e+003, 2.971218e+004
3.212374e+003, 2.965754e+004
3.214302e+003, 2.962867e+004
3.216230e+003, 2.960587e+004
3.218159e+003, 2.956116e+004
3.220087e+003, 2.950859e+004
3.222016e+003, 2.945594e+004
3.223944e+003, 2.940587e+004
3.225873e+003, 2.935532e+004
3.227801e+003, 2.932082e+004
3.229730e+003, 2.931874e+004
3.231658e+003, 2.930125e+004
3.233587e+003, 2.926551e+004
3.235515e+003, 2.922516e+004
3.237444e+003, 2.918560e+004
3.239372e+003, 2.916795e+004
3.241301e+003, 2.916579e+004
3.243229e+003, 2.916211e+004
3.245157e+003, 2.916135e+004
3.247086e+003, 2.917538e+004
3.249014e+003, 2.917707e+004
3.250943e+003, 2.914263e+004
3.252871e+003, 2.909771e+004
3.254800e+003, 2.905190e+004
3.256728e+003, 2.900041e+004
3.258657e+003, 2.894812e+004
3.260585e+003, 2.889084e+004
3.262514e+003, 2.883260e+004
3.264442e+003, 2.879239e+004
3.266371e+003, 2.876560e+004
3.268299e+003, 2.873677e+004
3.270228e+003, 2.870559e+004
3.272156e+003, 2.867205e+004
3.274084e+003, 2.863117e+004
3.276013e+003, 2.857029e+004
3.277941e+003, 2.851965e+004
3.279870e+003, 2.850883e+004
3.281798e+003, 2.847022e+004
3.283727e+003, 2.839406e+004
3.285655e+003, 2.834487e+004
3.287584e+003, 2.832679e+004
3.289512e+003, 2.828673e+004
3.291441e+003, 2.823491e+004
3.293369e+003, 2.820559e+004
3.295298e+003, 2.817939e+004
3.297226e+003, 2.813123e+004
3.299155e+003, 2.807698e+004
3.301083e+003, 2.802641e+004
3.303011e+003, 2.797238e+004
3.304940e+003, 2.790704e+004
3.306868e+003, 2.785601e+004
3.308797e+003, 2.782424e+004
3.310725e+003, 2.777133e+004
3.312654e+003, 2.770168e+004
3.314582e+003, 2.766039e+004
3.316511e+003, 2.763396e+004
3.318439e+003, 2.759020e+004
3.320368e+003, 2.754273e+004
3.322296e+003, 2.749763e+004
3.324225e+003, 2.746491e+004
3.326153e+003, 2.746704e+004
3.328082e+003, 2.743621e+004
3.330010e+003, 2.734832e+004
3.331938e+003, 2.728706e+004
3.333867e+003, 2.725896e+004
3.335795e+003, 2.723238e+004
3.337724e+003, 2.720313e+004
3.339652e+003, 2.716664e+004
3.341581e+003, 2.711766e+004
3.343509e+003, 2.703844e+004
3.345438e+003, 2.696370e+004
3.347366e+003, 2.692559e+004
3.349295e+003, 2.688115e+004
3.351223e+003, 2.682222e+004
3.353152e+003, 2.675358e+004
3.355080e+003, 2.667725e+004
3.357009e+003, 2.663300e+004
3.358937e+003, 2.661236e+004
3.360865e+003, 2.657155e+004
3.362794e+003, 2.652646e+004
3.364722e+003, 2.649571e+004
3.366651e+003, 2.647445e+004
3.368579e+003, 2.646610e+004
3.370508e+003, 2.644895e+004
3.372436e+003, 2.641430e+004
3.374365e+003, 2.637991e+004
3.376293e+003, 2.634986e+004
3.378222e+003, 2.630916e+004
3.380150e+003, 2.626064e+004
3.382079e+003, 2.621492e+004
3.384007e+003, 2.616837e+004
3.385936e+003, 2.610620e+004
3.387864e+003, 2.605325e+004
3.389792e+003, 2.603247e+004
3.391721e+003, 2.600505e+004
3.393649e+003, 2.594531e+004
3.395578e+003, 2.591219e+004
3.397506e+003, 2.590761e+004
3.399435e+003, 2.587984e+004
3.401363e+003, 2.583609e+004
3.403292e+003, 2.580294e+004
3.405220e+003, 2.577600e+004
3.407148e+003, 2.574645e+004
3.409077e+003, 2.572016e+004
3.411005e+003, 2.570714e+004
3.412934e+003, 2.567843e+004
3.414862e+003, 2.562623e+004
3.416791e+003, 2.557043e+004
3.418719e+003, 2.551442e+004
3.420648e+003, 2.545460e+004
3.422576e+003, 2.539465e+004
3.424505e+003, 2.533725e+004
3.426433e+003, 2.528683e+004
3.428362e+003, 2.524590e+004
3.430290e+003, 2.521620e+004
3.432219e+003, 2.519719e+004
3.434147e+003, 2.518456e+004
3.436075e+003, 2.517705e+004
3.438004e+003, 2.515875e+004
3.439932e+003, 2.512563e+004
3.441861e+003, 2.506629e+004
3.443789e+003, 2.499393e+004
3.445718e+003, 2.492368e+004
3.447646e+003, 2.486383e+004
3.449575e+003, 2.482799e+004
3.451503e+003, 2.479459e+004
3.453432e+003, 2.475975e+004
3.455360e+003, 2.472756e+004
3.457289e+003, 2.469721e+004
3.459217e+003, 2.466512e+004
3.461146e+003, 2.463482e+004
3.463074e+003, 2.462731e+004
3.465002e+003, 2.461502e+004
3.466931e+003, 2.457528e+004
3.468859e+003, 2.452624e+004
3.470788e+003, 2.446762e+004
3.472716e+003, 2.443722e+004
3.474645e+003, 2.444258e+004
3.476573e+003, 2.440579e+004
3.478502e+003, 2.434076e+004
3.480430e+003, 2.430175e+004
3.482359e+003, 2.426208e+004
3.484287e+003, 2.418805e+004
3.486216e+003, 2.412164e+004
3.488144e+003, 2.408076e+004
3.490073e+003, 2.404520e+004
3.492001e+003, 2.401008e+004
3.493929e+003, 2.397141e+004
3.495858e+003, 2.392414e+004
3.497786e+003, 2.385834e+004
3.499715e+003, 2.378325e+004
3.501643e+003, 2.369881e+004
3.503572e+003, 2.363746e+004
3.505500e+003, 2.363712e+004
3.507429e+003, 2.360578e+004
3.509357e+003, 2.352949e+004
3.511286e+003, 2.346925e+004
3.513214e+003, 2.342690e+004
3.515143e+003, 2.341208e+004
3.517071e+003, 2.339968e+004
3.519000e+003, 2.335517e+004
3.520928e+003, 2.331014e+004
3.522856e+003, 2.327946e+004
3.524785e+003, 2.326163e+004
3.526713e+003, 2.325839e+004
3.528642e+003, 2.320925e+004
3.530570e+003, 2.313286e+004
3.532499e+003, 2.310203e+004
3.534427e+003, 2.308849e+004
3.536356e+003, 2.306591e+004
3.538284e+003, 2.303849e+004
3.540213e+003, 2.300674e+004
3.542141e+003, 2.297272e+004
3.544070e+003, 2.293853e+004
3.545998e+003, 2.291758e+004
3.547927e+003, 2.290676e+004
3.549855e+003, 2.288846e+004
3.551783e+003, 2.287698e+004
3.553712e+003, 2.289221e+004
3.555640e+003, 2.289981e+004
3.557569e+003, 2.288974e+004
3.559497e+003, 2.286085e+004
3.561426e+003, 2.281243e+004
3.563354e+003, 2.273327e+004
3.565283e+003, 2.263721e+004
3.567211e+003, 2.254695e+004
3.569140e+003, 2.246238e+004
3.571068e+003, 2.238838e+004
3.572997e+003, 2.231157e+004
3.574925e+003, 2.222702e+004
3.576854e+003, 2.215629e+004
3.578782e+003, 2.210103e+004
3.580710e+003, 2.207507e+004
3.582639e+003, 2.205551e+004
3.584567e+003, 2.200350e+004
3.586496e+003, 2.196171e+004
3.588424e+003, 2.195662e+004
3.590353e+003, 2.192296e+004
3.592281e+003, 2.184429e+004
3.594210e+003, 2.179775e+004
3.596138e+003, 2.176863e+004
3.598067e+003, 2.171732e+004
3.599995e+003, 2.166427e+004
3.601924e+003, 2.163017e+004
3.603852e+003, 2.159067e+004
3.605781e+003, 2.153057e+004
3.607709e+003, 2.149155e+004
3.609637e+003, 2.146962e+004
3.611566e+003, 2.143208e+004
3.613494e+003, 2.138897e+004
3.615423e+003, 2.135195e+004
3.617351e+003, 2.132057e+004
3.619280e+003, 2.130101e+004
3.621208e+003, 2.126374e+004
3.623137e+003, 2.120583e+004
3.625065e+003, 2.115819e+004
3.626994e+003, 2.112018e+004
3.628922e+003, 2.108882e+004
3.630851e+003, 2.106237e+004
3.632779e+003, 2.104049e+004
3.634708e+003, 2.101827e+004
3.636636e+003, 2.099594e+004
3.638564e+003, 2.095451e+004
3.640493e+003, 2.089882e+004
3.642421e+003, 2.085708e+004
3.644350e+003, 2.081762e+004
3.646278e+003, 2.076529e+004
3.648207e+003, 2.071760e+004
3.650135e+003, 2.068665e+004
3.652064e+003, 2.065190e+004
3.653992e+003, 2.061234e+004
3.655921e+003, 2.056352e+004
3.657849e+003, 2.051269e+004
3.659778e+003, 2.047549e+004
3.661706e+003, 2.043662e+004
3.663635e+003, 2.038271e+004
3.665563e+003, 2.034363e+004
3.667491e+003, 2.032029e+004
3.669420e+003, 2.030507e+004
3.671348e+003, 2.028459e+004
3.673277e+003, 2.022163e+004
3.675205e+003, 2.015994e+004
3.677134e+003, 2.013335e+004
3.679062e+003, 2.010289e+004
3.680991e+003, 2.006530e+004
3.682919e+003, 2.001710e+004
3.684848e+003, 1.996490e+004
3.686776e+003, 1.991771e+004
3.688705e+003, 1.988396e+004
3.690633e+003, 1.988002e+004
3.692562e+003, 1.986041e+004
3.694490e+003, 1.981469e+004
3.696418e+003, 1.977744e+004
3.698347e+003, 1.974408e+004
3.700275e+003, 1.969648e+004
3.702204e+003, 1.964573e+004
3.704132e+003, 1.960729e+004
3.706061e+003, 1.955414e+004
3.707989e+003, 1.947756e+004
3.709918e+003, 1.941406e+004
3.711846e+003, 1.936379e+004
3.713775e+003, 1.932588e+004
3.715703e+003, 1.928726e+004
3.717632e+003, 1.922776e+004
3.719560e+003, 1.919188e+004
3.721489e+003, 1.920100e+004
3.723417e+003, 1.916950e+004
3.725345e+003, 1.910909e+004
3.727274e+003, 1.906643e+004
3.729202e+003, 1.903197e+004
3.731131e+003, 1.899865e+004
3.733059e+003, 1.896459e+004
3.734988e+003, 1.892764e+004
3.736916e+003, 1.889215e+004
3.738845e+003, 1.885575e+004
3.740773e+003, 1.881225e+004
3.742702e+003, 1.876724e+004
3.744630e+003, 1.872969e+004
3.746559e+003, 1.868388e+004
3.748487e+003, 1.862252e+004
3.750416e+003, 1.858986e+004
3.752344e+003, 1.857385e+004
3.754272e+003, 1.853835e+004
3.756201e+003, 1.850282e+004
3.758129e+003, 1.848325e+004
3.760058e+003, 1.845338e+004
3.761986e+003, 1.840739e+004
3.763915e+003, 1.836673e+004
3.765843e+003, 1.832821e+004
3.767772e+003, 1.828140e+004
3.769700e+003, 1.823531e+004
3.771629e+003, 1.819498e+004
3.773557e+003, 1.815189e+004
3.775486e+003, 1.810409e+004
3.777414e+003, 1.806613e+004
3.779343e+003, 1.803210e+004
3.781271e+003, 1.799410e+004
3.783199e+003, 1.795523e+004
3.785128e+003, 1.791819e+004
3.787056e+003, 1.787421e+004
3.788985e+003, 1.782426e+004
3.790913e+003, 1.778721e+004
3.792842e+003, 1.775994e+004
3.794770e+003, 1.774798e+004
3.796699e+003, 1.772200e+004
3.798627e+003, 1.767048e+004
3.800556e+003, 1.763076e+004
3.802484e+003, 1.759926e+004
3.804413e+003, 1.754340e+004
3.806341e+003, 1.748538e+004
3.808270e+003, 1.744103e+004
3.810198e+003, 1.741143e+004
3.812126e+003, 1.739761e+004
3.814055e+003, 1.736584e+004
3.815983e+003, 1.732399e+004
3.817912e+003, 1.729032e+004
3.819840e+003, 1.726318e+004
3.821769e+003, 1.724750e+004
3.823697e+003, 1.721854e+004
3.825626e+003, 1.717592e+004
3.827554e+003, 1.716156e+004
3.829483e+003, 1.714673e+004
3.831411e+003, 1.708813e+004
3.833340e+003, 1.702828e+004
3.835268e+003, 1.697924e+004
3.837197e+003, 1.694648e+004
3.839125e+003, 1.692474e+004
3.841053e+003, 1.689340e+004
3.842982e+003, 1.685605e+004
3.844910e+003, 1.681186e+004
3.846839e+003, 1.677349e+004
3.848767e+003, 1.674104e+004
3.850696e+003, 1.669762e+004
3.852624e+003, 1.665298e+004
3.854553e+003, 1.663325e+004
3.856481e+003, 1.660960e+004
3.858410e+003, 1.656829e+004
3.860338e+003, 1.653359e+004
3.862267e+003, 1.650457e+004
3.864195e+003, 1.646338e+004
3.866124e+003, 1.642071e+004
3.868052e+003, 1.638062e+004
3.869980e+003, 1.634947e+004
3.871909e+003, 1.632850e+004
3.873837e+003, 1.629204e+004
3.875766e+003, 1.624946e+004
3.877694e+003, 1.622795e+004
3.879623e+003, 1.619134e+004
3.881551e+003, 1.612333e+004
3.883480e+003, 1.607505e+004
3.885408e+003, 1.604645e+004
3.887337e+003, 1.601179e+004
3.889265e+003, 1.597868e+004
3.891194e+003, 1.595746e+004
3.893122e+003, 1.592410e+004
3.895051e+003, 1.587464e+004
3.896979e+003, 1.585534e+004
3.898907e+003, 1.584146e+004
3.900836e+003, 1.579036e+004
3.902764e+003, 1.573414e+004
3.904693e+003, 1.568118e+004
3.906621e+003, 1.565664e+004
3.908550e+003, 1.564808e+004
3.910478e+003, 1.560724e+004
3.912407e+003, 1.555726e+004
3.914335e+003, 1.551051e+004
3.916264e+003, 1.546912e+004
3.918192e+003, 1.543310e+004
3.920121e+003, 1.539686e+004
3.922049e+003, 1.536182e+004
3.923978e+003, 1.532988e+004
3.925906e+003, 1.529800e+004
3.927834e+003, 1.526448e+004
3.929763e+003, 1.523463e+004
3.931691e+003, 1.520531e+004
3.933620e+003, 1.517017e+004
3.935548e+003, 1.513425e+004
3.937477e+003, 1.509884e+004
3.939405e+003, 1.506665e+004
3.941334e+003, 1.503809e+004
3.943262e+003, 1.502642e+004
3.945191e+003, 1.500440e+004
3.947119e+003, 1.494416e+004
3.949048e+003, 1.489063e+004
3.950976e+003, 1.484998e+004
3.952905e+003, 1.481718e+004
3.954833e+003, 1.478958e+004
3.956761e+003, 1.476441e+004
3.958690e+003, 1.473928e+004
3.960618e+003, 1.471298e+004
3.962547e+003, 1.468482e+004
3.964475e+003, 1.465435e+004
3.966404e+003, 1.461908e+004
3.968332e+003, 1.458675e+004
3.970261e+003, 1.456539e+004
3.972189e+003, 1.452547e+004
3.974118e+003, 1.447685e+004
3.976046e+003, 1.444914e+004
3.977975e+003, 1.441714e+004
3.979903e+003, 1.436544e+004
3.981832e+003, 1.432113e+004
3.983760e+003, 1.428815e+004
3.985688e+003, 1.429073e+004
3.987617e+003, 1.427902e+004
3.989545e+003, 1.420521e+004
3.991474e+003, 1.415522e+004
3.993402e+003, 1.413697e+004
3.995331e+003, 1.411753e+004
3.997259e+003, 1.408959e+004
3.999188e+003, 1.403777e+004
4.001116e+003, 1.399789e+004
4.003045e+003, 1.397383e+004
4.004973e+003, 1.394791e+004
4.006902e+003, 1.391538e+004
4.008830e+003, 1.386509e+004
4.010759e+003, 1.382371e+004
4.012687e+003, 1.379786e+004
4.014615e+003, 1.377053e+004
4.016544e+003, 1.373899e+004
4.018472e+003, 1.369603e+004
4.020401e+003, 1.365540e+004
4.022329e+003, 1.362072e+004
4.024258e+003, 1.360528e+004
4.026186e+003, 1.359527e+004
4.028115e+003, 1.356502e+004
4.030043e+003, 1.352609e+004
4.031972e+003, 1.348077e+004
4.033900e+003, 1.345231e+004
4.035829e+003, 1.343359e+004
4.037757e+003, 1.340965e+004
4.039686e+003, 1.337620e+004
4.041614e+003, 1.332809e+004
4.043542e+003, 1.328897e+004
4.045471e+003, 1.325701e+004
4.047399e+003, 1.322334e+004
4.049328e+003, 1.319284e+004
4.051256e+003, 1.317832e+004
4.053185e+003, 1.312775e+004
4.055113e+003, 1.306147e+004
4.057042e+003, 1.304927e+004
4.058970e+003, 1.303622e+004
4.060899e+003, 1.299086e+004
4.062827e+003, 1.296698e+004
4.064756e+003, 1.295713e+004
4.066684e+003, 1.291767e+004
4.068613e+003, 1.287468e+004
4.070541e+003, 1.284487e+004
4.072469e+003, 1.280125e+004
4.074398e+003, 1.274919e+004
4.076326e+003, 1.271870e+004
4.078255e+003, 1.268667e+004
4.080183e+003, 1.263216e+004
4.082112e+003, 1.259495e+004
4.084040e+003, 1.257122e+004
4.085969e+003, 1.253847e+004
4.087897e+003, 1.251107e+004
4.089826e+003, 1.249845e+004
4.091754e+003, 1.247702e+004
4.093683e+003, 1.244545e+004
4.095611e+003, 1.240357e+004
4.097540e+003, 1.236451e+004
4.099468e+003, 1.233705e+004
4.101396e+003, 1.230402e+004
4.103325e+003, 1.226556e+004
4.105253e+003, 1.221775e+004
4.107182e+003, 1.217822e+004
4.109110e+003, 1.215810e+004
4.111039e+003, 1.212935e+004
4.112967e+003, 1.209512e+004
4.114896e+003, 1.207294e+004
4.116824e+003, 1.204512e+004
4.118752e+003, 1.199871e+004
4.120681e+003, 1.197090e+004
4.122609e+003, 1.195202e+004
4.124538e+003, 1.192093e+004
4.126466e+003, 1.188446e+004
4.128395e+003, 1.184371e+004
4.130323e+003, 1.181294e+004
4.132252e+003, 1.178666e+004
4.134180e+003, 1.175436e+004
4.136109e+003, 1.172377e+004
4.138037e+003, 1.169720e+004
4.139966e+003, 1.166235e+004
4.141894e+003, 1.162945e+004
4.143823e+003, 1.161385e+004
4.145751e+003, 1.160176e+004
4.147680e+003, 1.158945e+004
4.149608e+003, 1.156973e+004
4.151537e+003, 1.154234e+004
4.153465e+003, 1.150175e+004
4.155394e+003, 1.146790e+004
4.157322e+003, 1.144314e+004
4.159250e+003, 1.141055e+004
4.161179e+003, 1.137242e+004
4.163107e+003, 1.132673e+004
4.165036e+003, 1.128880e+004
4.166964e+003, 1.125931e+004
4.168893e+003, 1.123412e+004
4.170821e+003, 1.120576e+004
4.172750e+003, 1.116616e+004
4.174678e+003, 1.113560e+004
4.176606e+003, 1.111322e+004
4.178535e+003, 1.109201e+004
4.180463e+003, 1.107487e+004
4.182392e+003, 1.106298e+004
4.184320e+003, 1.104164e+004
4.186249e+003, 1.101248e+004
4.188177e+003, 1.097839e+004
4.190106e+003, 1.094685e+004
4.192034e+003, 1.091995e+004
4.193963e+003, 1.088530e+004
4.195891e+003, 1.085479e+004
4.197820e+003, 1.085322e+004
4.199748e+003, 1.082244e+004
4.201677e+003, 1.075804e+004
4.203605e+003, 1.072466e+004
4.205534e+003, 1.070558e+004
4.207462e+003, 1.069052e+004
4.209391e+003, 1.067093e+004
4.211319e+003, 1.064585e+004
4.213248e+003, 1.061352e+004
4.215176e+003, 1.058812e+004
4.217104e+003, 1.058247e+004
4.219033e+003, 1.055051e+004
4.220961e+003, 1.050547e+004
4.222890e+003, 1.048367e+004
4.224818e+003, 1.044984e+004
4.226747e+003, 1.038986e+004
4.228675e+003, 1.036288e+004
4.230604e+003, 1.034841e+004
4.232532e+003, 1.031576e+004
4.234460e+003, 1.030647e+004
4.236389e+003, 1.031989e+004
4.238317e+003, 1.029635e+004
4.240246e+003, 1.026453e+004
4.242174e+003, 1.024371e+004
4.244103e+003, 1.021072e+004
##END=



