##NAMES=Roeblingite
##RRUFFID=R140328
##IDEAL CHEMISTRY=Ca_6_Mn^2+^Pb_2_(Si_3_O_9_)_2_(SO_4_)_2_(OH)_2_·4H_2_O
##LOCALITY=Långban, Varmland, Sweden
##OWNER=RRUFF
##SOURCE=Benjamin N. Schumer
##DESCRIPTION=Tabular, colorless crystals
##STATUS=The identification of this mineral has been confirmed by single-crystal X-ray diffraction
##URL=https://www.rruff.net/odr/rruff_sample/R140328
##DIFFRACTION SAMPLE DESCRIPTION=Single crystal, powder profile is calculated
##CELL PARAMETERS=a: 13.182 b: 8.284 c: 13.079 alpha: 90 beta: 105.29 gamma: 90 volume: 1377.7 crystal system: monoclinic
##FILETYPE=Raman RAW
##RAMAN WAVELENGTH=780

7.826855e+001, 1.212341e+003
8.019702e+001, 1.189409e+003
8.212549e+001, 1.181013e+003
8.405396e+001, 1.188907e+003
8.598242e+001, 1.209693e+003
8.791089e+001, 1.239018e+003
8.983936e+001, 1.276190e+003
9.176782e+001, 1.322107e+003
9.369629e+001, 1.378570e+003
9.562476e+001, 1.327879e+003
9.755322e+001, 1.276460e+003
9.948169e+001, 1.247526e+003
1.014102e+002, 1.243923e+003
1.033386e+002, 1.260974e+003
1.052671e+002, 1.293591e+003
1.071956e+002, 1.355915e+003
1.091240e+002, 1.412130e+003
1.110525e+002, 1.453941e+003
1.129810e+002, 1.485162e+003
1.149094e+002, 1.507304e+003
1.168379e+002, 1.520042e+003
1.187664e+002, 1.540112e+003
1.206948e+002, 1.587706e+003
1.226233e+002, 1.618556e+003
1.245518e+002, 1.623445e+003
1.264802e+002, 1.602603e+003
1.284087e+002, 1.548536e+003
1.303372e+002, 1.461298e+003
1.322656e+002, 1.397433e+003
1.341941e+002, 1.363418e+003
1.361226e+002, 1.352424e+003
1.380510e+002, 1.373975e+003
1.399795e+002, 1.411589e+003
1.419080e+002, 1.454920e+003
1.438364e+002, 1.503180e+003
1.457649e+002, 1.530905e+003
1.476934e+002, 1.539920e+003
1.496218e+002, 1.522795e+003
1.515503e+002, 1.464957e+003
1.534788e+002, 1.390066e+003
1.554072e+002, 1.313432e+003
1.573357e+002, 1.235708e+003
1.592642e+002, 1.163365e+003
1.611926e+002, 1.099386e+003
1.631211e+002, 1.036828e+003
1.650496e+002, 9.688449e+002
1.669780e+002, 9.087746e+002
1.689065e+002, 8.629680e+002
1.708350e+002, 8.308461e+002
1.727634e+002, 8.126312e+002
1.746919e+002, 8.141520e+002
1.766204e+002, 8.207818e+002
1.785488e+002, 8.352254e+002
1.804773e+002, 8.514986e+002
1.824058e+002, 8.702490e+002
1.843342e+002, 8.874244e+002
1.862627e+002, 8.961651e+002
1.881912e+002, 8.962318e+002
1.901196e+002, 8.853972e+002
1.920481e+002, 8.582714e+002
1.939766e+002, 8.301520e+002
1.959050e+002, 8.032317e+002
1.978335e+002, 7.812209e+002
1.997620e+002, 7.675530e+002
2.016904e+002, 7.624463e+002
2.036189e+002, 7.680480e+002
2.055474e+002, 7.868038e+002
2.074758e+002, 8.076252e+002
2.094043e+002, 8.326295e+002
2.113328e+002, 8.529518e+002
2.132612e+002, 8.614360e+002
2.151897e+002, 8.607135e+002
2.171182e+002, 8.589190e+002
2.190466e+002, 8.546342e+002
2.209751e+002, 8.579950e+002
2.229036e+002, 8.715253e+002
2.248320e+002, 8.915142e+002
2.267605e+002, 9.185236e+002
2.286890e+002, 9.488552e+002
2.306174e+002, 9.769436e+002
2.325459e+002, 1.002908e+003
2.344744e+002, 1.032501e+003
2.364028e+002, 1.065752e+003
2.383313e+002, 1.102734e+003
2.402598e+002, 1.149980e+003
2.421882e+002, 1.194597e+003
2.441167e+002, 1.232563e+003
2.460452e+002, 1.260809e+003
2.479736e+002, 1.267961e+003
2.499021e+002, 1.253669e+003
2.518306e+002, 1.236366e+003
2.537590e+002, 1.211380e+003
2.556875e+002, 1.197375e+003
2.576160e+002, 1.200066e+003
2.595444e+002, 1.216862e+003
2.614729e+002, 1.248052e+003
2.634014e+002, 1.291729e+003
2.653298e+002, 1.339298e+003
2.672583e+002, 1.391539e+003
2.691868e+002, 1.443385e+003
2.711152e+002, 1.498956e+003
2.730437e+002, 1.547895e+003
2.749722e+002, 1.584307e+003
2.769006e+002, 1.610842e+003
2.788291e+002, 1.628983e+003
2.807576e+002, 1.639943e+003
2.826860e+002, 1.657923e+003
2.846145e+002, 1.684933e+003
2.865430e+002, 1.719569e+003
2.884714e+002, 1.769032e+003
2.903999e+002, 1.817959e+003
2.923284e+002, 1.866844e+003
2.942568e+002, 1.902831e+003
2.961853e+002, 1.904025e+003
2.981138e+002, 1.869271e+003
3.000422e+002, 1.806051e+003
3.019707e+002, 1.696947e+003
3.038992e+002, 1.584042e+003
3.058276e+002, 1.463909e+003
3.077561e+002, 1.353204e+003
3.096846e+002, 1.263282e+003
3.116130e+002, 1.194028e+003
3.135415e+002, 1.150213e+003
3.154700e+002, 1.135219e+003
3.173984e+002, 1.133786e+003
3.193269e+002, 1.152270e+003
3.212554e+002, 1.172202e+003
3.231838e+002, 1.195090e+003
3.251123e+002, 1.211674e+003
3.270408e+002, 1.212640e+003
3.289692e+002, 1.201816e+003
3.308977e+002, 1.190089e+003
3.328262e+002, 1.176512e+003
3.347546e+002, 1.165349e+003
3.366831e+002, 1.160008e+003
3.386116e+002, 1.152194e+003
3.405400e+002, 1.133717e+003
3.424685e+002, 1.117738e+003
3.443970e+002, 1.111676e+003
3.463254e+002, 1.115645e+003
3.482539e+002, 1.131043e+003
3.501824e+002, 1.161164e+003
3.521108e+002, 1.193139e+003
3.540393e+002, 1.225735e+003
3.559678e+002, 1.262189e+003
3.578962e+002, 1.298525e+003
3.598247e+002, 1.345406e+003
3.617532e+002, 1.405782e+003
3.636816e+002, 1.481958e+003
3.656101e+002, 1.580323e+003
3.675386e+002, 1.703503e+003
3.694670e+002, 1.840180e+003
3.713955e+002, 1.997058e+003
3.733240e+002, 2.148579e+003
3.752524e+002, 2.287510e+003
3.771809e+002, 2.419192e+003
3.791094e+002, 2.558636e+003
3.810378e+002, 2.686711e+003
3.829663e+002, 2.782258e+003
3.848948e+002, 2.843063e+003
3.868232e+002, 2.824887e+003
3.887517e+002, 2.716059e+003
3.906802e+002, 2.592881e+003
3.926086e+002, 2.461318e+003
3.945371e+002, 2.335174e+003
3.964656e+002, 2.222736e+003
3.983940e+002, 2.115641e+003
4.003225e+002, 2.000775e+003
4.022510e+002, 1.883610e+003
4.041794e+002, 1.784315e+003
4.061079e+002, 1.700777e+003
4.080364e+002, 1.656782e+003
4.099648e+002, 1.656812e+003
4.118933e+002, 1.694069e+003
4.138218e+002, 1.770375e+003
4.157502e+002, 1.877419e+003
4.176787e+002, 2.020889e+003
4.196072e+002, 2.187888e+003
4.215356e+002, 2.376777e+003
4.234641e+002, 2.575169e+003
4.253926e+002, 2.712167e+003
4.273210e+002, 2.788719e+003
4.292495e+002, 2.776319e+003
4.311780e+002, 2.627255e+003
4.331064e+002, 2.443152e+003
4.350349e+002, 2.226921e+003
4.369634e+002, 2.014472e+003
4.388918e+002, 1.827829e+003
4.408203e+002, 1.672200e+003
4.427488e+002, 1.556310e+003
4.446772e+002, 1.478393e+003
4.466057e+002, 1.422170e+003
4.485342e+002, 1.386963e+003
4.504626e+002, 1.371538e+003
4.523911e+002, 1.375930e+003
4.543196e+002, 1.397718e+003
4.562480e+002, 1.441409e+003
4.581765e+002, 1.497667e+003
4.601050e+002, 1.565811e+003
4.620334e+002, 1.637020e+003
4.639619e+002, 1.696827e+003
4.658904e+002, 1.745256e+003
4.678188e+002, 1.764529e+003
4.697473e+002, 1.755561e+003
4.716758e+002, 1.709345e+003
4.736042e+002, 1.608190e+003
4.755327e+002, 1.492960e+003
4.774612e+002, 1.367168e+003
4.793896e+002, 1.246079e+003
4.813181e+002, 1.141774e+003
4.832466e+002, 1.053337e+003
4.851750e+002, 9.805573e+002
4.871035e+002, 9.235344e+002
4.890320e+002, 8.820800e+002
4.909604e+002, 8.585867e+002
4.928889e+002, 8.483270e+002
4.948174e+002, 8.525447e+002
4.967458e+002, 8.682816e+002
4.986743e+002, 8.964239e+002
5.006028e+002, 9.341096e+002
5.025313e+002, 9.807432e+002
5.044597e+002, 1.034134e+003
5.063882e+002, 1.094086e+003
5.083167e+002, 1.160387e+003
5.102451e+002, 1.214974e+003
5.121736e+002, 1.264800e+003
5.141021e+002, 1.282696e+003
5.160305e+002, 1.263275e+003
5.179590e+002, 1.221504e+003
5.198875e+002, 1.148073e+003
5.218159e+002, 1.072268e+003
5.237444e+002, 1.007713e+003
5.256729e+002, 9.531442e+002
5.276013e+002, 9.079255e+002
5.295298e+002, 8.719199e+002
5.314583e+002, 8.448731e+002
5.333867e+002, 8.276548e+002
5.353152e+002, 8.156828e+002
5.372437e+002, 8.098813e+002
5.391721e+002, 8.053958e+002
5.411006e+002, 8.009352e+002
5.430291e+002, 7.983075e+002
5.449575e+002, 7.996007e+002
5.468860e+002, 8.015602e+002
5.488145e+002, 8.017526e+002
5.507429e+002, 8.017089e+002
5.526714e+002, 8.039821e+002
5.545999e+002, 8.081783e+002
5.565283e+002, 8.119234e+002
5.584568e+002, 8.152312e+002
5.603853e+002, 8.190490e+002
5.623137e+002, 8.235689e+002
5.642422e+002, 8.281549e+002
5.661707e+002, 8.328170e+002
5.680991e+002, 8.372258e+002
5.700276e+002, 8.416021e+002
5.719561e+002, 8.453424e+002
5.738845e+002, 8.489233e+002
5.758130e+002, 8.510047e+002
5.777415e+002, 8.487420e+002
5.796699e+002, 8.432793e+002
5.815984e+002, 8.390333e+002
5.835269e+002, 8.358992e+002
5.854553e+002, 8.322770e+002
5.873838e+002, 8.272755e+002
5.893123e+002, 8.255917e+002
5.912407e+002, 8.275192e+002
5.931692e+002, 8.343901e+002
5.950977e+002, 8.473954e+002
5.970261e+002, 8.641803e+002
5.989546e+002, 8.856404e+002
6.008831e+002, 9.084094e+002
6.028115e+002, 9.311158e+002
6.047400e+002, 9.513416e+002
6.066685e+002, 9.659468e+002
6.085969e+002, 9.743633e+002
6.105254e+002, 9.723142e+002
6.124539e+002, 9.583737e+002
6.143823e+002, 9.449496e+002
6.163108e+002, 9.329288e+002
6.182393e+002, 9.225452e+002
6.201677e+002, 9.078797e+002
6.220962e+002, 9.033528e+002
6.240247e+002, 9.118880e+002
6.259531e+002, 9.338707e+002
6.278816e+002, 9.759235e+002
6.298101e+002, 1.026422e+003
6.317385e+002, 1.079604e+003
6.336670e+002, 1.128563e+003
6.355955e+002, 1.157398e+003
6.375239e+002, 1.167104e+003
6.394524e+002, 1.171005e+003
6.413809e+002, 1.163871e+003
6.433093e+002, 1.171730e+003
6.452378e+002, 1.188653e+003
6.471663e+002, 1.231768e+003
6.490947e+002, 1.302353e+003
6.510232e+002, 1.399198e+003
6.529517e+002, 1.526119e+003
6.548801e+002, 1.673631e+003
6.568086e+002, 1.845625e+003
6.587371e+002, 2.026611e+003
6.606655e+002, 2.224475e+003
6.625940e+002, 2.409397e+003
6.645225e+002, 2.549038e+003
6.664509e+002, 2.632523e+003
6.683794e+002, 2.593091e+003
6.703079e+002, 2.421788e+003
6.722363e+002, 2.208448e+003
6.741648e+002, 1.936606e+003
6.760933e+002, 1.689777e+003
6.780217e+002, 1.470142e+003
6.799502e+002, 1.284196e+003
6.818787e+002, 1.135490e+003
6.838071e+002, 1.017181e+003
6.857356e+002, 9.323090e+002
6.876641e+002, 8.696598e+002
6.895925e+002, 8.274439e+002
6.915210e+002, 7.981954e+002
6.934495e+002, 7.778887e+002
6.953779e+002, 7.642440e+002
6.973064e+002, 7.540447e+002
6.992349e+002, 7.471658e+002
7.011633e+002, 7.437007e+002
7.030918e+002, 7.436509e+002
7.050203e+002, 7.437352e+002
7.069487e+002, 7.439174e+002
7.088772e+002, 7.458697e+002
7.108057e+002, 7.502972e+002
7.127341e+002, 7.535068e+002
7.146626e+002, 7.541342e+002
7.165911e+002, 7.549283e+002
7.185195e+002, 7.568429e+002
7.204480e+002, 7.589125e+002
7.223765e+002, 7.610596e+002
7.243049e+002, 7.628662e+002
7.262334e+002, 7.641370e+002
7.281619e+002, 7.649144e+002
7.300903e+002, 7.645339e+002
7.320188e+002, 7.641663e+002
7.339473e+002, 7.650785e+002
7.358757e+002, 7.679052e+002
7.378042e+002, 7.739818e+002
7.397327e+002, 7.833423e+002
7.416611e+002, 7.971316e+002
7.435896e+002, 8.153177e+002
7.455181e+002, 8.319386e+002
7.474465e+002, 8.464937e+002
7.493750e+002, 8.591268e+002
7.513035e+002, 8.720276e+002
7.532319e+002, 8.779364e+002
7.551604e+002, 8.756945e+002
7.570889e+002, 8.665954e+002
7.590173e+002, 8.498414e+002
7.609458e+002, 8.278057e+002
7.628743e+002, 7.988174e+002
7.648027e+002, 7.682630e+002
7.667312e+002, 7.373979e+002
7.686597e+002, 7.092553e+002
7.705881e+002, 6.866522e+002
7.725166e+002, 6.689960e+002
7.744451e+002, 6.558371e+002
7.763735e+002, 6.465405e+002
7.783020e+002, 6.403410e+002
7.802305e+002, 6.367594e+002
7.821589e+002, 6.335793e+002
7.840874e+002, 6.307254e+002
7.860159e+002, 6.282325e+002
7.879443e+002, 6.259514e+002
7.898728e+002, 6.245101e+002
7.918013e+002, 6.243417e+002
7.937297e+002, 6.242365e+002
7.956582e+002, 6.241120e+002
7.975867e+002, 6.243818e+002
7.995151e+002, 6.251766e+002
8.014436e+002, 6.263658e+002
8.033721e+002, 6.280303e+002
8.053005e+002, 6.299031e+002
8.072290e+002, 6.318898e+002
8.091575e+002, 6.339576e+002
8.110859e+002, 6.360565e+002
8.130144e+002, 6.381822e+002
8.149429e+002, 6.398603e+002
8.168713e+002, 6.420013e+002
8.187998e+002, 6.459874e+002
8.207283e+002, 6.506161e+002
8.226567e+002, 6.540559e+002
8.245852e+002, 6.568971e+002
8.265137e+002, 6.603918e+002
8.284421e+002, 6.644620e+002
8.303706e+002, 6.687279e+002
8.322991e+002, 6.732234e+002
8.342275e+002, 6.780375e+002
8.361560e+002, 6.831674e+002
8.380845e+002, 6.894236e+002
8.400129e+002, 6.968451e+002
8.419414e+002, 7.043493e+002
8.438699e+002, 7.118938e+002
8.457983e+002, 7.191599e+002
8.477268e+002, 7.260541e+002
8.496553e+002, 7.331500e+002
8.515837e+002, 7.408154e+002
8.535122e+002, 7.479112e+002
8.554407e+002, 7.546867e+002
8.573691e+002, 7.595152e+002
8.592976e+002, 7.616317e+002
8.612261e+002, 7.620633e+002
8.631545e+002, 7.605750e+002
8.650830e+002, 7.582518e+002
8.670115e+002, 7.551505e+002
8.689399e+002, 7.518352e+002
8.708684e+002, 7.481994e+002
8.727969e+002, 7.450774e+002
8.747253e+002, 7.420438e+002
8.766538e+002, 7.410363e+002
8.785823e+002, 7.439436e+002
8.805107e+002, 7.498603e+002
8.824392e+002, 7.584299e+002
8.843677e+002, 7.686912e+002
8.862961e+002, 7.794633e+002
8.882246e+002, 7.907001e+002
8.901531e+002, 8.026387e+002
8.920815e+002, 8.148777e+002
8.940100e+002, 8.276159e+002
8.959385e+002, 8.396412e+002
8.978669e+002, 8.480928e+002
8.997954e+002, 8.525474e+002
9.017239e+002, 8.505394e+002
9.036523e+002, 8.426539e+002
9.055808e+002, 8.342740e+002
9.075093e+002, 8.255724e+002
9.094377e+002, 8.181062e+002
9.113662e+002, 8.123327e+002
9.132947e+002, 8.036390e+002
9.152231e+002, 7.912800e+002
9.171516e+002, 7.785380e+002
9.190801e+002, 7.642744e+002
9.210085e+002, 7.532863e+002
9.229370e+002, 7.466149e+002
9.248655e+002, 7.414705e+002
9.267939e+002, 7.375578e+002
9.287224e+002, 7.356605e+002
9.306509e+002, 7.348489e+002
9.325793e+002, 7.379717e+002
9.345078e+002, 7.438010e+002
9.364363e+002, 7.570665e+002
9.383647e+002, 7.790137e+002
9.402932e+002, 8.078837e+002
9.422217e+002, 8.455910e+002
9.441501e+002, 8.852405e+002
9.460786e+002, 9.286713e+002
9.480071e+002, 9.644370e+002
9.499355e+002, 9.856586e+002
9.518640e+002, 1.003704e+003
9.537925e+002, 1.018921e+003
9.557209e+002, 1.040540e+003
9.576494e+002, 1.068043e+003
9.595779e+002, 1.111597e+003
9.615063e+002, 1.174348e+003
9.634348e+002, 1.257786e+003
9.653633e+002, 1.360169e+003
9.672917e+002, 1.487508e+003
9.692202e+002, 1.654264e+003
9.711487e+002, 1.832360e+003
9.730771e+002, 2.046744e+003
9.750056e+002, 2.212417e+003
9.769341e+002, 2.266016e+003
9.788625e+002, 2.252876e+003
9.807910e+002, 2.161148e+003
9.827195e+002, 2.072708e+003
9.846479e+002, 2.034140e+003
9.865764e+002, 2.056136e+003
9.885049e+002, 2.152245e+003
9.904333e+002, 2.309648e+003
9.923618e+002, 2.534015e+003
9.942903e+002, 2.793844e+003
9.962188e+002, 3.070119e+003
9.981472e+002, 3.347825e+003
1.000076e+003, 3.670603e+003
1.002004e+003, 3.924382e+003
1.003933e+003, 4.012837e+003
1.005861e+003, 3.918333e+003
1.007790e+003, 3.537980e+003
1.009718e+003, 3.038481e+003
1.011646e+003, 2.575310e+003
1.013575e+003, 2.171935e+003
1.015503e+003, 1.857329e+003
1.017432e+003, 1.622018e+003
1.019360e+003, 1.461246e+003
1.021289e+003, 1.365106e+003
1.023217e+003, 1.337762e+003
1.025146e+003, 1.351667e+003
1.027074e+003, 1.379851e+003
1.029003e+003, 1.416994e+003
1.030931e+003, 1.462133e+003
1.032860e+003, 1.506310e+003
1.034788e+003, 1.542281e+003
1.036717e+003, 1.565669e+003
1.038645e+003, 1.564113e+003
1.040573e+003, 1.552254e+003
1.042502e+003, 1.544758e+003
1.044430e+003, 1.542546e+003
1.046359e+003, 1.550875e+003
1.048287e+003, 1.561517e+003
1.050216e+003, 1.575644e+003
1.052144e+003, 1.575330e+003
1.054073e+003, 1.538016e+003
1.056001e+003, 1.473611e+003
1.057930e+003, 1.380070e+003
1.059858e+003, 1.279815e+003
1.061787e+003, 1.193841e+003
1.063715e+003, 1.121156e+003
1.065644e+003, 1.060183e+003
1.067572e+003, 1.011994e+003
1.069500e+003, 9.788513e+002
1.071429e+003, 9.581994e+002
1.073357e+003, 9.491624e+002
1.075286e+003, 9.495057e+002
1.077214e+003, 9.582830e+002
1.079143e+003, 9.739905e+002
1.081071e+003, 1.000630e+003
1.083000e+003, 1.027167e+003
1.084928e+003, 1.048235e+003
1.086857e+003, 1.059861e+003
1.088785e+003, 1.056562e+003
1.090714e+003, 1.045450e+003
1.092642e+003, 1.029544e+003
1.094571e+003, 1.010753e+003
1.096499e+003, 9.881565e+002
1.098427e+003, 9.661664e+002
1.100356e+003, 9.469200e+002
1.102284e+003, 9.298767e+002
1.104213e+003, 9.145632e+002
1.106141e+003, 9.016500e+002
1.108070e+003, 8.929916e+002
1.109998e+003, 8.845310e+002
1.111927e+003, 8.746365e+002
1.113855e+003, 8.644116e+002
1.115784e+003, 8.533738e+002
1.117712e+003, 8.436448e+002
1.119641e+003, 8.358392e+002
1.121569e+003, 8.295737e+002
1.123498e+003, 8.250814e+002
1.125426e+003, 8.213203e+002
1.127354e+003, 8.172552e+002
1.129283e+003, 8.154763e+002
1.131211e+003, 8.165099e+002
1.133140e+003, 8.198965e+002
1.135068e+003, 8.258348e+002
1.136997e+003, 8.334743e+002
1.138925e+003, 8.431790e+002
1.140854e+003, 8.531308e+002
1.142782e+003, 8.632725e+002
1.144711e+003, 8.727747e+002
1.146639e+003, 8.809208e+002
1.148568e+003, 8.921654e+002
1.150496e+003, 9.069957e+002
1.152425e+003, 9.235558e+002
1.154353e+003, 9.416389e+002
1.156281e+003, 9.636719e+002
1.158210e+003, 9.896960e+002
1.160138e+003, 1.013497e+003
1.162067e+003, 1.034718e+003
1.163995e+003, 1.052380e+003
1.165924e+003, 1.065713e+003
1.167852e+003, 1.069929e+003
1.169781e+003, 1.064933e+003
1.171709e+003, 1.048696e+003
1.173638e+003, 1.023887e+003
1.175566e+003, 9.959710e+002
1.177495e+003, 9.674197e+002
1.179423e+003, 9.433370e+002
1.181352e+003, 9.225355e+002
1.183280e+003, 9.023634e+002
1.185208e+003, 8.850297e+002
1.187137e+003, 8.735657e+002
1.189065e+003, 8.659531e+002
1.190994e+003, 8.613520e+002
1.192922e+003, 8.583196e+002
1.194851e+003, 8.561624e+002
1.196779e+003, 8.546248e+002
1.198708e+003, 8.537155e+002
1.200636e+003, 8.530798e+002
1.202565e+003, 8.525920e+002
1.204493e+003, 8.523395e+002
1.206422e+003, 8.521245e+002
1.208350e+003, 8.532236e+002
1.210279e+003, 8.567210e+002
1.212207e+003, 8.593731e+002
1.214135e+003, 8.602076e+002
1.216064e+003, 8.610779e+002
1.217992e+003, 8.622238e+002
1.219921e+003, 8.637813e+002
1.221849e+003, 8.657414e+002
1.223778e+003, 8.670742e+002
1.225706e+003, 8.676592e+002
1.227635e+003, 8.690365e+002
1.229563e+003, 8.712123e+002
1.231492e+003, 8.732869e+002
1.233420e+003, 8.754467e+002
1.235349e+003, 8.793544e+002
1.237277e+003, 8.838443e+002
1.239206e+003, 8.845776e+002
1.241134e+003, 8.838571e+002
1.243063e+003, 8.864405e+002
1.244991e+003, 8.902077e+002
1.246919e+003, 8.922843e+002
1.248848e+003, 8.938465e+002
1.250776e+003, 8.961620e+002
1.252705e+003, 8.984178e+002
1.254633e+003, 9.000020e+002
1.256562e+003, 9.014124e+002
1.258490e+003, 9.024032e+002
1.260419e+003, 9.041904e+002
1.262347e+003, 9.079163e+002
1.264276e+003, 9.111889e+002
1.266204e+003, 9.129733e+002
1.268133e+003, 9.153821e+002
1.270061e+003, 9.188314e+002
1.271990e+003, 9.219764e+002
1.273918e+003, 9.246594e+002
1.275846e+003, 9.275414e+002
1.277775e+003, 9.306338e+002
1.279703e+003, 9.313514e+002
1.281632e+003, 9.303520e+002
1.283560e+003, 9.325746e+002
1.285489e+003, 9.368439e+002
1.287417e+003, 9.394086e+002
1.289346e+003, 9.411996e+002
1.291274e+003, 9.437245e+002
1.293203e+003, 9.465506e+002
1.295131e+003, 9.492964e+002
1.297060e+003, 9.519084e+002
1.298988e+003, 9.543702e+002
1.300917e+003, 9.565579e+002
1.302845e+003, 9.584468e+002
1.304773e+003, 9.598680e+002
1.306702e+003, 9.602798e+002
1.308630e+003, 9.617349e+002
1.310559e+003, 9.651390e+002
1.312487e+003, 9.680742e+002
1.314416e+003, 9.701253e+002
1.316344e+003, 9.721674e+002
1.318273e+003, 9.741478e+002
1.320201e+003, 9.785524e+002
1.322130e+003, 9.847232e+002
1.324058e+003, 9.870468e+002
1.325987e+003, 9.871242e+002
1.327915e+003, 9.895124e+002
1.329844e+003, 9.930255e+002
1.331772e+003, 9.961352e+002
1.333700e+003, 9.988478e+002
1.335629e+003, 1.000407e+003
1.337557e+003, 1.002676e+003
1.339486e+003, 1.008121e+003
1.341414e+003, 1.012005e+003
1.343343e+003, 1.011862e+003
1.345271e+003, 1.012318e+003
1.347200e+003, 1.014427e+003
1.349128e+003, 1.016932e+003
1.351057e+003, 1.019697e+003
1.352985e+003, 1.021927e+003
1.354914e+003, 1.023695e+003
1.356842e+003, 1.026264e+003
1.358771e+003, 1.029219e+003
1.360699e+003, 1.030476e+003
1.362627e+003, 1.030852e+003
1.364556e+003, 1.031722e+003
1.366484e+003, 1.032848e+003
1.368413e+003, 1.033571e+003
1.370341e+003, 1.034992e+003
1.372270e+003, 1.038765e+003
1.374198e+003, 1.042112e+003
1.376127e+003, 1.042470e+003
1.378055e+003, 1.045044e+003
1.379984e+003, 1.052067e+003
1.381912e+003, 1.057685e+003
1.383841e+003, 1.061336e+003
1.385769e+003, 1.064516e+003
1.387698e+003, 1.067320e+003
1.389626e+003, 1.070906e+003
1.391554e+003, 1.074697e+003
1.393483e+003, 1.076606e+003
1.395411e+003, 1.077752e+003
1.397340e+003, 1.079717e+003
1.399268e+003, 1.081994e+003
1.401197e+003, 1.084074e+003
1.403125e+003, 1.086592e+003
1.405054e+003, 1.090467e+003
1.406982e+003, 1.093723e+003
1.408911e+003, 1.095169e+003
1.410839e+003, 1.097818e+003
1.412768e+003, 1.102308e+003
1.414696e+003, 1.106995e+003
1.416625e+003, 1.111787e+003
1.418553e+003, 1.115301e+003
1.420481e+003, 1.117420e+003
1.422410e+003, 1.116457e+003
1.424338e+003, 1.115395e+003
1.426267e+003, 1.119969e+003
1.428195e+003, 1.125030e+003
1.430124e+003, 1.126072e+003
1.432052e+003, 1.128220e+003
1.433981e+003, 1.134610e+003
1.435909e+003, 1.138532e+003
1.437838e+003, 1.137780e+003
1.439766e+003, 1.139062e+003
1.441695e+003, 1.143203e+003
1.443623e+003, 1.146403e+003
1.445552e+003, 1.148726e+003
1.447480e+003, 1.150611e+003
1.449408e+003, 1.152684e+003
1.451337e+003, 1.156906e+003
1.453265e+003, 1.160975e+003
1.455194e+003, 1.161975e+003
1.457122e+003, 1.162919e+003
1.459051e+003, 1.165355e+003
1.460979e+003, 1.168141e+003
1.462908e+003, 1.171342e+003
1.464836e+003, 1.173870e+003
1.466765e+003, 1.175718e+003
1.468693e+003, 1.178757e+003
1.470622e+003, 1.182404e+003
1.472550e+003, 1.183314e+003
1.474479e+003, 1.182994e+003
1.476407e+003, 1.183833e+003
1.478335e+003, 1.185216e+003
1.480264e+003, 1.187021e+003
1.482192e+003, 1.188529e+003
1.484121e+003, 1.189323e+003
1.486049e+003, 1.189992e+003
1.487978e+003, 1.190372e+003
1.489906e+003, 1.192055e+003
1.491835e+003, 1.195067e+003
1.493763e+003, 1.197896e+003
1.495692e+003, 1.200488e+003
1.497620e+003, 1.202726e+003
1.499549e+003, 1.204843e+003
1.501477e+003, 1.207337e+003
1.503406e+003, 1.209453e+003
1.505334e+003, 1.210387e+003
1.507262e+003, 1.211322e+003
1.509191e+003, 1.212094e+003
1.511119e+003, 1.214564e+003
1.513048e+003, 1.219444e+003
1.514976e+003, 1.221680e+003
1.516905e+003, 1.221980e+003
1.518833e+003, 1.223969e+003
1.520762e+003, 1.227055e+003
1.522690e+003, 1.230703e+003
1.524619e+003, 1.234226e+003
1.526547e+003, 1.237162e+003
1.528476e+003, 1.239930e+003
1.530404e+003, 1.243112e+003
1.532333e+003, 1.244294e+003
1.534261e+003, 1.242879e+003
1.536189e+003, 1.242454e+003
1.538118e+003, 1.243162e+003
1.540046e+003, 1.245978e+003
1.541975e+003, 1.249319e+003
1.543903e+003, 1.249980e+003
1.545832e+003, 1.250657e+003
1.547760e+003, 1.252836e+003
1.549689e+003, 1.256437e+003
1.551617e+003, 1.262020e+003
1.553546e+003, 1.265542e+003
1.555474e+003, 1.266534e+003
1.557403e+003, 1.265947e+003
1.559331e+003, 1.265164e+003
1.561260e+003, 1.269406e+003
1.563188e+003, 1.275065e+003
1.565116e+003, 1.277177e+003
1.567045e+003, 1.278942e+003
1.568973e+003, 1.282538e+003
1.570902e+003, 1.285340e+003
1.572830e+003, 1.286732e+003
1.574759e+003, 1.288586e+003
1.576687e+003, 1.290797e+003
1.578616e+003, 1.290773e+003
1.580544e+003, 1.290265e+003
1.582473e+003, 1.293461e+003
1.584401e+003, 1.297257e+003
1.586330e+003, 1.299147e+003
1.588258e+003, 1.300224e+003
1.590187e+003, 1.299894e+003
1.592115e+003, 1.301298e+003
1.594043e+003, 1.304718e+003
1.595972e+003, 1.305772e+003
1.597900e+003, 1.305342e+003
1.599829e+003, 1.306877e+003
1.601757e+003, 1.309046e+003
1.603686e+003, 1.310754e+003
1.605614e+003, 1.311967e+003
1.607543e+003, 1.312279e+003
1.609471e+003, 1.312888e+003
1.611400e+003, 1.313657e+003
1.613328e+003, 1.316119e+003
1.615257e+003, 1.320038e+003
1.617185e+003, 1.325580e+003
1.619114e+003, 1.329873e+003
1.621042e+003, 1.327503e+003
1.622970e+003, 1.325045e+003
1.624899e+003, 1.326208e+003
1.626827e+003, 1.326898e+003
1.628756e+003, 1.326088e+003
1.630684e+003, 1.324951e+003
1.632613e+003, 1.324028e+003
1.634541e+003, 1.327307e+003
1.636470e+003, 1.331715e+003
1.638398e+003, 1.332027e+003
1.640327e+003, 1.332305e+003
1.642255e+003, 1.334433e+003
1.644184e+003, 1.336813e+003
1.646112e+003, 1.338980e+003
1.648041e+003, 1.341769e+003
1.649969e+003, 1.344889e+003
1.651897e+003, 1.347421e+003
1.653826e+003, 1.349075e+003
1.655754e+003, 1.348788e+003
1.657683e+003, 1.348874e+003
1.659611e+003, 1.350128e+003
1.661540e+003, 1.353377e+003
1.663468e+003, 1.358676e+003
1.665397e+003, 1.361897e+003
1.667325e+003, 1.363253e+003
1.669254e+003, 1.363910e+003
1.671182e+003, 1.364648e+003
1.673111e+003, 1.367395e+003
1.675039e+003, 1.368563e+003
1.676968e+003, 1.366371e+003
1.678896e+003, 1.365157e+003
1.680824e+003, 1.365419e+003
1.682753e+003, 1.367620e+003
1.684681e+003, 1.370553e+003
1.686610e+003, 1.371624e+003
1.688538e+003, 1.372279e+003
1.690467e+003, 1.373575e+003
1.692395e+003, 1.374513e+003
1.694324e+003, 1.374745e+003
1.696252e+003, 1.375168e+003
1.698181e+003, 1.375824e+003
1.700109e+003, 1.376598e+003
1.702038e+003, 1.377463e+003
1.703966e+003, 1.378283e+003
1.705895e+003, 1.379258e+003
1.707823e+003, 1.380764e+003
1.709751e+003, 1.381482e+003
1.711680e+003, 1.381274e+003
1.713608e+003, 1.381088e+003
1.715537e+003, 1.380978e+003
1.717465e+003, 1.381414e+003
1.719394e+003, 1.381496e+003
1.721322e+003, 1.380733e+003
1.723251e+003, 1.379110e+003
1.725179e+003, 1.376125e+003
1.727108e+003, 1.375895e+003
1.729036e+003, 1.377420e+003
1.730965e+003, 1.376032e+003
1.732893e+003, 1.374145e+003
1.734822e+003, 1.373203e+003
1.736750e+003, 1.375504e+003
1.738678e+003, 1.382787e+003
1.740607e+003, 1.384933e+003
1.742535e+003, 1.382098e+003
1.744464e+003, 1.383976e+003
1.746392e+003, 1.386829e+003
1.748321e+003, 1.384193e+003
1.750249e+003, 1.382755e+003
1.752178e+003, 1.385828e+003
1.754106e+003, 1.385695e+003
1.756035e+003, 1.381962e+003
1.757963e+003, 1.380622e+003
1.759892e+003, 1.380660e+003
1.761820e+003, 1.380379e+003
1.763749e+003, 1.379920e+003
1.765677e+003, 1.379040e+003
1.767605e+003, 1.378951e+003
1.769534e+003, 1.379603e+003
1.771462e+003, 1.378033e+003
1.773391e+003, 1.375938e+003
1.775319e+003, 1.377317e+003
1.777248e+003, 1.378690e+003
1.779176e+003, 1.376837e+003
1.781105e+003, 1.376981e+003
1.783033e+003, 1.379591e+003
1.784962e+003, 1.381439e+003
1.786890e+003, 1.382516e+003
1.788819e+003, 1.382832e+003
1.790747e+003, 1.383153e+003
1.792676e+003, 1.383828e+003
1.794604e+003, 1.385205e+003
1.796532e+003, 1.387381e+003
1.798461e+003, 1.386924e+003
1.800389e+003, 1.385187e+003
1.802318e+003, 1.385320e+003
1.804246e+003, 1.385019e+003
1.806175e+003, 1.382510e+003
1.808103e+003, 1.381020e+003
1.810032e+003, 1.381049e+003
1.811960e+003, 1.381351e+003
1.813889e+003, 1.381922e+003
1.815817e+003, 1.382867e+003
1.817746e+003, 1.383516e+003
1.819674e+003, 1.383387e+003
1.821603e+003, 1.383416e+003
1.823531e+003, 1.383514e+003
1.825459e+003, 1.380723e+003
1.827388e+003, 1.377359e+003
1.829316e+003, 1.376944e+003
1.831245e+003, 1.377393e+003
1.833173e+003, 1.378398e+003
1.835102e+003, 1.377286e+003
1.837030e+003, 1.374473e+003
1.838959e+003, 1.373550e+003
1.840887e+003, 1.373223e+003
1.842816e+003, 1.370928e+003
1.844744e+003, 1.372101e+003
1.846673e+003, 1.378258e+003
1.848601e+003, 1.379298e+003
1.850530e+003, 1.376070e+003
1.852458e+003, 1.371906e+003
1.854386e+003, 1.368296e+003
1.856315e+003, 1.366296e+003
1.858243e+003, 1.365342e+003
1.860172e+003, 1.365323e+003
1.862100e+003, 1.366737e+003
1.864029e+003, 1.367561e+003
1.865957e+003, 1.363963e+003
1.867886e+003, 1.359311e+003
1.869814e+003, 1.354140e+003
1.871743e+003, 1.352995e+003
1.873671e+003, 1.355165e+003
1.875600e+003, 1.355333e+003
1.877528e+003, 1.355154e+003
1.879457e+003, 1.357298e+003
1.881385e+003, 1.357166e+003
1.883313e+003, 1.353217e+003
1.885242e+003, 1.351064e+003
1.887170e+003, 1.350119e+003
1.889099e+003, 1.349962e+003
1.891027e+003, 1.347899e+003
1.892956e+003, 1.341355e+003
1.894884e+003, 1.334677e+003
1.896813e+003, 1.328616e+003
1.898741e+003, 1.330152e+003
1.900670e+003, 1.333702e+003
1.902598e+003, 1.333693e+003
1.904527e+003, 1.332716e+003
1.906455e+003, 1.331361e+003
1.908384e+003, 1.329614e+003
1.910312e+003, 1.328260e+003
1.912240e+003, 1.329947e+003
1.914169e+003, 1.332030e+003
1.916097e+003, 1.333469e+003
1.918026e+003, 1.333583e+003
1.919954e+003, 1.332581e+003
1.921883e+003, 1.333288e+003
1.923811e+003, 1.333548e+003
1.925740e+003, 1.330660e+003
1.927668e+003, 1.328236e+003
1.929597e+003, 1.327040e+003
1.931525e+003, 1.327663e+003
1.933454e+003, 1.328006e+003
1.935382e+003, 1.323291e+003
1.937311e+003, 1.318931e+003
1.939239e+003, 1.316937e+003
1.941167e+003, 1.315274e+003
1.943096e+003, 1.313657e+003
1.945024e+003, 1.311975e+003
1.946953e+003, 1.309630e+003
1.948881e+003, 1.305113e+003
1.950810e+003, 1.303075e+003
1.952738e+003, 1.303433e+003
1.954667e+003, 1.303984e+003
1.956595e+003, 1.302769e+003
1.958524e+003, 1.296026e+003
1.960452e+003, 1.291285e+003
1.962381e+003, 1.289893e+003
1.964309e+003, 1.286569e+003
1.966238e+003, 1.282847e+003
1.968166e+003, 1.280599e+003
1.970094e+003, 1.280618e+003
1.972023e+003, 1.284444e+003
1.973951e+003, 1.284151e+003
1.975880e+003, 1.281141e+003
1.977808e+003, 1.278576e+003
1.979737e+003, 1.276708e+003
1.981665e+003, 1.275904e+003
1.983594e+003, 1.274914e+003
1.985522e+003, 1.273505e+003
1.987451e+003, 1.270732e+003
1.989379e+003, 1.268140e+003
1.991308e+003, 1.267201e+003
1.993236e+003, 1.264618e+003
1.995165e+003, 1.260473e+003
1.997093e+003, 1.257592e+003
1.999021e+003, 1.254827e+003
2.000950e+003, 1.251277e+003
2.002878e+003, 1.247687e+003
2.004807e+003, 1.244160e+003
2.006735e+003, 1.240012e+003
2.008664e+003, 1.236762e+003
2.010592e+003, 1.236535e+003
2.012521e+003, 1.236319e+003
2.014449e+003, 1.235374e+003
2.016378e+003, 1.231781e+003
2.018306e+003, 1.227286e+003
2.020235e+003, 1.223287e+003
2.022163e+003, 1.222031e+003
2.024092e+003, 1.223843e+003
2.026020e+003, 1.224372e+003
2.027948e+003, 1.223591e+003
2.029877e+003, 1.221188e+003
2.031805e+003, 1.218524e+003
2.033734e+003, 1.215900e+003
2.035662e+003, 1.213031e+003
2.037591e+003, 1.210614e+003
2.039519e+003, 1.210517e+003
2.041448e+003, 1.209671e+003
2.043376e+003, 1.207374e+003
2.045305e+003, 1.201219e+003
2.047233e+003, 1.195272e+003
2.049162e+003, 1.198407e+003
2.051090e+003, 1.198274e+003
2.053019e+003, 1.190691e+003
2.054947e+003, 1.188582e+003
2.056875e+003, 1.189361e+003
2.058804e+003, 1.189097e+003
2.060732e+003, 1.187560e+003
2.062661e+003, 1.184203e+003
2.064589e+003, 1.181966e+003
2.066518e+003, 1.180264e+003
2.068446e+003, 1.178590e+003
2.070375e+003, 1.176272e+003
2.072303e+003, 1.173178e+003
2.074232e+003, 1.169301e+003
2.076160e+003, 1.165655e+003
2.078089e+003, 1.163536e+003
2.080017e+003, 1.162128e+003
2.081946e+003, 1.161228e+003
2.083874e+003, 1.158086e+003
2.085802e+003, 1.154120e+003
2.087731e+003, 1.150823e+003
2.089659e+003, 1.148062e+003
2.091588e+003, 1.145964e+003
2.093516e+003, 1.146759e+003
2.095445e+003, 1.146557e+003
2.097373e+003, 1.140966e+003
2.099302e+003, 1.135182e+003
2.101230e+003, 1.130531e+003
2.103159e+003, 1.129994e+003
2.105087e+003, 1.130925e+003
2.107016e+003, 1.132235e+003
2.108944e+003, 1.128341e+003
2.110873e+003, 1.120870e+003
2.112801e+003, 1.120657e+003
2.114729e+003, 1.120822e+003
2.116658e+003, 1.117179e+003
2.118586e+003, 1.113860e+003
2.120515e+003, 1.110989e+003
2.122443e+003, 1.108035e+003
2.124372e+003, 1.104654e+003
2.126300e+003, 1.100573e+003
2.128229e+003, 1.096956e+003
2.130157e+003, 1.094227e+003
2.132086e+003, 1.094155e+003
2.134014e+003, 1.091947e+003
2.135943e+003, 1.086261e+003
2.137871e+003, 1.081848e+003
2.139800e+003, 1.078469e+003
2.141728e+003, 1.075901e+003
2.143656e+003, 1.073714e+003
2.145585e+003, 1.071736e+003
2.147513e+003, 1.068136e+003
2.149442e+003, 1.064729e+003
2.151370e+003, 1.063258e+003
2.153299e+003, 1.060953e+003
2.155227e+003, 1.058097e+003
2.157156e+003, 1.057051e+003
2.159084e+003, 1.055891e+003
2.161013e+003, 1.053771e+003
2.162941e+003, 1.050580e+003
2.164870e+003, 1.046787e+003
2.166798e+003, 1.042550e+003
2.168727e+003, 1.040423e+003
2.170655e+003, 1.041102e+003
2.172583e+003, 1.038956e+003
2.174512e+003, 1.035308e+003
2.176440e+003, 1.031192e+003
2.178369e+003, 1.028211e+003
2.180297e+003, 1.026157e+003
2.182226e+003, 1.022853e+003
2.184154e+003, 1.018656e+003
2.186083e+003, 1.013661e+003
2.188011e+003, 1.009807e+003
2.189940e+003, 1.006809e+003
2.191868e+003, 1.004260e+003
2.193797e+003, 1.000993e+003
2.195725e+003, 9.969056e+002
2.197654e+003, 9.944371e+002
2.199582e+003, 9.922498e+002
2.201510e+003, 9.881156e+002
2.203439e+003, 9.865785e+002
2.205367e+003, 9.865918e+002
2.207296e+003, 9.821889e+002
2.209224e+003, 9.786556e+002
2.211153e+003, 9.793949e+002
2.213081e+003, 9.745374e+002
2.215010e+003, 9.678700e+002
2.216938e+003, 9.659062e+002
2.218867e+003, 9.635695e+002
2.220795e+003, 9.599602e+002
2.222724e+003, 9.561035e+002
2.224652e+003, 9.518890e+002
2.226581e+003, 9.466607e+002
2.228509e+003, 9.438369e+002
2.230438e+003, 9.422384e+002
2.232366e+003, 9.386886e+002
2.234294e+003, 9.349702e+002
2.236223e+003, 9.315856e+002
2.238151e+003, 9.307896e+002
2.240080e+003, 9.296119e+002
2.242008e+003, 9.252130e+002
2.243937e+003, 9.224981e+002
2.245865e+003, 9.210104e+002
2.247794e+003, 9.178884e+002
2.249722e+003, 9.138660e+002
2.251651e+003, 9.092001e+002
2.253579e+003, 9.069065e+002
2.255508e+003, 9.051951e+002
2.257436e+003, 9.022347e+002
2.259365e+003, 8.992431e+002
2.261293e+003, 8.961705e+002
2.263221e+003, 8.921847e+002
2.265150e+003, 8.881931e+002
2.267078e+003, 8.844984e+002
2.269007e+003, 8.801545e+002
2.270935e+003, 8.762254e+002
2.272864e+003, 8.746670e+002
2.274792e+003, 8.710618e+002
2.276721e+003, 8.664734e+002
2.278649e+003, 8.655705e+002
2.280578e+003, 8.649709e+002
2.282506e+003, 8.634844e+002
2.284435e+003, 8.600463e+002
2.286363e+003, 8.565908e+002
2.288292e+003, 8.556102e+002
2.290220e+003, 8.530380e+002
2.292148e+003, 8.495141e+002
2.294077e+003, 8.475798e+002
2.296005e+003, 8.453756e+002
2.297934e+003, 8.424647e+002
2.299862e+003, 8.399117e+002
2.301791e+003, 8.366664e+002
2.303719e+003, 8.312119e+002
2.305648e+003, 8.267949e+002
2.307576e+003, 8.233265e+002
2.309505e+003, 8.208535e+002
2.311433e+003, 8.176302e+002
2.313362e+003, 8.135106e+002
2.315290e+003, 8.099667e+002
2.317219e+003, 8.064260e+002
2.319147e+003, 8.025350e+002
2.321075e+003, 7.984783e+002
2.323004e+003, 7.950963e+002
2.324932e+003, 7.939686e+002
2.326861e+003, 7.901663e+002
2.328789e+003, 7.842517e+002
2.330718e+003, 7.804191e+002
2.332646e+003, 7.768920e+002
2.334575e+003, 7.733098e+002
2.336503e+003, 7.723344e+002
2.338432e+003, 7.710216e+002
2.340360e+003, 7.670594e+002
2.342289e+003, 7.650967e+002
2.344217e+003, 7.637774e+002
2.346146e+003, 7.596530e+002
2.348074e+003, 7.568707e+002
2.350002e+003, 7.553799e+002
2.351931e+003, 7.519511e+002
2.353859e+003, 7.492626e+002
2.355788e+003, 7.481454e+002
2.357716e+003, 7.429368e+002
2.359645e+003, 7.377891e+002
2.361573e+003, 7.375198e+002
2.363502e+003, 7.333472e+002
2.365430e+003, 7.283404e+002
2.367359e+003, 7.293380e+002
2.369287e+003, 7.281368e+002
2.371216e+003, 7.243887e+002
2.373144e+003, 7.223494e+002
2.375073e+003, 7.202097e+002
2.377001e+003, 7.172670e+002
2.378929e+003, 7.150512e+002
2.380858e+003, 7.125732e+002
2.382786e+003, 7.090024e+002
2.384715e+003, 7.054295e+002
2.386643e+003, 7.016010e+002
2.388572e+003, 6.966517e+002
2.390500e+003, 6.940649e+002
2.392429e+003, 6.931321e+002
2.394357e+003, 6.903909e+002
2.396286e+003, 6.869598e+002
2.398214e+003, 6.831559e+002
2.400143e+003, 6.794847e+002
2.402071e+003, 6.770978e+002
2.404000e+003, 6.764913e+002
2.405928e+003, 6.746008e+002
2.407856e+003, 6.721906e+002
2.409785e+003, 6.701519e+002
2.411713e+003, 6.670533e+002
2.413642e+003, 6.632418e+002
2.415570e+003, 6.585326e+002
2.417499e+003, 6.572919e+002
2.419427e+003, 6.577490e+002
2.421356e+003, 6.515571e+002
2.423284e+003, 6.465831e+002
2.425213e+003, 6.444059e+002
2.427141e+003, 6.415440e+002
2.429070e+003, 6.387704e+002
2.430998e+003, 6.364575e+002
2.432927e+003, 6.327197e+002
2.434855e+003, 6.291657e+002
2.436783e+003, 6.279573e+002
2.438712e+003, 6.233155e+002
2.440640e+003, 6.179690e+002
2.442569e+003, 6.164565e+002
2.444497e+003, 6.124756e+002
2.446426e+003, 6.076371e+002
2.448354e+003, 6.072459e+002
2.450283e+003, 6.060597e+002
2.452211e+003, 6.030615e+002
2.454140e+003, 5.968213e+002
2.456068e+003, 5.923522e+002
2.457997e+003, 5.910118e+002
2.459925e+003, 5.894596e+002
2.461854e+003, 5.873486e+002
2.463782e+003, 5.844647e+002
2.465710e+003, 5.806400e+002
2.467639e+003, 5.768769e+002
2.469567e+003, 5.735665e+002
2.471496e+003, 5.781880e+002
2.473424e+003, 5.809279e+002
2.475353e+003, 5.712064e+002
2.477281e+003, 5.643994e+002
2.479210e+003, 5.611097e+002
2.481138e+003, 5.608727e+002
2.483067e+003, 5.599714e+002
2.484995e+003, 5.576351e+002
2.486924e+003, 5.523411e+002
2.488852e+003, 5.487523e+002
2.490781e+003, 5.465092e+002
2.492709e+003, 5.406505e+002
2.494637e+003, 5.369353e+002
2.496566e+003, 5.359719e+002
2.498494e+003, 5.342056e+002
2.500423e+003, 5.310034e+002
2.502351e+003, 5.265690e+002
2.504280e+003, 5.237286e+002
2.506208e+003, 5.213171e+002
2.508137e+003, 5.187353e+002
2.510065e+003, 5.166063e+002
2.511994e+003, 5.145314e+002
2.513922e+003, 5.122573e+002
2.515851e+003, 5.102307e+002
2.517779e+003, 5.077619e+002
2.519708e+003, 5.038142e+002
2.521636e+003, 5.014267e+002
2.523564e+003, 4.999176e+002
2.525493e+003, 4.987090e+002
2.527421e+003, 4.960345e+002
2.529350e+003, 4.932960e+002
2.531278e+003, 4.925310e+002
2.533207e+003, 4.904857e+002
2.535135e+003, 4.875560e+002
2.537064e+003, 4.847793e+002
2.538992e+003, 4.818949e+002
2.540921e+003, 4.793941e+002
2.542849e+003, 4.785463e+002
2.544778e+003, 4.771088e+002
2.546706e+003, 4.749173e+002
2.548635e+003, 4.723060e+002
2.550563e+003, 4.694035e+002
2.552491e+003, 4.665003e+002
2.554420e+003, 4.648647e+002
2.556348e+003, 4.619473e+002
2.558277e+003, 4.579335e+002
2.560205e+003, 4.547696e+002
2.562134e+003, 4.519633e+002
2.564062e+003, 4.495460e+002
2.565991e+003, 4.484011e+002
2.567919e+003, 4.463183e+002
2.569848e+003, 4.432167e+002
2.571776e+003, 4.413451e+002
2.573705e+003, 4.381015e+002
2.575633e+003, 4.338069e+002
2.577562e+003, 4.331177e+002
2.579490e+003, 4.313373e+002
2.581418e+003, 4.277842e+002
2.583347e+003, 4.258767e+002
2.585275e+003, 4.240288e+002
2.587204e+003, 4.217354e+002
2.589132e+003, 4.188164e+002
2.591061e+003, 4.164746e+002
2.592989e+003, 4.148608e+002
2.594918e+003, 4.120254e+002
2.596846e+003, 4.087088e+002
2.598775e+003, 4.053675e+002
2.600703e+003, 4.038948e+002
2.602632e+003, 4.026861e+002
2.604560e+003, 4.011281e+002
2.606489e+003, 3.983871e+002
2.608417e+003, 3.962114e+002
2.610345e+003, 3.948918e+002
2.612274e+003, 3.932592e+002
2.614202e+003, 3.900930e+002
2.616131e+003, 3.857920e+002
2.618059e+003, 3.841187e+002
2.619988e+003, 3.826815e+002
2.621916e+003, 3.808420e+002
2.623845e+003, 3.789322e+002
2.625773e+003, 3.768835e+002
2.627702e+003, 3.746861e+002
2.629630e+003, 3.723101e+002
2.631559e+003, 3.701779e+002
2.633487e+003, 3.680728e+002
2.635416e+003, 3.647362e+002
2.637344e+003, 3.627191e+002
2.639272e+003, 3.616486e+002
2.641201e+003, 3.594517e+002
2.643129e+003, 3.562119e+002
2.645058e+003, 3.529577e+002
2.646986e+003, 3.519142e+002
2.648915e+003, 3.509429e+002
2.650843e+003, 3.495232e+002
2.652772e+003, 3.472352e+002
2.654700e+003, 3.452231e+002
2.656629e+003, 3.431934e+002
2.658557e+003, 3.403632e+002
2.660486e+003, 3.383357e+002
2.662414e+003, 3.366408e+002
2.664343e+003, 3.344817e+002
2.666271e+003, 3.328584e+002
2.668199e+003, 3.309161e+002
2.670128e+003, 3.276541e+002
2.672056e+003, 3.267569e+002
2.673985e+003, 3.253927e+002
2.675913e+003, 3.213384e+002
2.677842e+003, 3.195108e+002
2.679770e+003, 3.180968e+002
2.681699e+003, 3.159096e+002
2.683627e+003, 3.145003e+002
2.685556e+003, 3.129053e+002
2.687484e+003, 3.106625e+002
2.689413e+003, 3.080161e+002
2.691341e+003, 3.047181e+002
2.693270e+003, 3.012313e+002
2.695198e+003, 3.004753e+002
2.697126e+003, 2.991922e+002
2.699055e+003, 2.967218e+002
2.700983e+003, 2.933585e+002
2.702912e+003, 2.927201e+002
2.704840e+003, 2.933852e+002
2.706769e+003, 2.903504e+002
2.708697e+003, 2.874420e+002
2.710626e+003, 2.856183e+002
2.712554e+003, 2.860966e+002
2.714483e+003, 2.839703e+002
2.716411e+003, 2.809424e+002
2.718340e+003, 2.795670e+002
2.720268e+003, 2.772624e+002
2.722197e+003, 2.751280e+002
2.724125e+003, 2.742907e+002
2.726053e+003, 2.731274e+002
2.727982e+003, 2.710982e+002
2.729910e+003, 2.679814e+002
2.731839e+003, 2.662618e+002
2.733767e+003, 2.652441e+002
2.735696e+003, 2.643953e+002
2.737624e+003, 2.618022e+002
2.739553e+003, 2.600020e+002
2.741481e+003, 2.590118e+002
2.743410e+003, 2.572468e+002
2.745338e+003, 2.552708e+002
2.747267e+003, 2.534154e+002
2.749195e+003, 2.521794e+002
2.751124e+003, 2.502691e+002
2.753052e+003, 2.482044e+002
2.754980e+003, 2.465447e+002
2.756909e+003, 2.444307e+002
2.758837e+003, 2.425510e+002
2.760766e+003, 2.412964e+002
2.762694e+003, 2.412142e+002
2.764623e+003, 2.398270e+002
2.766551e+003, 2.369338e+002
2.768480e+003, 2.346005e+002
2.770408e+003, 2.334901e+002
2.772337e+003, 2.329986e+002
2.774265e+003, 2.316917e+002
2.776194e+003, 2.299451e+002
2.778122e+003, 2.281894e+002
2.780051e+003, 2.271833e+002
2.781979e+003, 2.244182e+002
2.783907e+003, 2.222944e+002
2.785836e+003, 2.229202e+002
2.787764e+003, 2.206346e+002
2.789693e+003, 2.184842e+002
2.791621e+003, 2.173975e+002
2.793550e+003, 2.143573e+002
2.795478e+003, 2.130769e+002
2.797407e+003, 2.132183e+002
2.799335e+003, 2.122743e+002
2.801264e+003, 2.103952e+002
2.803192e+003, 2.082908e+002
2.805121e+003, 2.066289e+002
2.807049e+003, 2.054933e+002
2.808978e+003, 2.042787e+002
2.810906e+003, 2.026460e+002
2.812834e+003, 2.004572e+002
2.814763e+003, 1.985189e+002
2.816691e+003, 1.970614e+002
2.818620e+003, 1.958130e+002
2.820548e+003, 1.951583e+002
2.822477e+003, 1.944961e+002
2.824405e+003, 1.924687e+002
2.826334e+003, 1.914858e+002
2.828262e+003, 1.903921e+002
2.830191e+003, 1.882238e+002
2.832119e+003, 1.868293e+002
2.834048e+003, 1.856237e+002
2.835976e+003, 1.843344e+002
2.837905e+003, 1.826636e+002
2.839833e+003, 1.812068e+002
2.841761e+003, 1.798961e+002
2.843690e+003, 1.784238e+002
2.845618e+003, 1.766833e+002
2.847547e+003, 1.752741e+002
2.849475e+003, 1.747375e+002
2.851404e+003, 1.741845e+002
2.853332e+003, 1.724827e+002
2.855261e+003, 1.699498e+002
2.857189e+003, 1.701625e+002
2.859118e+003, 1.693130e+002
2.861046e+003, 1.676409e+002
2.862975e+003, 1.664081e+002
2.864903e+003, 1.646947e+002
2.866832e+003, 1.628295e+002
2.868760e+003, 1.611490e+002
2.870688e+003, 1.604055e+002
2.872617e+003, 1.591441e+002
2.874545e+003, 1.574308e+002
2.876474e+003, 1.567325e+002
2.878402e+003, 1.560658e+002
2.880331e+003, 1.552265e+002
2.882259e+003, 1.541164e+002
2.884188e+003, 1.533316e+002
2.886116e+003, 1.523223e+002
2.888045e+003, 1.508946e+002
2.889973e+003, 1.490252e+002
2.891902e+003, 1.477542e+002
2.893830e+003, 1.467813e+002
2.895759e+003, 1.451960e+002
2.897687e+003, 1.440052e+002
2.899615e+003, 1.430711e+002
2.901544e+003, 1.422689e+002
2.903472e+003, 1.417262e+002
2.905401e+003, 1.405742e+002
2.907329e+003, 1.390716e+002
2.909258e+003, 1.382114e+002
2.911186e+003, 1.371019e+002
2.913115e+003, 1.358800e+002
2.915043e+003, 1.347202e+002
2.916972e+003, 1.329316e+002
2.918900e+003, 1.325561e+002
2.920829e+003, 1.329717e+002
2.922757e+003, 1.303584e+002
2.924686e+003, 1.291633e+002
2.926614e+003, 1.286950e+002
2.928542e+003, 1.278819e+002
2.930471e+003, 1.261792e+002
2.932399e+003, 1.245485e+002
2.934328e+003, 1.235187e+002
2.936256e+003, 1.240466e+002
2.938185e+003, 1.226414e+002
2.940113e+003, 1.207008e+002
2.942042e+003, 1.198665e+002
2.943970e+003, 1.203281e+002
2.945899e+003, 1.200316e+002
2.947827e+003, 1.187686e+002
2.949756e+003, 1.178272e+002
2.951684e+003, 1.167397e+002
2.953613e+003, 1.154758e+002
2.955541e+003, 1.140201e+002
2.957469e+003, 1.140035e+002
2.959398e+003, 1.135935e+002
2.961326e+003, 1.125956e+002
2.963255e+003, 1.119156e+002
2.965183e+003, 1.115870e+002
2.967112e+003, 1.105834e+002
2.969040e+003, 1.081622e+002
2.970969e+003, 1.071717e+002
2.972897e+003, 1.068688e+002
2.974826e+003, 1.065375e+002
2.976754e+003, 1.052516e+002
2.978683e+003, 1.037097e+002
2.980611e+003, 1.024545e+002
2.982540e+003, 1.017317e+002
2.984468e+003, 1.016823e+002
2.986396e+003, 1.007937e+002
2.988325e+003, 9.969002e+001
2.990253e+003, 9.958493e+001
2.992182e+003, 9.881075e+001
2.994110e+003, 9.781446e+001
2.996039e+003, 9.680898e+001
2.997967e+003, 9.549381e+001
2.999896e+003, 9.499796e+001
3.001824e+003, 9.462074e+001
3.003753e+003, 9.366489e+001
3.005681e+003, 9.312153e+001
3.007610e+003, 9.176836e+001
3.009538e+003, 9.015130e+001
3.011467e+003, 9.002618e+001
3.013395e+003, 8.947421e+001
3.015323e+003, 8.891877e+001
3.017252e+003, 8.858887e+001
3.019180e+003, 8.797521e+001
3.021109e+003, 8.779043e+001
3.023037e+003, 8.765389e+001
3.024966e+003, 8.705607e+001
3.026894e+003, 8.682910e+001
3.028823e+003, 8.608585e+001
3.030751e+003, 8.493196e+001
3.032680e+003, 8.414784e+001
3.034608e+003, 8.371967e+001
3.036537e+003, 8.290923e+001
3.038465e+003, 8.163341e+001
3.040394e+003, 8.161910e+001
3.042322e+003, 8.127553e+001
3.044250e+003, 8.061098e+001
3.046179e+003, 7.981758e+001
3.048107e+003, 7.832060e+001
3.050036e+003, 7.729087e+001
3.051964e+003, 7.680398e+001
3.053893e+003, 7.650950e+001
3.055821e+003, 7.529766e+001
3.057750e+003, 7.449494e+001
3.059678e+003, 7.429202e+001
3.061607e+003, 7.344002e+001
3.063535e+003, 7.380502e+001
3.065464e+003, 7.353738e+001
3.067392e+003, 7.161681e+001
3.069321e+003, 7.149410e+001
3.071249e+003, 7.079075e+001
3.073177e+003, 7.016409e+001
3.075106e+003, 7.092883e+001
3.077034e+003, 7.060806e+001
3.078963e+003, 7.009220e+001
3.080891e+003, 6.939171e+001
3.082820e+003, 6.808763e+001
3.084748e+003, 6.766215e+001
3.086677e+003, 6.746304e+001
3.088605e+003, 6.697331e+001
3.090534e+003, 6.562780e+001
3.092462e+003, 6.531693e+001
3.094391e+003, 6.487421e+001
3.096319e+003, 6.384511e+001
3.098248e+003, 6.383569e+001
3.100176e+003, 6.332499e+001
3.102104e+003, 6.281781e+001
3.104033e+003, 6.266077e+001
3.105961e+003, 6.168485e+001
3.107890e+003, 6.119049e+001
3.109818e+003, 6.081008e+001
3.111747e+003, 5.995806e+001
3.113675e+003, 5.933215e+001
3.115604e+003, 5.935026e+001
3.117532e+003, 5.933669e+001
3.119461e+003, 5.819703e+001
3.121389e+003, 5.778271e+001
3.123318e+003, 5.697351e+001
3.125246e+003, 5.612322e+001
3.127175e+003, 5.656402e+001
3.129103e+003, 5.598621e+001
3.131031e+003, 5.508544e+001
3.132960e+003, 5.443481e+001
3.134888e+003, 5.460134e+001
3.136817e+003, 5.421274e+001
3.138745e+003, 5.375920e+001
3.140674e+003, 5.345495e+001
3.142602e+003, 5.315556e+001
3.144531e+003, 5.260541e+001
3.146459e+003, 5.259572e+001
3.148388e+003, 5.296106e+001
3.150316e+003, 5.187389e+001
3.152245e+003, 5.138668e+001
3.154173e+003, 5.069648e+001
3.156102e+003, 5.043178e+001
3.158030e+003, 5.586412e+001
3.159958e+003, 5.578203e+001
3.161887e+003, 5.272012e+001
3.163815e+003, 4.952967e+001
3.165744e+003, 4.870250e+001
3.167672e+003, 4.827678e+001
3.169601e+003, 4.782754e+001
3.171529e+003, 4.731811e+001
3.173458e+003, 4.709746e+001
3.175386e+003, 4.621819e+001
3.177315e+003, 4.574558e+001
3.179243e+003, 4.619294e+001
3.181172e+003, 4.689226e+001
3.183100e+003, 4.670095e+001
3.185029e+003, 4.579274e+001
3.186957e+003, 4.476392e+001
3.188885e+003, 4.519995e+001
3.190814e+003, 4.469136e+001
3.192742e+003, 4.362589e+001
3.194671e+003, 4.264106e+001
3.196599e+003, 4.255688e+001
3.198528e+003, 4.149539e+001
3.200456e+003, 4.141573e+001
3.202385e+003, 4.239140e+001
3.204313e+003, 4.157288e+001
3.206242e+003, 4.153078e+001
3.208170e+003, 4.150637e+001
3.210099e+003, 4.132653e+001
3.212027e+003, 4.167895e+001
3.213956e+003, 4.166687e+001
3.215884e+003, 4.143804e+001
3.217813e+003, 4.141685e+001
3.219741e+003, 4.235070e+001
3.221669e+003, 4.224529e+001
3.223598e+003, 4.216723e+001
3.225526e+003, 4.238637e+001
3.227455e+003, 4.275513e+001
3.229383e+003, 4.321431e+001
3.231312e+003, 4.355554e+001
3.233240e+003, 4.392929e+001
3.235169e+003, 4.456635e+001
3.237097e+003, 4.472429e+001
3.239026e+003, 4.530080e+001
3.240954e+003, 4.579458e+001
3.242883e+003, 4.576924e+001
3.244811e+003, 4.671044e+001
3.246740e+003, 4.735735e+001
3.248668e+003, 4.734763e+001
3.250596e+003, 4.689175e+001
3.252525e+003, 4.734274e+001
3.254453e+003, 4.738163e+001
3.256382e+003, 4.721130e+001
3.258310e+003, 4.693378e+001
3.260239e+003, 4.635024e+001
3.262167e+003, 4.576707e+001
3.264096e+003, 4.479828e+001
3.266024e+003, 4.384182e+001
3.267953e+003, 4.370402e+001
3.269881e+003, 4.247045e+001
3.271810e+003, 4.211156e+001
3.273738e+003, 4.195407e+001
3.275667e+003, 4.083326e+001
3.277595e+003, 3.948330e+001
3.279523e+003, 3.900980e+001
3.281452e+003, 3.892926e+001
3.283380e+003, 3.871354e+001
3.285309e+003, 3.811479e+001
3.287237e+003, 3.833178e+001
3.289166e+003, 3.817873e+001
3.291094e+003, 3.730876e+001
3.293023e+003, 3.626692e+001
3.294951e+003, 3.575644e+001
3.296880e+003, 3.549606e+001
3.298808e+003, 3.507790e+001
3.300737e+003, 3.431129e+001
3.302665e+003, 3.454646e+001
3.304594e+003, 3.428447e+001
3.306522e+003, 3.425333e+001
3.308450e+003, 3.460554e+001
3.310379e+003, 3.344475e+001
3.312307e+003, 3.232841e+001
3.314236e+003, 3.200816e+001
3.316164e+003, 3.220686e+001
3.318093e+003, 3.209064e+001
3.320021e+003, 3.131392e+001
3.321950e+003, 3.039134e+001
3.323878e+003, 2.962888e+001
3.325807e+003, 2.908699e+001
3.327735e+003, 2.813498e+001
3.329664e+003, 2.789769e+001
3.331592e+003, 2.746518e+001
3.333521e+003, 2.662077e+001
3.335449e+003, 2.602557e+001
3.337377e+003, 2.559767e+001
3.339306e+003, 2.525365e+001
3.341234e+003, 2.481920e+001
3.343163e+003, 2.418505e+001
3.345091e+003, 2.361471e+001
3.347020e+003, 2.327380e+001
3.348948e+003, 2.294283e+001
3.350877e+003, 2.261708e+001
3.352805e+003, 2.254979e+001
3.354734e+003, 2.238019e+001
3.356662e+003, 2.221734e+001
3.358591e+003, 2.223114e+001
3.360519e+003, 2.239190e+001
3.362448e+003, 2.188586e+001
3.364376e+003, 2.173270e+001
3.366304e+003, 2.156273e+001
3.368233e+003, 2.110958e+001
3.370161e+003, 2.029738e+001
3.372090e+003, 2.032095e+001
3.374018e+003, 2.019214e+001
3.375947e+003, 2.002920e+001
3.377875e+003, 2.007943e+001
3.379804e+003, 2.015411e+001
3.381732e+003, 2.008993e+001
3.383661e+003, 1.949574e+001
3.385589e+003, 1.880972e+001
3.387518e+003, 1.875542e+001
3.389446e+003, 1.870037e+001
3.391375e+003, 1.844267e+001
3.393303e+003, 1.799173e+001
3.395231e+003, 1.756667e+001
3.397160e+003, 1.757323e+001
3.399088e+003, 1.792747e+001
3.401017e+003, 1.804741e+001
3.402945e+003, 1.766410e+001
3.404874e+003, 1.698405e+001
3.406802e+003, 1.712987e+001
3.408731e+003, 1.723589e+001
3.410659e+003, 1.700303e+001
3.412588e+003, 1.963041e+001
3.414516e+003, 2.715779e+001
3.416445e+003, 2.839168e+001
3.418373e+003, 2.852440e+001
3.420302e+003, 2.748730e+001
3.422230e+003, 2.443496e+001
3.424158e+003, 1.847890e+001
3.426087e+003, 1.763495e+001
3.428015e+003, 1.764722e+001
3.429944e+003, 1.753985e+001
3.431872e+003, 1.727528e+001
3.433801e+003, 1.686468e+001
3.435729e+003, 1.705187e+001
3.437658e+003, 1.720984e+001
3.439586e+003, 1.709541e+001
3.441515e+003, 1.683080e+001
3.443443e+003, 1.696208e+001
3.445372e+003, 1.713050e+001
3.447300e+003, 1.704309e+001
3.449229e+003, 1.681181e+001
3.451157e+003, 1.671951e+001
3.453085e+003, 1.731609e+001
3.455014e+003, 1.651164e+001
3.456942e+003, 1.594295e+001
##END=



