##NAMES=Rostite
##RRUFFID=R061001
##IDEAL CHEMISTRY=Al(SO_4_)(OH)·5H_2_O
##LOCALITY=Kladno, Bohmen, Czech Republic
##OWNER=RRUFF
##SOURCE=Michael Scott
##DESCRIPTION=Chalky white nodular aggregates
##STATUS=The identification of this mineral has been confirmed by X-ray diffraction
##URL=https://www.rruff.net/odr/rruff_sample/R061001
##DIFFRACTION SAMPLE DESCRIPTION=Powder
##CELL PARAMETERS=a: 11.179 b: 13.055 c: 10.8969 alpha: 90 beta: 90 gamma: 90 volume: 1590.3 crystal system: orthorhombic
##FILETYPE=Raman RAW
##RAMAN WAVELENGTH=532

205.6133, 12189.42
207.5417, 12240.16
209.4702, 12293.21
211.3987, 12346.28
213.3272, 12398.23
215.2556, 12447.95
217.1841, 12493.88
219.1126, 12538.00
221.0410, 12583.08
222.9695, 12638.08
224.8980, 12686.20
226.8264, 12719.47
228.7549, 12737.79
230.6834, 12765.66
232.6118, 12811.45
234.5403, 12866.43
236.4688, 12915.75
238.3972, 12951.15
240.3257, 12989.64
242.2542, 13038.44
244.1826, 13104.17
246.1111, 13155.49
248.0396, 13176.14
249.9680, 13182.63
251.8965, 13208.41
253.8250, 13272.84
255.7534, 13335.74
257.6819, 13382.05
259.6104, 13408.34
261.5388, 13425.28
263.4673, 13424.18
265.3958, 13416.50
267.3242, 13421.62
269.2527, 13442.36
271.1812, 13477.10
273.1096, 13528.74
275.0381, 13609.94
276.9666, 13681.11
278.8950, 13730.16
280.8235, 13765.30
282.7520, 13804.56
284.6804, 13836.13
286.6089, 13881.09
288.5374, 13958.09
290.4658, 14079.89
292.3943, 14186.13
294.3228, 14250.29
296.2512, 14285.14
298.1797, 14331.52
300.1082, 14403.43
302.0366, 14476.86
303.9651, 14541.00
305.8936, 14598.25
307.8220, 14647.69
309.7505, 14681.66
311.6790, 14706.27
313.6074, 14746.90
315.5359, 14815.28
317.4644, 14885.34
319.3928, 14941.77
321.3213, 14981.96
323.2498, 15013.80
325.1782, 15035.88
327.1067, 15050.19
329.0352, 15063.96
330.9636, 15084.17
332.8921, 15103.73
334.8206, 15124.29
336.7491, 15150.87
338.6775, 15173.35
340.6060, 15185.70
342.5345, 15194.59
344.4629, 15216.47
346.3914, 15247.63
348.3199, 15288.81
350.2483, 15340.68
352.1768, 15403.17
354.1053, 15456.13
356.0337, 15486.88
357.9622, 15505.62
359.8907, 15535.18
361.8191, 15589.74
363.7476, 15637.94
365.6761, 15665.52
367.6045, 15668.35
369.5330, 15691.75
371.4615, 15754.22
373.3899, 15833.57
375.3184, 15893.99
377.2469, 15907.45
379.1753, 15953.66
381.1038, 16073.33
383.0323, 16281.50
384.9607, 16432.01
386.8892, 16499.08
388.8177, 16527.97
390.7461, 16561.62
392.6746, 16611.46
394.6031, 16637.23
396.5315, 16607.93
398.4600, 16530.34
400.3885, 16507.58
402.3169, 16580.20
404.2454, 16668.62
406.1739, 16721.01
408.1023, 16730.29
410.0308, 16748.13
411.9593, 16797.12
413.8877, 16865.70
415.8162, 16917.91
417.7447, 16944.64
419.6731, 16968.83
421.6016, 16993.34
423.5301, 17016.21
425.4585, 17058.04
427.3870, 17134.76
429.3155, 17224.81
431.2439, 17300.40
433.1724, 17343.56
435.1009, 17390.60
437.0293, 17461.65
438.9578, 17549.30
440.8863, 17610.40
442.8147, 17619.77
444.7432, 17616.03
446.6717, 17623.72
448.6001, 17648.83
450.5286, 17676.71
452.4571, 17714.90
454.3855, 17759.15
456.3140, 17796.06
458.2425, 17819.34
460.1709, 17844.32
462.0994, 17872.63
464.0279, 17902.53
465.9563, 17947.84
467.8848, 18031.22
469.8133, 18116.48
471.7417, 18164.50
473.6702, 18120.65
475.5987, 18101.63
477.5271, 18145.40
479.4556, 18243.69
481.3841, 18309.77
483.3125, 18325.62
485.2410, 18327.13
487.1695, 18333.32
489.0979, 18342.77
491.0264, 18369.83
492.9549, 18430.40
494.8833, 18507.75
496.8118, 18569.93
498.7403, 18607.71
500.6687, 18646.21
502.5972, 18692.23
504.5257, 18744.20
506.4541, 18795.46
508.3826, 18849.04
510.3111, 18892.77
512.2395, 18910.53
514.1680, 18896.76
516.0964, 18885.76
518.0249, 18903.90
519.9534, 18933.00
521.8818, 18934.30
523.8103, 18886.70
525.7388, 18847.66
527.6672, 18833.94
529.5957, 18848.88
531.5242, 18887.47
533.4526, 18959.91
535.3811, 19049.02
537.3096, 19141.59
539.2380, 19235.65
541.1665, 19320.11
543.0950, 19378.76
545.0234, 19421.03
546.9519, 19470.71
548.8804, 19535.55
550.8088, 19591.43
552.7373, 19629.73
554.6658, 19650.59
556.5942, 19684.92
558.5227, 19753.58
560.4512, 19825.65
562.3796, 19879.40
564.3081, 19913.90
566.2366, 19949.63
568.1650, 19990.53
570.0935, 20032.18
572.0220, 20069.29
573.9504, 20087.57
575.8789, 20112.80
577.8074, 20163.87
579.7358, 20228.09
581.6643, 20259.41
583.5928, 20219.77
585.5213, 20189.68
587.4498, 20209.29
589.3782, 20302.34
591.3067, 20389.53
593.2352, 20465.35
595.1636, 20537.33
597.0921, 20615.52
599.0206, 20703.99
600.9490, 20775.19
602.8775, 20805.82
604.8060, 20812.43
606.7344, 20840.27
608.6629, 20910.53
610.5914, 20983.08
612.5198, 21050.73
614.4483, 21115.57
616.3768, 21181.01
618.3052, 21259.75
620.2337, 21323.90
622.1622, 21355.04
624.0906, 21328.97
626.0191, 21309.50
627.9476, 21302.88
629.8760, 21300.06
631.8045, 21291.88
633.7330, 21279.34
635.6614, 21278.25
637.5899, 21299.05
639.5184, 21340.44
641.4468, 21394.90
643.3753, 21454.97
645.3038, 21527.86
647.2322, 21617.25
649.1607, 21711.90
651.0892, 21781.63
653.0176, 21798.78
654.9461, 21802.44
656.8746, 21820.89
658.8030, 21877.56
660.7315, 21896.50
662.6600, 21863.60
664.5884, 21822.53
666.5169, 21818.73
668.4454, 21861.59
670.3738, 21911.07
672.3023, 21938.20
674.2308, 21965.09
676.1592, 22028.79
678.0877, 22161.71
680.0162, 22281.17
681.9446, 22371.99
683.8731, 22433.15
685.8016, 22477.38
687.7300, 22497.64
689.6585, 22516.74
691.5870, 22545.99
693.5154, 22587.08
695.4439, 22633.59
697.3724, 22695.63
699.3008, 22753.23
701.2293, 22792.48
703.1578, 22810.09
705.0862, 22825.87
707.0147, 22838.55
708.9432, 22852.88
710.8716, 22873.39
712.8001, 22903.38
714.7286, 22943.84
716.6570, 23005.13
718.5855, 23077.57
720.5140, 23145.68
722.4424, 23207.21
724.3709, 23268.57
726.2994, 23325.48
728.2278, 23379.33
730.1563, 23433.82
732.0848, 23478.46
734.0132, 23529.33
735.9417, 23595.25
737.8702, 23670.90
739.7986, 23729.71
741.7271, 23765.06
743.6556, 23796.32
745.5840, 23831.46
747.5125, 23872.60
749.4410, 23922.83
751.3694, 24000.79
753.2979, 24077.23
755.2264, 24139.47
757.1548, 24184.64
759.0833, 24230.53
761.0118, 24266.61
762.9402, 24307.84
764.8687, 24360.97
766.7972, 24423.38
768.7256, 24496.43
770.6541, 24597.45
772.5826, 24697.06
774.5110, 24773.94
776.4395, 24816.45
778.3680, 24854.86
780.2964, 24881.09
782.2249, 24908.74
784.1534, 24953.53
786.0818, 25017.90
788.0103, 25085.03
789.9388, 25157.30
791.8672, 25227.55
793.7957, 25286.93
795.7242, 25336.04
797.6526, 25377.40
799.5811, 25387.85
801.5096, 25399.19
803.4380, 25473.83
805.3665, 25635.45
807.2950, 25795.99
809.2234, 25923.08
811.1519, 26022.43
813.0804, 26108.72
815.0089, 26175.04
816.9373, 26223.55
818.8658, 26239.83
820.7943, 26237.02
822.7227, 26265.77
824.6512, 26363.70
826.5797, 26445.54
828.5081, 26464.79
830.4366, 26450.80
832.3651, 26473.86
834.2935, 26572.22
836.2220, 26662.27
838.1505, 26703.29
840.0789, 26701.88
842.0074, 26732.02
843.9359, 26805.88
845.8643, 26890.26
847.7928, 26984.83
849.7213, 27085.46
851.6497, 27174.48
853.5782, 27242.14
855.5067, 27314.79
857.4351, 27404.57
859.3636, 27509.59
861.2921, 27604.97
863.2205, 27695.72
865.1490, 27764.22
867.0775, 27783.39
869.0059, 27764.30
870.9344, 27775.46
872.8629, 27846.04
874.7913, 27914.92
876.7198, 27960.92
878.6483, 27988.55
880.5767, 28015.07
882.5052, 28033.38
884.4337, 28065.68
886.3621, 28122.92
888.2906, 28203.46
890.2191, 28284.10
892.1475, 28360.36
894.0760, 28436.05
896.0045, 28501.72
897.9329, 28563.35
899.8614, 28652.47
901.7899, 28802.50
903.7183, 28942.27
905.6468, 29054.85
907.5753, 29139.45
909.5037, 29191.30
911.4322, 29146.63
913.3607, 29139.47
915.2891, 29237.54
917.2176, 29401.89
919.1461, 29530.57
921.0745, 29618.36
923.0030, 29672.98
924.9315, 29675.67
926.8599, 29650.80
928.7884, 29680.15
930.7169, 29824.21
932.6453, 29955.92
934.5738, 30045.24
936.5023, 30104.43
938.4307, 30167.19
940.3592, 30230.27
942.2877, 30294.18
944.2161, 30359.44
946.1446, 30425.66
948.0731, 30494.63
950.0015, 30577.15
951.9300, 30647.94
953.8585, 30690.90
955.7869, 30727.36
957.7154, 30788.50
959.6439, 30879.98
961.5723, 30980.83
963.5008, 31079.48
965.4293, 31188.92
967.3577, 31317.11
969.2862, 31459.82
971.2147, 31642.34
973.1431, 31873.69
975.0716, 32150.34
977.0001, 32468.19
978.9285, 32818.50
980.8570, 33240.97
982.7855, 33763.62
984.7139, 34326.50
986.6424, 34968.13
988.5709, 35702.54
990.4993, 36150.87
992.4278, 36274.21
994.3563, 36120.32
996.2847, 35594.17
998.2132, 34757.92
1000.142, 34109.84
1002.070, 33722.77
1003.999, 33505.29
1005.927, 33476.15
1007.856, 33607.77
1009.784, 33704.77
1011.712, 33761.79
1013.641, 33775.23
1015.569, 33718.55
1017.498, 33614.75
1019.426, 33520.75
1021.355, 33436.41
1023.283, 33381.57
1025.212, 33387.85
1027.140, 33426.49
1029.069, 33460.04
1030.997, 33481.21
1032.926, 33521.05
1034.854, 33586.51
1036.782, 33662.89
1038.711, 33738.20
1040.639, 33810.60
1042.568, 33869.43
1044.496, 33914.92
1046.425, 33948.11
1048.353, 33968.16
1050.282, 33981.45
1052.210, 34007.76
1054.139, 34063.52
1056.067, 34127.91
1057.996, 34174.32
1059.924, 34212.77
1061.853, 34319.41
1063.781, 34547.15
1065.709, 34765.75
1067.638, 34950.72
1069.566, 35099.04
1071.495, 35202.83
1073.423, 35238.84
1075.352, 35293.07
1077.280, 35420.20
1079.209, 35555.11
1081.137, 35634.28
1083.066, 35651.79
1084.994, 35673.23
1086.923, 35717.85
1088.851, 35766.09
1090.780, 35809.25
1092.708, 35848.68
1094.637, 35889.08
1096.565, 35933.12
1098.494, 35987.27
1100.422, 36058.13
1102.350, 36146.27
1104.279, 36243.14
1106.207, 36344.44
1108.136, 36455.42
1110.064, 36578.95
1111.993, 36703.02
1113.921, 36811.41
1115.850, 36895.36
1117.778, 36975.91
1119.707, 37042.51
1121.635, 37118.61
1123.564, 37232.44
1125.492, 37401.92
1127.421, 37530.41
1129.349, 37613.42
1131.277, 37671.71
1133.206, 37698.25
1135.134, 37705.61
1137.063, 37742.66
1138.991, 37826.40
1140.920, 37901.50
1142.848, 37942.60
1144.777, 37968.09
1146.705, 38000.73
1148.634, 38042.71
1150.562, 38084.26
1152.491, 38116.90
1154.419, 38153.65
1156.348, 38202.19
1158.276, 38262.64
1160.204, 38327.92
1162.133, 38408.21
1164.061, 38480.20
1165.990, 38522.24
1167.918, 38550.69
1169.847, 38610.57
1171.775, 38708.14
1173.704, 38818.39
1175.632, 38952.72
1177.561, 39085.52
1179.489, 39186.49
1181.418, 39250.46
1183.346, 39330.18
1185.275, 39457.60
1187.203, 39569.55
1189.131, 39628.66
1191.060, 39644.32
1192.988, 39681.96
1194.917, 39781.88
1196.845, 39868.39
1198.774, 39929.62
1200.702, 39983.96
1202.631, 40050.35
1204.559, 40124.64
1206.488, 40214.19
1208.416, 40310.71
1210.345, 40411.60
1212.273, 40511.06
1214.202, 40604.29
1216.130, 40694.80
1218.058, 40799.57
1219.987, 40877.40
1221.915, 40907.91
1223.844, 40924.74
1225.772, 40971.00
1227.701, 41062.13
1229.629, 41161.45
1231.558, 41255.47
1233.486, 41363.19
1235.415, 41494.42
1237.343, 41644.35
1239.272, 41793.72
1241.200, 41936.23
1243.129, 42079.92
1245.057, 42227.74
1246.985, 42370.98
1248.914, 42496.09
1250.842, 42597.52
1252.771, 42695.84
1254.699, 42800.44
1256.628, 42892.03
1258.556, 42957.46
1260.485, 43006.68
1262.413, 43072.59
1264.342, 43181.85
1266.270, 43286.00
1268.199, 43360.19
1270.127, 43437.53
1272.056, 43551.13
1273.984, 43705.26
1275.912, 43856.30
1277.841, 43994.38
1279.769, 44124.79
1281.698, 44263.33
1283.626, 44396.66
1285.555, 44476.75
1287.483, 44479.24
1289.412, 44516.45
1291.340, 44626.85
1293.269, 44770.50
1295.197, 44919.14
1297.126, 45068.36
1299.054, 45207.81
1300.983, 45330.69
1302.911, 45447.77
1304.839, 45565.50
1306.768, 45684.72
1308.696, 45803.19
1310.625, 45921.14
1312.553, 46059.14
1314.482, 46233.84
1316.410, 46413.20
1318.339, 46580.69
1320.267, 46731.64
1322.196, 46866.95
1324.124, 46972.59
1326.053, 47065.46
1327.981, 47153.67
1329.910, 47226.73
1331.838, 47266.65
1333.766, 47277.66
1335.695, 47341.98
1337.623, 47505.91
1339.552, 47668.25
1341.480, 47801.37
1343.409, 47907.79
1345.337, 47972.57
1347.266, 47983.95
1349.194, 48050.03
1351.123, 48254.68
1353.051, 48414.85
1354.980, 48396.74
1356.908, 48278.63
1358.837, 48253.01
1360.765, 48358.18
1362.693, 48463.45
1364.622, 48577.49
1366.550, 48668.98
1368.479, 48693.74
1370.407, 48665.81
1372.336, 48718.56
1374.264, 48910.18
1376.193, 49093.99
1378.121, 49227.00
1380.050, 49347.48
1381.978, 49491.39
1383.907, 49652.59
1385.835, 49779.36
1387.764, 49874.96
1389.692, 49925.43
1391.620, 49908.43
1393.549, 49864.15
1395.477, 49850.32
1397.406, 49876.40
1399.334, 49892.03
1401.263, 49877.25
1403.191, 49893.10
1405.120, 49983.16
1407.048, 50111.13
1408.977, 50229.77
1410.905, 50337.01
1412.834, 50415.02
1414.762, 50419.20
1416.691, 50447.95
1418.619, 50574.43
1420.547, 50752.84
1422.476, 50875.92
1424.404, 50923.47
1426.333, 51007.34
1428.261, 51148.54
1430.190, 51318.03
1432.118, 51505.34
1434.047, 51699.52
1435.975, 51882.69
1437.904, 52057.10
1439.832, 52191.36
1441.761, 52267.28
1443.689, 52326.83
1445.618, 52391.76
1447.546, 52472.35
1449.474, 52584.88
1451.403, 52759.60
1453.331, 52941.87
1455.260, 53170.20
1457.188, 53368.04
1459.117, 53479.63
1461.045, 53511.25
1462.974, 53501.08
1464.902, 53420.00
1466.831, 53347.86
1468.759, 53284.03
1470.688, 53236.59
1472.616, 53226.40
1474.545, 53241.36
1476.473, 53241.34
1478.401, 53229.02
1480.330, 53228.70
1482.258, 53254.53
1484.187, 53299.89
1486.115, 53366.45
1488.044, 53449.14
1489.972, 53530.34
1491.901, 53598.97
1493.829, 53686.18
1495.758, 53806.59
1497.686, 53923.76
1499.615, 54022.51
1501.543, 54103.20
1503.472, 54160.01
1505.400, 54184.42
1507.328, 54255.80
1509.257, 54411.36
1511.185, 54603.39
1513.114, 54832.58
1515.042, 55073.44
1516.971, 55259.80
1518.899, 55355.50
1520.828, 55482.25
1522.756, 55677.89
1524.685, 55850.00
1526.613, 55977.98
1528.542, 56059.44
1530.470, 56087.86
1532.399, 56056.11
1534.327, 56035.86
1536.255, 56044.52
1538.184, 56069.91
1540.112, 56105.86
1542.041, 56163.27
1543.969, 56254.71
1545.898, 56378.55
1547.826, 56504.55
1549.755, 56660.69
1551.683, 56770.02
1553.612, 56771.71
1555.540, 56756.89
1557.469, 56810.32
1559.397, 56930.44
1561.326, 57060.71
1563.254, 57214.99
1565.182, 57348.26
1567.111, 57444.10
1569.039, 57517.61
1570.968, 57557.44
1572.896, 57582.31
1574.825, 57675.90
1576.753, 57885.95
1578.682, 58024.18
1580.610, 58007.52
1582.539, 57998.76
1584.467, 58075.23
1586.396, 58206.68
1588.324, 58340.50
1590.253, 58469.91
1592.181, 58596.18
1594.109, 58706.07
1596.038, 58820.27
1597.966, 58977.93
1599.895, 59121.61
1601.823, 59168.72
1603.752, 59144.38
1605.680, 59194.23
1607.609, 59366.38
1609.537, 59523.66
1611.466, 59592.61
1613.394, 59672.03
1615.323, 59843.41
1617.251, 60060.70
1619.180, 60209.86
1621.108, 60265.71
1623.036, 60334.70
1624.965, 60459.73
1626.893, 60542.95
1628.822, 60521.16
1630.750, 60456.68
1632.679, 60436.36
1634.607, 60464.24
1636.536, 60467.84
1638.464, 60423.39
1640.393, 60438.17
1642.321, 60611.16
1644.250, 60786.66
1646.178, 60804.05
1648.107, 60726.55
1650.035, 60728.26
1651.964, 60816.99
1653.892, 60900.65
1655.820, 60972.09
1657.749, 61024.21
1659.677, 61051.27
1661.606, 61074.75
1663.534, 61136.05
1665.463, 61234.93
1667.391, 61286.64
1669.320, 61255.88
1671.248, 61282.03
1673.177, 61409.82
1675.105, 61589.86
1677.034, 61799.97
1678.962, 62021.28
1680.891, 62224.82
1682.819, 62402.72
1684.747, 62562.82
1686.676, 62720.73
1688.604, 62834.92
1690.533, 62856.43
1692.461, 62863.73
1694.390, 62939.33
1696.318, 63061.16
1698.247, 63141.91
1700.175, 63167.49
1702.104, 63200.15
1704.032, 63257.64
1705.961, 63313.18
1707.889, 63367.51
1709.818, 63408.32
1711.746, 63410.71
1713.674, 63385.70
1715.603, 63397.55
1717.531, 63464.86
1719.460, 63521.73
1721.388, 63534.52
1723.317, 63544.33
1725.245, 63583.19
1727.174, 63631.27
1729.102, 63641.50
1731.031, 63618.04
1732.959, 63668.53
1734.888, 63841.41
1736.816, 64009.22
1738.745, 64137.91
1740.673, 64245.85
1742.601, 64309.02
1744.530, 64361.61
1746.458, 64504.65
1748.387, 64745.42
1750.315, 64914.21
1752.244, 64967.32
1754.172, 64991.67
1756.101, 64984.89
1758.029, 64982.63
1759.958, 65014.52
1761.886, 65076.38
1763.815, 65165.66
1765.743, 65306.70
1767.672, 65387.54
1769.600, 65347.68
1771.528, 65345.98
1773.457, 65441.25
1775.385, 65566.89
1777.314, 65641.95
1779.242, 65698.30
1781.171, 65851.76
1783.099, 66133.68
1785.028, 66340.26
1786.956, 66437.10
1788.885, 66485.56
1790.813, 66470.06
1792.742, 66444.58
1794.670, 66468.07
1796.599, 66519.09
1798.527, 66534.79
1800.455, 66525.10
1802.384, 66482.16
1804.312, 66318.50
1806.241, 66263.93
1808.169, 66446.97
1810.098, 66650.93
1812.026, 66726.87
1813.955, 66740.41
1815.883, 66820.93
1817.812, 66972.78
1819.740, 67118.29
1821.669, 67218.55
1823.597, 67367.50
1825.526, 67640.48
1827.454, 67875.77
1829.382, 67980.57
1831.311, 68005.51
1833.239, 68018.76
1835.168, 68025.63
1837.096, 68033.67
1839.025, 68052.51
1840.953, 68070.67
1842.882, 68078.75
1844.810, 68099.37
1846.739, 68141.31
1848.667, 68189.61
1850.596, 68240.96
1852.524, 68284.42
1854.453, 68299.62
1856.381, 68293.69
1858.309, 68236.70
1860.238, 68070.71
1862.166, 68004.98
1864.095, 68208.63
1866.023, 68451.01
1867.952, 68546.55
1869.880, 68565.46
1871.809, 68643.38
1873.737, 68771.81
1875.666, 68902.76
1877.594, 69019.36
1879.523, 69142.23
1881.451, 69297.37
1883.380, 69431.41
1885.308, 69515.84
1887.236, 69579.79
1889.165, 69661.55
1891.093, 69753.75
1893.022, 69808.55
1894.950, 69810.55
1896.879, 69809.27
1898.807, 69797.32
1900.736, 69786.73
1902.664, 69816.42
1904.593, 69816.97
1906.521, 69711.73
1908.450, 69580.18
1910.378, 69553.81
1912.307, 69630.85
1914.235, 69733.44
1916.163, 69861.88
1918.092, 70006.52
1920.020, 70186.19
1921.949, 70325.82
1923.877, 70362.34
1925.806, 70364.08
1927.734, 70366.66
1929.663, 70377.81
1931.591, 70425.06
1933.520, 70508.53
1935.448, 70578.95
1937.377, 70639.63
1939.305, 70697.73
1941.234, 70780.90
1943.162, 70839.46
1945.090, 70808.11
1947.019, 70778.91
1948.947, 70848.45
1950.876, 70979.01
1952.804, 71070.94
1954.733, 71113.58
1956.661, 71172.22
1958.590, 71269.28
1960.518, 71352.33
1962.447, 71373.05
1964.375, 71443.87
1966.304, 71660.18
1968.232, 71884.12
1970.161, 71969.59
1972.089, 71962.94
1974.017, 72006.01
1975.946, 72098.31
1977.874, 72161.64
1979.803, 72194.84
1981.731, 72226.40
1983.660, 72278.53
1985.588, 72321.82
1987.517, 72329.76
1989.445, 72332.69
1991.374, 72337.02
1993.302, 72351.60
1995.231, 72387.64
1997.159, 72443.85
1999.088, 72588.64
2001.016, 72901.98
2002.944, 73107.93
2004.873, 73093.90
2006.801, 73111.38
2008.730, 73249.80
2010.658, 73413.51
2012.587, 73545.62
2014.515, 73661.43
2016.444, 73770.87
2018.372, 73877.34
2020.301, 74043.21
2022.229, 74281.61
2024.158, 74441.16
2026.086, 74475.13
2028.015, 74495.23
2029.943, 74501.39
2031.871, 74543.66
2033.800, 74711.14
2035.728, 74887.51
2037.657, 74954.57
2039.585, 74961.98
2041.514, 75008.45
2043.442, 75095.87
2045.371, 75205.54
2047.299, 75330.95
2049.228, 75473.42
2051.156, 75623.92
2053.084, 75791.46
2055.013, 75966.45
2056.941, 76172.48
2058.870, 76503.13
2060.798, 76815.13
2062.727, 76873.48
2064.656, 76750.11
2066.584, 76766.81
2068.512, 76921.06
2070.441, 77038.80
2072.369, 77105.66
2074.298, 77155.43
2076.226, 77184.59
2078.155, 77248.79
2080.083, 77428.73
2082.012, 77604.89
2083.940, 77646.84
2085.869, 77668.09
2087.797, 77840.69
2089.726, 78114.66
2091.654, 78303.37
2093.583, 78385.51
2095.511, 78451.06
2097.439, 78487.49
2099.368, 78532.12
2101.296, 78631.55
2103.225, 78689.23
2105.153, 78648.97
2107.082, 78613.47
2109.010, 78627.34
2110.939, 78694.06
2112.867, 78846.26
2114.796, 79046.91
2116.724, 79196.30
2118.653, 79294.50
2120.581, 79381.68
2122.510, 79429.96
2124.438, 79568.29
2126.366, 79871.74
2128.295, 80159.66
2130.223, 80422.70
2132.152, 80601.68
2134.080, 80593.03
2136.009, 80540.84
2137.937, 80575.52
2139.866, 80661.38
2141.794, 80759.77
2143.723, 80869.05
2145.651, 80924.66
2147.580, 80938.41
2149.508, 80960.40
2151.437, 80981.47
2153.365, 81093.66
2155.293, 81401.91
2157.222, 81654.23
2159.150, 81678.58
2161.079, 81705.76
2163.007, 81885.82
2164.936, 82124.38
2166.864, 82327.48
2168.793, 82507.88
2170.721, 82705.80
2172.650, 82915.88
2174.578, 83058.51
2176.507, 83123.70
2178.435, 83209.12
2180.364, 83329.09
2182.292, 83436.80
2184.220, 83518.16
2186.149, 83596.87
2188.077, 83708.72
2190.006, 83806.78
2191.934, 83833.86
2193.863, 83869.63
2195.791, 84026.80
2197.720, 84240.68
2199.648, 84344.66
2201.577, 84349.70
2203.505, 84466.24
2205.434, 84698.92
2207.362, 84807.96
2209.291, 84752.04
2211.219, 84713.29
2213.147, 84752.16
2215.076, 84772.14
2217.004, 84725.16
2218.933, 84698.88
2220.861, 84733.65
2222.790, 84809.52
2224.718, 84937.35
2226.647, 85074.52
2228.575, 85136.09
2230.504, 85163.01
2232.432, 85302.21
2234.361, 85542.86
2236.289, 85715.88
2238.218, 85800.19
2240.146, 85971.39
2242.074, 86279.41
2244.003, 86496.51
2245.931, 86538.02
2247.860, 86531.43
2249.788, 86475.93
2251.717, 86450.34
2253.645, 86537.97
2255.574, 86640.70
2257.502, 86681.05
2259.431, 86692.18
2261.359, 86696.85
2263.288, 86712.13
2265.216, 86802.39
2267.145, 86953.48
2269.073, 87077.72
2271.001, 87177.38
2272.930, 87267.46
2274.858, 87333.05
2276.787, 87445.37
2278.715, 87619.37
2280.644, 87804.73
2282.572, 87973.68
2284.501, 88140.11
2286.429, 88318.91
2288.358, 88461.93
2290.286, 88545.43
2292.215, 88591.05
2294.143, 88628.78
2296.072, 88650.57
2298.000, 88617.66
2299.928, 88565.55
2301.857, 88594.05
2303.785, 88701.55
2305.714, 88818.77
2307.642, 88949.28
2309.571, 89063.32
2311.499, 89156.13
2313.428, 89250.23
2315.356, 89349.88
2317.285, 89433.31
2319.213, 89474.13
2321.142, 89518.54
2323.070, 89587.95
2324.999, 89648.32
2326.927, 89689.87
2328.855, 89704.93
2330.784, 89693.79
2332.712, 89662.44
2334.641, 89605.66
2336.569, 89551.91
2338.498, 89564.49
2340.426, 89631.52
2342.355, 89665.02
2344.283, 89675.09
2346.212, 89799.02
2348.140, 90056.13
2350.069, 90274.21
2351.997, 90400.01
2353.926, 90541.37
2355.854, 90719.05
2357.782, 90861.14
2359.711, 90932.45
2361.639, 90993.52
2363.568, 91047.45
2365.496, 91118.94
2367.425, 91291.83
2369.353, 91419.01
2371.282, 91377.23
2373.210, 91269.16
2375.139, 91159.48
2377.067, 91086.27
2378.996, 91153.97
2380.924, 91288.17
2382.853, 91228.31
2384.781, 91022.35
2386.709, 91029.27
2388.638, 91227.78
2390.566, 91267.79
2392.495, 91116.46
2394.423, 91023.71
2396.352, 91044.21
2398.280, 91075.52
2400.209, 91110.95
2402.137, 91169.83
2404.066, 91247.57
2405.994, 91333.05
2407.923, 91409.70
2409.851, 91480.95
2411.780, 91549.48
2413.708, 91600.39
2415.636, 91635.94
2417.565, 91661.80
2419.493, 91702.61
2421.422, 91742.34
2423.350, 91726.28
2425.279, 91717.83
2427.207, 91828.99
2429.136, 92001.75
2431.064, 92104.39
2432.993, 92147.64
2434.921, 92200.68
2436.850, 92261.59
2438.778, 92349.80
2440.707, 92492.77
2442.635, 92487.33
2444.563, 92289.36
2446.492, 92189.20
2448.420, 92219.64
2450.349, 92270.71
2452.277, 92336.52
2454.206, 92393.62
2456.134, 92442.66
2458.063, 92458.21
2459.991, 92392.30
2461.920, 92340.88
2463.848, 92320.18
2465.777, 92333.91
2467.705, 92415.95
2469.634, 92500.23
2471.562, 92604.87
2473.490, 92644.63
2475.419, 92446.29
2477.347, 92256.75
2479.276, 92382.36
2481.204, 92612.48
2483.133, 92658.45
2485.061, 92598.13
2486.990, 92592.28
2488.918, 92615.91
2490.847, 92592.08
2492.775, 92547.16
2494.704, 92520.92
2496.632, 92530.56
2498.561, 92677.03
2500.489, 92962.20
2502.417, 93166.07
2504.346, 93256.13
2506.274, 93306.48
2508.203, 93295.97
2510.131, 93380.55
2512.060, 93626.02
2513.988, 93730.34
2515.917, 93578.35
2517.845, 93489.70
2519.774, 93557.70
2521.702, 93591.52
2523.631, 93501.56
2525.559, 93472.75
2527.488, 93609.58
2529.416, 93650.27
2531.344, 93484.33
2533.273, 93258.30
2535.201, 93006.96
2537.130, 92810.45
2539.058, 92743.09
2540.987, 92740.34
2542.915, 92769.70
2544.844, 92830.86
2546.772, 92895.10
2548.701, 92980.38
2550.629, 93107.25
2552.558, 93227.26
2554.486, 93284.80
2556.415, 93302.11
2558.343, 93329.88
2560.271, 93344.13
2562.200, 93301.39
2564.128, 93235.05
2566.057, 93202.94
2567.985, 93191.28
2569.914, 93120.27
2571.842, 93029.95
2573.771, 93104.91
2575.699, 93296.63
2577.628, 93371.67
2579.556, 93333.78
2581.485, 93205.30
2583.413, 93006.65
2585.342, 92870.34
2587.270, 92809.09
2589.198, 92808.41
2591.127, 92888.41
2593.055, 92897.34
2594.984, 92817.98
2596.912, 92837.55
2598.841, 92968.17
2600.769, 93077.48
2602.698, 93171.22
2604.626, 93127.11
2606.555, 92823.37
2608.483, 92663.37
2610.412, 92720.53
2612.340, 92721.57
2614.269, 92619.20
2616.197, 92570.36
2618.125, 92613.77
2620.054, 92674.11
2621.982, 92747.43
2623.911, 92787.13
2625.839, 92741.46
2627.768, 92738.16
2629.696, 92836.49
2631.625, 92890.12
2633.553, 92848.15
2635.482, 92801.43
2637.410, 92760.05
2639.339, 92762.48
2641.267, 92857.53
2643.196, 92932.13
2645.124, 92894.49
2647.052, 92916.49
2648.981, 93122.35
2650.909, 93290.33
2652.838, 93290.17
2654.766, 93286.87
2656.695, 93416.87
2658.623, 93495.38
2660.552, 93423.89
2662.480, 93338.95
2664.409, 93315.55
2666.337, 93289.70
2668.266, 93220.94
2670.194, 93122.52
2672.123, 92967.71
2674.051, 92819.71
2675.979, 92730.20
2677.908, 92639.30
2679.836, 92530.09
2681.765, 92393.80
2683.693, 92163.35
2685.622, 91993.49
2687.550, 92049.83
2689.479, 92148.47
2691.407, 92163.03
2693.336, 92147.10
2695.264, 92149.13
2697.193, 92103.54
2699.121, 91890.05
2701.050, 91683.52
2702.978, 91671.95
2704.906, 91698.41
2706.835, 91650.07
2708.763, 91590.94
2710.692, 91545.98
2712.620, 91552.80
2714.549, 91664.03
2716.477, 91795.52
2718.406, 91850.64
2720.334, 91881.98
2722.263, 91938.33
2724.191, 91963.75
2726.120, 91898.16
2728.048, 91809.23
2729.977, 91802.91
2731.905, 91773.59
2733.833, 91610.09
2735.762, 91425.19
2737.690, 91306.41
2739.619, 91207.27
2741.547, 91055.29
2743.476, 90942.21
2745.404, 90963.16
2747.333, 91025.77
2749.261, 91093.89
2751.190, 91120.80
2753.118, 91009.82
2755.047, 90922.73
2756.975, 91035.52
2758.904, 91151.04
2760.832, 91079.76
2762.760, 91031.45
2764.689, 91199.23
2766.617, 91370.70
2768.546, 91374.41
2770.474, 91378.80
2772.403, 91483.73
2774.331, 91614.81
2776.260, 91750.47
2778.188, 91854.84
2780.117, 91910.95
2782.045, 91949.64
2783.974, 92025.48
2785.902, 92060.59
2787.831, 91939.78
2789.759, 91885.23
2791.688, 92002.51
2793.616, 92119.24
2795.544, 92143.76
2797.473, 92126.23
2799.401, 92042.45
2801.330, 91972.77
2803.258, 92022.68
2805.187, 91962.57
2807.115, 91681.79
2809.044, 91458.88
2810.972, 91507.73
2812.901, 91459.21
2814.829, 91127.12
2816.758, 90888.48
2818.686, 90812.55
2820.615, 90769.55
2822.543, 90732.39
2824.471, 90690.77
2826.400, 90637.88
2828.328, 90558.16
2830.257, 90421.87
2832.185, 90347.30
2834.114, 90364.69
2836.042, 90379.59
2837.971, 90390.98
2839.899, 90405.14
2841.828, 90416.77
2843.756, 90508.53
2845.685, 90681.09
2847.613, 90837.48
2849.542, 90952.47
2851.470, 90954.98
2853.398, 90818.94
2855.327, 90762.20
2857.255, 90782.59
2859.184, 90719.57
2861.112, 90593.52
2863.041, 90465.73
2864.969, 90351.81
2866.898, 90313.14
2868.826, 90325.44
2870.755, 90299.57
2872.683, 90247.86
2874.612, 90233.23
2876.540, 90231.27
2878.469, 90189.66
2880.397, 90126.06
2882.325, 90038.52
2884.254, 89968.19
2886.182, 89962.69
2888.111, 90000.04
2890.039, 90076.99
2891.968, 90152.54
2893.896, 90168.41
2895.825, 90179.10
2897.753, 90243.66
2899.682, 90294.56
2901.610, 90250.05
2903.539, 90217.53
2905.467, 90307.55
2907.396, 90347.21
2909.324, 90233.77
2911.252, 90149.22
2913.181, 90196.51
2915.109, 90268.24
2917.038, 90359.48
2918.966, 90448.88
2920.895, 90529.97
2922.823, 90610.49
2924.752, 90678.10
2926.680, 90730.61
2928.609, 90737.32
2930.537, 90778.89
2932.466, 90857.18
2934.394, 90955.00
2936.323, 91080.59
2938.251, 91124.15
2940.179, 91087.48
2942.108, 91027.30
2944.036, 90954.60
2945.965, 90946.34
2947.893, 90990.05
2949.822, 91036.39
2951.750, 91083.82
2953.679, 91115.19
2955.607, 91138.84
2957.536, 91133.71
2959.464, 91149.65
2961.393, 91284.00
2963.321, 91421.82
2965.250, 91425.45
2967.178, 91388.74
2969.106, 91377.63
2971.035, 91378.58
2972.963, 91375.11
2974.892, 91405.22
2976.820, 91537.86
2978.749, 91610.66
2980.677, 91555.08
2982.606, 91474.33
2984.534, 91366.98
2986.463, 91306.70
2988.391, 91326.44
2990.320, 91324.38
2992.248, 91294.91
2994.177, 91300.54
2996.105, 91362.95
2998.033, 91393.90
2999.962, 91395.02
3001.890, 91416.38
3003.819, 91461.60
3005.747, 91577.83
3007.676, 91723.16
3009.604, 91806.21
3011.533, 91826.30
3013.461, 91794.59
3015.390, 91718.63
3017.318, 91600.62
3019.247, 91486.78
3021.175, 91446.56
3023.104, 91435.63
3025.032, 91427.88
3026.960, 91440.93
3028.889, 91513.90
3030.817, 91523.29
3032.746, 91357.22
3034.674, 91259.46
3036.603, 91303.84
3038.531, 91306.92
3040.460, 91191.17
3042.388, 91211.95
3044.317, 91392.76
3046.245, 91553.47
3048.174, 91677.56
3050.102, 91753.87
3052.031, 91784.45
3053.959, 91892.84
3055.887, 92014.45
3057.816, 91973.71
3059.744, 91848.73
3061.673, 91742.12
3063.601, 91658.22
3065.530, 91561.66
3067.458, 91555.84
3069.387, 91757.52
3071.315, 91968.05
3073.244, 92050.35
3075.172, 92124.25
3077.101, 92219.26
3079.029, 92284.88
3080.958, 92330.27
3082.886, 92300.71
3084.814, 92176.83
3086.743, 92150.05
3088.671, 92237.60
3090.600, 92427.02
3092.528, 92691.71
3094.457, 92898.34
3096.385, 93027.57
3098.314, 93022.61
3100.242, 92954.59
3102.171, 92998.03
3104.099, 93025.24
3106.028, 92922.13
3107.956, 92770.62
3109.885, 92631.23
3111.813, 92514.22
3113.741, 92392.74
3115.670, 92363.83
3117.598, 92466.02
3119.527, 92537.85
3121.455, 92527.75
3123.384, 92565.66
3125.312, 92670.09
3127.241, 92786.28
3129.169, 92907.95
3131.098, 92899.85
3133.026, 92805.71
3134.955, 92692.85
3136.883, 92620.83
3138.812, 92737.27
3140.740, 92891.34
3142.668, 92913.63
3144.597, 92926.79
3146.525, 93002.86
3148.454, 93083.80
3150.382, 93171.52
3152.311, 93166.77
3154.239, 92981.77
3156.168, 92864.77
3158.096, 92862.00
3160.025, 92782.35
3161.953, 92634.47
3163.882, 92465.11
3165.810, 92316.08
3167.739, 92409.87
3169.667, 92587.08
3171.595, 92521.34
3173.524, 92388.19
3175.452, 92333.10
3177.381, 92358.88
3179.309, 92524.96
3181.238, 92650.18
3183.166, 92576.46
3185.095, 92592.47
3187.023, 92772.07
3188.952, 92907.50
3190.880, 92980.93
3192.809, 92981.35
3194.737, 92919.74
3196.666, 92888.83
3198.594, 92877.16
3200.522, 92825.27
3202.451, 92778.07
3204.379, 92823.56
3206.308, 92871.13
3208.236, 92857.23
3210.165, 92810.55
3212.093, 92723.49
3214.022, 92665.14
3215.950, 92664.71
3217.879, 92690.25
3219.807, 92743.34
3221.736, 92781.30
3223.664, 92793.76
3225.593, 92867.13
3227.521, 92966.14
3229.449, 93015.27
3231.378, 93018.91
3233.306, 92987.71
3235.235, 92947.60
3237.163, 92993.77
3239.092, 92976.84
3241.020, 92769.27
3242.949, 92649.36
3244.877, 92667.81
3246.806, 92757.61
3248.734, 92894.52
3250.663, 92981.25
3252.591, 93002.70
3254.520, 93117.38
3256.448, 93210.51
3258.376, 93017.23
3260.305, 92736.04
3262.233, 92585.36
3264.162, 92512.67
3266.090, 92536.21
3268.019, 92548.27
3269.947, 92472.41
3271.876, 92465.59
3273.804, 92542.52
3275.733, 92601.65
3277.661, 92626.65
3279.590, 92654.98
3281.518, 92682.91
3283.447, 92735.61
3285.375, 92775.84
3287.303, 92707.66
3289.232, 92697.04
3291.160, 92947.91
3293.089, 93149.98
3295.017, 93169.77
3296.946, 93184.49
3298.874, 93199.92
3300.803, 93300.72
3302.731, 93464.87
3304.660, 93479.80
3306.588, 93399.46
3308.517, 93370.97
3310.445, 93421.84
3312.374, 93675.49
3314.302, 93870.71
3316.230, 93762.91
3318.159, 93639.99
3320.087, 93556.30
3322.016, 93534.16
3323.944, 93635.69
3325.873, 93531.98
3327.801, 93287.81
3329.730, 93263.13
3331.658, 93385.04
3333.587, 93550.30
3335.515, 93672.77
3337.444, 93634.77
3339.372, 93560.52
3341.301, 93489.58
3343.229, 93431.75
3345.157, 93388.70
3347.086, 93437.98
3349.014, 93604.72
3350.943, 93634.29
3352.871, 93589.27
3354.800, 93731.48
3356.728, 93885.21
3358.657, 93757.59
3360.585, 93631.09
3362.514, 93691.52
3364.442, 93745.95
3366.371, 93750.19
3368.299, 93709.15
3370.228, 93636.71
3372.156, 93711.75
3374.084, 93894.77
3376.013, 93902.73
3377.941, 93877.26
3379.870, 94080.91
3381.798, 94278.26
3383.727, 94316.85
3385.655, 94235.98
3387.584, 94019.92
3389.512, 93891.52
3391.441, 93938.90
3393.369, 93871.49
3395.298, 93736.05
3397.226, 93677.77
3399.155, 93691.81
3401.083, 93768.23
3403.011, 93896.65
3404.940, 94111.37
3406.868, 94225.38
3408.797, 94104.57
3410.725, 94005.36
3412.654, 93945.59
3414.582, 93890.72
3416.511, 93851.40
3418.439, 93891.15
3420.368, 93923.97
3422.296, 93783.55
3424.225, 93676.00
3426.153, 93778.00
3428.082, 93848.95
3430.010, 93829.95
3431.938, 93886.23
3433.867, 94022.52
3435.795, 93932.71
3437.724, 93759.66
3439.652, 93959.41
3441.581, 94155.49
3443.509, 93894.68
3445.438, 93637.08
3447.366, 93588.28
3449.295, 93547.23
3451.223, 93479.94
3453.152, 93459.88
3455.080, 93467.14
3457.009, 93414.79
3458.937, 93341.16
3460.865, 93339.22
3462.794, 93317.53
3464.722, 93183.51
3466.651, 93110.75
3468.579, 93148.47
3470.508, 93160.86
3472.436, 93135.13
3474.365, 93183.78
3476.293, 93233.85
3478.222, 93060.75
3480.150, 92874.70
3482.079, 92860.60
3484.007, 92897.89
3485.936, 92972.56
3487.864, 92981.19
3489.792, 92900.14
3491.721, 92811.29
3493.649, 92721.51
3495.578, 92656.95
3497.506, 92602.89
3499.435, 92570.25
3501.363, 92497.70
3503.292, 92349.19
3505.220, 92228.57
3507.149, 92164.35
3509.077, 92040.38
3511.006, 91910.93
3512.934, 91980.06
3514.863, 92129.41
3516.791, 92223.13
3518.719, 92285.52
3520.648, 92318.18
3522.576, 92309.70
3524.505, 92259.95
3526.433, 92192.04
3528.362, 92111.90
3530.290, 92046.01
3532.219, 91947.70
3534.147, 91758.60
3536.076, 91547.17
3538.004, 91339.16
3539.933, 91180.02
3541.861, 91092.15
3543.790, 91076.24
3545.718, 91120.53
3547.646, 91149.88
3549.575, 91205.79
3551.503, 91366.39
3553.432, 91486.50
3555.360, 91478.70
3557.289, 91510.90
3559.217, 91603.54
3561.146, 91573.31
3563.074, 91444.75
3565.003, 91309.83
3566.931, 91165.85
3568.860, 91033.82
3570.788, 90911.41
3572.717, 90789.70
3574.645, 90842.09
3576.573, 91056.99
3578.502, 91050.30
3580.430, 90917.35
3582.359, 90744.04
3584.287, 90702.52
3586.216, 90998.78
3588.144, 91179.78
3590.073, 91130.06
3592.001, 91071.62
3593.930, 91018.69
3595.858, 90930.90
3597.787, 90843.98
3599.715, 90797.62
3601.644, 90762.21
3603.572, 90696.88
3605.500, 90697.11
3607.429, 90765.37
3609.357, 90737.88
3611.286, 90658.79
3613.214, 90662.43
3615.143, 90665.73
3617.071, 90579.66
3619.000, 90499.31
3620.928, 90455.59
3622.857, 90320.40
3624.785, 90117.07
3626.714, 90024.96
3628.642, 89976.86
3630.571, 89871.23
3632.499, 89775.63
3634.427, 89670.25
3636.356, 89730.07
3638.284, 89976.62
3640.213, 90014.91
3642.141, 89943.45
3644.070, 90069.65
3645.998, 90145.38
3647.927, 89894.29
3649.855, 89773.20
3651.784, 89900.56
3653.712, 89895.04
3655.641, 89778.01
3657.569, 89672.03
3659.498, 89612.31
3661.426, 89657.89
3663.354, 89729.69
3665.283, 89825.71
3667.211, 89840.96
3669.140, 89788.28
3671.068, 89797.21
3672.997, 89845.27
3674.925, 89917.36
3676.854, 89939.30
3678.782, 89829.91
3680.711, 89824.97
3682.639, 89951.22
3684.568, 89894.06
3686.496, 89745.84
3688.425, 89683.91
3690.353, 89615.50
3692.281, 89482.41
3694.210, 89436.16
3696.138, 89502.70
3698.067, 89594.73
3699.995, 89665.03
3701.924, 89597.98
3703.852, 89547.89
3705.781, 89675.13
3707.709, 89676.43
3709.638, 89465.72
3711.566, 89424.68
3713.495, 89519.22
3715.423, 89629.95
3717.352, 89753.48
3719.280, 89891.32
3721.208, 89941.02
3723.137, 89862.17
3725.065, 89639.95
3726.994, 89351.22
3728.922, 89216.73
3730.851, 89125.69
3732.779, 88994.45
3734.708, 88923.64
3736.636, 88955.20
3738.565, 88881.91
3740.493, 88817.45
3742.422, 89198.55
3744.350, 89524.41
3746.279, 89367.92
3748.207, 89193.43
3750.135, 89111.38
3752.064, 89050.63
3753.992, 89003.69
3755.921, 88920.94
3757.849, 88877.10
3759.778, 88950.31
3761.706, 88981.49
3763.635, 88913.62
3765.563, 88947.64
3767.492, 89012.65
3769.420, 88985.11
3771.349, 88906.28
3773.277, 88780.34
3775.206, 88741.32
3777.134, 88823.43
3779.063, 88958.45
3780.991, 89064.02
3782.919, 88938.26
3784.848, 88832.34
3786.776, 88863.96
3788.705, 88882.77
3790.633, 88883.35
3792.562, 88993.17
3794.490, 89115.85
3796.419, 89109.61
3798.347, 89042.28
3800.276, 88899.16
3802.204, 88876.12
3804.133, 88940.73
3806.061, 88878.23
3807.990, 88783.66
3809.918, 88783.84
3811.846, 88753.37
3813.775, 88678.63
3815.703, 88502.55
3817.632, 88304.69
3819.560, 88309.68
3821.489, 88413.10
3823.417, 88629.55
3825.346, 88677.91
3827.274, 88514.56
3829.203, 88414.20
3831.131, 88374.31
3833.060, 88466.14
3834.988, 88458.09
3836.917, 88203.25
3838.845, 88163.81
3840.773, 88333.61
3842.702, 88382.16
3844.630, 88391.84
3846.559, 88456.77
3848.487, 88411.21
3850.416, 88204.31
3852.344, 88324.09
3854.273, 88622.81
3856.201, 88808.91
3858.130, 88799.96
3860.058, 88421.70
3861.987, 88149.59
3863.915, 88017.94
3865.844, 88027.70
3867.772, 88082.59
3869.700, 88080.92
3871.629, 88058.61
3873.557, 88042.09
3875.486, 87923.41
3877.414, 87765.86
3879.343, 87779.19
3881.271, 87786.05
3883.200, 87659.45
3885.128, 87623.93
3887.057, 87700.63
3888.985, 87616.47
3890.914, 87487.44
3892.842, 87369.84
3894.771, 87428.65
3896.699, 87756.70
3898.627, 87875.61
3900.556, 87800.55
3902.484, 87524.59
3904.413, 87310.01
3906.341, 87304.45
3908.270, 87323.10
3910.198, 87338.89
3912.127, 87384.23
3914.055, 87393.16
3915.984, 87283.65
3917.912, 87134.18
3919.841, 86964.19
3921.769, 87049.54
3923.698, 87250.93
3925.626, 87256.02
3927.554, 87199.48
3929.483, 87142.93
3931.411, 87011.49
3933.340, 86813.96
3935.268, 86822.84
3937.197, 86803.81
3939.125, 86520.15
3941.054, 86409.20
3942.982, 86481.21
3944.911, 86507.63
3946.839, 86493.28
3948.768, 86430.75
3950.696, 86461.16
3952.625, 86562.93
3954.553, 86531.40
3956.481, 86450.78
3958.410, 86432.06
3960.338, 86346.71
3962.267, 86235.02
3964.195, 86177.83
3966.124, 86092.06
3968.052, 85895.66
3969.981, 85818.24
3971.909, 85921.91
3973.838, 85865.87
3975.766, 85804.49
3977.695, 85817.98
3979.623, 85744.09
3981.552, 85740.81
3983.480, 85737.03
3985.408, 85626.85
3987.337, 85702.40
3989.265, 85829.65
3991.194, 85833.68
3993.122, 85768.05
3995.051, 85601.90
3996.979, 85460.28
3998.908, 85419.02
4000.836, 85453.32
4002.765, 85464.91
4004.693, 85393.21
4006.622, 85431.13
4008.550, 85509.32
4010.479, 85447.25
4012.407, 85453.81
4014.335, 85549.50
4016.264, 85549.66
4018.192, 85453.58
4020.121, 85437.55
4022.049, 85511.12
4023.978, 85517.41
4025.906, 85423.73
4027.835, 85352.45
4029.763, 85281.62
4031.692, 85188.77
4033.620, 85135.38
4035.549, 85135.96
4037.477, 85103.54
4039.406, 85000.34
4041.334, 84887.46
4043.262, 84770.61
4045.191, 84789.48
4047.119, 84920.13
4049.048, 85035.36
4050.976, 85111.57
4052.905, 85132.74
4054.833, 85083.64
4056.762, 85026.90
4058.690, 84972.26
4060.619, 84881.32
4062.547, 84727.59
4064.476, 84603.44
4066.404, 84574.55
4068.333, 84626.56
4070.261, 84647.76
4072.189, 84611.38
4074.118, 84571.94
4076.046, 84513.16
4077.975, 84572.15
4079.903, 84615.04
4081.832, 84493.55
4083.760, 84355.45
4085.689, 84235.45
4087.617, 84399.52
4089.546, 84560.98
4091.474, 84297.77
4093.403, 84106.16
4095.331, 84078.26
4097.260, 84102.11
4099.188, 84134.70
4101.117, 84120.69
4103.045, 84109.03
4104.974, 84110.09
4106.902, 84216.46
4108.831, 84308.31
4110.759, 84182.02
4112.688, 84030.90
4114.616, 83904.27
4116.544, 83872.73
4118.473, 83881.81
4120.401, 83753.60
4122.330, 83653.73
4124.258, 83665.63
4126.187, 83642.82
4128.115, 83562.23
4130.043, 83481.43
4131.972, 83433.73
4133.900, 83503.46
4135.829, 83482.30
4137.757, 83387.45
4139.686, 83372.59
4141.614, 83419.23
4143.543, 83414.84
4145.471, 83456.62
4147.400, 83585.04
4149.328, 83567.41
4151.257, 83508.36
4153.185, 83550.77
4155.114, 83627.36
4157.042, 83688.63
4158.971, 83582.65
4160.899, 83431.70
4162.828, 83322.37
4164.756, 83179.06
4166.685, 83025.64
4168.613, 82926.12
4170.542, 82833.20
4172.470, 82844.48
4174.398, 82955.49
4176.327, 83026.46
4178.255, 82982.87
4180.184, 82953.66
4182.112, 83050.72
4184.041, 83062.16
4185.969, 82957.14
4187.897, 82816.20
4189.826, 82715.73
4191.754, 82855.00
4193.683, 82902.63
4195.611, 82812.58
4197.540, 82646.46
4199.468, 82470.65
4201.397, 82449.63
4203.325, 82421.98
4205.254, 82335.02
4207.182, 82328.23
4209.111, 82345.28
4211.039, 82295.00
4212.968, 82244.47
4214.896, 82247.37
4216.825, 82479.68
4218.753, 82643.96
4220.682, 82378.02
4222.610, 82280.06
4224.539, 82378.36
4226.467, 82012.75
4228.396, 81682.30
4230.324, 81936.82
4232.252, 82086.29
4234.181, 82069.77
4236.109, 82011.04
4238.038, 81985.50
4239.966, 82082.15
4241.895, 82138.48
4243.823, 82149.84
4245.751, 82089.08
4247.680, 81995.54
4249.608, 81869.70
4251.537, 81821.19
4253.465, 81824.29
4255.394, 81769.91
4257.322, 81718.01
4259.251, 81716.50
4261.179, 81582.27
4263.108, 81428.33
4265.036, 81621.56
4266.965, 81702.53
4268.893, 81439.20
4270.822, 81389.60
4272.750, 81423.40
4274.679, 81245.61
4276.607, 81238.05
4278.536, 81510.59
4280.464, 81819.12
4282.393, 82000.21
4284.321, 81761.91
4286.250, 81538.74
4288.178, 81408.22
4290.106, 81447.19
4292.035, 81548.63
4293.963, 81663.95
4295.892, 81690.60
4297.820, 81642.49
4299.749, 81623.37
4301.677, 81607.36
4303.605, 81560.65
4305.534, 81600.99
4307.462, 81690.04
4309.391, 81761.57
4311.319, 81734.20
4313.248, 81553.37
4315.176, 81510.99
4317.105, 81525.99
4319.033, 81484.83
4320.962, 81427.80
4322.890, 81361.94
4324.819, 81398.56
4326.747, 81455.02
4328.676, 81466.19
4330.604, 81422.41
4332.533, 81359.98
4334.461, 81499.46
4336.390, 81599.22
4338.318, 81521.10
4340.247, 81547.52
4342.175, 81619.03
4344.104, 81572.65
4346.032, 81560.19
4347.960, 81623.48
4349.889, 81438.38
4351.817, 81205.45
4353.746, 81114.18
4355.674, 81184.64
4357.603, 81366.22
4359.531, 81429.10
4361.459, 81473.27
4363.388, 81584.13
4365.316, 81503.41
4367.245, 81331.43
4369.173, 81363.60
4371.102, 81350.34
4373.030, 81202.65
4374.959, 81222.30
4376.887, 81229.53
4378.816, 80896.83
4380.744, 80814.64
4382.673, 80998.30
4384.601, 81042.65
4386.530, 81056.30
4388.458, 81101.84
4390.387, 81067.67
4392.315, 81002.88
4394.244, 81024.93
4396.172, 81044.62
4398.101, 81037.80
4400.029, 80909.66
4401.958, 80781.13
4403.886, 80776.70
4405.814, 80704.43
4407.743, 80582.46
4409.671, 80530.88
4411.600, 80472.24
4413.528, 80369.09
4415.457, 80438.91
4417.385, 80573.80
4419.313, 80642.02
4421.242, 80662.46
4423.170, 80637.31
4425.099, 80571.18
4427.027, 80518.70
4428.956, 80539.76
4430.884, 80523.57
4432.813, 80453.02
4434.741, 80227.26
4436.670, 80116.97
4438.598, 80173.00
4440.527, 80443.10
4442.455, 80733.55
4444.384, 80944.81
4446.312, 80815.70
4448.241, 80507.39
4450.169, 80322.70
4452.098, 80355.27
4454.026, 80589.67
4455.955, 80525.28
4457.883, 80373.10
4459.812, 80339.29
4461.740, 80130.94
4463.668, 79872.11
4465.597, 79913.31
4467.525, 80035.55
4469.454, 80177.22
4471.382, 80262.38
4473.311, 80272.75
4475.239, 80180.41
4477.167, 80086.55
4479.096, 80011.69
4481.024, 79962.46
4482.953, 79987.82
4484.881, 80077.32
4486.810, 80054.07
4488.738, 79954.05
4490.667, 79753.75
4492.595, 79742.67
4494.524, 79810.80
4496.452, 79652.80
4498.381, 79562.68
4500.309, 79600.48
4502.238, 79530.59
4504.166, 79489.18
4506.095, 79583.03
4508.023, 79389.48
4509.952, 79138.09
4511.880, 79322.17
4513.809, 79390.48
4515.737, 79285.79
4517.666, 79225.99
4519.594, 79215.64
4521.522, 79252.63
4523.451, 79397.11
4525.379, 79474.58
4527.308, 79170.49
4529.236, 79083.09
4531.165, 79195.70
4533.093, 79164.73
4535.021, 79063.21
4536.950, 78928.20
4538.878, 78803.07
4540.807, 78786.21
4542.735, 79007.41
4544.664, 79133.05
4546.592, 79163.89
4548.521, 79124.40
4550.449, 79137.30
4552.378, 79205.54
4554.306, 78998.31
4556.235, 78811.48
4558.163, 78809.00
4560.092, 78752.49
4562.020, 78686.38
4563.949, 78694.89
4565.877, 78598.62
4567.806, 78486.59
4569.734, 78777.91
4571.663, 78950.30
4573.591, 78821.27
4575.520, 78792.15
4577.448, 78806.09
4579.376, 78863.88
4581.305, 78712.17
4583.233, 78517.94
4585.162, 78514.40
4587.090, 78627.99
4589.019, 78765.03
4590.947, 78621.66
4592.875, 78454.34
4594.804, 78347.14
4596.732, 78353.88
4598.661, 78301.26
4600.589, 78056.30
4602.518, 78054.44
4604.446, 78153.87
4606.375, 78058.45
4608.303, 78116.94
4610.232, 78264.91
4612.160, 78102.77
4614.089, 77889.72
4616.017, 77709.37
4617.946, 77821.43
4619.874, 77928.95
4621.803, 77848.07
4623.731, 77907.13
4625.660, 77955.82
4627.588, 77742.46
4629.517, 77641.80
4631.445, 77634.89
4633.374, 77557.92
4635.302, 77537.90
4637.230, 77577.43
4639.159, 77352.73
4641.087, 77227.80
4643.016, 77348.26
4644.944, 77438.07
4646.873, 77469.55
4648.801, 77418.75
4650.729, 77381.03
4652.658, 77357.66
4654.586, 77341.94
4656.515, 77289.90
4658.443, 77232.92
4660.372, 77339.76
4662.300, 77318.44
4664.229, 77105.07
4666.157, 77082.94
4668.086, 77076.78
4670.014, 77017.58
4671.943, 76753.49
4673.871, 76554.49
4675.800, 76666.18
4677.728, 76661.54
4679.657, 76558.97
4681.585, 76427.87
4683.514, 76348.76
4685.442, 76317.65
4687.371, 76276.85
4689.299, 76220.55
4691.228, 76163.16
4693.156, 76219.00
4695.084, 76278.97
4697.013, 76290.89
4698.941, 76187.40
4700.870, 76068.86
4702.798, 76011.45
4704.727, 75859.45
4706.655, 75730.12
4708.583, 75781.39
4710.512, 75811.64
4712.440, 75783.04
4714.369, 75586.10
4716.297, 75578.05
4718.226, 75695.95
4720.154, 75584.75
4722.083, 75457.73
4724.011, 75384.32
4725.940, 75409.57
4727.868, 75445.16
4729.797, 75443.92
4731.725, 75440.79
4733.654, 75402.47
4735.582, 75315.58
4737.511, 75173.19
4739.439, 75075.39
4741.368, 75183.20
4743.296, 75073.81
4745.225, 74934.15
4747.153, 75012.74
4749.082, 75180.27
4751.010, 75289.16
4752.938, 75066.31
4754.867, 74874.71
4756.795, 74771.68
4758.724, 74778.52
4760.652, 74728.05
4762.581, 74608.90
4764.509, 74555.73
4766.438, 74448.43
4768.366, 74271.49
4770.294, 74391.87
4772.223, 74486.48
4774.151, 74420.02
4776.080, 74311.64
4778.008, 74349.43
4779.937, 74707.63
4781.865, 74598.91
4783.794, 74414.03
4785.722, 74503.67
4787.651, 74542.13
4789.579, 74498.60
4791.508, 74331.65
4793.436, 74179.58
4795.365, 74099.33
4797.293, 74208.31
4799.222, 74178.44
4801.150, 74062.27
4803.079, 74030.09
4805.007, 73943.34
4806.936, 73830.68
4808.864, 73839.94
4810.792, 73769.19
4812.721, 73633.28
4814.649, 73647.71
4816.578, 73627.20
4818.506, 73546.50
4820.435, 73525.95
4822.363, 73522.73
4824.292, 73507.32
4826.220, 73321.20
4828.148, 73279.57
4830.077, 73473.55
4832.005, 73161.51
4833.934, 72993.41
4835.862, 73192.03
4837.791, 73058.98
4839.719, 72972.52
4841.648, 73169.60
4843.576, 73079.34
4845.505, 72953.63
4847.433, 72932.62
4849.362, 72990.71
4851.290, 73028.16
4853.219, 72964.76
4855.147, 72859.93
4857.076, 72784.07
4859.004, 72796.96
4860.933, 72789.21
4862.861, 72654.39
4864.790, 72189.51
4866.718, 72129.74
4868.646, 72251.29
4870.575, 72367.41
4872.503, 72277.14
4874.432, 72077.30
4876.360, 71835.09
4878.289, 71819.27
4880.217, 71832.20
4882.146, 71636.36
4884.074, 71598.05
4886.002, 71565.60
4887.931, 71273.20
4889.859, 71329.68
4891.788, 71520.93
4893.716, 71557.05
4895.645, 71533.84
4897.573, 71474.25
4899.502, 71400.80
4901.430, 71241.71
4903.359, 71066.34
4905.287, 71020.33
4907.216, 70795.54
4909.144, 70565.85
4911.073, 70575.14
4913.001, 70542.93
4914.930, 70499.13
4916.858, 70500.08
4918.787, 70530.00
4920.715, 70505.68
4922.644, 70310.84
4924.572, 70303.84
4926.500, 70325.93
4928.429, 70159.91
4930.357, 70004.55
4932.286, 69891.42
4934.214, 69831.34
4936.143, 69857.59
4938.071, 69888.23
4940.000, 69822.27
4941.928, 69873.47
4943.856, 69920.78
4945.785, 69813.38
4947.713, 69766.47
4949.642, 69738.70
4951.570, 69701.21
4953.499, 69563.02
4955.427, 69376.55
4957.356, 69191.20
4959.284, 68906.30
4961.213, 68690.61
4963.141, 68660.04
4965.070, 68664.89
4966.998, 68677.69
4968.927, 68675.47
4970.855, 68724.27
4972.784, 68773.74
4974.712, 68782.63
4976.641, 68804.99
4978.569, 68655.49
4980.498, 68325.91
4982.426, 68196.33
4984.354, 68120.43
4986.283, 68044.59
4988.211, 67880.59
4990.140, 67833.38
4992.068, 67909.38
4993.997, 67940.80
4995.925, 67879.58
4997.854, 67749.48
4999.782, 67664.46
5001.710, 67558.00
5003.639, 67458.45
5005.567, 67456.98
5007.496, 67419.77
5009.424, 67367.65
5011.353, 67433.62
5013.281, 67279.83
5015.210, 67086.93
5017.138, 67217.33
5019.067, 67192.04
5020.995, 67041.31
5022.924, 66831.78
5024.852, 66609.55
5026.781, 66532.69
5028.709, 66776.23
5030.638, 66686.34
5032.566, 66621.31
5034.495, 66783.29
5036.423, 66702.03
5038.352, 66580.19
5040.280, 66516.20
5042.208, 66479.45
5044.137, 66372.59
5046.065, 66202.98
5047.994, 66282.43
5049.922, 66207.49
5051.851, 65962.86
5053.779, 65830.54
5055.708, 65714.24
5057.636, 65622.36
5059.564, 65593.62
5061.493, 65600.20
5063.421, 65558.08
5065.350, 65309.71
5067.278, 65443.57
5069.207, 65547.66
5071.135, 65199.71
5073.064, 65037.74
5074.992, 64970.00
5076.921, 64931.58
5078.849, 64888.88
5080.778, 64856.34
5082.706, 64823.68
5084.635, 64713.18
5086.563, 64642.93
5088.492, 64596.27
5090.420, 64378.89
5092.349, 64182.50
5094.277, 64053.65
5096.206, 63992.51
5098.134, 64005.06
5100.063, 63968.22
5101.991, 63716.55
5103.919, 63522.81
5105.848, 63370.68
5107.776, 63246.41
5109.705, 63198.32
5111.633, 63142.43
5113.562, 63027.83
5115.490, 62735.05
5117.418, 62567.23
5119.347, 62548.00
5121.275, 62431.50
5123.204, 62266.38
5125.132, 62091.07
5127.061, 61960.11
5128.989, 61774.92
5130.918, 61621.90
5132.846, 61614.51
5134.775, 61534.48
5136.703, 61358.90
5138.632, 61072.41
5140.560, 60921.19
5142.489, 60861.34
5144.417, 60838.45
5146.346, 60618.64
5148.274, 60427.30
5150.203, 60304.65
5152.131, 60264.57
5154.060, 60105.34
5155.988, 59929.58
5157.917, 59917.18
5159.845, 59784.01
5161.773, 59627.23
5163.702, 59524.10
5165.630, 59544.68
5167.559, 59614.42
5169.487, 59661.09
5171.416, 59482.91
5173.344, 59264.71
5175.272, 59090.94
5177.201, 59077.48
5179.129, 58954.98
5181.058, 58782.77
5182.986, 58651.31
5184.915, 58600.16
5186.843, 58480.27
5188.772, 58212.06
5190.700, 58029.07
5192.629, 57848.75
5194.557, 57670.26
5196.486, 57567.88
5198.414, 57440.61
5200.343, 57317.22
5202.271, 57267.56
5204.200, 57159.23
5206.128, 57036.85
5208.057, 56940.94
5209.985, 56795.31
5211.914, 56800.92
5213.842, 56909.88
5215.771, 56608.73
5217.699, 56589.81
5219.627, 56706.05
5221.556, 56551.18
5223.484, 56401.26
5225.413, 56259.64
5227.341, 56111.96
5229.270, 56049.43
5231.198, 55940.88
5233.126, 55772.48
5235.055, 55736.45
5236.983, 55594.33
5238.912, 55381.15
5240.840, 55204.33
5242.769, 55017.39
5244.697, 54935.02
5246.626, 55004.96
5248.554, 54850.04
5250.483, 54749.35
5252.411, 54731.71
5254.340, 54577.81
5256.268, 54508.80
5258.197, 54430.10
5260.125, 54122.81
5262.054, 54085.80
5263.982, 54045.59
5265.911, 53865.22
5267.839, 53612.17
5269.768, 53446.77
5271.696, 53382.75
5273.625, 53377.02
5275.553, 53378.61
5277.481, 53330.69
5279.410, 53169.28
5281.338, 53195.54
5283.267, 53147.26
5285.195, 53006.61
5287.124, 53172.47
5289.052, 52960.48
5290.980, 52644.27
5292.909, 52738.08
5294.837, 52687.51
5296.766, 52556.06
5298.694, 52397.57
5300.623, 52227.44
5302.551, 52166.32
5304.480, 52148.66
5306.408, 51990.22
5308.337, 51816.95
5310.265, 51761.20
5312.194, 51891.86
5314.122, 51844.43
5316.051, 51807.02
5317.979, 51837.79
5319.908, 51968.45
5321.836, 51850.01
5323.765, 51665.73
5325.693, 51604.16
5327.622, 51384.42
5329.550, 51256.52
5331.479, 51263.58
5333.407, 51206.36
5335.335, 51254.07
5337.264, 51244.98
5339.192, 50978.09
5341.121, 50915.23
5343.049, 50860.38
5344.978, 50773.16
5346.906, 50851.32
5348.834, 50833.62
5350.763, 50676.46
5352.691, 50360.43
5354.620, 50325.70
5356.548, 50286.90
5358.477, 50152.39
5360.405, 50032.46
5362.334, 49990.03
5364.262, 49955.89
5366.191, 49857.86
5368.119, 49802.85
5370.048, 49784.55
5371.976, 49774.70
5373.905, 49652.54
5375.833, 49619.54
5377.762, 49653.78
5379.690, 49716.20
5381.619, 49638.14
5383.547, 49551.23
5385.476, 49500.97
5387.404, 49488.79
5389.333, 49364.36
5391.261, 49227.07
5393.189, 49161.04
5395.118, 48967.57
5397.046, 48947.88
5398.975, 49045.66
5400.903, 48906.21
5402.832, 48894.00
5404.760, 48856.45
5406.688, 48694.60
5408.617, 48602.67
5410.545, 48607.14
5412.474, 48607.05
5414.402, 48467.39
5416.331, 48198.47
5418.259, 48016.90
5420.188, 47999.79
5422.116, 47984.93
5424.045, 47918.27
5425.973, 47772.51
5427.902, 47530.63
5429.830, 47495.42
5431.759, 47568.78
5433.687, 47644.30
5435.616, 47560.07
5437.544, 47534.17
5439.473, 47445.68
5441.401, 47208.05
5443.330, 47003.29
5445.258, 46915.16
5447.187, 46912.90
5449.115, 46945.00
5451.043, 46701.83
5452.972, 46505.38
5454.900, 46491.28
5456.829, 46648.09
5458.757, 46707.11
5460.686, 46697.30
5462.614, 46671.71
5464.542, 46551.82
5466.471, 46393.59
5468.399, 46256.79
5470.328, 46210.13
5472.256, 46165.73
5474.185, 46098.88
5476.113, 46050.05
5478.042, 46240.73
5479.970, 46151.84
5481.899, 46017.35
5483.827, 46054.09
5485.756, 45965.84
5487.684, 45864.64
5489.613, 45779.97
5491.541, 45720.42
5493.470, 45598.84
5495.398, 45525.20
5497.327, 45524.47
5499.255, 45579.32
5501.184, 45459.35
5503.112, 45355.55
5505.041, 45392.76
5506.969, 45437.36
5508.897, 45240.00
5510.826, 45112.50
5512.754, 45451.47
5514.683, 45161.72
5516.611, 44915.30
5518.540, 44833.82
5520.468, 44682.96
5522.396, 44793.97
5524.325, 44840.48
5526.253, 44732.72
5528.182, 44727.37
5530.110, 44704.20
5532.039, 44628.91
5533.967, 44509.65
5535.896, 44500.34
5537.824, 44378.32
5539.753, 44268.78
5541.681, 44347.90
5543.610, 44356.18
5545.538, 44326.05
5547.467, 44306.30
5549.395, 44381.03
5551.324, 44309.66
5553.252, 44137.08
5555.181, 43946.54
5557.109, 43865.92
5559.038, 43725.31
5560.966, 43641.21
5562.895, 43657.24
5564.823, 43678.38
5566.751, 43570.84
5568.680, 43453.40
5570.608, 43416.64
5572.537, 43504.27
5574.465, 43474.93
5576.394, 43402.68
5578.322, 43402.41
5580.250, 43246.11
5582.179, 43184.98
5584.107, 43151.89
5586.036, 42992.58
5587.964, 42907.19
5589.893, 42879.82
5591.821, 42885.46
5593.750, 42913.09
5595.678, 42846.03
5597.607, 42693.65
5599.535, 42497.58
5601.464, 42321.27
5603.392, 42202.87
5605.321, 42166.05
5607.249, 42206.30
5609.178, 42316.87
5611.106, 42107.97
5613.035, 42009.43
5614.963, 42152.36
5616.892, 42109.59
5618.820, 42106.46
5620.749, 42047.02
5622.677, 41889.51
5624.605, 41738.66
5626.534, 41850.95
5628.462, 41952.51
5630.391, 41860.08
5632.319, 41719.64
5634.248, 41712.29
5636.176, 41676.29
5638.104, 41505.00
5640.033, 41473.98
5641.961, 41526.66
5643.890, 41541.85
5645.818, 41461.55
5647.747, 41559.80
5649.675, 41542.89
5651.604, 41393.87
5653.532, 41180.84
5655.461, 41125.04
5657.389, 41191.11
5659.318, 41217.32
5661.246, 41084.96
5663.175, 41066.98
5665.103, 41011.99
5667.032, 40994.33
5668.960, 41086.88
5670.889, 40998.95
5672.817, 40886.98
5674.746, 40735.96
5676.674, 40526.09
5678.603, 40413.02
5680.531, 40261.50
5682.459, 40198.84
5684.388, 40299.86
5686.316, 40293.99
5688.245, 40278.59
5690.173, 40229.30
5692.102, 40127.46
5694.030, 40054.14
5695.958, 40008.15
5697.887, 39923.63
5699.815, 39783.12
5701.744, 39757.63
5703.672, 39693.56
5705.601, 39555.34
5707.529, 39360.99
5709.458, 39209.72
5711.386, 39102.99
5713.315, 39052.41
5715.243, 39040.03
5717.172, 38987.55
5719.100, 38904.99
5721.029, 38803.91
5722.957, 38728.45
5724.886, 38769.56
5726.814, 38786.38
5728.743, 38800.17
5730.671, 38768.10
5732.600, 38581.29
5734.528, 38312.23
5736.457, 38220.93
5738.385, 38276.46
5740.313, 38330.04
5742.242, 38113.14
5744.170, 38053.34
5746.099, 38047.81
5748.027, 37861.45
5749.956, 37980.69
5751.884, 38036.55
5753.813, 37915.23
5755.741, 37636.08
5757.669, 37465.73
5759.598, 37361.03
5761.526, 37353.73
5763.455, 37398.03
5765.383, 37234.21
5767.312, 37098.90
5769.240, 37089.16
5771.169, 37175.26
5773.097, 37224.90
5775.026, 37062.35
5776.954, 36909.93
5778.883, 36839.23
5780.811, 36852.24
5782.740, 36695.59
5784.668, 36483.45
5786.597, 36383.14
5788.525, 36506.98
5790.454, 36571.96
5792.382, 36487.04
5794.311, 36377.42
5796.239, 36312.99
5798.167, 36128.38
5800.096, 35993.96
5802.024, 35956.88
5803.953, 35915.01
5805.881, 35644.37
5807.810, 35608.72
5809.738, 35562.29
5811.667, 35516.83
5813.595, 35577.16
5815.523, 35472.80
5817.452, 35347.69
5819.380, 35304.54
5821.309, 35339.47
5823.237, 35078.48
5825.166, 35104.62
5827.094, 35181.58
5829.023, 35124.09
5830.951, 34833.53
5832.880, 34636.30
5834.808, 34510.13
5836.737, 34450.63
5838.665, 34469.56
5840.594, 34287.41
5842.522, 34409.55
5844.451, 34509.52
5846.379, 34356.15
5848.308, 34283.88
5850.236, 34091.13
5852.165, 33979.12
5854.093, 33948.20
5856.021, 33840.18
5857.950, 33733.96
5859.878, 33722.84
5861.807, 33720.36
5863.735, 33642.16
5865.664, 33564.04
5867.592, 33513.01
5869.521, 33377.72
5871.449, 33226.80
5873.377, 33325.13
5875.306, 33130.34
5877.234, 33023.01
5879.163, 33018.63
5881.091, 33010.90
5883.020, 33132.38
5884.948, 32919.16
5886.877, 32681.24
5888.805, 32590.61
5890.734, 32547.96
5892.662, 32589.98
5894.591, 32552.29
5896.519, 32522.53
5898.448, 32620.98
5900.376, 32538.98
5902.305, 32315.90
5904.233, 32145.19
5906.162, 32089.28
5908.090, 32078.08
5910.019, 32063.63
5911.947, 31992.61
5913.875, 31902.23
5915.804, 31837.59
5917.732, 31774.39
5919.661, 31811.63
5921.589, 31811.45
5923.518, 31713.36
5925.446, 31538.97
5927.375, 31534.10
5929.303, 31497.28
5931.231, 31373.68
5933.160, 31224.67
5935.088, 31264.76
5937.017, 31262.31
5938.945, 31217.05
5940.874, 31170.35
5942.802, 31151.41
5944.731, 31087.34
5946.659, 31032.99
5948.588, 30877.54
5950.516, 30675.73
5952.445, 30646.56
5954.373, 30699.92
5956.302, 30596.82
5958.230, 30491.56
5960.159, 30503.29
5962.087, 30495.86
5964.016, 30413.94
5965.944, 30323.93
5967.873, 30200.76
5969.801, 30023.49
5971.729, 30084.37
5973.658, 29974.46
5975.586, 29905.72
5977.515, 29939.99
5979.443, 29958.44
5981.372, 29760.66
5983.300, 29675.48
5985.229, 29758.48
5987.157, 29871.11
5989.085, 29619.84
5991.014, 29475.62
5992.942, 29389.31
5994.871, 29337.31
5996.799, 29314.24
5998.728, 29350.92
6000.656, 29218.96
6002.585, 29135.12
6004.513, 29095.74
6006.442, 29026.36
6008.370, 29106.38
6010.299, 29093.27
6012.227, 29000.68
6014.156, 28874.84
6016.084, 28758.68
6018.013, 28784.28
6019.941, 28649.01
6021.870, 28569.99
6023.798, 28573.62
6025.727, 28506.44
6027.655, 28447.81
6029.583, 28447.78
6031.512, 28366.67
6033.440, 28220.40
6035.369, 28171.08
6037.297, 28190.28
6039.226, 28123.42
6041.154, 28106.35
6043.083, 28125.78
6045.011, 27980.07
6046.939, 27919.57
6048.868, 27839.03
6050.796, 27762.99
6052.725, 27730.17
6054.653, 27753.51
6056.582, 27776.55
6058.510, 27782.54
6060.439, 27763.50
6062.367, 27722.39
6064.296, 27671.22
6066.224, 27472.77
6068.153, 27401.29
6070.081, 27290.94
6072.010, 27121.94
6073.938, 27127.77
6075.867, 27168.79
6077.795, 26958.21
6079.724, 26879.41
6081.652, 26987.74
6083.581, 26919.22
6085.509, 26771.47
6087.438, 26696.43
6089.366, 26640.55
6091.294, 26581.90
6093.223, 26561.67
6095.151, 26699.16
6097.080, 26569.04
6099.008, 26527.96
6100.937, 26554.22
6102.865, 26366.03
6104.793, 26246.30
6106.722, 26259.04
6108.650, 26265.93
6110.579, 26233.04
6112.507, 26180.32
6114.436, 26045.27
6116.364, 25956.66
6118.293, 25873.72
6120.221, 25813.55
6122.150, 25793.50
6124.078, 25749.63
6126.007, 25703.81
6127.935, 25683.74
6129.864, 25681.71
6131.792, 25639.90
6133.721, 25435.73
6135.649, 25418.64
6137.578, 25373.39
6139.506, 25339.02
6141.435, 25347.07
6143.363, 25359.09
6145.292, 25237.06
6147.220, 25241.79
6149.148, 25208.46
6151.077, 25136.62
6153.005, 25111.74
6154.934, 24938.76
6156.862, 24904.37
6158.791, 24896.68
6160.719, 24844.84
6162.647, 24759.17
6164.576, 24742.09
6166.504, 24684.98
6168.433, 24715.71
6170.361, 24698.16
6172.290, 24605.68
6174.218, 24546.16
6176.147, 24568.95
6178.075, 24518.72
6180.004, 24418.05
6181.932, 24346.76
6183.861, 24332.12
6185.789, 24203.65
6187.718, 24250.09
6189.646, 24164.04
6191.575, 24124.62
6193.503, 24154.72
6195.432, 23990.41
6197.360, 23894.90
6199.289, 23796.43
6201.217, 23839.01
6203.146, 23887.57
6205.074, 23785.89
6207.002, 23673.80
6208.931, 23684.50
6210.859, 23486.54
6212.788, 23381.45
6214.716, 23450.67
6216.645, 23444.07
6218.573, 23262.19
6220.501, 23368.64
6222.430, 23317.21
6224.358, 23232.68
6226.287, 23277.02
6228.215, 23178.90
6230.144, 23155.37
6232.072, 23062.82
6234.001, 23007.25
6235.929, 22936.75
6237.858, 22773.84
6239.786, 22825.17
6241.715, 22848.87
6243.643, 22827.50
6245.572, 22709.46
6247.500, 22560.29
6249.429, 22532.23
6251.357, 22512.05
6253.286, 22496.32
6255.214, 22562.58
6257.143, 22520.38
6259.071, 22323.57
6261.000, 22275.56
6262.928, 22244.54
6264.856, 22091.56
6266.785, 22107.58
6268.713, 22088.10
6270.642, 21859.75
6272.570, 21960.84
6274.499, 21993.64
6276.427, 21995.86
6278.355, 21893.27
6280.284, 21764.85
6282.212, 21723.36
6284.141, 21670.04
6286.069, 21732.53
6287.998, 21724.18
6289.926, 21662.18
6291.855, 21560.90
6293.783, 21435.07
6295.712, 21442.12
6297.640, 21321.87
6299.569, 21318.29
6301.497, 21353.26
6303.426, 21370.05
6305.354, 21378.88
6307.283, 21334.87
6309.211, 21200.29
6311.140, 21142.06
6313.068, 21137.67
6314.997, 21089.19
6316.925, 20969.54
6318.854, 20978.02
6320.782, 20879.12
6322.710, 20797.94
6324.639, 20661.89
6326.567, 20525.86
6328.496, 20503.18
6330.424, 20563.04
6332.353, 20568.87
6334.281, 20612.98
6336.209, 20598.66
6338.138, 20516.84
6340.066, 20427.59
6341.995, 20368.44
6343.923, 20381.58
6345.852, 20243.26
6347.780, 20283.60
6349.709, 20329.36
6351.637, 20215.93
6353.566, 20166.81
6355.494, 20167.21
6357.423, 20050.28
6359.351, 19938.16
6361.280, 19838.82
6363.208, 19741.88
6365.137, 19677.77
6367.065, 19686.21
6368.994, 19620.10
6370.922, 19686.53
6372.851, 19685.76
6374.779, 19608.37
6376.708, 19569.28
6378.636, 19461.52
6380.564, 19347.63
6382.493, 19355.22
6384.421, 19432.34
6386.350, 19372.77
6388.278, 19168.81
6390.207, 19095.62
6392.135, 19156.47
6394.063, 19055.99
6395.992, 19059.76
6397.920, 19054.09
6399.849, 18997.21
6401.777, 18957.18
6403.706, 18846.90
6405.634, 18763.53
6407.563, 18787.13
6409.491, 18819.23
6411.420, 18792.54
6413.348, 18716.30
6415.277, 18644.18
6417.205, 18582.42
6419.134, 18361.26
6421.062, 18272.15
6422.991, 18344.28
6424.919, 18373.55
6426.848, 18253.13
6428.776, 18198.70
6430.705, 18223.51
6432.633, 18154.21
6434.562, 18115.44
6436.490, 18154.21
6438.418, 18150.51
6440.347, 18029.98
6442.275, 18078.65
6444.204, 17885.27
6446.132, 18019.33
6448.061, 17958.33
6449.989, 17848.72
6451.917, 17842.11
6453.846, 17810.37
6455.774, 17853.35
6457.703, 17873.11
6459.631, 17773.39
6461.560, 17584.63
6463.488, 17499.93
6465.417, 17508.43
6467.345, 17417.71
6469.274, 17453.66
6471.202, 17407.94
6473.131, 17288.07
6475.059, 17308.82
6476.988, 17287.46
6478.916, 17172.84
6480.845, 17163.16
6482.773, 17130.32
6484.702, 17145.06
6486.630, 17122.20
6488.559, 17009.83
6490.487, 16872.05
6492.416, 16815.77
6494.344, 16876.06
6496.272, 16874.80
6498.201, 16742.14
6500.129, 16852.69
6502.058, 16760.49
6503.986, 16652.38
6505.915, 16662.79
6507.843, 16650.69
6509.771, 16495.31
6511.700, 16429.93
6513.628, 16464.02
6515.557, 16502.23
6517.485, 16401.84
6519.414, 16273.53
6521.342, 16241.57
6523.271, 16212.12
6525.199, 16156.13
6527.128, 16222.37
6529.056, 16106.05
6530.985, 16086.71
6532.913, 16086.81
6534.842, 16020.10
6536.770, 15969.68
6538.699, 15849.12
6540.627, 15903.31
6542.556, 15896.32
6544.484, 15748.67
6546.413, 15658.40
6548.341, 15632.22
6550.270, 15589.04
6552.198, 15561.98
6554.126, 15519.02
6556.055, 15456.97
6557.983, 15498.47
6559.912, 15480.57
6561.840, 15446.64
6563.769, 15461.84
6565.697, 15480.01
6567.625, 15389.07
6569.554, 15464.99
##END=



