##NAMES=Rubicline
##RRUFFID=R070044
##IDEAL CHEMISTRY=Rb(AlSi_3_O_8_)
##LOCALITY=Vasin Myl'k Mount, Voron'l Tundry, Kola Peninsula, Russia
##OWNER=RRUFF
##SOURCE=Michael Scott
##DESCRIPTION=Colorless fragment embedded in epoxy
##STATUS=The identification of this mineral is not yet confirmed
##URL=https://www.rruff.net/odr/rruff_sample/R070044
##FILETYPE=Raman RAW
##RAMAN WAVELENGTH=785

146.5318, 4140.903
148.4602, 4568.471
150.3887, 4795.152
152.3172, 4800.306
154.2456, 4783.322
156.1741, 4703.061
158.1026, 4696.011
160.0310, 4840.688
161.9595, 5016.356
163.8880, 5164.006
165.8164, 5285.490
167.7449, 5372.462
169.6734, 5420.490
171.6018, 5472.010
173.5303, 5535.480
175.4588, 5587.063
177.3872, 5607.108
179.3157, 5621.805
181.2442, 5653.722
183.1726, 5700.193
185.1011, 5749.625
187.0296, 5804.315
188.9580, 5829.130
190.8865, 5796.415
192.8150, 5765.917
194.7434, 5746.537
196.6719, 5743.281
198.6004, 5776.898
200.5288, 5834.405
202.4573, 5883.371
204.3858, 5930.499
206.3142, 5930.726
208.2427, 5846.136
210.1712, 5752.158
212.0996, 5670.874
214.0281, 5594.431
215.9566, 5505.697
217.8850, 5409.714
219.8135, 5330.381
221.7420, 5272.326
223.6704, 5220.113
225.5989, 5168.966
227.5274, 5134.219
229.4558, 5118.177
231.3843, 5121.416
233.3128, 5139.429
235.2412, 5170.022
237.1697, 5212.671
239.0982, 5269.626
241.0266, 5342.220
242.9551, 5431.818
244.8836, 5528.307
246.8120, 5654.361
248.7405, 5768.311
250.6690, 5829.902
252.5974, 5846.796
254.5259, 5836.915
256.4544, 5791.254
258.3828, 5771.488
260.3113, 5780.390
262.2398, 5804.675
264.1682, 5864.568
266.0967, 5926.431
268.0252, 5964.520
269.9536, 5995.043
271.8821, 6048.464
273.8106, 6124.420
275.7390, 6221.682
277.6675, 6338.554
279.5960, 6488.672
281.5244, 6694.704
283.4529, 6896.232
285.3814, 7118.116
287.3098, 7308.292
289.2383, 7396.348
291.1668, 7396.693
293.0952, 7296.186
295.0237, 7065.713
296.9522, 6842.772
298.8806, 6668.467
300.8091, 6479.329
302.7376, 6260.275
304.6660, 6043.625
306.5945, 5876.930
308.5230, 5747.254
310.4514, 5615.160
312.3799, 5479.171
314.3084, 5387.137
316.2368, 5355.426
318.1653, 5343.391
320.0938, 5358.606
322.0222, 5378.922
323.9507, 5396.774
325.8792, 5407.148
327.8077, 5412.269
329.7361, 5413.703
331.6646, 5392.489
333.5931, 5333.266
335.5215, 5264.914
337.4500, 5192.855
339.3785, 5125.523
341.3069, 5068.632
343.2354, 5015.772
345.1639, 4963.407
347.0923, 4909.037
349.0208, 4857.478
350.9493, 4813.053
352.8777, 4771.102
354.8062, 4727.119
356.7347, 4695.204
358.6631, 4677.128
360.5916, 4657.353
362.5201, 4628.887
364.4485, 4608.086
366.3770, 4610.766
368.3055, 4620.405
370.2339, 4616.097
372.1624, 4600.595
374.0909, 4582.221
376.0193, 4559.808
377.9478, 4545.964
379.8763, 4546.653
381.8047, 4559.751
383.7332, 4585.850
385.6617, 4604.092
387.5901, 4598.814
389.5186, 4596.318
391.4471, 4630.493
393.3755, 4687.568
395.3040, 4740.722
397.2325, 4784.719
399.1609, 4804.347
401.0894, 4783.132
403.0179, 4780.476
404.9464, 4816.203
406.8748, 4837.271
408.8033, 4825.924
410.7318, 4814.009
412.6602, 4823.619
414.5887, 4825.908
416.5172, 4784.621
418.4456, 4710.190
420.3741, 4654.240
422.3026, 4623.137
424.2310, 4590.054
426.1595, 4554.118
428.0880, 4507.468
430.0164, 4451.541
431.9449, 4407.011
433.8734, 4391.527
435.8018, 4380.969
437.7303, 4347.087
439.6588, 4302.785
441.5872, 4283.669
443.5157, 4292.679
445.4442, 4303.843
447.3726, 4314.151
449.3011, 4325.852
451.2296, 4333.354
453.1580, 4348.547
455.0865, 4382.007
457.0150, 4424.953
458.9434, 4465.549
460.8719, 4527.225
462.8004, 4645.903
464.7288, 4784.993
466.6573, 4871.467
468.5858, 4924.147
470.5142, 5019.725
472.4427, 5180.527
474.3712, 5353.573
476.2996, 5531.274
478.2281, 5653.589
480.1566, 5673.061
482.0850, 5666.617
484.0135, 5637.959
485.9420, 5617.258
487.8704, 5624.161
489.7989, 5663.092
491.7274, 5720.727
493.6558, 5814.865
495.5843, 5953.818
497.5128, 6156.456
499.4412, 6415.675
501.3697, 6752.732
503.2982, 7036.720
505.2266, 7270.172
507.1551, 7392.949
509.0836, 7349.000
511.0120, 7199.434
512.9405, 6939.570
514.8690, 6614.077
516.7974, 6256.395
518.7259, 5912.995
520.6544, 5588.060
522.5828, 5308.065
524.5113, 5035.388
526.4398, 4767.510
528.3682, 4566.811
530.2967, 4414.321
532.2252, 4293.559
534.1536, 4208.934
536.0821, 4134.478
538.0106, 4062.237
539.9390, 3999.279
541.8675, 3944.097
543.7960, 3892.929
545.7244, 3849.731
547.6529, 3817.209
549.5814, 3789.757
551.5098, 3768.489
553.4383, 3763.602
555.3668, 3763.049
557.2952, 3748.136
559.2237, 3722.960
561.1522, 3714.606
563.0806, 3735.109
565.0091, 3743.310
566.9376, 3715.760
568.8660, 3690.990
570.7945, 3688.691
572.7230, 3695.296
574.6514, 3701.180
576.5799, 3695.419
578.5084, 3678.278
580.4368, 3660.026
582.3653, 3637.402
584.2938, 3614.925
586.2222, 3605.495
588.1507, 3605.308
590.0792, 3595.339
592.0076, 3573.860
593.9361, 3558.882
595.8646, 3551.240
597.7930, 3533.202
599.7215, 3504.837
601.6500, 3494.877
603.5784, 3508.895
605.5069, 3516.996
607.4354, 3516.339
609.3638, 3513.716
611.2923, 3499.396
613.2208, 3485.913
615.1492, 3486.973
617.0777, 3492.298
619.0062, 3490.086
620.9346, 3487.176
622.8631, 3496.248
624.7916, 3511.854
626.7200, 3515.572
628.6485, 3509.482
630.5770, 3506.461
632.5054, 3506.489
634.4339, 3513.523
636.3624, 3532.152
638.2908, 3545.546
640.2193, 3549.421
642.1478, 3546.420
644.0762, 3540.437
646.0047, 3529.830
647.9332, 3507.346
649.8616, 3479.626
651.7901, 3450.446
653.7186, 3425.688
655.6470, 3408.663
657.5755, 3393.180
659.5040, 3376.580
661.4324, 3358.852
663.3609, 3337.015
665.2894, 3314.439
667.2178, 3295.222
669.1463, 3277.572
671.0748, 3267.762
673.0032, 3267.958
674.9317, 3265.677
676.8602, 3261.756
678.7886, 3248.776
680.7171, 3221.933
682.6456, 3205.407
684.5740, 3206.398
686.5025, 3207.836
688.4310, 3205.809
690.3594, 3201.821
692.2879, 3193.164
694.2164, 3186.682
696.1448, 3189.181
698.0734, 3191.647
700.0018, 3187.865
701.9303, 3181.402
703.8588, 3170.195
705.7872, 3162.252
707.7157, 3176.695
709.6442, 3197.140
711.5726, 3186.651
713.5011, 3156.559
715.4296, 3144.532
717.3580, 3148.406
719.2865, 3149.924
721.2150, 3146.144
723.1434, 3137.776
725.0719, 3126.555
727.0004, 3117.526
728.9288, 3109.719
730.8573, 3104.029
732.7858, 3099.594
734.7142, 3098.851
736.6427, 3110.461
738.5712, 3119.770
740.4996, 3111.487
742.4281, 3101.556
744.3566, 3104.211
746.2850, 3116.706
748.2135, 3131.741
750.1420, 3145.095
752.0704, 3159.937
753.9989, 3179.848
755.9274, 3204.181
757.8558, 3226.296
759.7843, 3249.425
761.7128, 3265.009
763.6412, 3264.752
765.5697, 3258.961
767.4982, 3241.867
769.4266, 3210.806
771.3551, 3183.867
773.2836, 3162.600
775.2120, 3129.531
777.1405, 3078.189
779.0690, 3036.892
780.9974, 3017.312
782.9259, 2995.724
784.8544, 2962.023
786.7828, 2943.020
788.7113, 2949.693
790.6398, 2952.258
792.5682, 2939.979
794.4967, 2923.346
796.4252, 2906.989
798.3536, 2900.910
800.2821, 2904.990
802.2106, 2922.349
804.1390, 2958.749
806.0675, 2984.488
807.9960, 2992.082
809.9244, 3003.021
811.8529, 3025.805
813.7814, 3041.008
815.7098, 3036.839
817.6383, 3021.456
819.5668, 3003.851
821.4952, 2990.373
823.4237, 2965.942
825.3522, 2919.654
827.2806, 2876.851
829.2091, 2859.471
831.1376, 2844.620
833.0660, 2804.148
834.9945, 2756.382
836.9230, 2737.659
838.8514, 2746.121
840.7799, 2753.751
842.7084, 2749.615
844.6368, 2733.064
846.5653, 2721.954
848.4938, 2728.329
850.4222, 2718.832
852.3507, 2694.926
854.2792, 2692.885
856.2076, 2703.326
858.1361, 2699.846
860.0646, 2685.972
861.9930, 2673.255
863.9215, 2663.424
865.8500, 2661.442
867.7784, 2666.487
869.7069, 2667.844
871.6354, 2668.677
873.5638, 2670.428
875.4923, 2660.607
877.4208, 2648.001
879.3492, 2651.026
881.2777, 2654.529
883.2062, 2638.003
885.1346, 2613.898
887.0631, 2605.136
888.9916, 2612.562
890.9200, 2614.835
892.8485, 2606.818
894.7770, 2605.044
896.7054, 2609.879
898.6339, 2613.905
900.5624, 2618.603
902.4908, 2621.380
904.4193, 2622.861
906.3478, 2626.534
908.2762, 2623.199
910.2047, 2613.807
912.1332, 2607.124
914.0616, 2596.669
915.9901, 2586.142
917.9186, 2588.643
919.8470, 2597.570
921.7755, 2598.185
923.7040, 2596.508
925.6324, 2604.339
927.5609, 2617.469
929.4894, 2633.530
931.4178, 2639.757
933.3463, 2621.789
935.2748, 2607.954
937.2032, 2620.295
939.1317, 2631.582
941.0602, 2625.608
942.9886, 2621.129
944.9171, 2623.307
946.8456, 2625.148
948.7740, 2635.090
950.7025, 2647.416
952.6310, 2644.895
954.5594, 2639.080
956.4879, 2650.340
958.4164, 2676.711
960.3448, 2701.744
962.2733, 2717.404
964.2018, 2736.177
966.1302, 2764.528
968.0587, 2790.125
969.9872, 2810.535
971.9156, 2824.125
973.8441, 2833.184
975.7726, 2858.114
977.7010, 2894.562
979.6295, 2915.385
981.5580, 2905.862
983.4865, 2872.849
985.4149, 2841.314
987.3434, 2824.602
989.2719, 2809.172
991.2003, 2791.478
993.1288, 2784.737
995.0573, 2775.256
996.9857, 2758.440
998.9142, 2754.392
1000.843, 2759.843
1002.771, 2778.432
1004.700, 2809.390
1006.628, 2828.126
1008.557, 2831.313
1010.485, 2824.409
1012.413, 2812.835
1014.342, 2813.951
1016.270, 2823.942
1018.199, 2821.371
1020.127, 2812.044
1022.056, 2822.995
1023.984, 2843.463
1025.913, 2833.604
1027.841, 2807.317
1029.770, 2801.016
1031.698, 2811.871
1033.627, 2823.286
1035.555, 2819.902
1037.484, 2810.373
1039.412, 2808.715
1041.340, 2800.747
1043.269, 2790.920
1045.197, 2786.241
1047.126, 2776.369
1049.054, 2767.460
1050.983, 2762.075
1052.911, 2759.402
1054.840, 2759.434
1056.768, 2750.059
1058.697, 2741.380
1060.625, 2751.588
1062.554, 2764.426
1064.482, 2767.670
1066.411, 2771.209
1068.339, 2774.286
1070.267, 2781.616
1072.196, 2797.528
1074.124, 2812.605
1076.053, 2829.165
1077.981, 2846.331
1079.910, 2858.126
1081.838, 2862.827
1083.767, 2867.156
1085.695, 2882.526
1087.624, 2903.438
1089.552, 2919.503
1091.481, 2935.568
1093.409, 2962.927
1095.338, 2997.133
1097.266, 3027.963
1099.194, 3051.080
1101.123, 3049.814
1103.051, 3032.323
1104.980, 3019.881
1106.908, 3010.049
1108.837, 3005.691
1110.765, 3005.397
1112.694, 2986.719
1114.622, 2960.199
1116.551, 2960.821
1118.479, 2978.031
1120.408, 2985.622
1122.336, 2977.011
1124.265, 2961.781
1126.193, 2951.143
1128.121, 2936.920
1130.050, 2926.457
1131.978, 2937.541
1133.907, 2945.601
1135.835, 2929.354
1137.764, 2917.531
1139.692, 2923.386
1141.621, 2934.591
1143.549, 2956.852
1145.478, 2962.372
1147.406, 2925.362
1149.335, 2915.744
1151.263, 2964.099
1153.192, 2993.835
1155.120, 2989.339
1157.048, 2985.249
1158.977, 2985.975
1160.905, 2990.320
1162.834, 2994.058
1164.762, 2998.839
1166.691, 3007.381
1168.619, 3011.881
1170.548, 3011.415
1172.476, 3010.697
1174.405, 3011.022
1176.333, 3013.654
1178.262, 3018.804
1180.190, 3025.681
1182.119, 3032.655
1184.047, 3040.691
1185.975, 3049.326
1187.904, 3062.937
1189.832, 3067.486
1191.761, 3042.550
1193.689, 3032.238
1195.618, 3062.154
1197.546, 3091.416
1199.475, 3109.350
1201.403, 3116.205
1203.332, 3110.208
1205.260, 3106.541
1207.189, 3107.845
1209.117, 3104.100
1211.046, 3094.565
1212.974, 3094.935
1214.902, 3104.596
1216.831, 3112.532
1218.759, 3121.022
1220.688, 3138.165
1222.616, 3160.676
1224.545, 3189.445
1226.473, 3212.020
1228.402, 3206.488
1230.330, 3192.911
1232.259, 3188.241
1234.187, 3183.908
1236.116, 3170.820
1238.044, 3163.042
1239.973, 3162.796
1241.901, 3177.399
1243.829, 3216.691
1245.758, 3234.154
1247.686, 3220.267
1249.615, 3218.401
1251.543, 3232.274
1253.472, 3246.384
1255.400, 3260.310
1257.329, 3274.778
1259.257, 3285.355
1261.186, 3284.600
1263.114, 3281.545
1265.043, 3282.656
1266.971, 3285.138
1268.900, 3288.725
1270.828, 3298.325
1272.756, 3324.896
1274.685, 3341.883
1276.613, 3330.583
1278.542, 3318.213
1280.470, 3307.991
1282.399, 3309.988
1284.327, 3329.501
1286.256, 3341.677
1288.184, 3344.760
1290.113, 3362.227
1292.041, 3386.591
1293.970, 3373.348
1295.898, 3346.590
1297.827, 3355.589
1299.755, 3373.395
1301.683, 3375.303
1303.612, 3376.129
1305.540, 3381.585
1307.469, 3394.785
1309.397, 3430.874
1311.326, 3434.716
1313.254, 3371.592
1315.183, 3347.207
1317.111, 3384.577
1319.040, 3407.230
1320.968, 3415.198
1322.897, 3418.114
1324.825, 3419.127
1326.754, 3420.430
1328.682, 3422.316
1330.610, 3441.806
1332.539, 3453.233
1334.467, 3417.326
1336.396, 3390.260
1338.324, 3395.727
1340.253, 3413.536
1342.181, 3445.959
1344.110, 3458.702
1346.038, 3444.209
1347.967, 3436.853
1349.895, 3437.487
1351.824, 3447.070
1353.752, 3460.456
1355.681, 3450.877
1357.609, 3434.526
1359.537, 3437.526
1361.466, 3448.194
1363.394, 3462.867
1365.323, 3469.775
1367.251, 3458.426
1369.180, 3456.265
1371.108, 3471.227
1373.037, 3474.203
1374.965, 3462.868
1376.894, 3463.275
1378.822, 3473.819
1380.751, 3482.146
1382.679, 3483.462
1384.608, 3462.450
1386.536, 3440.724
1388.464, 3441.559
1390.393, 3447.025
1392.321, 3448.227
1394.250, 3450.344
1396.178, 3454.593
1398.107, 3459.308
1400.035, 3464.372
1401.964, 3477.144
1403.892, 3493.169
1405.821, 3487.622
1407.749, 3474.038
1409.678, 3474.392
1411.606, 3483.437
1413.535, 3500.134
1415.463, 3517.310
1417.391, 3541.311
1419.320, 3544.420
1421.248, 3511.532
1423.177, 3486.344
1425.105, 3469.943
1427.034, 3480.499
1428.962, 3506.121
1430.891, 3500.643
1432.819, 3485.825
1434.748, 3489.973
1436.676, 3495.766
1438.605, 3492.699
1440.533, 3486.470
1442.462, 3474.432
1444.390, 3472.928
1446.319, 3486.581
1448.247, 3488.564
1450.176, 3480.871
1452.104, 3474.357
1454.032, 3468.828
1455.961, 3469.497
1457.889, 3461.760
1459.818, 3422.772
1461.746, 3406.407
1463.675, 3443.654
1465.603, 3456.773
1467.532, 3428.854
1469.460, 3416.044
1471.389, 3417.353
1473.317, 3428.522
1475.246, 3436.541
1477.174, 3408.836
1479.103, 3381.926
1481.031, 3377.153
1482.959, 3392.239
1484.888, 3437.087
1486.816, 3434.450
1488.745, 3373.298
1490.673, 3351.844
1492.602, 3356.236
1494.530, 3313.823
1496.459, 3267.098
1498.387, 3285.258
1500.316, 3306.715
1502.244, 3296.198
1504.173, 3282.692
1506.101, 3271.757
1508.030, 3257.069
1509.958, 3240.197
1511.886, 3243.716
1513.815, 3256.219
1515.743, 3257.259
1517.672, 3248.277
1519.600, 3225.987
1521.529, 3201.586
1523.457, 3171.805
1525.386, 3169.471
1527.314, 3197.214
1529.243, 3198.353
1531.171, 3176.645
1533.100, 3147.916
1535.028, 3119.919
1536.957, 3102.353
1538.885, 3087.421
1540.813, 3064.286
1542.742, 3060.969
1544.670, 3085.726
1546.599, 3085.411
1548.527, 3063.654
1550.456, 3046.804
1552.384, 3028.660
1554.313, 2993.399
1556.241, 2965.276
1558.170, 2963.817
1560.098, 2962.420
1562.027, 2956.743
1563.955, 2949.093
1565.884, 2938.801
1567.812, 2916.902
1569.740, 2892.376
1571.669, 2876.430
1573.597, 2865.959
1575.526, 2863.130
1577.454, 2854.595
1579.383, 2832.432
1581.311, 2830.665
1583.240, 2842.991
1585.168, 2826.210
1587.097, 2801.357
1589.025, 2804.868
1590.954, 2794.188
1592.882, 2741.799
1594.811, 2701.239
1596.739, 2684.384
1598.667, 2663.220
1600.596, 2642.580
1602.524, 2649.274
1604.453, 2659.976
1606.381, 2653.979
1608.310, 2633.154
1610.238, 2594.871
1612.167, 2555.402
1614.095, 2518.615
1616.024, 2520.542
1617.952, 2541.797
1619.881, 2543.928
1621.809, 2535.281
1623.738, 2523.528
1625.666, 2494.752
1627.594, 2442.953
1629.523, 2425.124
1631.451, 2437.081
1633.380, 2434.852
1635.308, 2419.923
1637.237, 2381.137
1639.165, 2355.315
1641.094, 2363.180
1643.022, 2360.469
1644.951, 2343.004
1646.879, 2328.107
1648.808, 2313.193
1650.736, 2286.179
1652.665, 2263.719
1654.593, 2262.130
1656.521, 2262.989
1658.450, 2265.464
1660.378, 2229.195
1662.307, 2172.958
1664.235, 2171.671
1666.164, 2187.483
1668.092, 2189.410
1670.021, 2180.896
1671.949, 2158.994
1673.878, 2139.169
1675.806, 2123.348
1677.735, 2121.732
1679.663, 2129.310
1681.592, 2152.950
1683.520, 2157.462
1685.448, 2109.560
1687.377, 2078.891
1689.305, 2069.385
1691.234, 2074.737
1693.162, 2084.731
1695.091, 2083.989
1697.019, 2076.920
1698.948, 2065.183
1700.876, 2047.803
1702.805, 2024.120
1704.733, 2014.796
1706.662, 2011.277
1708.590, 1993.054
1710.519, 1976.036
1712.447, 1968.114
1714.375, 1965.899
1716.304, 1969.576
1718.232, 1959.482
1720.161, 1944.430
1722.089, 1946.592
1724.018, 1949.166
1725.946, 1944.770
1727.875, 1930.565
1729.803, 1905.993
1731.732, 1903.062
1733.660, 1906.092
1735.589, 1867.767
1737.517, 1848.238
1739.446, 1886.974
1741.374, 1895.254
1743.302, 1862.420
1745.231, 1859.076
1747.159, 1864.416
1749.088, 1828.021
1751.016, 1807.279
1752.945, 1834.419
1754.873, 1827.098
1756.802, 1785.209
1758.730, 1794.554
1760.659, 1820.584
1762.587, 1811.124
1764.516, 1805.168
1766.444, 1818.198
1768.373, 1817.207
1770.301, 1803.373
1772.229, 1792.893
1774.158, 1786.610
1776.086, 1790.005
1778.015, 1787.008
1779.943, 1773.652
1781.872, 1759.741
1783.800, 1747.322
1785.729, 1738.828
1787.657, 1735.301
1789.586, 1746.896
1791.514, 1736.740
1793.443, 1701.088
1795.371, 1710.820
1797.300, 1731.638
1799.228, 1695.672
1801.156, 1668.066
1803.085, 1689.084
1805.013, 1707.303
1806.942, 1718.484
1808.870, 1699.653
1810.799, 1671.266
1812.727, 1645.418
1814.656, 1634.602
1816.584, 1646.987
1818.513, 1647.588
1820.441, 1640.403
1822.370, 1628.548
1824.298, 1628.063
1826.227, 1656.910
1828.155, 1656.614
1830.083, 1625.424
1832.012, 1598.715
1833.940, 1581.621
1835.869, 1584.414
1837.797, 1580.628
1839.726, 1561.115
1841.654, 1564.067
1843.583, 1577.911
1845.511, 1568.648
1847.440, 1561.721
1849.368, 1571.259
1851.297, 1570.618
1853.225, 1559.282
1855.154, 1555.271
1857.082, 1553.357
1859.010, 1548.774
1860.939, 1545.493
1862.867, 1544.725
1864.796, 1527.757
1866.724, 1504.149
1868.653, 1490.574
1870.581, 1483.298
1872.510, 1481.632
1874.438, 1478.444
1876.367, 1473.105
1878.295, 1460.172
1880.224, 1455.686
1882.152, 1481.483
1884.081, 1474.804
1886.009, 1441.760
1887.938, 1479.306
1889.866, 1517.830
1891.794, 1464.215
1893.723, 1432.868
1895.651, 1441.894
1897.580, 1439.952
1899.508, 1431.200
1901.437, 1421.155
1903.365, 1407.927
1905.294, 1388.912
1907.222, 1391.640
1909.151, 1402.210
1911.079, 1374.020
1913.008, 1352.558
1914.936, 1372.405
1916.865, 1379.531
1918.793, 1377.502
1920.721, 1384.556
1922.650, 1389.285
1924.578, 1384.000
1926.507, 1381.486
1928.435, 1379.193
1930.364, 1346.038
1932.292, 1319.594
1934.221, 1332.496
1936.149, 1341.743
1938.078, 1340.477
1940.006, 1326.014
1941.935, 1313.312
1943.863, 1325.917
1945.792, 1335.635
1947.720, 1333.226
1949.648, 1308.787
1951.577, 1282.343
1953.505, 1284.217
1955.434, 1292.649
1957.362, 1296.769
1959.291, 1288.137
1961.219, 1276.186
1963.148, 1264.454
1965.076, 1261.469
1967.005, 1272.412
1968.933, 1277.429
1970.862, 1270.907
1972.790, 1245.494
1974.719, 1241.289
1976.647, 1257.323
1978.575, 1247.187
1980.504, 1229.013
1982.432, 1232.101
1984.361, 1227.762
1986.289, 1203.370
1988.218, 1206.401
1990.146, 1219.326
1992.075, 1203.549
1994.003, 1199.734
1995.932, 1208.787
1997.860, 1208.487
1999.789, 1203.304
2001.717, 1174.633
2003.646, 1161.742
2005.574, 1179.813
2007.502, 1180.960
2009.431, 1170.533
2011.359, 1164.673
2013.288, 1156.100
2015.216, 1143.201
2017.145, 1141.173
2019.073, 1144.225
2021.002, 1151.493
2022.930, 1148.803
2024.859, 1131.230
2026.787, 1130.564
2028.716, 1131.455
2030.644, 1103.379
2032.573, 1103.575
2034.501, 1131.536
2036.429, 1120.420
2038.358, 1102.715
2040.286, 1095.842
2042.215, 1092.206
2044.143, 1088.831
2046.072, 1073.489
2048.000, 1064.210
2049.929, 1070.137
2051.857, 1078.296
2053.786, 1086.026
2055.714, 1069.777
2057.643, 1048.079
2059.571, 1032.493
2061.500, 1036.493
2063.428, 1045.594
2065.356, 1021.402
2067.285, 1006.160
2069.213, 1010.282
2071.142, 1024.020
2073.070, 1032.782
2074.999, 1023.768
2076.927, 1011.044
2078.856, 996.9670
2080.784, 995.1154
2082.713, 994.3729
2084.641, 988.8223
2086.570, 991.6162
2088.498, 994.4257
2090.427, 984.9145
2092.355, 972.0975
2094.283, 951.5653
2096.212, 959.6559
2098.140, 980.5979
2100.069, 978.8025
2101.997, 971.2135
2103.926, 962.1033
2105.854, 963.9219
2107.783, 964.4548
2109.711, 942.8934
2111.640, 930.8802
2113.568, 928.8889
2115.497, 915.9965
2117.425, 909.0018
2119.354, 917.6104
2121.282, 925.0162
2123.210, 929.5961
2125.139, 924.9733
2127.067, 918.5783
2128.996, 913.6913
2130.924, 893.8210
2132.853, 876.0844
2134.781, 879.0786
2136.710, 879.0728
2138.638, 875.4959
2140.567, 871.0738
2142.495, 864.1366
2144.424, 852.6909
2146.352, 856.4207
2148.281, 866.9792
2150.209, 877.3882
2152.137, 876.3159
2154.066, 863.6132
2155.994, 865.7665
2157.923, 861.0693
2159.851, 835.3309
2161.780, 828.0110
2163.708, 831.9393
2165.637, 829.7679
2167.565, 825.5409
2169.494, 820.4058
2171.422, 828.3949
2173.351, 836.2220
2175.279, 833.6008
2177.208, 824.6931
2179.136, 813.0172
2181.064, 805.5632
2182.993, 800.6029
2184.921, 797.2832
2186.850, 790.9304
2188.778, 785.2518
2190.707, 782.5536
2192.635, 785.1151
2194.564, 791.0267
2196.492, 791.7216
2198.421, 783.2286
2200.349, 766.1881
2202.278, 770.4337
2204.206, 776.5795
2206.135, 758.8661
2208.063, 752.4346
2209.991, 756.0099
2211.920, 757.9102
2213.848, 754.9641
2215.777, 746.3088
2217.705, 742.9083
2219.634, 742.1630
2221.562, 736.7441
2223.491, 737.5167
2225.419, 742.5002
2227.348, 732.9728
2229.276, 726.9392
2231.205, 729.1362
2233.133, 730.8692
2235.062, 727.9063
2236.990, 711.2947
2238.918, 707.8237
2240.847, 712.0147
2242.775, 715.3118
2244.704, 712.3804
2246.632, 702.3358
2248.561, 694.5626
2250.489, 689.8590
2252.418, 686.8674
2254.346, 683.1876
2256.275, 677.2431
2258.203, 665.3439
2260.132, 675.5822
2262.060, 696.5381
2263.989, 681.4034
2265.917, 668.2828
2267.845, 673.0690
2269.774, 682.1492
2271.702, 679.1382
2273.631, 666.7300
2275.559, 659.6423
2277.488, 653.5059
2279.416, 647.4977
2281.345, 646.8454
2283.273, 649.7788
2285.202, 640.1556
2287.130, 627.6100
2289.059, 622.3494
2290.987, 638.5580
2292.916, 650.6367
2294.844, 643.3813
2296.772, 639.1533
2298.701, 637.0679
2300.629, 619.6325
2302.558, 609.2146
2304.486, 606.9796
2306.415, 610.0547
2308.343, 615.2629
2310.272, 611.3898
2312.200, 604.9435
2314.129, 603.8348
2316.057, 612.3254
2317.986, 612.8098
2319.914, 608.8710
2321.843, 604.3583
2323.771, 592.2781
2325.699, 581.0582
2327.628, 589.5143
2329.556, 595.1243
2331.485, 598.9385
2333.413, 590.4508
2335.342, 582.9613
2337.270, 587.9617
2339.199, 590.7122
2341.127, 585.9615
2343.056, 574.9818
2344.984, 569.3408
2346.913, 568.9534
2348.841, 566.8679
2350.770, 565.2820
2352.698, 570.6150
2354.626, 564.1002
2356.555, 551.3853
2358.483, 541.7646
2360.412, 545.4432
2362.340, 549.3243
2364.269, 556.7423
2366.197, 565.1208
2368.126, 553.9102
2370.054, 536.0596
2371.983, 535.2927
2373.911, 541.3411
2375.840, 543.1039
2377.768, 535.2994
2379.697, 528.0935
2381.625, 529.2031
2383.553, 529.9208
2385.482, 530.1642
2387.410, 522.7532
2389.339, 518.1780
2391.267, 521.6575
2393.196, 519.4719
2395.124, 514.4692
2397.053, 511.3462
2398.981, 509.7464
2400.910, 507.2200
2402.838, 507.5921
2404.767, 497.6135
2406.695, 488.3015
2408.624, 490.3264
2410.552, 492.7593
2412.480, 488.6788
2414.409, 485.1162
2416.337, 494.1009
2418.266, 498.2350
2420.194, 491.5402
2422.123, 490.5970
2424.051, 492.3849
2425.980, 490.8686
2427.908, 492.5572
2429.837, 492.3613
2431.765, 483.6106
2433.694, 479.3891
2435.622, 483.0448
2437.551, 480.0748
2439.479, 468.8848
2441.407, 467.7549
2443.336, 482.6062
2445.264, 475.9686
2447.193, 462.4759
2449.121, 462.9910
2451.050, 460.0105
2452.978, 450.1253
2454.907, 451.1260
2456.835, 451.8425
2458.764, 444.7460
2460.692, 445.7330
2462.621, 451.0840
2464.549, 451.7895
2466.478, 454.0422
2468.406, 449.5397
2470.334, 435.8197
2472.263, 442.5588
2474.191, 450.4515
2476.120, 434.0015
2478.048, 437.4646
2479.977, 443.4622
2481.905, 424.0730
2483.834, 428.8594
2485.762, 440.7572
2487.691, 439.9283
2489.619, 429.9073
2491.548, 414.8598
2493.476, 412.9151
2495.405, 416.8920
2497.333, 421.9220
2499.261, 415.4655
2501.190, 404.8988
2503.118, 398.3102
2505.047, 411.1418
2506.975, 411.3042
2508.904, 397.8422
2510.832, 404.1274
2512.761, 403.4640
2514.689, 392.8984
2516.618, 391.4955
2518.546, 389.2863
2520.475, 389.6866
2522.403, 399.5352
2524.332, 401.2379
2526.260, 395.4722
2528.188, 394.2978
2530.117, 389.8172
2532.045, 382.7307
2533.974, 390.3205
2535.902, 385.5101
2537.831, 370.0747
2539.759, 374.9461
2541.688, 381.8610
2543.616, 385.0232
2545.545, 385.1989
2547.473, 380.6961
2549.402, 372.5447
2551.330, 365.0791
2553.259, 360.5453
2555.187, 360.1239
2557.115, 367.6335
2559.044, 371.9989
2560.972, 371.0742
2562.901, 366.7459
2564.829, 360.2682
2566.758, 354.4613
2568.686, 356.0815
2570.615, 358.6179
2572.543, 359.9863
2574.472, 356.2975
2576.400, 352.6241
2578.329, 350.3994
2580.257, 349.3716
2582.186, 347.3490
2584.114, 343.6933
2586.042, 345.6521
2587.971, 345.7545
2589.899, 340.8707
2591.828, 330.7049
2593.756, 333.7923
2595.685, 339.8024
2597.613, 341.7274
2599.542, 334.9712
2601.470, 328.7208
2603.399, 334.5005
2605.327, 333.1930
2607.256, 329.8128
2609.184, 321.5512
2611.113, 323.1785
2613.041, 326.0209
2614.969, 310.3560
2616.898, 312.1165
2618.826, 313.5988
2620.755, 302.8482
2622.683, 304.1630
2624.612, 309.6389
2626.540, 309.9926
2628.469, 311.2267
2630.397, 303.2484
2632.326, 290.4021
2634.254, 293.7722
2636.183, 298.4108
2638.111, 299.9187
2640.040, 296.2767
2641.968, 297.9794
2643.896, 302.0398
2645.825, 303.2931
2647.753, 302.1480
2649.682, 299.6593
2651.610, 290.0270
2653.539, 285.3432
2655.467, 285.8453
2657.396, 284.3637
2659.324, 287.0079
2661.253, 288.8279
2663.181, 284.8348
2665.110, 281.4635
2667.038, 277.8297
2668.967, 273.2824
2670.895, 287.5334
2672.823, 293.5768
2674.752, 282.6097
2676.680, 274.6454
2678.609, 267.6004
2680.537, 266.5204
2682.466, 275.1255
2684.394, 278.0903
2686.323, 265.3586
2688.251, 269.4365
2690.180, 270.4760
2692.108, 260.7736
2694.037, 253.8769
2695.965, 254.9233
2697.894, 254.3799
2699.822, 261.3929
2701.750, 260.8405
2703.679, 248.6674
2705.607, 243.0390
2707.536, 255.5168
2709.464, 263.5912
2711.393, 248.5983
2713.321, 240.5425
2715.250, 244.8324
2717.178, 246.4231
2719.107, 241.0581
2721.035, 244.5273
2722.964, 245.4043
2724.892, 243.9632
2726.821, 241.5538
2728.749, 237.8568
2730.677, 247.6643
2732.606, 240.9678
2734.534, 231.0319
2736.463, 217.9744
2738.391, 220.2443
2740.320, 230.3902
2742.248, 231.9789
2744.177, 223.8842
2746.105, 219.5974
2748.034, 224.4980
2749.962, 219.9515
2751.891, 220.2807
2753.819, 226.1991
2755.748, 223.3367
2757.676, 223.7319
2759.604, 220.5605
2761.533, 214.4380
2763.461, 215.4890
2765.390, 215.6682
2767.318, 210.1582
2769.247, 208.2846
2771.175, 203.5203
2773.104, 193.9057
2775.032, 196.7646
2776.961, 209.6192
2778.889, 213.5460
2780.818, 205.6552
2782.746, 200.7850
2784.675, 201.7962
2786.603, 201.0260
2788.531, 202.8714
2790.460, 201.3585
2792.388, 190.8784
2794.317, 194.9968
2796.245, 195.8622
2798.174, 187.4540
2800.102, 192.5679
2802.031, 197.7012
2803.959, 190.1229
2805.888, 178.2863
2807.816, 177.8616
2809.745, 184.2587
2811.673, 184.2103
2813.602, 182.8459
2815.530, 179.4812
2817.458, 183.8195
2819.387, 184.4367
2821.315, 180.9636
2823.244, 181.8415
2825.172, 182.8761
2827.101, 182.7877
2829.029, 172.3022
2830.958, 158.2943
2832.886, 162.0793
2834.815, 171.8635
2836.743, 182.0519
2838.672, 175.3439
2840.600, 165.1115
2842.529, 168.9009
2844.457, 174.8802
2846.385, 171.6856
2848.314, 168.6928
2850.242, 159.1079
2852.171, 162.2880
2854.099, 165.4391
2856.028, 156.1149
2857.956, 160.8863
2859.885, 164.6955
2861.813, 163.9221
2863.742, 156.0332
2865.670, 158.6391
2867.599, 158.2077
2869.527, 149.6121
2871.456, 141.0540
2873.384, 139.8858
2875.313, 142.0010
2877.241, 144.7895
2879.169, 146.7976
2881.098, 147.1517
2883.026, 149.9307
2884.955, 153.4402
2886.883, 150.3262
2888.812, 141.1353
2890.740, 143.1328
2892.669, 144.6838
2894.597, 142.4225
2896.526, 141.7301
2898.454, 142.8512
2900.383, 139.5234
2902.311, 130.0521
2904.240, 130.3417
2906.168, 133.6345
2908.096, 136.2883
2910.025, 134.2974
2911.953, 123.6815
2913.882, 119.2443
2915.810, 122.9741
2917.739, 124.6970
2919.667, 131.8260
2921.596, 133.2784
2923.524, 127.3141
2925.453, 120.7236
2927.381, 120.1704
2929.310, 122.8667
2931.238, 122.8145
2933.167, 123.5719
2935.095, 123.1136
2937.024, 121.6907
2938.952, 110.8086
2940.881, 107.2853
2942.809, 110.6436
2944.738, 118.0746
2946.666, 118.8226
2948.594, 114.3308
2950.523, 109.8971
2952.451, 116.8555
2954.380, 110.3643
2956.308, 103.8145
2958.237, 109.8569
2960.165, 112.3044
2962.094, 109.8095
2964.022, 104.0981
2965.951, 96.42242
2967.879, 105.2402
2969.808, 110.5959
2971.736, 104.2202
2973.665, 96.47304
2975.593, 94.49438
2977.521, 99.25483
2979.450, 110.8822
2981.378, 108.5977
2983.307, 102.5621
2985.235, 97.54681
2987.164, 97.62933
2989.092, 96.25509
2991.021, 93.47575
2992.949, 90.66883
2994.878, 91.63574
2996.806, 94.77103
2998.735, 95.04344
3000.663, 88.00468
3002.592, 83.46304
3004.520, 79.05877
3006.448, 77.84966
3008.377, 88.72364
3010.305, 92.88075
3012.234, 91.55536
3014.162, 87.35130
3016.091, 85.07672
3018.019, 84.99297
3019.948, 84.93972
3021.876, 85.01700
3023.805, 82.30990
3025.733, 77.39471
3027.662, 76.77054
3029.590, 83.52233
3031.519, 76.79250
3033.447, 73.23944
3035.375, 76.91695
3037.304, 85.42188
3039.232, 84.72167
3041.161, 78.38745
3043.089, 71.14401
3045.018, 74.50420
3046.946, 71.62644
3048.875, 73.72808
3050.803, 79.63861
3052.732, 70.53461
3054.660, 69.41972
3056.589, 73.87722
3058.517, 78.02025
3060.446, 70.18038
3062.374, 65.85300
3064.302, 68.50046
3066.231, 78.25661
3068.159, 73.17166
3070.088, 66.88557
3072.016, 66.02049
3073.945, 69.22814
3075.873, 70.47028
3077.802, 67.27000
3079.730, 65.40319
3081.659, 63.23948
3083.587, 61.29039
3085.516, 64.65675
3087.444, 67.49145
3089.373, 66.32580
3091.301, 67.12023
3093.229, 64.84662
3095.158, 59.41055
3097.086, 68.19122
3099.015, 61.98851
3100.943, 52.83581
3102.872, 52.15611
3104.800, 60.94893
3106.729, 56.42925
3108.657, 50.53768
3110.586, 54.09388
3112.514, 56.01910
3114.443, 53.60548
3116.371, 50.32907
3118.300, 52.26337
3120.228, 48.06898
3122.156, 50.60345
3124.085, 51.61485
3126.013, 49.75999
3127.942, 50.03386
3129.870, 53.43045
3131.799, 55.30931
3133.727, 54.75538
3135.656, 46.77081
3137.584, 48.91451
3139.513, 54.31233
3141.441, 50.28968
3143.370, 46.31060
3145.298, 44.45276
3147.227, 44.13712
3149.155, 42.57550
3151.083, 44.49527
3153.012, 49.51621
3154.940, 50.16941
3156.869, 46.80885
3158.797, 41.87005
3160.726, 38.68161
3162.654, 39.51262
3164.583, 46.26024
3166.511, 43.43722
3168.440, 41.38217
3170.368, 42.58353
3172.297, 40.60880
3174.225, 40.53361
3176.154, 43.28351
3178.082, 41.99678
3180.010, 38.26620
3181.939, 36.89291
3183.867, 39.21985
3185.796, 39.01137
3187.724, 39.01561
3189.653, 45.09318
3191.581, 39.52512
3193.510, 40.49176
3195.438, 42.19334
3197.367, 31.43904
3199.295, 36.16413
3201.224, 38.53225
3203.152, 34.94352
3205.081, 31.38777
3207.009, 39.24871
3208.938, 35.37157
3210.866, 29.91607
3212.794, 38.62318
3214.723, 37.80036
3216.651, 34.18830
3218.580, 33.45404
3220.508, 36.50668
3222.437, 39.92581
3224.365, 38.87920
3226.294, 36.34330
3228.222, 30.88748
3230.151, 24.61282
3232.079, 28.45516
3234.008, 32.56124
3235.936, 33.15961
3237.865, 35.06533
3239.793, 35.41936
3241.721, 32.23545
3243.650, 29.78202
3245.578, 29.60975
3247.507, 24.67558
3249.435, 26.90126
3251.364, 30.35206
3253.292, 31.02782
3255.221, 40.18491
3257.149, 35.54207
3259.078, 30.45148
3261.006, 27.94804
3262.935, 25.79019
3264.863, 25.67392
3266.792, 25.58162
3268.720, 29.35273
3270.648, 32.08879
3272.577, 29.95585
3274.505, 25.68571
3276.434, 26.56340
3278.362, 32.39328
3280.291, 33.48354
3282.219, 26.68841
3284.148, 25.52873
3286.076, 28.87960
3288.005, 30.01857
3289.933, 36.34960
3291.862, 36.81885
3293.790, 30.05054
3295.719, 23.19312
3297.647, 25.96489
3299.575, 29.35614
3301.504, 27.48905
3303.432, 24.62271
3305.361, 27.37628
3307.289, 29.26588
3309.218, 25.94409
3311.146, 26.46054
3313.075, 29.54018
3315.003, 25.83843
3316.932, 26.66144
3318.860, 28.63949
3320.789, 29.52826
3322.717, 26.69128
3324.646, 27.35102
3326.574, 30.28872
3328.502, 29.54719
3330.431, 25.13304
3332.359, 22.28727
3334.288, 26.65343
3336.216, 27.45068
3338.145, 25.45748
3340.073, 22.88351
3342.002, 25.52947
3343.930, 25.88623
3345.859, 28.92205
3347.787, 30.23433
3349.716, 26.47313
3351.644, 29.41566
3353.573, 28.20186
3355.501, 21.45080
3357.429, 15.12288
3359.358, 18.84462
3361.286, 20.18320
3363.215, 24.07326
3365.143, 25.99542
3367.072, 25.03985
3369.000, 29.78788
3370.929, 21.84835
3372.857, 17.03838
3374.786, 18.80049
3376.714, 24.11016
3378.643, 22.97999
3380.571, 23.75764
3382.500, 25.00023
3384.428, 24.09502
3386.356, 20.03618
3388.285, 22.22977
3390.213, 14.01647
3392.142, 14.21792
3394.070, 23.96773
3395.999, 28.79928
3397.927, 18.32625
3399.856, 22.39752
3401.784, 25.77782
3403.713, 21.08531
3405.641, 14.22616
3407.570, 12.60966
3409.498, 13.26557
3411.427, 15.25502
3413.355, 17.87746
3415.283, 20.74553
3417.212, 24.10772
3419.140, 24.93388
3421.069, 26.28306
3422.997, 26.32394
3424.926, 17.39874
3426.854, 21.21670
3428.783, 15.09845
3430.711, 13.95651
3432.640, 21.41073
3434.568, 19.12517
3436.497, 14.04489
3438.425, 14.11418
3440.354, 16.82934
3442.282, 19.96788
3444.210, 24.65446
3446.139, 25.42114
3448.067, 25.64109
3449.996, 25.64213
3451.924, 23.44981
3453.853, 15.11043
3455.781, 20.06887
3457.710, 20.65533
3459.638, 20.60839
3461.567, 22.00972
3463.495, 22.33182
3465.424, 14.22698
3467.352, 17.59142
3469.281, 17.78031
3471.209, 15.08682
3473.137, 18.07897
3475.066, 15.39943
3476.994, 13.32546
3478.923, 19.68855
3480.851, 24.56465
3482.780, 20.58080
3484.708, 23.81968
3486.637, 19.38987
3488.565, 14.36130
3490.494, 13.21359
3492.422, 16.93031
3494.351, 23.71449
3496.279, 15.07926
3498.208, 16.97575
3500.136, 20.08912
3502.064, 17.80069
3503.993, 13.24990
3505.921, 14.50600
3507.850, 12.53307
3509.778, 16.68487
3511.707, 21.78792
3513.635, 20.40483
3515.564, 18.90970
3517.492, 16.56215
3519.421, 20.52805
3521.349, 18.74331
3523.278, 11.61452
3525.206, 16.13537
3527.135, 15.24331
3529.063, 13.87609
3530.991, 17.92910
3532.920, 21.53062
3534.848, 18.64033
3536.777, 20.78209
3538.705, 15.37857
3540.634, 13.17827
3542.562, 11.51291
3544.491, 11.60983
3546.419, 23.52181
3548.348, 14.17522
3550.276, 10.47507
3552.205, 14.21306
3554.133, 15.39750
3556.062, 9.565382
3557.990, 8.835102
3559.918, 12.44523
3561.847, 19.12141
3563.775, 21.89169
3565.704, 20.49392
3567.632, 18.80927
3569.561, 13.39918
3571.489, 20.72951
3573.418, 6.761266
3575.346, 5.961758
3577.275, 20.19420
3579.203, 8.267594
3581.132, 12.98976
3583.060, 17.76400
3584.989, 15.61897
3586.917, 18.99551
3588.845, 26.98136
3590.774, 16.62893
3592.702, 11.68451
3594.631, 14.64600
3596.559, 10.10967
3598.488, 8.609791
3600.416, 14.32516
3602.345, 2.920969
3604.273, 7.767068
3606.202, 8.042562
3608.130, 8.297757
3610.059, 8.829882
3611.987, 9.372743
3613.916, 18.37157
3615.844, 10.53734
3617.772, 16.96422
3619.701, 18.38008
3621.629, 15.51928
3623.558, 14.98069
3625.486, 7.582968
3627.415, 18.64553
3629.343, 14.49467
3631.272, 12.40376
3633.200, 17.52771
3635.129, 19.83534
3637.057, 5.330312
3638.986, 5.087766
3640.914, 7.133900
3642.843, 6.256725
3644.771, 6.741385
3646.699, 9.294872
3648.628, 9.416228
3650.556, 13.29314
3652.485, 7.417480
3654.413, 8.910400
3656.342, 10.76932
3658.270, 9.346622
3660.199, 9.553406
3662.127, 13.07704
3664.056, 9.653097
3665.984, 15.55483
3667.913, 10.38244
3669.841, 7.572806
3671.770, 16.38779
3673.698, 7.290574
3675.626, -1.987660
3677.555, 7.391894
3679.483, 16.20473
3681.412, 20.75761
3683.340, 16.54169
3685.269, 0.7083268
3687.197, 4.429286
3689.126, 10.77699
3691.054, 6.512136
3692.983, 5.830836
3694.911, 6.913901
3696.840, 3.734321
3698.768, 1.777039
3700.697, 8.526737
3702.625, 6.737788
3704.553, 5.475927
3706.482, 12.64548
3708.410, 17.83351
3710.339, 11.98326
3712.267, 13.52904
3714.196, 9.886587
3716.124, 14.09644
3718.053, 12.95712
3719.981, 7.898564
3721.910, 6.889483
3723.838, 11.20032
3725.767, 6.631161
3727.695, 3.890375
3729.624, 4.736336
3731.552, 16.37789
3733.480, 14.06305
3735.409, 8.174271
3737.337, 24.33584
3739.266, 10.18591
3741.194, 3.898522
3743.123, 9.518485
3745.051, 8.980527
3746.980, 4.846705
3748.908, 4.330645
3750.837, 7.613561
3752.765, 11.34184
3754.694, 9.928611
3756.622, 10.54725
3758.551, 13.68784
3760.479, 17.23979
3762.407, 11.66613
3764.336, -1.586480
3766.264, 12.22310
3768.193, 14.56865
3770.121, 6.587661
3772.050, 4.776805
3773.978, 6.467302
3775.907, 7.774596
3777.835, 10.54609
3779.764, 17.13148
3781.692, 12.71766
3783.621, 11.11365
3785.549, 3.935330
3787.478, 6.048369
3789.406, 8.808279
3791.334, 8.290223
3793.263, 11.83889
3795.191, 15.45780
3797.120, 14.82416
3799.048, 7.958097
3800.977, 7.497519
3802.905, 6.342707
3804.834, 2.154823
3806.762, 4.714461
3808.691, 17.42606
3810.619, 5.643785
3812.548, 0.5003760
3814.476, 16.06716
3816.405, 8.855108
3818.333, 5.618861
3820.261, 8.383228
3822.190, 6.722695
3824.118, 11.83971
3826.047, 2.323499
3827.975, 11.50689
3829.904, 12.25020
3831.832, 13.87566
3833.761, 10.50834
3835.689, 5.656919
3837.618, 6.587349
3839.546, 9.442788
3841.475, 2.259639
3843.403, 8.531489
3845.332, 7.789825
3847.260, 12.55387
3849.188, 9.346977
3851.117, 3.812703
3853.045, 4.290682
3854.974, 5.785457
3856.902, 5.745679
3858.831, 9.637298
3860.759, 5.609656
3862.688, 13.77538
3864.616, 17.36157
3866.545, 14.43510
3868.473, 12.24838
3870.402, 11.61769
3872.330, 8.175586
3874.259, 6.342910
3876.187, 4.578182
3878.115, 2.359157
3880.044, 3.952102
3881.972, -0.7939619
3883.901, 5.576264
3885.829, 12.86478
3887.758, 2.338503
3889.686, 9.537340
3891.615, 10.02468
3893.543, 10.41694
3895.472, 7.445728
3897.400, 5.066211
3899.329, 3.058415
3901.257, 0.9364585
3903.186, 4.693629
3905.114, 13.59658
3907.042, 10.15217
3908.971, 5.914722
3910.899, 13.50579
3912.828, 6.545193
3914.756, 5.276206
3916.685, 4.844875
3918.613, 10.71205
3920.542, 14.19424
3922.470, 7.911477
3924.399, 6.031483
3926.327, 5.758479
3928.256, 11.55259
3930.184, 9.002686
3932.113, 7.855492
3934.041, 9.770065
3935.969, 8.668397
3937.898, 4.277472
3939.826, 3.023582
3941.755, 5.967834
3943.683, 4.075799
3945.612, 1.786909
3947.540, 11.50623
3949.469, 3.817531
3951.397, 5.675362
3953.326, 10.94112
3955.254, 10.05163
3957.183, 8.671280
3959.111, 11.14815
3961.040, 11.47066
3962.968, 3.908048
3964.896, -2.157012
3966.825, 8.321084
3968.753, 13.25894
3970.682, 0.9448739
3972.610, 4.004291
3974.539, 9.239197
3976.467, 10.61953
3978.396, 9.822007
3980.324, 3.975050
3982.253, -3.967036
3984.181, -0.5023633
3986.110, 13.55480
3988.038, 5.661827
3989.967, 3.883624
3991.895, 5.286714
3993.823, 6.649454
3995.752, 12.97440
3997.680, 7.368795
3999.609, 3.289820
4001.537, 10.09897
4003.466, 7.749485
4005.394, 4.507700
4007.323, 11.66095
4009.251, 9.907422
4011.180, 17.26477
4013.108, 16.24114
4015.037, 11.14864
4016.965, 4.048874
4018.894, 6.890212
4020.822, 1.384826
4022.750, -7.106229
4024.679, 2.218039
4026.607, 14.37804
4028.536, 18.47577
4030.464, 20.83507
4032.393, 16.46418
4034.321, 2.157743
4036.250, 5.005807
4038.178, 2.509210
4040.107, 7.426999
4042.035, 8.321927
4043.964, 6.015679
4045.892, 6.694075
4047.821, 8.955981
4049.749, 9.862041
4051.677, 6.540947
4053.606, 10.18485
4055.534, 4.761931
4057.463, 3.630842
4059.391, 9.498384
4061.320, 7.615138
4063.248, 5.622845
4065.177, -0.6803429
4067.105, 3.688568
4069.034, 6.373681
4070.962, 3.979962
4072.891, 9.212626
4074.819, 16.10635
4076.748, 9.640635
4078.676, 0.4420578
4080.604, 2.234576
4082.533, -4.434483
4084.461, 8.647335
4086.390, 5.993446
4088.318, -0.6898693
4090.247, 11.79211
4092.175, 13.30059
4094.104, 10.11893
4096.032, 4.953813
4097.961, 4.418442
4099.889, 8.717618
4101.818, 7.396850
4103.746, 4.840416
4105.675, 7.850826
4107.603, 2.233049
4109.532, 5.478255
4111.460, 22.31990
4113.389, 11.39497
4115.317, 2.594735
4117.246, 9.354104
4119.174, 4.820738
4121.103, 1.616193
4123.031, 4.477652
4124.959, 6.580708
4126.888, 4.607116
4128.816, 7.934741
4130.745, 11.00994
4132.673, 2.295030
4134.602, -4.025623
4136.530, 0.4453645
4138.458, 10.37751
4140.387, 10.60953
4142.315, 10.73051
4144.244, 9.089280
4146.172, 4.775007
4148.101, 6.127810
4150.029, 4.339447
4151.958, 8.503089
4153.886, -0.3029575
4155.815, 8.515137
4157.743, 11.05523
4159.672, 12.00572
4161.600, 7.811182
4163.529, -2.019106
4165.457, 2.322559
4167.386, 11.74178
4169.314, 9.163848
4171.243, 10.02699
4173.171, 6.841231
4175.100, 10.70120
4177.028, 4.412943
4178.957, 10.57911
4180.885, 2.735078
4182.813, 8.166737
4184.742, 2.742015
4186.670, 7.527825
4188.599, 4.983302
4190.527, 8.016356
4192.456, 3.890934
4194.384, 3.959939
4196.313, 11.48324
4198.241, 4.925562
4200.169, 6.188021
4202.098, 12.03807
4204.026, 10.38159
4205.955, 14.07993
4207.883, 7.221441
4209.812, -6.684223
4211.740, 11.62466
4213.669, 13.95359
4215.597, 6.940187
4217.526, 8.596270
4219.454, 4.658474
4221.383, -1.841333
4223.311, -0.1907745
4225.240, -0.7157215
4227.168, 10.05756
4229.097, 2.347037
4231.025, 13.50358
4232.954, 9.327421
4234.882, -0.6770251
4236.811, 2.011416
4238.739, 7.078622
4240.667, 10.62791
4242.596, 7.664766
4244.524, 10.33088
4246.453, 3.358682
4248.381, 8.314321
4250.310, 5.476728
4252.238, 5.539126
4254.167, 8.233638
4256.095, 3.955995
4258.023, 6.578694
4259.952, 5.383447
4261.880, 2.672795
4263.809, 7.984126
4265.737, 3.563010
4267.666, -0.3462604
4269.594, 1.107942
4271.523, 8.077504
4273.451, 2.746272
4275.380, 12.61035
4277.308, 6.852333
4279.237, 8.936989
4281.165, 10.63251
4283.094, -3.585134
4285.022, 9.900860
4286.951, 9.383150
4288.879, 2.165839
4290.808, 12.14276
4292.736, 9.409216
4294.665, 8.798267
4296.593, 8.802288
4298.521, 8.380108
4300.450, 12.81836
4302.378, 10.91865
4304.307, -0.8085819
4306.235, 5.831582
4308.164, 10.44658
4310.092, 11.77758
4312.021, 5.363438
4313.949, 10.53152
4315.877, 14.07421
4317.806, 8.601545
4319.734, 8.065427
4321.663, 9.901463
4323.591, 1.608980
4325.520, 10.84525
4327.448, 7.210180
4329.377, 3.978888
4331.305, 10.91861
4333.234, 12.20622
##END=



