##NAMES=Russellite
##RRUFFID=R060860
##IDEAL CHEMISTRY=Bi_2_WO_6_
##LOCALITY=Castle-an-Dinas mine, Saint Columb Major, Cornwall, England
##OWNER=RRUFF
##SOURCE=Michael Scott
##DESCRIPTION=Brownish-yellow granular
##STATUS=The identification of this mineral has been confirmed by X-ray diffraction and chemical analysis
##URL=https://www.rruff.net/odr/rruff_sample/R060860
##MEASURED CHEMISTRY=lighter phase: (Bi_1.94_Fe^3+^_0.06_)_Σ=2_W_1.00_O_6_; darker phase: (Bi_1.95_Fe^3+^_0.05_)_Σ=2_W_1.00_O_6_; 
##DIFFRACTION SAMPLE DESCRIPTION=Powder
##CELL PARAMETERS=a: 5.4498 b: 16.321 c: 5.455 alpha: 90 beta: 90 gamma: 90 volume: 485.2 crystal system: orthorhombic
##FILETYPE=Raman Processed
##RAMAN WAVELENGTH=785

173.564, 32143.760
175.492, 32137.961
177.421, 32168.350
179.349, 32302.570
181.278, 32548.430
183.206, 32924.070
185.135, 33442.680
187.063, 34017.410
188.992, 34636.172
190.920, 35304.539
192.849, 36062.750
194.777, 36847.320
196.706, 37582.641
198.634, 38277.738
200.562, 38985.480
202.491, 39765.641
204.419, 40443.281
206.348, 40960.930
208.276, 41412.289
210.205, 41813.129
212.133, 42202.039
214.062, 42649.059
215.990, 43162.789
217.919, 43667.078
219.847, 44260.820
221.776, 44699.051
223.704, 44899.930
225.633, 44943.129
227.561, 44831.051
229.490, 44622.531
231.418, 44474.750
233.346, 44381.988
235.275, 44391.539
237.203, 44488.090
239.132, 44693.820
241.060, 45000.410
242.989, 45441.449
244.917, 46052.660
246.846, 46823.660
248.774, 47680.391
250.703, 48672.910
252.631, 49656.000
254.560, 50780.770
256.488, 51705.512
258.417, 52258.609
260.345, 52500.730
262.273, 52494.480
264.202, 52242.172
266.130, 51894.109
268.059, 51252.840
269.987, 50837.852
271.916, 50684.391
273.844, 50767.641
275.773, 51165.289
277.701, 51751.781
279.630, 52451.379
281.558, 53278.199
283.487, 53729.629
285.415, 53634.449
287.344, 53367.148
289.272, 52664.320
291.200, 52112.609
293.129, 51870.059
295.057, 52085.730
296.986, 53020.480
298.914, 54691.660
300.843, 56563.289
302.771, 59323.480
304.700, 61183.070
306.628, 62249.359
308.557, 62170.910
310.485, 60279.121
312.414, 57429.809
314.342, 54355.730
316.271, 51095.262
318.199, 48468.930
320.127, 46644.980
322.056, 45244.629
323.984, 44448.000
325.913, 43835.750
327.841, 43353.590
329.770, 42893.680
331.698, 42367.020
333.627, 41779.078
335.555, 41164.430
337.484, 40534.238
339.412, 39844.281
341.341, 39029.449
343.269, 38264.648
345.198, 37609.578
347.126, 37016.910
349.054, 36452.328
350.983, 35925.648
352.911, 35468.660
354.840, 35092.770
356.768, 34696.160
358.697, 34221.219
360.625, 33831.781
362.554, 33594.500
364.482, 33377.762
366.411, 33104.012
368.339, 32823.871
370.267, 32595.730
372.196, 32412.230
374.125, 32218.240
376.053, 32009.820
377.981, 31806.699
379.910, 31623.900
381.838, 31417.900
383.767, 31144.160
385.695, 30881.391
387.624, 30669.109
389.552, 30506.410
391.481, 30405.619
393.409, 30368.320
395.338, 30308.480
397.266, 30189.100
399.194, 30155.500
401.123, 30250.320
403.052, 30369.539
404.980, 30456.820
406.908, 30567.029
408.837, 30751.990
410.765, 30980.301
412.694, 31210.410
414.622, 31450.381
416.551, 31567.869
418.479, 31574.029
420.408, 31451.760
422.336, 31167.990
424.265, 30815.551
426.193, 30372.150
428.122, 29940.410
430.050, 29597.439
431.978, 29314.740
433.907, 29029.260
435.835, 28739.199
437.764, 28518.061
439.692, 28373.279
441.621, 28258.609
443.549, 28178.830
445.478, 28109.230
447.406, 28053.980
449.335, 27989.430
451.263, 27897.279
453.192, 27787.311
455.120, 27668.650
457.049, 27542.211
458.977, 27432.109
460.905, 27337.689
462.834, 27251.180
464.762, 27177.221
466.691, 27095.270
468.619, 26996.471
470.548, 26896.850
472.476, 26811.910
474.405, 26727.699
476.333, 26623.439
478.262, 26509.260
480.190, 26416.760
482.119, 26346.350
484.047, 26271.051
485.976, 26183.029
487.904, 26117.311
489.832, 26095.650
491.761, 26060.400
493.689, 25973.160
495.618, 25883.000
497.546, 25824.439
499.475, 25777.930
501.403, 25702.910
503.332, 25615.660
505.260, 25595.561
507.189, 25642.770
509.117, 25699.730
511.046, 25773.080
512.974, 25796.070
514.903, 25708.850
516.831, 25654.369
518.760, 25733.471
520.688, 25811.449
522.617, 25814.990
524.545, 25764.080
526.473, 25664.061
528.402, 25533.920
530.330, 25459.721
532.259, 25438.039
534.187, 25369.490
536.116, 25237.150
538.044, 25126.461
539.973, 25061.131
541.901, 25001.961
543.830, 24929.061
545.758, 24863.609
547.687, 24820.590
549.615, 24785.650
551.544, 24740.260
553.472, 24693.100
555.400, 24670.881
557.329, 24668.859
559.257, 24652.180
561.186, 24620.461
563.114, 24573.699
565.043, 24507.930
566.971, 24441.311
568.900, 24363.289
570.828, 24310.230
572.757, 24318.580
574.685, 24326.471
576.614, 24274.051
578.542, 24214.590
580.470, 24226.080
582.399, 24281.449
584.327, 24306.160
586.256, 24305.930
588.184, 24314.980
590.113, 24335.240
592.041, 24342.721
593.970, 24327.900
595.898, 24315.650
597.827, 24321.250
599.755, 24313.869
601.683, 24287.289
603.612, 24244.109
605.541, 24182.660
607.469, 24111.199
609.397, 24037.891
611.326, 23962.279
613.254, 23871.039
615.183, 23776.131
617.111, 23724.410
619.040, 23714.289
620.968, 23700.830
622.897, 23679.789
624.825, 23649.061
626.754, 23594.391
628.682, 23557.270
630.610, 23542.471
632.539, 23549.770
634.468, 23604.320
636.396, 23650.320
638.324, 23636.369
640.253, 23606.410
642.181, 23601.160
644.110, 23619.420
646.038, 23673.010
647.967, 23746.420
649.895, 23782.689
651.824, 23784.230
653.752, 23801.020
655.681, 23838.109
657.609, 23882.260
659.537, 23909.939
661.466, 23990.090
663.394, 24162.971
665.323, 24333.311
667.251, 24453.779
669.180, 24597.381
671.108, 24801.779
673.037, 25041.930
674.965, 25289.260
676.894, 25571.100
678.822, 25927.631
680.751, 26339.670
682.679, 26765.750
684.608, 27218.770
686.536, 27740.859
688.464, 28332.721
690.393, 29032.930
692.321, 29873.590
694.250, 30664.820
696.178, 31435.980
698.107, 32065.250
700.035, 32550.980
701.964, 32894.789
703.892, 33077.852
705.821, 33145.922
707.749, 33022.422
709.678, 32904.820
711.606, 32897.809
713.535, 32949.602
715.463, 33035.641
717.391, 33139.891
719.320, 33273.809
721.248, 33395.480
723.177, 33476.922
725.105, 33477.340
727.034, 33236.000
728.962, 32758.539
730.891, 32162.279
732.819, 31426.340
734.748, 30702.990
736.676, 29958.789
738.605, 29312.311
740.533, 28725.760
742.462, 28295.699
744.390, 28098.439
746.318, 27932.561
748.247, 27729.760
750.175, 27601.650
752.104, 27620.359
754.032, 27677.641
755.961, 27705.051
757.889, 27769.900
759.818, 27901.080
761.746, 28111.141
763.675, 28419.570
765.603, 28797.561
767.532, 29179.420
769.460, 29618.859
771.389, 30219.971
773.317, 30973.930
775.245, 31843.131
777.174, 32834.480
779.102, 34001.410
781.031, 35348.762
782.959, 36847.238
784.888, 38541.852
786.816, 40211.359
788.745, 41973.930
790.673, 43329.199
792.602, 44320.551
794.530, 44681.391
796.459, 44307.641
798.387, 43470.922
800.316, 42071.859
802.244, 40587.520
804.172, 39051.750
806.101, 37681.430
808.029, 36495.199
809.958, 35619.160
811.886, 35233.488
813.815, 35010.480
815.743, 34828.969
817.672, 34642.441
819.600, 34494.059
821.529, 34252.500
823.457, 33782.879
825.386, 33163.648
827.314, 32457.539
829.243, 31692.561
831.171, 30890.369
833.099, 30072.699
835.028, 29301.020
836.956, 28557.039
838.885, 27750.881
840.813, 26915.561
842.742, 26251.141
844.670, 25745.240
846.599, 25211.150
848.527, 24648.801
850.456, 24143.100
852.384, 23693.859
854.313, 23283.750
856.241, 22909.580
858.170, 22618.789
860.098, 22426.500
862.027, 22199.221
863.955, 21917.660
865.883, 21645.010
867.812, 21384.061
869.740, 21183.811
871.669, 21071.699
873.597, 20942.961
875.526, 20763.090
877.454, 20600.750
879.383, 20477.051
881.311, 20361.141
883.240, 20245.801
885.168, 20128.400
887.097, 19994.980
889.025, 19879.680
890.954, 19818.910
892.882, 19741.020
894.810, 19613.400
896.739, 19475.520
898.667, 19335.109
900.596, 19205.930
902.524, 19108.641
904.453, 19008.420
906.381, 18860.699
908.310, 18732.250
910.238, 18675.340
912.167, 18643.930
914.095, 18634.359
916.024, 18595.080
917.952, 18441.869
919.881, 18282.850
921.809, 18237.770
923.737, 18221.529
925.666, 18142.711
927.594, 18049.770
929.523, 18010.279
931.451, 17977.320
933.380, 17874.480
935.308, 17762.141
937.237, 17740.490
939.165, 17742.500
941.094, 17661.480
943.022, 17551.420
944.951, 17490.590
946.879, 17455.961
948.808, 17412.760
950.736, 17367.500
952.664, 17338.250
954.593, 17309.641
956.521, 17246.430
958.450, 17171.490
960.378, 17126.980
962.307, 17101.930
964.235, 17086.980
966.164, 17070.510
968.092, 17028.939
970.021, 16969.920
971.949, 16894.971
973.878, 16820.750
975.806, 16783.311
977.735, 16767.820
979.663, 16752.551
981.591, 16731.590
983.520, 16693.260
985.448, 16641.119
987.377, 16567.221
989.305, 16494.980
991.234, 16486.980
993.162, 16505.779
995.091, 16473.301
997.019, 16413.980
998.948, 16370.120
1000.876, 16338.380
1002.805, 16314.700
1004.733, 16295.990
1006.662, 16286.550
1008.590, 16271.960
1010.518, 16215.870
1012.447, 16146.060
1014.375, 16102.210
1016.304, 16084.010
1018.232, 16115.060
1020.161, 16150.140
1022.089, 16093.860
1024.018, 16017.130
1025.946, 16034.590
1027.875, 16084.170
1029.803, 16088.320
1031.732, 16070.050
1033.660, 16055.980
1035.589, 16039.940
1037.517, 16020.770
1039.446, 15989.840
1041.374, 15912.670
1043.302, 15845.670
1045.231, 15860.280
1047.159, 15887.380
1049.088, 15867.330
1051.016, 15830.890
1052.945, 15793.870
1054.873, 15765.140
1056.802, 15756.750
1058.730, 15754.510
1060.659, 15753.070
1062.587, 15749.630
1064.516, 15746.140
1066.444, 15733.170
1068.373, 15696.470
1070.301, 15663.210
1072.229, 15645.740
1074.158, 15636.190
1076.086, 15632.830
1078.015, 15634.020
1079.943, 15656.190
1081.872, 15637.870
1083.800, 15536.750
1085.729, 15449.850
1087.657, 15406.540
1089.586, 15378.180
1091.514, 15359.150
1093.443, 15346.590
1095.371, 15334.620
1097.299, 15361.540
1099.228, 15453.940
1101.156, 15473.630
1103.085, 15386.860
1105.013, 15340.550
1106.942, 15352.440
1108.870, 15378.770
1110.799, 15418.620
1112.727, 15427.450
1114.656, 15401.400
1116.584, 15390.890
1118.513, 15393.570
1120.441, 15367.440
1122.370, 15317.930
1124.298, 15282.880
1126.226, 15261.670
1128.155, 15249.300
1130.083, 15248.100
1132.012, 15266.830
1133.940, 15296.880
1135.869, 15327.780
1137.797, 15348.970
1139.726, 15339.120
1141.654, 15312.870
1143.583, 15272.870
1145.511, 15242.550
1147.440, 15263.430
1149.368, 15277.330
1151.297, 15218.370
1153.225, 15171.980
1155.153, 15212.680
1157.082, 15237.190
1159.010, 15179.670
1160.939, 15144.180
1162.867, 15173.720
1164.796, 15194.420
1166.724, 15186.020
1168.653, 15182.100
1170.581, 15188.450
1172.510, 15200.970
1174.438, 15220.320
1176.367, 15220.500
1178.295, 15198.600
1180.224, 15171.840
1182.152, 15144.130
1184.080, 15144.310
1186.009, 15167.760
1187.937, 15190.950
1189.866, 15209.740
1191.794, 15205.710
1193.723, 15194.980
1195.651, 15209.710
1197.580, 15239.180
1199.508, 15268.920
1201.437, 15305.080
1203.365, 15363.980
1205.294, 15419.720
1207.222, 15446.300
1209.151, 15472.030
1211.079, 15508.950
1213.007, 15552.840
1214.936, 15603.370
1216.864, 15656.000
1218.793, 15723.480
1220.721, 15762.470
1222.650, 15765.750
1224.578, 15749.730
1226.507, 15713.610
1228.435, 15676.990
1230.364, 15640.010
1232.292, 15566.100
1234.221, 15463.810
1236.149, 15385.970
1238.078, 15321.440
1240.006, 15231.700
1241.934, 15135.260
1243.863, 15063.260
1245.791, 14999.020
1247.720, 14918.240
1249.648, 14845.290
1251.577, 14813.110
1253.505, 14770.270
1255.434, 14682.100
1257.362, 14591.930
1259.291, 14512.120
1261.219, 14437.150
1263.148, 14351.350
1265.076, 14308.030
1267.005, 14327.250
1268.933, 14316.680
1270.861, 14274.710
1272.790, 14220.450
1274.718, 14157.990
1276.647, 14115.810
1278.575, 14089.060
1280.504, 14074.050
1282.432, 14058.450
1284.361, 14010.310
1286.289, 13973.930
1288.218, 13996.430
1290.146, 14019.050
1292.075, 14009.950
1294.003, 13989.400
1295.932, 13949.130
1297.860, 13947.770
1299.788, 14016.170
1301.717, 14041.200
1303.645, 14005.000
1305.574, 13964.780
1307.502, 13922.500
1309.431, 13910.600
1311.359, 13917.840
1313.288, 13904.330
1315.216, 13882.950
1317.145, 13871.290
1319.073, 13870.170
1321.002, 13881.890
1322.930, 13905.370
1324.859, 13954.530
1326.787, 13978.170
1328.715, 13941.230
1330.644, 13956.550
1332.572, 14055.740
1334.501, 14120.400
1336.429, 14136.400
1338.358, 14226.400
1340.286, 14369.350
1342.215, 14414.800
1344.143, 14414.790
1346.072, 14485.210
1348.000, 14591.110
1349.929, 14706.340
1351.857, 14813.860
1353.786, 14897.650
1355.714, 14977.560
1357.642, 15064.800
1359.571, 15126.320
1361.499, 15151.020
1363.428, 15195.240
1365.356, 15262.540
1367.285, 15276.730
1369.213, 15243.080
1371.142, 15203.910
1373.070, 15156.200
1374.999, 15077.260
1376.927, 15004.190
1378.856, 14974.200
1380.784, 14967.710
1382.713, 15011.130
1384.641, 14997.910
1386.569, 14888.810
1388.498, 14769.200
1390.426, 14649.090
1392.355, 14553.680
1394.283, 14477.330
1396.212, 14367.820
1398.140, 14234.950
1400.069, 14100.450
1401.997, 13967.300
1403.926, 13837.610
1405.854, 13712.920
1407.783, 13583.580
1409.711, 13480.090
1411.640, 13428.420
1413.568, 13363.890
1415.496, 13278.410
1417.425, 13204.890
1419.353, 13143.210
1421.282, 13072.620
1423.210, 13008.620
1425.139, 12997.880
1427.067, 12998.870
1428.996, 12976.170
1430.924, 12933.020
1432.853, 12857.530
1434.781, 12789.030
1436.710, 12737.930
1438.638, 12698.170
1440.567, 12670.030
1442.495, 12658.220
1444.423, 12653.890
1446.352, 12608.580
1448.280, 12547.750
1450.209, 12505.270
1452.137, 12475.980
1454.066, 12466.250
1455.994, 12451.120
1457.923, 12407.590
1459.851, 12390.810
1461.780, 12416.330
1463.708, 12428.050
1465.637, 12424.420
1467.565, 12383.040
1469.494, 12334.640
1471.422, 12361.810
1473.350, 12389.040
1475.279, 12348.380
1477.207, 12310.290
1479.136, 12312.020
1481.064, 12296.360
1482.993, 12241.410
1484.921, 12241.790
1486.850, 12289.640
1488.778, 12293.960
1490.707, 12281.420
1492.635, 12319.790
1494.564, 12344.570
1496.492, 12287.390
1498.421, 12257.880
1500.349, 12310.650
1502.277, 12329.250
1504.206, 12292.760
1506.134, 12234.660
1508.063, 12174.040
1509.991, 12223.080
1511.920, 12297.700
1513.848, 12254.030
1515.777, 12202.650
1517.705, 12212.720
1519.634, 12207.440
1521.562, 12164.040
1523.491, 12133.570
1525.419, 12119.860
1527.348, 12071.220
1529.276, 12008.610
1531.204, 11995.250
1533.133, 11983.070
1535.061, 11897.030
1536.990, 11851.850
1538.918, 11906.020
1540.847, 11910.610
1542.775, 11844.180
1544.704, 11765.850
1546.632, 11690.000
1548.561, 11659.840
1550.489, 11645.060
1552.418, 11614.120
1554.346, 11568.310
1556.275, 11492.170
1558.203, 11448.460
1560.131, 11448.460
1562.060, 11435.090
1563.988, 11404.360
1565.917, 11363.140
1567.845, 11308.150
1569.774, 11209.920
1571.702, 11136.500
1573.631, 11152.330
1575.559, 11157.570
1577.488, 11137.450
1579.416, 11099.510
1581.345, 11049.870
1583.273, 11013.060
1585.202, 10989.250
1587.130, 10994.540
1589.058, 10988.210
1590.987, 10934.560
1592.915, 10886.420
1594.844, 10844.290
1596.772, 10915.820
1598.701, 11052.660
1600.629, 10995.740
1602.558, 10876.130
1604.486, 10842.230
1606.415, 10830.150
1608.343, 10815.170
1610.272, 10791.230
1612.200, 10753.610
1614.129, 10751.160
1616.057, 10771.150
1617.985, 10767.210
1619.914, 10759.320
1621.842, 10777.250
1623.771, 10776.660
1625.699, 10736.360
1627.628, 10678.780
1629.556, 10605.470
1631.485, 10574.040
1633.413, 10564.500
1635.342, 10538.270
1637.270, 10507.790
1639.199, 10481.620
1641.127, 10449.640
1643.056, 10405.780
1644.984, 10369.180
1646.912, 10337.970
1648.841, 10312.930
1650.769, 10276.380
1652.698, 10194.860
1654.626, 10130.280
1656.555, 10112.150
1658.483, 10088.620
1660.412, 10054.060
1662.340, 10048.100
1664.269, 10047.180
1666.197, 10002.230
1668.126, 9942.585
1670.054, 9879.223
1671.983, 9824.978
1673.911, 9782.723
1675.839, 9780.516
1677.768, 9795.438
1679.696, 9745.400
1681.625, 9682.361
1683.553, 9648.142
1685.482, 9618.938
1687.410, 9586.685
1689.339, 9589.432
1691.267, 9617.479
1693.196, 9618.091
1695.124, 9596.429
1697.053, 9543.146
1698.981, 9501.891
1700.910, 9488.188
1702.838, 9476.204
1704.766, 9458.146
1706.695, 9392.850
1708.623, 9320.225
1710.552, 9307.351
1712.480, 9287.364
1714.409, 9230.061
1716.337, 9193.057
1718.266, 9175.734
1720.194, 9111.897
1722.123, 9038.184
1724.051, 9019.100
1725.980, 8995.868
1727.908, 8937.992
1729.837, 8882.029
1731.765, 8830.866
1733.693, 8788.938
1735.622, 8744.896
1737.550, 8675.894
1739.479, 8610.665
1741.407, 8565.150
1743.336, 8526.962
1745.264, 8492.499
1747.193, 8425.663
1749.121, 8348.855
1751.050, 8281.664
1752.978, 8237.424
1754.907, 8246.618
1756.835, 8205.164
1758.764, 8120.219
1760.692, 8087.688
1762.620, 8069.814
1764.549, 8023.833
1766.477, 7971.454
1768.406, 7912.370
1770.334, 7881.248
1772.263, 7872.132
1774.191, 7840.096
1776.120, 7816.979
1778.048, 7852.018
1779.977, 7854.282
1781.905, 7785.991
1783.834, 7723.353
1785.762, 7669.491
1787.691, 7636.784
1789.619, 7619.260
1791.547, 7623.992
1793.476, 7602.582
1795.404, 7543.711
1797.333, 7508.007
1799.261, 7487.634
1801.190, 7479.784
1803.118, 7458.687
1805.047, 7412.721
1806.975, 7351.840
1808.904, 7283.970
1810.832, 7266.782
1812.761, 7275.731
1814.689, 7300.401
1816.618, 7287.494
1818.546, 7216.657
1820.474, 7184.394
1822.403, 7177.439
1824.331, 7148.858
1826.260, 7111.068
1828.188, 7062.403
1830.117, 7060.714
1832.045, 7108.259
1833.974, 7102.533
1835.902, 7069.321
1837.831, 7033.020
1839.759, 7006.148
1841.688, 6991.742
1843.616, 6984.651
1845.545, 6976.507
1847.473, 6933.759
1849.401, 6905.099
1851.330, 6937.351
1853.258, 6926.549
1855.187, 6869.937
1857.115, 6841.565
1859.044, 6829.287
1860.972, 6822.430
1862.901, 6809.629
1864.829, 6785.836
1866.758, 6752.420
1868.686, 6714.960
1870.615, 6676.403
1872.543, 6639.854
1874.472, 6611.464
1876.400, 6585.425
1878.328, 6558.291
1880.257, 6496.847
1882.185, 6441.749
1884.114, 6448.228
1886.042, 6439.505
1887.971, 6402.479
1889.899, 6385.876
1891.828, 6377.105
1893.756, 6367.410
1895.685, 6328.404
1897.613, 6233.148
1899.542, 6209.436
1901.470, 6218.948
1903.399, 6165.260
1905.327, 6112.756
1907.255, 6090.495
1909.184, 6089.619
1911.112, 6099.690
1913.041, 6038.105
1914.969, 5975.389
1916.898, 5979.441
1918.826, 5973.143
1920.755, 5942.716
1922.683, 5911.258
1924.612, 5871.434
1926.540, 5809.098
1928.469, 5765.714
1930.397, 5747.729
1932.326, 5727.533
1934.254, 5708.048
1936.182, 5677.862
1938.111, 5646.388
1940.039, 5618.106
1941.968, 5584.937
1943.896, 5558.730
1945.825, 5576.767
1947.753, 5581.557
1949.682, 5551.244
1951.610, 5512.622
1953.539, 5469.537
1955.467, 5414.528
1957.396, 5375.764
1959.324, 5360.756
1961.253, 5350.632
1963.181, 5340.179
1965.109, 5305.877
1967.038, 5275.695
1968.966, 5262.021
1970.895, 5246.907
1972.823, 5230.408
1974.752, 5221.543
1976.680, 5203.617
1978.609, 5165.135
1980.537, 5125.174
1982.466, 5088.584
1984.394, 5086.001
1986.323, 5082.966
1988.251, 5047.344
1990.180, 5018.789
1992.108, 4990.810
1994.036, 4962.702
1995.965, 4939.679
1997.893, 4903.528
1999.822, 4893.661
2001.750, 4901.650
2003.679, 4857.617
2005.607, 4805.201
2007.536, 4783.211
2009.464, 4783.524
2011.393, 4792.048
2013.321, 4778.518
2015.250, 4757.500
2017.178, 4734.798
2019.107, 4711.408
2021.035, 4690.558
2022.964, 4690.880
2024.892, 4679.715
2026.820, 4624.292
2028.749, 4568.364
2030.677, 4522.518
2032.606, 4508.939
2034.534, 4499.669
2036.463, 4492.837
2038.391, 4474.537
2040.320, 4453.961
2042.248, 4480.870
2044.177, 4490.993
2046.105, 4447.606
2048.034, 4403.521
2049.962, 4370.170
2051.891, 4360.370
2053.819, 4359.773
2055.748, 4346.886
2057.676, 4323.156
2059.604, 4304.646
2061.533, 4303.578
2063.461, 4273.334
2065.390, 4216.864
2067.318, 4194.336
2069.247, 4182.827
2071.175, 4180.048
2073.104, 4173.547
2075.032, 4161.360
2076.960, 4136.901
2078.889, 4115.640
2080.817, 4115.226
2082.746, 4101.368
2084.674, 4074.827
2086.603, 4053.124
2088.531, 4029.486
2090.460, 4000.346
2092.388, 3982.077
2094.317, 3978.026
2096.245, 4000.181
2098.174, 3985.953
2100.102, 3928.618
2102.031, 3906.851
2103.959, 3897.305
2105.887, 3887.229
2107.816, 3882.544
2109.744, 3865.484
2111.673, 3831.391
2113.601, 3824.051
2115.530, 3839.097
2117.458, 3828.859
2119.387, 3811.344
2121.315, 3800.138
2123.244, 3780.967
2125.172, 3746.060
2127.101, 3698.610
2129.029, 3662.594
2130.958, 3668.851
2132.886, 3664.531
2134.814, 3644.212
2136.743, 3627.305
2138.671, 3611.282
2140.600, 3591.452
2142.528, 3565.854
2144.457, 3543.427
2146.385, 3547.761
2148.314, 3556.184
2150.242, 3552.143
2152.171, 3546.572
2154.099, 3533.570
2156.028, 3494.093
2157.956, 3471.853
2159.885, 3463.526
2161.813, 3452.577
2163.741, 3439.498
2165.670, 3414.673
2167.598, 3402.470
2169.527, 3392.478
2171.455, 3360.662
2173.384, 3344.126
2175.312, 3345.729
2177.241, 3338.205
2179.169, 3325.051
2181.098, 3313.831
2183.026, 3297.589
2184.955, 3278.974
2186.883, 3273.378
2188.812, 3259.043
2190.740, 3236.290
2192.668, 3232.328
2194.597, 3219.479
2196.525, 3187.967
2198.454, 3176.146
2200.382, 3172.169
2202.311, 3153.622
2204.239, 3138.928
2206.168, 3127.368
2208.096, 3089.159
2210.025, 3072.456
2211.953, 3096.698
2213.882, 3071.306
2215.810, 3032.491
2217.739, 3037.137
2219.667, 3035.769
2221.595, 3022.958
2223.524, 3001.406
2225.452, 2975.899
2227.381, 2948.025
2229.309, 2929.577
2231.238, 2916.351
2233.166, 2904.978
2235.095, 2890.498
2237.023, 2874.729
2238.952, 2875.002
2240.880, 2864.534
2242.809, 2831.966
2244.737, 2821.324
2246.666, 2818.802
2248.594, 2813.557
2250.522, 2796.208
2252.451, 2774.699
2254.379, 2776.169
2256.308, 2759.548
2258.236, 2714.900
2260.165, 2712.843
2262.093, 2718.191
2264.022, 2706.237
2265.950, 2698.914
2267.879, 2693.163
2269.807, 2688.518
2271.736, 2666.282
2273.664, 2629.373
2275.593, 2621.393
2277.521, 2618.601
2279.449, 2611.839
2281.378, 2616.347
2283.306, 2609.882
2285.235, 2572.399
2287.163, 2561.402
2289.092, 2565.706
2291.020, 2557.957
2292.949, 2547.636
2294.877, 2529.147
2296.806, 2502.356
2298.734, 2483.490
2300.663, 2470.991
2302.591, 2460.154
2304.520, 2460.045
2306.448, 2465.479
2308.376, 2445.639
2310.305, 2419.754
2312.233, 2428.008
2314.162, 2435.477
2316.090, 2431.097
2318.019, 2404.092
2319.947, 2381.947
2321.876, 2376.972
2323.804, 2367.657
2325.733, 2351.911
2327.661, 2319.321
2329.590, 2322.982
2331.518, 2335.258
2333.447, 2312.836
2335.375, 2288.472
2337.303, 2266.874
2339.232, 2264.319
2341.160, 2263.285
2343.089, 2256.149
2345.017, 2247.580
2346.946, 2236.275
2348.874, 2215.864
2350.803, 2209.487
2352.731, 2209.621
2354.660, 2204.279
2356.588, 2194.158
2358.517, 2175.100
2360.445, 2144.665
2362.374, 2136.360
2364.302, 2135.772
2366.230, 2127.145
2368.159, 2123.363
2370.087, 2115.834
2372.016, 2095.036
2373.944, 2081.177
2375.873, 2077.693
2377.801, 2059.146
2379.730, 2039.475
2381.658, 2043.663
2383.587, 2050.435
2385.515, 2043.044
2387.444, 2019.768
2389.372, 2011.527
2391.301, 2011.806
2393.229, 2002.189
2395.157, 1991.329
2397.086, 1981.365
2399.014, 1973.273
2400.943, 1968.187
2402.871, 1961.160
2404.800, 1943.961
2406.728, 1916.015
2408.657, 1897.713
2410.585, 1906.750
2412.514, 1911.047
2414.442, 1892.257
2416.371, 1896.416
2418.299, 1900.671
2420.228, 1865.921
2422.156, 1857.754
2424.084, 1856.213
2426.013, 1860.484
2427.941, 1855.669
2429.870, 1826.326
2431.798, 1821.176
2433.727, 1815.802
2435.655, 1805.432
2437.584, 1798.907
2439.512, 1793.559
2441.441, 1777.826
2443.369, 1767.552
2445.298, 1761.371
2447.226, 1755.260
2449.155, 1742.738
2451.083, 1723.686
2453.011, 1714.287
2454.940, 1708.873
2456.868, 1707.386
2458.797, 1701.995
2460.725, 1692.558
2462.654, 1684.196
2464.582, 1685.450
2466.511, 1661.984
2468.439, 1640.220
2470.368, 1641.222
2472.296, 1631.548
2474.225, 1621.566
2476.153, 1603.638
2478.082, 1584.147
2480.010, 1596.432
2481.938, 1611.083
2483.867, 1595.177
2485.795, 1581.547
2487.724, 1571.260
2489.652, 1568.687
2491.581, 1562.130
2493.509, 1550.183
2495.438, 1543.255
2497.366, 1543.929
2499.295, 1536.660
2501.223, 1527.226
2503.152, 1511.702
2505.080, 1504.824
2507.009, 1487.348
2508.937, 1471.828
2510.865, 1482.920
2512.794, 1487.405
2514.722, 1466.902
2516.651, 1438.200
2518.579, 1427.812
2520.508, 1433.274
2522.436, 1448.419
2524.365, 1424.299
2526.293, 1390.706
2528.222, 1404.094
2530.150, 1415.731
2532.079, 1400.545
2534.007, 1389.125
2535.936, 1384.567
2537.864, 1382.414
2539.792, 1366.800
2541.721, 1362.703
2543.649, 1371.234
2545.578, 1348.463
2547.506, 1336.290
2549.435, 1336.303
2551.363, 1327.739
2553.292, 1314.607
2555.220, 1297.502
2557.149, 1287.237
2559.077, 1279.887
2561.006, 1268.136
2562.934, 1265.940
2564.863, 1260.246
2566.791, 1264.807
2568.719, 1273.652
2570.648, 1250.028
2572.576, 1229.476
2574.505, 1219.101
2576.433, 1214.387
2578.362, 1214.707
2580.290, 1216.963
2582.219, 1214.172
2584.147, 1207.063
2586.076, 1195.201
2588.004, 1194.371
2589.933, 1192.263
2591.861, 1180.679
2593.790, 1177.349
2595.718, 1180.598
2597.646, 1176.890
2599.575, 1157.311
2601.503, 1144.974
2603.432, 1142.877
2605.360, 1121.749
2607.289, 1111.253
2609.217, 1113.688
2611.146, 1099.914
2613.074, 1091.544
2615.003, 1085.149
2616.931, 1070.514
2618.860, 1061.954
2620.788, 1067.670
2622.717, 1079.249
2624.645, 1064.467
2626.573, 1043.266
2628.502, 1036.499
2630.430, 1032.275
2632.359, 1027.727
2634.287, 1016.245
2636.216, 1012.096
2638.144, 1011.276
2640.073, 1011.913
2642.001, 1006.296
2643.930, 999.970
2645.858, 1000.009
2647.787, 995.685
2649.715, 985.685
2651.644, 977.210
2653.572, 961.979
2655.500, 959.192
2657.429, 973.449
2659.357, 961.893
2661.286, 941.517
2663.214, 923.865
2665.143, 923.506
2667.071, 925.430
2669.000, 925.157
2670.928, 907.599
2672.857, 912.177
2674.785, 925.052
2676.714, 912.996
2678.642, 899.472
2680.571, 889.046
2682.499, 886.842
2684.427, 887.481
2686.356, 879.947
2688.284, 857.661
2690.213, 854.740
2692.141, 858.293
2694.070, 862.213
2695.998, 849.168
2697.927, 836.958
2699.855, 831.071
2701.784, 837.263
2703.712, 830.769
2705.641, 819.614
2707.569, 829.565
2709.498, 822.081
2711.426, 811.174
2713.354, 819.154
2715.283, 803.524
2717.211, 786.546
2719.140, 783.865
2721.068, 781.166
2722.997, 779.460
2724.925, 775.498
2726.854, 762.728
2728.782, 753.162
2730.711, 748.169
2732.639, 746.651
2734.568, 746.468
2736.496, 744.776
2738.425, 741.593
2740.353, 740.562
2742.281, 734.993
2744.210, 727.933
2746.138, 718.633
2748.067, 710.834
2749.995, 705.665
2751.924, 698.617
2753.852, 696.424
2755.781, 697.060
2757.709, 701.328
2759.638, 695.192
2761.566, 685.920
2763.495, 684.432
2765.423, 668.065
2767.352, 654.391
2769.280, 656.925
2771.208, 651.782
2773.137, 653.109
2775.065, 658.782
2776.994, 633.864
2778.922, 634.094
2780.851, 647.966
2782.779, 626.669
2784.708, 622.878
2786.636, 621.241
2788.565, 606.461
2790.493, 603.117
2792.422, 607.513
2794.350, 610.534
2796.279, 599.165
2798.207, 596.389
2800.135, 599.628
2802.064, 588.036
2803.992, 585.206
2805.921, 589.731
2807.849, 587.784
2809.778, 580.505
2811.706, 573.597
2813.635, 575.156
2815.563, 569.211
2817.492, 558.958
2819.420, 557.187
2821.349, 540.772
2823.277, 533.430
2825.206, 532.798
2827.134, 533.895
2829.063, 537.675
2830.991, 542.437
2832.919, 545.451
2834.848, 528.778
2836.776, 520.329
2838.705, 514.912
2840.633, 505.813
2842.562, 504.141
2844.490, 510.851
2846.419, 505.907
2848.347, 507.408
2850.276, 501.155
2852.204, 487.732
2854.133, 498.254
2856.061, 497.307
2857.990, 484.433
2859.918, 484.324
2861.846, 492.605
2863.775, 477.881
2865.703, 461.132
2867.632, 467.086
2869.560, 463.199
2871.489, 459.072
2873.417, 457.215
2875.346, 454.735
2877.274, 450.806
2879.203, 436.739
2881.131, 436.684
2883.060, 441.151
2884.988, 443.392
2886.917, 428.705
2888.845, 430.198
2890.773, 427.638
2892.702, 421.472
2894.630, 423.106
2896.559, 428.620
2898.487, 424.650
2900.416, 414.703
2902.344, 414.699
2904.273, 407.915
2906.201, 401.290
2908.130, 402.613
2910.058, 395.494
2911.987, 383.576
2913.915, 386.192
2915.844, 383.009
2917.772, 381.150
2919.700, 377.918
2921.629, 367.369
2923.557, 367.365
2925.486, 365.805
2927.414, 375.539
2929.343, 369.363
2931.271, 361.689
2933.200, 362.022
2935.128, 364.907
2937.057, 366.662
2938.985, 355.211
2940.914, 351.700
2942.842, 352.734
2944.771, 349.167
2946.699, 335.771
2948.627, 328.486
2950.556, 328.956
2952.484, 332.879
2954.413, 326.708
2956.341, 319.149
2958.270, 314.713
2960.198, 315.047
2962.127, 311.891
2964.055, 313.189
2965.984, 315.642
2967.912, 312.898
2969.841, 305.159
2971.769, 304.787
2973.698, 304.558
2975.626, 293.286
2977.554, 295.466
2979.483, 295.206
2981.411, 281.132
2983.340, 295.175
2985.268, 289.585
2987.197, 279.417
2989.125, 275.160
2991.054, 270.801
2992.982, 273.863
2994.911, 277.035
2996.839, 269.091
2998.768, 265.531
3000.696, 263.645
3002.625, 265.535
3004.553, 269.956
3006.481, 268.506
3008.410, 260.358
3010.338, 258.018
3012.267, 256.005
3014.195, 255.714
3016.124, 253.376
3018.052, 237.795
3019.981, 237.883
3021.909, 243.331
3023.838, 241.017
3025.766, 242.782
3027.695, 238.141
3029.623, 235.716
3031.552, 231.123
3033.480, 231.395
3035.408, 234.516
3037.337, 230.802
3039.265, 225.464
3041.194, 224.219
3043.122, 220.385
3045.051, 216.021
3046.979, 220.868
3048.908, 212.738
3050.836, 214.498
3052.765, 224.342
3054.693, 217.302
3056.622, 209.434
3058.550, 201.977
3060.479, 193.744
3062.407, 208.228
3064.335, 208.570
3066.264, 200.733
3068.192, 201.050
3070.121, 202.346
3072.049, 196.070
3073.978, 194.117
3075.906, 205.847
3077.835, 199.809
3079.763, 197.196
3081.692, 198.115
3083.620, 194.559
3085.549, 197.745
3087.477, 196.683
3089.406, 192.131
3091.334, 191.518
3093.262, 189.514
3095.191, 180.863
3097.119, 173.905
3099.048, 191.587
3100.976, 181.425
3102.905, 169.833
3104.833, 168.829
3106.762, 173.882
3108.690, 167.882
3110.619, 165.917
3112.547, 172.198
3114.476, 170.723
3116.404, 162.352
3118.333, 155.922
3120.261, 156.599
3122.189, 164.530
3124.118, 165.294
3126.046, 158.750
3127.975, 150.341
3129.903, 156.286
3131.832, 156.288
3133.760, 157.822
3135.689, 161.858
3137.617, 146.727
3139.546, 147.551
3141.474, 150.408
3143.403, 145.771
3145.331, 131.197
3147.260, 147.509
3149.188, 152.518
3151.116, 136.485
3153.045, 143.270
3154.973, 149.316
3156.902, 141.819
3158.830, 137.892
3160.759, 196.888
3162.687, 203.128
3164.616, 179.321
3166.544, 155.021
3168.473, 155.684
3170.401, 149.266
3172.330, 147.594
3174.258, 149.464
3176.187, 143.420
3178.115, 137.786
3180.043, 141.350
3181.972, 149.137
3183.900, 151.930
3185.829, 137.951
3187.757, 138.892
3189.686, 145.607
3191.614, 140.873
3193.543, 140.109
3195.471, 142.471
3197.400, 144.054
3199.328, 145.086
3201.257, 149.238
3203.185, 141.294
3205.114, 131.044
3207.042, 130.059
3208.970, 141.407
3210.899, 138.742
3212.827, 138.247
3214.756, 143.901
3216.684, 135.704
3218.613, 132.479
3220.541, 136.326
3222.470, 141.747
3224.398, 142.900
3226.327, 131.794
3228.255, 128.721
3230.184, 126.718
3232.112, 118.039
3234.041, 132.761
3235.969, 137.559
3237.897, 134.153
3239.826, 130.879
3241.754, 125.605
3243.683, 127.505
3245.611, 133.604
3247.540, 135.268
3249.468, 125.550
3251.397, 125.578
3253.325, 131.719
3255.254, 136.228
3257.182, 130.504
3259.111, 125.232
3261.039, 127.979
3262.968, 130.922
3264.896, 126.529
3266.824, 128.644
3268.753, 120.189
3270.681, 120.947
3272.610, 129.990
3274.538, 113.404
3276.467, 111.657
3278.395, 119.010
3280.324, 126.849
3282.252, 128.146
3284.181, 121.513
3286.109, 119.516
3288.038, 119.155
3289.966, 116.730
3291.895, 106.223
3293.823, 113.845
3295.751, 123.265
3297.680, 125.222
3299.608, 116.493
3301.537, 109.390
3303.465, 111.545
3305.394, 121.734
3307.322, 129.359
3309.251, 117.777
3311.179, 120.475
3313.108, 110.881
3315.036, 101.499
3316.965, 114.916
3318.893, 117.351
3320.822, 125.438
3322.750, 130.919
3324.678, 129.292
3326.607, 131.129
3328.535, 126.993
3330.464, 124.916
3332.392, 127.363
3334.321, 136.412
3336.249, 128.289
3338.178, 134.154
3340.106, 139.194
3342.035, 137.467
3343.963, 136.719
3345.892, 127.723
3347.820, 130.684
3349.749, 135.194
3351.677, 132.877
3353.605, 133.229
3355.534, 126.753
3357.462, 130.881
3359.391, 134.295
3361.319, 121.931
3363.248, 130.009
3365.176, 128.400
3367.105, 124.028
3369.033, 123.754
3370.962, 132.197
3372.890, 123.218
3374.819, 113.840
3376.747, 111.227
3378.676, 113.298
3380.604, 111.244
3382.532, 111.769
3384.461, 104.860
3386.389, 88.519
3388.318, 94.042
3390.246, 275.285
3392.175, 223.544
3394.103, 138.698
3396.032, 100.359
3397.960, 94.635
3399.889, 95.489
3401.817, 92.001
3403.746, 84.164
3405.674, 82.532
3407.603, 94.113
3409.531, 84.003
3411.459, 78.849
3413.388, 85.420
3415.316, 93.515
3417.245, 88.021
3419.173, 77.461
3421.102, 79.906
3423.030, 83.500
3424.959, 81.473
3426.887, 75.237
3428.816, 77.493
3430.744, 72.663
3432.673, 76.749
3434.601, 85.584
3436.530, 75.874
3438.458, 74.976
3440.386, 69.433
3442.315, 69.772
3444.243, 75.935
3446.172, 76.703
3448.100, 61.296
3450.029, 68.154
3451.957, 76.687
3453.886, 79.697
3455.814, 84.287
3457.743, 70.724
3459.671, 69.191
3461.600, 79.446
3463.528, 85.884
3465.457, 76.107
3467.385, 74.718
3469.313, 70.772
3471.242, 68.714
3473.170, 70.171
3475.099, 72.988
3477.027, 71.363
3478.956, 67.281
3480.884, 69.465
3482.813, 67.566
3484.741, 58.441
3486.670, 63.964
3488.598, 60.891
3490.527, 61.652
3492.455, 64.846
3494.384, 65.969
3496.312, 63.107
3498.240, 57.358
3500.169, 59.074
3502.097, 65.267
3504.026, 68.837
3505.954, 65.074
3507.883, 60.643
3509.811, 64.056
3511.740, 64.617
3513.668, 56.728
3515.597, 45.294
3517.525, 55.400
3519.454, 51.993
3521.382, 55.921
3523.311, 58.841
3525.239, 54.621
3527.167, 47.417
3529.096, 45.967
3531.024, 46.659
3532.953, 48.236
3534.881, 48.351
3536.810, 46.696
3538.738, 50.036
3540.667, 44.116
3542.595, 43.672
3544.524, 48.569
3546.452, 50.827
3548.381, 43.158
3550.309, 47.143
3552.238, 45.583
3554.166, 46.299
3556.094, 44.679
3558.023, 39.205
3559.951, 46.777
3561.880, 50.446
3563.808, 51.634
3565.737, 48.609
3567.665, 47.043
3569.594, 52.122
3571.522, 46.636
3573.451, 39.154
3575.379, 34.973
3577.308, 37.424
3579.236, 45.631
3581.165, 54.165
3583.093, 46.397
3585.021, 47.130
3586.950, 41.796
3588.878, 38.791
3590.807, 42.243
3592.735, 35.544
3594.664, 38.323
3596.592, 34.840
3598.521, 41.014
3600.449, 49.721
3602.378, 49.990
3604.306, 47.825
3606.235, 39.189
3608.163, 36.043
3610.092, 43.728
3612.020, 45.648
3613.948, 34.758
3615.877, 42.473
3617.805, 33.959
3619.734, 39.026
3621.662, 46.794
3623.591, 43.251
3625.519, 31.538
3627.448, 35.968
3629.376, 40.098
3631.305, 39.566
3633.233, 37.547
3635.162, 38.449
3637.090, 41.029
3639.019, 36.775
3640.947, 39.332
3642.875, 37.678
3644.804, 43.078
3646.732, 47.729
3648.661, 45.779
3650.589, 44.815
3652.518, 38.594
3654.446, 38.883
3656.375, 34.111
3658.303, 30.320
3660.232, 32.658
3662.160, 37.610
3664.089, 38.142
3666.017, 38.183
3667.946, 34.823
3669.874, 35.866
3671.802, 32.589
3673.731, 20.225
3675.659, 29.601
3677.588, 33.004
3679.516, 31.993
3681.445, 30.157
3683.373, 32.705
3685.302, 37.989
3687.230, 36.591
3689.159, 23.823
3691.087, 32.936
3693.016, 25.070
3694.944, 17.804
3696.873, 25.229
3698.801, 38.964
3700.729, 37.436
3702.658, 38.695
3704.586, 23.165
3706.515, 24.936
3708.443, 32.020
3710.372, 32.335
3712.300, 32.656
3714.229, 31.600
3716.157, 29.827
3718.086, 37.842
3720.014, 37.546
3721.943, 30.374
3723.871, 29.552
3725.800, 37.134
3727.728, 13.572
3729.656, 23.483
3731.585, 34.195
3733.513, 32.943
3735.442, 28.160
3737.370, 26.038
3739.299, 22.136
3741.227, 30.040
3743.156, 29.656
3745.084, 22.491
3747.013, 22.187
3748.941, 26.464
3750.870, 27.955
3752.798, 26.923
3754.727, 26.495
3756.655, 24.375
3758.583, 22.885
3760.512, 24.153
3762.440, 28.095
3764.369, 28.182
3766.297, 17.266
3768.226, 18.522
3770.154, 19.398
3772.083, 21.819
3774.011, 30.358
3775.940, 33.994
3777.868, 29.263
3779.797, 25.373
3781.725, 28.174
3783.654, 28.009
3785.582, 24.538
3787.510, 15.650
3789.439, 17.402
3791.367, 24.807
3793.296, 24.631
3795.224, 19.786
3797.153, 22.511
3799.081, 28.457
3801.010, 31.411
3802.938, 28.665
3804.867, 27.633
3806.795, 24.803
3808.724, 17.477
3810.652, 30.448
3812.581, 27.446
3814.509, 26.287
3816.438, 30.368
3818.366, 26.483
3820.294, 19.433
3822.223, 16.123
3824.151, 15.376
3826.080, 24.334
3828.008, 15.015
3829.937, 20.828
3831.865, 20.958
3833.794, 21.058
3835.722, 21.965
3837.651, 18.933
3839.579, 13.683
3841.508, 18.098
3843.436, 28.078
3845.365, 31.433
3847.293, 15.293
3849.221, 14.625
3851.150, 19.770
3853.078, 22.773
3855.007, 31.104
3856.935, 23.429
3858.864, 26.028
3860.792, 20.534
3862.721, 23.190
3864.649, 22.299
3866.578, 18.402
3868.506, 22.727
3870.435, 29.700
3872.363, 19.750
3874.292, 31.003
3876.220, 15.380
3878.148, 28.127
3880.077, 35.984
3882.005, 27.528
3883.934, 22.388
3885.862, 28.536
3887.791, 32.760
3889.719, 23.197
3891.648, 21.547
3893.576, 25.829
3895.505, 28.765
3897.433, 28.247
3899.362, 24.967
3901.290, 27.388
3903.219, 30.828
3905.147, 26.537
3907.075, 30.451
3909.004, 17.076
3910.932, 27.206
3912.861, 22.199
3914.789, 17.462
3916.718, 24.943
3918.646, 27.505
3920.575, 25.665
3922.503, 28.247
3924.432, 17.232
3926.360, 17.639
3928.289, 23.150
3930.217, 25.287
3932.146, 21.726
3934.074, 23.262
3936.002, 31.926
3937.931, 30.590
3939.859, 21.847
3941.788, 24.990
3943.716, 13.121
3945.645, 12.713
3947.573, 5.951
3949.502, 26.317
3951.430, 35.606
3953.359, 26.853
3955.287, 23.191
3957.216, 23.453
3959.144, 18.352
3961.073, 17.670
3963.001, 23.171
3964.929, 28.135
3966.858, 24.957
3968.786, 31.139
3970.715, 25.255
3972.643, 25.061
3974.572, 24.486
3976.500, 20.855
3978.429, 20.832
3980.357, 23.599
3982.286, 24.459
3984.214, 26.645
3986.143, 24.173
3988.071, 18.681
3990.000, 22.101
3991.928, 33.674
3993.856, 28.526
3995.785, 23.622
3997.713, 21.879
3999.642, 20.753
4001.570, 27.098
4003.499, 14.354
4005.427, 25.869
4007.356, 28.046
4009.284, 11.588
4011.213, 14.137
4013.141, 19.313
4015.070, 23.230
4016.998, 24.681
4018.927, 23.448
4020.855, 22.480
4022.783, 20.127
4024.712, 12.908
4026.640, 18.340
4028.569, 20.219
4030.497, 17.845
4032.426, 16.217
4034.354, 15.116
4036.283, 10.489
4038.211, 19.256
4040.140, 18.591
4042.068, 16.548
4043.997, 27.456
4045.925, 31.185
4047.854, 19.984
4049.782, 16.963
4051.710, 29.255
4053.639, 24.141
4055.567, 27.435
4057.496, 32.375
4059.424, 17.836
4061.353, 15.282
4063.281, 22.085
4065.210, 29.816
4067.138, 24.002
4069.067, 17.003
4070.995, 27.152
4072.924, 25.689
4074.852, 29.027
4076.781, 28.277
4078.709, 14.497
4080.637, 26.945
4082.566, 17.219
4084.494, 18.471
4086.423, 21.855
4088.351, 14.063
4090.280, 19.313
4092.208, 22.920
4094.137, 20.218
4096.065, 20.085
4097.994, 14.851
4099.922, 17.811
4101.851, 30.460
4103.779, 17.940
4105.708, 27.791
4107.636, 20.995
4109.564, 19.558
4111.493, 25.666
4113.421, 22.714
4115.350, 26.253
4117.278, 20.578
4119.207, 32.847
4121.135, 34.240
4123.063, 22.637
4124.992, 22.752
4126.920, 18.992
4128.849, 16.659
4130.777, 19.957
4132.706, 19.332
4134.634, 30.801
4136.563, 14.660
4138.491, 11.530
4140.420, 13.612
4142.348, 17.915
4144.277, 13.092
4146.205, 23.953
4148.134, 19.496
4150.062, 18.341
4151.991, 17.456
4153.919, 15.591
4155.848, 22.479
4157.776, 24.881
4159.705, 16.966
4161.633, 15.703
4163.562, 20.621
4165.490, 26.359
4167.418, 32.777
4169.347, 26.318
4171.275, 28.676
4173.204, 24.161
4175.132, 25.679
4177.061, 15.097
4178.989, 24.989
4180.917, 20.641
4182.846, 22.237
4184.774, 25.176
4186.703, 24.181
4188.631, 14.539
4190.560, 17.001
4192.488, 21.409
4194.417, 17.684
4196.345, 22.660
4198.274, 24.231
4200.202, 22.047
4202.131, 19.229
4204.059, 25.031
4205.988, 10.095
4207.916, 12.410
4209.845, 27.414
4211.773, 28.326
4213.702, 6.225
4215.630, 18.254
4217.559, 16.308
4219.487, 11.865
4221.416, 21.585
4223.344, 22.496
4225.272, 13.189
4227.201, 17.127
4229.129, 18.479
4231.058, 25.013
4232.986, 17.695
4234.915, 18.279
4236.843, 27.118
4238.771, 22.393
4240.700, 18.384
4242.628, 20.387
4244.557, 20.433
4246.485, 19.843
4248.414, 22.315
4250.342, 20.218
4252.271, 5.601
4254.199, 13.337
4256.128, 11.751
4258.056, 23.693
4259.985, 29.549
4261.913, 28.576
4263.842, 14.982
4265.770, 13.820
4267.699, 25.510
4269.627, 32.699
4271.556, 23.423
4273.484, 14.242
4275.413, 20.999
4277.341, 4.992
4279.270, 25.542
4281.198, 18.716
4283.126, 30.581
4285.055, 23.482
4286.983, 16.313
4288.912, 21.733
4290.840, 17.032
4292.769, 27.111
4294.697, 22.547
4296.625, 17.281
4298.554, 19.389
4300.482, 7.347
4302.411, 9.462
4304.339, 21.533
4306.268, 14.914
4308.196, 14.466
4310.125, 23.564
4312.053, 25.208
4313.982, 28.245
4315.910, 20.767
4317.839, 9.331
4319.767, 8.662
4321.696, 22.826
4323.624, 31.047
4325.553, 12.008
4327.481, 21.015
4329.410, 16.219
4331.338, 7.629
4333.267, 15.256
4335.195, 19.833
4337.124, 22.095
4339.052, 20.667
4340.980, 17.575
4342.909, 20.553
4344.837, 18.431
4346.766, 18.379
4348.694, 16.128
4350.623, 13.801
4352.551, 24.541
##END=



