##NAMES=Rutherfordine
##RRUFFID=R090018
##IDEAL CHEMISTRY=(UO_2_)(CO_3_)
##LOCALITY=El Sharana mine, South Alligator Valley, Northern Territory, Australia
##OWNER=RRUFF
##SOURCE=James Shigley
##DESCRIPTION=Bright yellow bladed crystals in vug
##STATUS=The identification of this mineral has been confirmed by single-crystal X-ray diffraction
##URL=https://www.rruff.net/odr/rruff_sample/R090018
##DIFFRACTION SAMPLE DESCRIPTION=Single crystal, powder profile is calculated
##CELL PARAMETERS=a: 4.836 b: 9.257 c: 4.298 alpha: 90 beta: 90 gamma: 90 volume: 192.4 crystal system: orthorhombic
##FILETYPE=Raman RAW
##RAMAN WAVELENGTH=532

87.21906, 961.1905
89.14753, 953.4301
91.07600, 956.1760
93.00446, 970.5431
94.93293, 995.8464
96.86140, 1029.742
98.78986, 1025.167
100.7183, 1070.173
102.6468, 1170.334
104.5753, 1285.500
106.5037, 1608.121
108.4322, 2113.986
110.3607, 2821.904
112.2891, 3988.660
114.2176, 5607.611
116.1461, 7618.216
118.0745, 10006.12
120.0030, 12836.74
121.9315, 15829.79
123.8599, 18896.49
125.7884, 22058.13
127.7169, 25412.82
129.6453, 29106.17
131.5738, 32867.26
133.5023, 36543.94
135.4307, 40111.10
137.3592, 43586.85
139.2877, 46943.21
141.2161, 48792.32
143.1446, 51302.51
145.0731, 51353.69
147.0015, 51331.11
148.9300, 51244.58
150.8585, 51092.90
152.7869, 50959.41
154.7154, 50900.18
156.6439, 50932.15
158.5723, 50828.32
160.5008, 50524.82
162.4293, 50156.23
164.3577, 49830.86
166.2862, 49534.85
168.2147, 49287.49
170.1431, 49080.33
172.0716, 48913.00
174.0001, 48796.23
175.9285, 48775.69
177.8570, 48782.74
179.7855, 48754.48
181.7139, 48637.07
183.6424, 48533.25
185.5709, 48453.18
187.4993, 48389.80
189.4278, 48340.56
191.3563, 48293.59
193.2847, 48253.36
195.2132, 48223.57
197.1417, 48156.73
199.0701, 48145.54
200.9986, 48253.10
202.9271, 48467.44
204.8555, 48631.77
206.7840, 48722.28
208.7125, 48768.11
210.6409, 48785.48
212.5694, 48749.82
214.4979, 48734.67
216.4263, 48770.30
218.3548, 48868.59
220.2833, 48919.46
222.2117, 48871.38
224.1402, 48800.49
226.0687, 48772.01
227.9971, 48805.79
229.9256, 48841.39
231.8541, 48858.96
233.7825, 48860.30
235.7110, 48884.17
237.6395, 48985.87
239.5679, 49077.18
241.4964, 49098.04
243.4249, 48966.37
245.3533, 48865.17
247.2818, 48817.68
249.2103, 48818.73
251.1387, 48841.39
253.0672, 48886.22
254.9957, 48950.89
256.9242, 49035.95
258.8526, 49147.03
260.7811, 49256.02
262.7096, 49355.56
264.6380, 49444.31
266.5665, 49521.98
268.4950, 49586.69
270.4234, 49636.91
272.3519, 49666.95
274.2804, 49676.50
276.2088, 49684.52
278.1373, 49711.95
280.0658, 49748.24
281.9942, 49759.82
283.9227, 49712.18
285.8512, 49679.78
287.7796, 49693.59
289.7081, 49749.33
291.6366, 49811.75
293.5650, 49892.47
295.4935, 49966.79
297.4220, 49996.00
299.3504, 49972.65
301.2789, 49926.58
303.2074, 49861.96
305.1358, 49781.81
307.0643, 49726.67
308.9928, 49717.63
310.9212, 49720.73
312.8497, 49701.96
314.7782, 49637.95
316.7066, 49620.25
318.6351, 49687.79
320.5636, 49820.46
322.4920, 49915.16
324.4205, 49967.77
326.3490, 49980.62
328.2774, 49952.28
330.2059, 49878.10
332.1344, 49821.63
334.0628, 49808.61
335.9913, 49815.71
337.9198, 49818.76
339.8482, 49816.12
341.7767, 49829.57
343.7052, 49859.50
345.6336, 49903.49
347.5621, 49969.16
349.4906, 50055.49
351.4190, 50144.04
353.3475, 50231.52
355.2760, 50323.09
357.2044, 50405.33
359.1329, 50467.63
361.0614, 50503.01
362.9898, 50524.94
364.9183, 50536.44
366.8468, 50539.68
368.7752, 50550.74
370.7037, 50583.02
372.6322, 50598.48
374.5606, 50572.21
376.4891, 50535.69
378.4176, 50520.96
380.3460, 50526.82
382.2745, 50536.39
384.2030, 50564.38
386.1314, 50614.47
388.0599, 50642.23
389.9884, 50605.90
391.9168, 50571.66
393.8453, 50586.70
395.7738, 50654.95
397.7022, 50709.72
399.6307, 50742.05
401.5592, 50753.63
403.4876, 50745.77
405.4161, 50718.41
407.3446, 50685.66
409.2730, 50639.36
411.2015, 50580.02
413.1300, 50558.50
415.0584, 50615.22
416.9869, 50697.34
418.9154, 50756.02
420.8438, 50785.07
422.7723, 50820.70
424.7008, 50869.30
426.6292, 50925.70
428.5577, 50998.71
430.4862, 51116.20
432.4146, 51230.34
434.3431, 51305.23
436.2716, 51333.52
438.2000, 51341.51
440.1285, 51323.66
442.0570, 51321.04
443.9854, 51353.51
445.9139, 51438.32
447.8424, 51503.57
449.7708, 51516.46
451.6993, 51500.47
453.6278, 51491.98
455.5562, 51504.83
457.4847, 51508.69
459.4132, 51488.32
461.3416, 51459.63
463.2701, 51475.44
465.1986, 51566.61
467.1270, 51662.69
469.0555, 51715.30
470.9840, 51704.50
472.9124, 51681.89
474.8409, 51656.00
476.7694, 51632.43
478.6978, 51621.99
480.6263, 51631.62
482.5548, 51655.97
484.4832, 51695.24
486.4117, 51746.08
488.3402, 51790.59
490.2686, 51809.38
492.1971, 51846.40
494.1256, 51896.02
496.0540, 51947.00
497.9825, 52006.32
499.9110, 52123.91
501.8394, 52243.11
503.7679, 52325.88
505.6964, 52373.18
507.6248, 52395.60
509.5533, 52338.23
511.4818, 52251.34
513.4103, 52218.23
515.3387, 52344.11
517.2672, 52483.55
519.1957, 52581.50
521.1241, 52634.09
523.0526, 52670.35
524.9811, 52695.21
526.9095, 52729.05
528.8380, 52771.25
530.7665, 52816.02
532.6949, 52850.52
534.6234, 52878.01
536.5519, 52905.57
538.4803, 52942.66
540.4088, 52995.70
542.3373, 53056.56
544.2657, 53109.01
546.1942, 53165.57
548.1227, 53242.75
550.0511, 53344.63
551.9796, 53439.63
553.9081, 53520.80
555.8365, 53596.66
557.7650, 53683.84
559.6935, 53794.81
561.6219, 53890.93
563.5504, 53946.87
565.4789, 53959.51
567.4073, 53968.49
569.3358, 53994.02
571.2643, 54007.14
573.1927, 54004.01
575.1212, 53993.38
577.0497, 54012.50
578.9781, 54036.33
580.9066, 54084.59
582.8351, 54182.51
584.7635, 54331.29
586.6920, 54432.77
588.6205, 54436.50
590.5490, 54417.94
592.4774, 54468.13
594.4059, 54656.69
596.3344, 54840.80
598.2628, 54949.35
600.1913, 54991.59
602.1198, 55024.09
604.0482, 55097.20
605.9767, 55193.48
607.9052, 55289.26
609.8336, 55360.48
611.7621, 55397.38
613.6906, 55462.96
615.6190, 55552.79
617.5475, 55641.29
619.4760, 55698.74
621.4044, 55752.07
623.3329, 55826.34
625.2614, 55927.52
627.1898, 56059.60
629.1183, 56223.99
631.0468, 56406.29
632.9752, 56610.48
634.9037, 56800.22
636.8322, 56950.36
638.7606, 57005.28
640.6891, 57014.06
642.6176, 57012.88
644.5460, 57048.00
646.4745, 57144.93
648.4030, 57259.10
650.3314, 57390.48
652.2599, 57547.98
654.1884, 57689.48
656.1168, 57751.37
658.0453, 57730.21
659.9738, 57770.97
661.9022, 57917.76
663.8307, 58102.94
665.7592, 58243.11
667.6876, 58304.18
669.6161, 58357.59
671.5446, 58443.95
673.4730, 58567.36
675.4015, 58663.44
677.3300, 58695.49
679.2584, 58736.10
681.1869, 58816.34
683.1154, 58929.63
685.0438, 59050.71
686.9723, 59175.97
688.9008, 59285.85
690.8292, 59360.60
692.7577, 59408.90
694.6862, 59490.70
696.6146, 59620.69
698.5431, 59759.82
700.4716, 59904.52
702.4000, 60059.04
704.3285, 60196.95
706.2570, 60288.09
708.1854, 60359.66
710.1139, 60409.95
712.0424, 60478.56
713.9708, 60602.47
715.8993, 60799.11
717.8278, 60987.64
719.7562, 61122.96
721.6847, 61235.29
723.6132, 61345.77
725.5416, 61430.75
727.4701, 61475.11
729.3986, 61477.93
731.3270, 61501.43
733.2555, 61556.59
735.1840, 61640.80
737.1124, 61748.26
739.0409, 61906.48
740.9694, 62132.96
742.8978, 62319.66
744.8263, 62438.09
746.7548, 62534.17
748.6832, 62635.97
750.6117, 62750.95
752.5402, 62899.35
754.4686, 63108.62
756.3971, 63320.62
758.3256, 63514.96
760.2540, 63689.43
762.1825, 63848.39
764.1110, 64005.79
766.0394, 64150.92
767.9679, 64242.39
769.8964, 64273.52
771.8248, 64337.47
773.7533, 64510.67
775.6818, 64677.96
777.6102, 64776.44
779.5387, 64822.82
781.4672, 64912.87
783.3956, 65088.91
785.3241, 65268.65
787.2526, 65389.98
789.1810, 65435.63
791.1095, 65461.52
793.0380, 65480.57
794.9664, 65483.76
796.8949, 65445.05
798.8234, 65372.59
800.7518, 65304.23
802.6803, 65251.00
804.6088, 65192.29
806.5372, 65110.90
808.4657, 65003.40
810.3942, 64925.95
812.3226, 64891.39
814.2511, 64901.00
816.1796, 64956.56
818.1080, 65053.50
820.0365, 65123.63
821.9650, 65148.56
823.8934, 65181.52
825.8219, 65238.48
827.7504, 65307.86
829.6788, 65381.83
831.6073, 65444.71
833.5358, 65536.32
835.4642, 65662.61
837.3927, 65860.69
839.3212, 66117.84
841.2496, 66455.85
843.1781, 66799.30
845.1066, 67152.39
847.0350, 67500.16
848.9635, 67802.30
850.8920, 67991.81
852.8204, 68199.41
854.7489, 68438.90
856.6774, 68736.57
858.6058, 69136.56
860.5343, 69730.58
862.4628, 70332.71
864.3912, 70850.92
866.3197, 71301.49
868.2482, 71764.11
870.1766, 72123.87
872.1051, 72721.95
874.0336, 73767.11
875.9620, 75168.28
877.8905, 76487.56
879.8190, 78069.34
881.7474, 79175.45
883.6759, 79689.74
885.6044, 79572.02
887.5328, 78749.43
889.4613, 76920.69
891.3898, 75020.09
893.3182, 73191.84
895.2467, 71505.55
897.1752, 70098.91
899.1036, 69018.93
901.0321, 68188.02
902.9606, 67704.41
904.8890, 67451.52
906.8175, 67284.59
908.7460, 67220.05
910.6744, 67136.88
912.6029, 66980.35
914.5314, 66807.25
916.4598, 66644.93
918.3883, 66475.59
920.3168, 66357.77
922.2452, 66309.89
924.1737, 66293.14
926.1022, 66278.96
928.0306, 66261.09
929.9591, 66250.13
931.8876, 66267.38
933.8160, 66278.14
935.7445, 66255.59
937.6730, 66211.14
939.6014, 66205.85
941.5299, 66286.33
943.4584, 66355.12
945.3868, 66381.29
947.3153, 66368.96
949.2438, 66366.69
951.1722, 66363.86
953.1007, 66384.52
955.0292, 66450.95
956.9576, 66541.05
958.8861, 66605.39
960.8146, 66634.45
962.7430, 66647.53
964.6715, 66657.98
966.6000, 66659.44
968.5284, 66652.90
970.4569, 66647.10
972.3854, 66624.20
974.3138, 66564.92
976.2423, 66487.69
978.1708, 66418.69
980.0992, 66375.23
982.0277, 66338.10
983.9562, 66305.74
985.8846, 66243.84
987.8131, 66172.46
989.7416, 66109.01
991.6700, 66085.67
993.5985, 66134.15
995.5270, 66178.20
997.4554, 66148.82
999.3839, 66061.81
1001.312, 66004.78
1003.241, 65997.67
1005.169, 65994.13
1007.098, 65972.79
1009.026, 65950.52
1010.955, 65948.00
1012.883, 65950.74
1014.812, 65947.82
1016.740, 65938.86
1018.669, 65982.32
1020.597, 65976.21
1022.526, 66021.20
1024.454, 66004.11
1026.382, 66018.01
1028.311, 66041.97
1030.239, 66015.41
1032.168, 65952.39
1034.096, 65875.73
1036.025, 65767.77
1037.953, 65657.46
1039.882, 65604.54
1041.810, 65628.86
1043.739, 65648.33
1045.667, 65667.81
1047.596, 65675.23
1049.524, 65642.23
1051.453, 65574.21
1053.381, 65538.14
1055.309, 65533.93
1057.238, 65525.57
1059.166, 65500.11
1061.095, 65480.62
1063.023, 65454.89
1064.952, 65382.91
1066.880, 65306.43
1068.809, 65251.48
1070.737, 65250.24
1072.666, 65302.30
1074.594, 65380.50
1076.523, 65415.48
1078.451, 65393.76
1080.380, 65368.22
1082.308, 65365.18
1084.236, 65377.60
1086.165, 65396.36
1088.093, 65419.56
1090.022, 65412.79
1091.950, 65356.13
1093.879, 65299.27
1095.807, 65309.66
1097.736, 65266.32
1099.664, 65257.03
1101.593, 65381.68
1103.521, 65459.88
1105.450, 65585.76
1107.378, 65817.50
1109.307, 65933.77
1111.235, 66232.16
1113.163, 66506.08
1115.092, 66622.45
1117.020, 66606.06
1118.949, 66481.85
1120.877, 66246.23
1122.806, 65924.23
1124.734, 65502.87
1126.663, 65061.14
1128.591, 64814.68
1130.520, 64770.70
1132.448, 64684.27
1134.377, 64512.86
1136.305, 64338.44
1138.234, 64288.42
1140.162, 64263.17
1142.090, 64164.14
1144.019, 64026.27
1145.947, 63894.51
1147.876, 63792.65
1149.804, 63724.25
1151.733, 63644.28
1153.661, 63454.51
1155.590, 63271.07
1157.518, 63191.85
1159.447, 63226.46
1161.375, 63277.71
1163.304, 63256.39
1165.232, 63208.77
1167.161, 63180.21
1169.089, 63185.34
1171.017, 63210.95
1172.946, 63208.77
1174.874, 63152.40
1176.803, 63047.70
1178.731, 62949.36
1180.660, 62888.95
1182.588, 62858.65
1184.517, 62830.05
1186.445, 62777.52
1188.374, 62705.94
1190.302, 62650.09
1192.231, 62621.44
1194.159, 62608.68
1196.088, 62581.27
1198.016, 62543.92
1199.944, 62566.61
1201.873, 62604.77
1203.801, 62595.03
1205.730, 62517.38
1207.658, 62423.29
1209.587, 62347.52
1211.515, 62298.11
1213.444, 62250.19
1215.372, 62195.16
1217.301, 62150.23
1219.229, 62136.68
1221.158, 62142.10
1223.086, 62110.36
1225.015, 62050.15
1226.943, 62035.88
1228.871, 62065.98
1230.800, 62050.30
1232.728, 61892.09
1234.657, 61835.86
1236.585, 61896.84
1238.514, 61968.35
1240.442, 61991.58
1242.371, 61983.22
1244.299, 61997.90
1246.228, 62031.87
1248.156, 62007.81
1250.085, 61921.58
1252.013, 61824.47
1253.942, 61763.66
1255.870, 61739.00
1257.798, 61685.40
1259.727, 61557.94
1261.655, 61414.49
1263.584, 61309.33
1265.512, 61253.00
1267.441, 61210.95
1269.369, 61158.05
1271.298, 61111.17
1273.226, 61108.29
1275.155, 61146.22
1277.083, 61181.88
1279.012, 61195.38
1280.940, 61174.30
1282.869, 61116.20
1284.797, 61044.13
1286.725, 60963.58
1288.654, 60893.78
1290.582, 60851.22
1292.511, 60835.20
1294.439, 60813.80
1296.368, 60799.00
1298.296, 60760.90
1300.225, 60692.71
1302.153, 60604.41
1304.082, 60549.56
1306.010, 60558.17
1307.939, 60555.12
1309.867, 60466.45
1311.796, 60351.78
1313.724, 60306.23
1315.652, 60357.38
1317.581, 60386.57
1319.509, 60415.03
1321.438, 60417.71
1323.366, 60354.45
1325.295, 60254.59
1327.223, 60192.26
1329.152, 60172.73
1331.080, 60170.11
1333.009, 60171.70
1334.937, 60162.73
1336.866, 60158.92
1338.794, 60155.20
1340.723, 60124.77
1342.651, 60056.05
1344.579, 59996.12
1346.508, 59974.13
1348.436, 59945.20
1350.365, 59893.58
1352.293, 59830.50
1354.222, 59780.03
1356.150, 59748.26
1358.079, 59717.25
1360.007, 59675.03
1361.936, 59655.24
1363.864, 59681.70
1365.793, 59744.74
1367.721, 59849.70
1369.650, 60045.11
1371.578, 60226.09
1373.506, 60307.45
1375.435, 60333.20
1377.363, 60405.77
1379.292, 60537.03
1381.220, 60600.49
1383.149, 60545.96
1385.077, 60482.10
1387.006, 60454.83
1388.934, 60480.83
1390.863, 60554.49
1392.791, 60675.42
1394.720, 60776.99
1396.648, 60810.27
1398.577, 60881.42
1400.505, 61044.09
1402.433, 61267.00
1404.362, 61495.63
1406.290, 61777.21
1408.219, 61926.96
1410.147, 61851.74
1412.076, 61691.45
1414.004, 61511.60
1415.933, 61310.31
1417.861, 61085.10
1419.790, 60809.16
1421.718, 60559.30
1423.647, 60338.32
1425.575, 60146.11
1427.504, 59964.77
1429.432, 59797.00
1431.360, 59684.14
1433.289, 59645.20
1435.217, 59597.39
1437.146, 59518.81
1439.074, 59436.95
1441.003, 59390.29
1442.931, 59357.84
1444.860, 59268.13
1446.788, 59100.96
1448.717, 58989.86
1450.645, 58991.97
1452.574, 59025.85
1454.502, 59038.35
1456.431, 59040.43
1458.359, 59072.85
1460.287, 59150.86
1462.216, 59181.52
1464.144, 59122.14
1466.073, 59037.67
1468.001, 58963.04
1469.930, 58900.86
1471.858, 58838.47
1473.787, 58766.36
1475.715, 58734.84
1477.644, 58755.80
1479.572, 58807.96
1481.501, 58897.93
1483.429, 58998.60
1485.358, 59055.98
1487.286, 59041.91
1489.214, 59027.10
1491.143, 59015.59
1493.071, 58997.38
1495.000, 58981.30
1496.928, 58962.01
1498.857, 58929.10
1500.785, 58890.29
1502.714, 58844.55
1504.642, 58766.87
1506.571, 58721.15
1508.499, 58749.38
1510.428, 58800.98
1512.356, 58792.09
1514.285, 58716.32
1516.213, 58697.55
1518.141, 58769.89
1520.070, 58839.19
1521.998, 58905.56
1523.927, 58937.22
1525.855, 58886.88
1527.784, 58780.41
1529.712, 58721.95
1531.641, 58737.37
1533.569, 58742.15
1535.498, 58665.73
1537.426, 58619.47
1539.355, 58719.64
1541.283, 58898.36
1543.212, 58959.70
1545.140, 58865.93
1547.068, 58816.26
1548.997, 58875.95
1550.925, 58960.30
1552.854, 59042.48
1554.782, 59105.31
1556.711, 59116.02
1558.639, 59063.20
1560.568, 59040.13
1562.496, 59076.13
1564.425, 59114.69
1566.353, 59149.95
1568.282, 59182.59
1570.210, 59208.72
1572.139, 59230.48
1574.067, 59259.67
1575.995, 59309.93
1577.924, 59330.84
1579.852, 59242.36
1581.781, 59183.35
1583.709, 59273.46
1585.638, 59460.24
1587.566, 59558.88
1589.495, 59525.09
1591.423, 59507.54
1593.352, 59545.38
1595.280, 59575.58
1597.209, 59577.28
1599.137, 59556.66
1601.066, 59498.61
1602.994, 59507.13
1604.922, 59536.44
1606.851, 59495.80
1608.779, 59600.38
1610.708, 59618.79
1612.636, 59559.74
1614.565, 59396.47
1616.493, 59171.51
1618.422, 59053.29
1620.350, 59117.96
1622.279, 59142.56
1624.207, 59067.41
1626.136, 59008.31
1628.064, 59014.09
1629.993, 59051.68
1631.921, 59080.69
1633.849, 59094.62
1635.778, 59063.51
1637.706, 58938.88
1639.635, 58852.82
1641.563, 58875.56
1643.492, 58918.13
1645.420, 58916.26
1647.349, 58887.34
1649.277, 58874.12
1651.206, 58875.35
1653.134, 58885.59
1655.063, 58907.53
1656.991, 58924.39
1658.920, 58954.28
1660.848, 58961.34
1662.776, 58878.95
1664.705, 58726.31
1666.633, 58664.52
1668.562, 58717.80
1670.490, 58798.98
1672.419, 58918.88
1674.347, 59020.11
1676.276, 59064.60
1678.204, 59060.68
1680.133, 59011.01
1682.061, 58914.24
1683.990, 58860.93
1685.918, 58900.20
1687.847, 58910.04
1689.775, 58845.24
1691.703, 58771.87
1693.632, 58741.08
1695.560, 58736.70
1697.489, 58709.07
1699.417, 58651.38
1701.346, 58622.97
1703.274, 58645.52
1705.203, 58664.70
1707.131, 58671.11
1709.060, 58662.53
1710.988, 58616.98
1712.917, 58554.88
1714.845, 58549.59
1716.774, 58610.25
1718.702, 58646.83
1720.630, 58629.83
1722.559, 58603.58
1724.487, 58592.92
1726.416, 58570.03
1728.344, 58508.25
1730.273, 58415.96
1732.201, 58313.64
1734.130, 58190.25
1736.058, 58127.12
1737.987, 58199.36
1739.915, 58249.43
1741.844, 58204.39
1743.772, 58127.02
1745.701, 58074.48
1747.629, 58044.00
1749.557, 58017.67
1751.486, 57991.98
1753.414, 57984.44
1755.343, 58032.49
1757.271, 58046.73
1759.200, 57954.80
1761.128, 57843.51
1763.057, 57807.07
1764.985, 57826.24
1766.914, 57814.54
1768.842, 57770.10
1770.771, 57720.20
1772.699, 57650.46
1774.628, 57609.69
1776.556, 57649.13
1778.484, 57688.95
1780.413, 57620.14
1782.341, 57650.80
1784.270, 57654.00
1786.198, 57593.83
1788.127, 57637.88
1790.055, 57537.19
1791.984, 57429.62
1793.912, 57355.13
1795.841, 57294.18
1797.769, 57231.41
1799.698, 57179.41
1801.626, 57162.18
1803.555, 57183.53
1805.483, 57192.40
1807.411, 57160.42
1809.340, 57129.91
1811.268, 57096.53
1813.197, 57058.89
1815.125, 57012.11
1817.054, 56965.70
1818.982, 56949.72
1820.911, 56972.04
1822.839, 56934.32
1824.768, 56804.14
1826.696, 56712.39
1828.625, 56730.55
1830.553, 56717.79
1832.482, 56575.38
1834.410, 56414.09
1836.339, 56359.93
1838.267, 56382.69
1840.195, 56334.74
1842.124, 56204.96
1844.052, 56104.19
1845.981, 56052.21
1847.909, 56022.42
1849.838, 56024.34
1851.766, 56027.18
1853.695, 56007.88
1855.623, 55974.79
1857.552, 55942.16
1859.480, 55907.09
1861.409, 55862.12
1863.337, 55803.65
1865.266, 55747.07
1867.194, 55702.59
1869.122, 55653.43
1871.051, 55581.99
1872.979, 55513.18
1874.908, 55491.40
1876.836, 55488.11
1878.765, 55412.78
1880.693, 55258.30
1882.622, 55120.09
1884.550, 55004.92
1886.479, 54908.42
1888.407, 54834.59
1890.336, 54775.20
1892.264, 54727.76
1894.193, 54693.94
1896.121, 54676.86
1898.049, 54676.69
1899.978, 54694.86
1901.906, 54782.42
1903.835, 54756.13
1905.763, 54478.84
1907.692, 54280.16
1909.620, 54290.21
1911.549, 54328.05
1913.477, 54296.39
1915.406, 54210.07
1917.334, 54067.13
1919.263, 53871.97
1921.191, 53781.44
1923.120, 53833.60
1925.048, 53859.20
1926.976, 53830.21
1928.905, 53789.60
1930.833, 53748.59
1932.762, 53698.48
1934.690, 53630.08
1936.619, 53549.71
1938.547, 53476.34
1940.476, 53403.92
1942.404, 53286.86
1944.333, 53118.29
1946.261, 52967.46
1948.190, 52847.04
1950.118, 52755.11
1952.047, 52714.64
1953.975, 52679.72
1955.904, 52600.80
1957.832, 52516.96
1959.760, 52497.78
1961.689, 52528.00
1963.617, 52514.41
1965.546, 52448.21
1967.474, 52364.64
1969.403, 52244.05
1971.331, 52141.05
1973.260, 52084.21
1975.188, 52028.43
1977.117, 51932.44
1979.045, 51837.29
1980.974, 51813.98
1982.902, 51725.27
1984.831, 51646.25
1986.759, 51608.86
1988.688, 51489.63
1990.616, 51438.49
1992.544, 51397.42
1994.473, 51360.14
1996.401, 51329.45
1998.330, 51302.69
2000.258, 51286.15
2002.187, 51296.87
2004.115, 51308.68
2006.044, 51272.19
2007.972, 51187.98
2009.901, 51088.09
2011.829, 50970.10
2013.758, 50855.02
2015.686, 50738.48
2017.615, 50650.77
2019.543, 50628.32
2021.471, 50617.00
2023.400, 50583.95
2025.328, 50549.73
2027.257, 50543.26
2029.185, 50550.00
2031.114, 50519.01
2033.042, 50434.21
2034.971, 50370.52
2036.899, 50352.54
2038.828, 50281.06
2040.756, 50104.92
2042.685, 49944.71
2044.613, 49864.23
2046.542, 49797.07
2048.470, 49720.88
2050.398, 49633.26
2052.327, 49509.14
2054.255, 49370.69
2056.184, 49292.61
2058.112, 49273.29
2060.041, 49246.71
2061.969, 49198.74
2063.898, 49151.13
2065.826, 49103.57
2067.755, 49059.77
2069.683, 49041.14
2071.612, 49008.62
2073.540, 48918.64
2075.469, 48814.32
2077.397, 48757.99
2079.325, 48737.25
2081.254, 48712.30
2083.182, 48691.53
2085.111, 48574.04
2087.039, 48303.63
2088.968, 48137.00
2090.896, 48171.25
2092.825, 48184.47
2094.753, 48079.29
2096.682, 47964.68
2098.610, 47905.85
2100.539, 47865.30
2102.467, 47816.67
2104.396, 47753.61
2106.324, 47653.42
2108.252, 47519.52
2110.181, 47412.89
2112.109, 47340.43
2114.038, 47284.32
2115.966, 47281.98
2117.895, 47243.56
2119.823, 47124.82
2121.752, 47017.62
2123.680, 46964.18
2125.609, 46920.79
2127.537, 46847.00
2129.466, 46763.59
2131.394, 46698.82
2133.323, 46645.75
2135.251, 46591.84
2137.179, 46536.14
2139.108, 46487.93
2141.036, 46455.52
2142.965, 46400.13
2144.893, 46317.83
2146.822, 46217.14
2148.750, 46074.25
2150.679, 45954.66
2152.607, 45918.30
2154.536, 45885.57
2156.464, 45767.40
2158.393, 45629.07
2160.321, 45590.85
2162.250, 45618.34
2164.178, 45533.22
2166.106, 45543.66
2168.035, 45545.05
2169.963, 45464.99
2171.892, 45516.29
2173.820, 45362.98
2175.749, 45229.48
2177.677, 45180.84
2179.606, 45161.50
2181.534, 45200.58
2183.463, 45201.77
2185.391, 45026.96
2187.320, 44831.78
2189.248, 44852.54
2191.177, 44991.02
2193.105, 44976.96
2195.033, 44817.42
2196.962, 44733.07
2198.890, 44735.71
2200.819, 44678.98
2202.747, 44549.69
2204.676, 44390.12
2206.604, 44184.10
2208.533, 44021.96
2210.461, 43936.81
2212.390, 43900.93
2214.318, 43937.92
2216.247, 43969.83
2218.175, 43907.30
2220.104, 43809.45
2222.032, 43753.99
2223.960, 43733.96
2225.889, 43757.77
2227.817, 43821.27
2229.746, 43784.36
2231.674, 43643.17
2233.603, 43515.88
2235.531, 43409.89
2237.460, 43354.20
2239.388, 43380.05
2241.317, 43392.59
2243.245, 43364.37
2245.174, 43306.50
2247.102, 43197.79
2249.031, 43088.78
2250.959, 43006.90
2252.887, 42953.77
2254.816, 42964.42
2256.744, 42989.71
2258.673, 42898.43
2260.601, 42724.30
2262.530, 42625.44
2264.458, 42599.29
2266.387, 42606.73
2268.315, 42656.70
2270.244, 42644.40
2272.172, 42527.47
2274.101, 42434.69
2276.029, 42413.79
2277.958, 42384.43
2279.886, 42319.15
2281.814, 42250.11
2283.743, 42183.80
2285.671, 42120.37
2287.600, 42040.21
2289.528, 41977.14
2291.457, 42006.31
2293.385, 42056.22
2295.314, 41973.20
2297.242, 41982.23
2299.171, 41948.62
2301.099, 41862.06
2303.028, 41848.39
2304.956, 41697.60
2306.885, 41584.19
2308.813, 41517.71
2310.741, 41470.40
2312.670, 41446.38
2314.598, 41430.26
2316.527, 41427.94
2318.455, 41411.93
2320.384, 41365.18
2322.312, 41307.53
2324.241, 41247.50
2326.169, 41181.47
2328.098, 41083.02
2330.026, 40997.18
2331.955, 41007.05
2333.883, 41048.39
2335.812, 40986.05
2337.740, 40849.86
2339.668, 40760.43
2341.597, 40712.51
2343.525, 40670.38
2345.454, 40634.59
2347.382, 40570.52
2349.311, 40469.68
2351.239, 40380.44
2353.168, 40302.57
2355.096, 40243.71
2357.025, 40199.66
2358.953, 40179.05
2360.882, 40239.51
2362.810, 40233.95
2364.739, 40033.30
2366.667, 39873.88
2368.595, 39945.27
2370.524, 40033.31
2372.452, 39963.77
2374.381, 39837.38
2376.309, 39756.95
2378.238, 39700.96
2380.166, 39624.98
2382.095, 39552.18
2384.023, 39569.28
2385.952, 39493.61
2387.880, 39611.09
2389.809, 39461.37
2391.737, 39426.87
2393.666, 39520.86
2395.594, 39532.06
2397.522, 39409.83
2399.451, 39323.36
2401.379, 39317.21
2403.308, 39291.36
2405.236, 39242.51
2407.165, 39169.74
2409.093, 39043.41
2411.022, 38958.61
2412.950, 38982.45
2414.879, 38998.20
2416.807, 38945.84
2418.736, 38873.50
2420.664, 38788.25
2422.593, 38719.75
2424.521, 38705.41
2426.449, 38705.56
2428.378, 38670.42
2430.306, 38621.57
2432.235, 38604.38
2434.163, 38594.64
2436.092, 38531.25
2438.020, 38434.54
2439.949, 38374.93
2441.877, 38349.10
2443.806, 38308.25
2445.734, 38252.93
2447.663, 38218.87
2449.591, 38207.77
2451.520, 38204.70
2453.448, 38205.43
2455.376, 38221.63
2457.305, 38266.32
2459.233, 38232.24
2461.162, 38069.90
2463.090, 37906.80
2465.019, 37735.34
2466.947, 37635.58
2468.876, 37692.73
2470.804, 37732.43
2472.733, 37701.79
2474.661, 37655.94
2476.590, 37572.49
2478.518, 37532.27
2480.447, 37627.79
2482.375, 37714.80
2484.303, 37696.03
2486.232, 37625.01
2488.160, 37527.46
2490.089, 37434.11
2492.017, 37396.95
2493.946, 37375.06
2495.874, 37299.37
2497.803, 37203.75
2499.731, 37135.30
2501.660, 37088.82
2503.588, 37062.28
2505.517, 37045.56
2507.445, 37004.68
2509.374, 36980.59
2511.302, 36914.11
2513.230, 36911.37
2515.159, 36883.82
2517.087, 36832.58
2519.016, 36756.59
2520.944, 36656.73
2522.873, 36573.75
2524.801, 36503.61
2526.730, 36486.54
2528.658, 36545.89
2530.587, 36563.41
2532.515, 36516.18
2534.444, 36480.73
2536.372, 36476.04
2538.301, 36433.38
2540.229, 36309.71
2542.157, 36211.17
2544.086, 36182.61
2546.014, 36151.53
2547.943, 36119.69
2549.871, 36064.63
2551.800, 35948.79
2553.728, 35874.91
2555.657, 35898.34
2557.585, 35936.88
2559.514, 35976.86
2561.442, 35983.59
2563.371, 35933.19
2565.299, 35853.46
2567.228, 35723.04
2569.156, 35619.34
2571.084, 35617.16
2573.013, 35623.14
2574.941, 35577.66
2576.870, 35499.33
2578.798, 35352.13
2580.727, 35235.92
2582.655, 35321.98
2584.584, 35192.76
2586.512, 35307.96
2588.441, 35125.58
2590.369, 35083.00
2592.298, 35101.38
2594.226, 35088.60
2596.155, 35049.95
2598.083, 34988.05
2600.011, 34912.95
2601.940, 34828.52
2603.868, 34758.66
2605.797, 34791.73
2607.725, 34868.29
2609.654, 34832.85
2611.582, 34726.58
2613.511, 34654.54
2615.439, 34615.04
2617.368, 34622.49
2619.296, 34660.59
2621.225, 34661.86
2623.153, 34624.83
2625.082, 34527.62
2627.010, 34387.24
2628.938, 34326.96
2630.867, 34209.82
2632.795, 34245.89
2634.724, 34058.26
2636.652, 33981.20
2638.581, 34006.46
2640.509, 34046.46
2642.438, 34091.92
2644.366, 34058.91
2646.295, 34059.44
2648.223, 34034.32
2650.152, 33961.13
2652.080, 33932.60
2654.009, 33811.81
2655.937, 33698.23
2657.865, 33599.86
2659.794, 33533.73
2661.722, 33509.05
2663.651, 33470.89
2665.579, 33409.66
2667.508, 33357.39
2669.436, 33307.89
2671.365, 33308.63
2673.293, 33364.19
2675.222, 33387.02
2677.150, 33368.70
2679.079, 33332.88
2681.007, 33279.68
2682.936, 33233.95
2684.864, 33201.93
2686.792, 33117.80
2688.721, 32969.16
2690.649, 32873.02
2692.578, 32849.96
2694.506, 32820.37
2696.435, 32781.65
2698.363, 32726.62
2700.292, 32648.86
2702.220, 32621.81
2704.149, 32656.93
2706.077, 32645.76
2708.006, 32560.45
2709.934, 32528.99
2711.863, 32470.04
2713.791, 32380.82
2715.719, 32357.47
2717.648, 32229.82
2719.576, 32185.34
2721.505, 32170.26
2723.433, 32190.40
2725.362, 32176.65
2727.290, 32119.68
2729.219, 32078.59
2731.147, 32058.91
2733.076, 31986.48
2735.004, 31961.41
2736.933, 31932.31
2738.861, 31869.33
2740.790, 31869.59
2742.718, 31792.79
2744.646, 31723.94
2746.575, 31663.73
2748.503, 31555.53
2750.432, 31400.99
2752.360, 31394.99
2754.289, 31554.79
2756.217, 31585.85
2758.146, 31478.53
2760.074, 31379.71
2762.003, 31288.60
2763.931, 31207.33
2765.860, 31136.87
2767.788, 31065.39
2769.717, 30996.87
2771.645, 30960.94
2773.573, 30889.24
2775.502, 30839.89
2777.430, 30786.12
2779.359, 30732.87
2781.287, 30687.90
2783.216, 30662.77
2785.144, 30591.48
2787.073, 30558.71
2789.001, 30498.36
2790.930, 30490.87
2792.858, 30411.74
2794.787, 30388.28
2796.715, 30382.11
2798.644, 30287.66
2800.572, 30153.03
2802.500, 30076.94
2804.429, 30040.83
2806.357, 30042.22
2808.286, 30042.63
2810.214, 29975.08
2812.143, 29886.02
2814.071, 29823.66
2816.000, 29788.97
2817.928, 29818.34
2819.857, 29830.77
2821.785, 29708.83
2823.714, 29576.41
2825.642, 29567.51
2827.571, 29572.50
2829.499, 29490.61
2831.427, 29408.66
2833.356, 29399.63
2835.284, 29389.01
2837.213, 29308.41
2839.141, 29251.28
2841.070, 29320.68
2842.998, 29336.80
2844.927, 29187.61
2846.855, 29060.29
2848.784, 29045.97
2850.712, 29039.71
2852.641, 29020.89
2854.569, 28983.14
2856.498, 28917.28
2858.426, 28859.93
2860.354, 28795.15
2862.283, 28708.01
2864.211, 28648.87
2866.140, 28543.01
2868.068, 28457.14
2869.997, 28410.59
2871.925, 28410.15
2873.854, 28406.85
2875.782, 28396.98
2877.711, 28362.52
2879.639, 28296.24
2881.568, 28240.57
2883.496, 28192.72
2885.425, 28140.81
2887.353, 28080.58
2889.281, 27972.66
2891.210, 27834.64
2893.138, 27746.10
2895.067, 27702.05
2896.995, 27690.07
2898.924, 27694.37
2900.852, 27689.27
2902.781, 27667.36
2904.709, 27608.56
2906.638, 27533.37
2908.566, 27466.90
2910.495, 27409.13
2912.423, 27367.29
2914.352, 27330.21
2916.280, 27279.38
2918.208, 27240.40
2920.137, 27250.27
2922.065, 27238.10
2923.994, 27140.15
2925.922, 27053.08
2927.851, 27023.42
2929.779, 27004.78
2931.708, 27002.24
2933.636, 26977.15
2935.565, 26921.32
2937.493, 26852.76
2939.422, 26770.90
2941.350, 26680.03
2943.279, 26569.50
2945.207, 26492.17
2947.135, 26449.96
2949.064, 26424.98
2950.992, 26417.57
2952.921, 26392.34
2954.849, 26353.90
2956.778, 26338.96
2958.706, 26336.10
2960.635, 26284.23
2962.563, 26210.77
2964.492, 26174.95
2966.420, 26166.28
2968.349, 26206.73
2970.277, 26217.19
2972.206, 26057.05
2974.134, 25892.40
2976.063, 25909.98
2977.991, 25946.32
2979.919, 25881.43
2981.848, 25820.51
2983.776, 25840.63
2985.705, 25823.08
2987.633, 25653.96
2989.562, 25563.40
2991.490, 25621.28
2993.419, 25646.75
2995.347, 25608.03
2997.276, 25535.50
2999.204, 25520.60
3001.133, 25462.41
3003.061, 25406.82
3004.990, 25371.81
3006.918, 25268.23
3008.846, 25222.45
3010.775, 25211.61
3012.703, 25114.25
3014.632, 25091.25
3016.560, 24968.89
3018.489, 24993.99
3020.417, 24937.63
3022.346, 24872.01
3024.274, 24891.25
3026.203, 24914.07
3028.131, 24877.14
3030.060, 24840.71
3031.988, 24861.98
3033.917, 24842.52
3035.845, 24720.15
3037.773, 24618.91
3039.702, 24563.86
3041.630, 24521.02
3043.559, 24492.46
3045.487, 24454.53
3047.416, 24406.53
3049.344, 24378.36
3051.273, 24367.35
3053.201, 24337.78
3055.130, 24294.36
3057.058, 24254.62
3058.987, 24224.19
3060.915, 24241.23
3062.844, 24252.67
3064.772, 24180.99
3066.700, 24085.41
3068.629, 24015.46
3070.557, 23948.20
3072.486, 23851.53
3074.414, 23789.24
3076.343, 23826.47
3078.271, 23826.77
3080.200, 23753.50
3082.128, 23690.68
3084.057, 23650.91
3085.985, 23625.93
3087.914, 23618.85
3089.842, 23599.24
3091.771, 23565.64
3093.699, 23496.15
3095.627, 23464.14
3097.556, 23374.79
3099.484, 23355.98
3101.413, 23277.97
3103.341, 23202.93
3105.270, 23205.50
3107.198, 23212.34
3109.127, 23176.68
3111.055, 23126.03
3112.984, 23057.01
3114.912, 23025.48
3116.841, 23091.48
3118.769, 23045.53
3120.698, 22792.05
3122.626, 22705.36
3124.554, 22784.44
3126.483, 22790.47
3128.411, 22727.72
3130.340, 22676.04
3132.268, 22646.15
3134.197, 22693.33
3136.125, 22752.35
3138.054, 22754.86
3139.982, 22709.45
3141.911, 22588.33
3143.839, 22475.90
3145.768, 22403.13
3147.696, 22364.15
3149.625, 22398.12
3151.553, 22384.50
3153.481, 22305.19
3155.410, 22236.28
3157.338, 22184.03
3159.267, 22204.58
3161.195, 22275.24
3163.124, 22245.69
3165.052, 22149.18
3166.981, 22037.97
3168.909, 21944.56
3170.838, 21914.16
3172.766, 21918.34
3174.695, 21962.94
3176.623, 21986.32
3178.552, 21948.94
3180.480, 21906.29
3182.408, 21864.45
3184.337, 21837.92
3186.265, 21829.89
3188.194, 21751.71
3190.122, 21608.97
3192.051, 21577.03
3193.979, 21622.17
3195.908, 21664.25
3197.836, 21668.71
3199.765, 21536.65
3201.693, 21404.02
3203.622, 21388.85
3205.550, 21407.62
3207.479, 21452.86
3209.407, 21452.87
3211.335, 21362.21
3213.264, 21298.22
3215.192, 21272.64
3217.121, 21245.76
3219.049, 21217.78
3220.978, 21168.44
3222.906, 21110.00
3224.835, 21053.54
3226.763, 21025.27
3228.692, 21084.21
3230.620, 21146.21
3232.549, 21153.99
3234.477, 21128.26
3236.406, 21068.49
3238.334, 20992.06
3240.262, 20887.36
3242.191, 20837.79
3244.119, 20846.01
3246.048, 20850.45
3247.976, 20845.13
3249.905, 20806.21
3251.833, 20756.49
3253.762, 20758.68
3255.690, 20747.11
3257.619, 20628.42
3259.547, 20533.92
3261.476, 20532.17
3263.404, 20543.94
3265.333, 20564.90
3267.261, 20532.87
3269.189, 20527.43
3271.118, 20413.69
3273.046, 20442.43
3274.975, 20361.44
3276.903, 20240.59
3278.832, 20235.18
3280.760, 20260.48
3282.689, 20239.21
3284.617, 20219.19
3286.546, 20226.53
3288.474, 20241.59
3290.403, 20271.79
3292.331, 20219.69
3294.260, 20181.40
3296.188, 20004.69
3298.116, 20040.36
3300.045, 20005.87
3301.973, 19946.38
3303.902, 19939.45
3305.830, 19937.95
3307.759, 19909.57
3309.687, 19861.36
3311.616, 19856.21
3313.544, 19824.97
3315.473, 19795.06
3317.401, 19791.12
3319.330, 19768.13
3321.258, 19700.07
3323.187, 19731.22
3325.115, 19722.97
3327.043, 19677.42
3328.972, 19561.13
3330.900, 19470.49
3332.829, 19492.66
3334.757, 19503.16
3336.686, 19470.99
3338.614, 19438.77
3340.543, 19413.49
3342.471, 19349.35
3344.400, 19270.93
3346.328, 19294.96
3348.257, 19348.78
3350.185, 19322.82
3352.114, 19265.91
3354.042, 19194.67
3355.970, 19139.33
3357.899, 19106.43
3359.827, 19114.77
3361.756, 19167.93
3363.684, 19172.95
3365.613, 19130.99
3367.541, 19058.06
3369.470, 18975.98
3371.398, 18910.28
3373.327, 18867.23
3375.255, 18860.76
3377.184, 18867.72
3379.112, 18891.66
3381.041, 18887.15
3382.969, 18839.20
3384.897, 18828.98
3386.826, 18836.12
3388.754, 18744.10
3390.683, 18617.78
3392.611, 18535.98
3394.540, 18505.32
3396.468, 18562.94
3398.397, 18591.54
3400.325, 18516.90
3402.254, 18489.58
3404.182, 18515.27
3406.111, 18549.58
3408.039, 18574.59
3409.968, 18522.66
3411.896, 18443.37
3413.824, 18379.13
3415.753, 18347.58
3417.681, 18397.33
3419.610, 18406.49
3421.538, 18350.00
3423.467, 18288.58
3425.395, 18227.78
3427.324, 18170.75
3429.252, 18134.78
3431.181, 18193.05
3433.109, 18238.32
3435.038, 18135.60
3436.966, 18048.06
3438.895, 18032.92
3440.823, 18034.00
3442.751, 18052.40
3444.680, 18006.24
3446.608, 17918.55
3448.537, 17871.28
3450.465, 17844.63
3452.394, 17794.07
3454.322, 17777.86
3456.251, 17869.23
3458.179, 17900.97
3460.108, 17831.13
3462.036, 17789.96
3463.965, 17776.13
3465.893, 17709.38
3467.822, 17623.31
3469.750, 17564.29
3471.678, 17544.58
3473.607, 17617.32
3475.535, 17642.24
3477.464, 17581.23
3479.392, 17503.24
3481.321, 17416.65
3483.249, 17385.67
3485.178, 17383.37
3487.106, 17343.90
3489.035, 17302.66
3490.963, 17294.83
3492.892, 17287.24
3494.820, 17272.74
3496.749, 17244.37
3498.677, 17199.53
3500.605, 17232.88
3502.534, 17293.73
3504.462, 17261.94
3506.391, 17194.30
3508.319, 17133.65
3510.248, 17070.42
3512.176, 17044.37
3514.105, 16961.55
3516.033, 16998.61
3517.962, 16996.25
3519.890, 16963.85
3521.819, 16902.90
3523.747, 16864.75
3525.676, 16923.68
3527.604, 16943.36
3529.532, 16836.83
3531.461, 16755.85
3533.389, 16706.41
3535.318, 16717.87
3537.246, 16762.52
3539.175, 16821.74
3541.103, 16828.27
3543.032, 16682.88
3544.960, 16583.34
3546.889, 16585.59
3548.817, 16608.96
3550.746, 16636.40
3552.674, 16572.77
3554.603, 16472.30
3556.531, 16417.40
3558.459, 16396.34
3560.388, 16348.17
3562.316, 16329.74
3564.245, 16326.91
3566.173, 16295.75
3568.102, 16322.59
3570.030, 16308.59
3571.959, 16274.01
3573.887, 16226.38
3575.816, 16204.38
3577.744, 16161.06
3579.673, 16135.56
3581.601, 16110.86
3583.530, 16087.51
3585.458, 16117.31
3587.386, 16103.31
3589.315, 16068.75
3591.243, 16014.69
3593.172, 15973.65
3595.100, 15949.39
3597.029, 15966.80
3598.957, 16014.08
3600.886, 15992.51
3602.814, 15936.68
3604.743, 15883.94
3606.671, 15834.38
3608.600, 15783.81
3610.528, 15764.11
3612.457, 15789.51
3614.385, 15736.94
3616.313, 15658.71
3618.242, 15707.62
3620.170, 15748.44
3622.099, 15627.50
3624.027, 15563.38
3625.956, 15625.27
3627.884, 15604.89
3629.813, 15520.73
3631.741, 15565.02
3633.670, 15623.43
3635.598, 15554.25
3637.527, 15472.62
3639.455, 15409.63
3641.384, 15397.17
3643.312, 15335.79
3645.240, 15370.48
3647.169, 15277.48
3649.097, 15277.02
3651.026, 15281.32
3652.954, 15243.86
3654.883, 15218.72
3656.811, 15221.34
3658.740, 15158.30
3660.668, 15086.37
3662.597, 15169.08
3664.525, 15236.38
3666.454, 15141.50
3668.382, 15080.52
3670.311, 15130.52
3672.239, 15051.54
3674.167, 14916.79
3676.096, 14990.88
3678.024, 15090.02
3679.953, 15041.01
3681.881, 14961.84
3683.810, 14860.56
3685.738, 14856.81
3687.667, 14791.92
3689.595, 14839.55
3691.524, 14742.77
3693.452, 14752.00
3695.381, 14760.76
3697.309, 14733.26
3699.238, 14746.73
3701.166, 14789.74
3703.094, 14765.53
3705.023, 14702.89
3706.951, 14592.63
3708.880, 14532.44
3710.808, 14563.04
3712.737, 14594.04
3714.665, 14614.69
3716.594, 14579.40
3718.522, 14524.82
3720.451, 14477.60
3722.379, 14458.74
3724.308, 14414.96
3726.236, 14379.97
3728.165, 14363.03
3730.093, 14324.80
3732.021, 14317.11
3733.950, 14331.41
3735.878, 14342.55
3737.807, 14342.11
3739.735, 14340.59
3741.664, 14338.05
3743.592, 14351.24
3745.521, 14337.31
3747.449, 14209.73
3749.378, 14134.26
3751.306, 14158.05
3753.235, 14173.46
3755.163, 14168.51
3757.092, 14098.62
3759.020, 14033.17
3760.948, 14045.54
3762.877, 14058.13
3764.805, 14057.32
3766.734, 14008.93
3768.662, 13937.09
3770.591, 13921.69
3772.519, 13918.27
3774.448, 13898.04
3776.376, 13887.29
3778.305, 13888.68
3780.233, 13795.50
3782.162, 13831.11
3784.090, 13759.77
3786.019, 13832.38
3787.947, 13781.21
3789.875, 13740.93
3791.804, 13719.13
3793.732, 13689.41
3795.661, 13670.62
3797.589, 13715.33
3799.518, 13728.09
3801.446, 13653.73
3803.375, 13598.82
3805.303, 13571.49
3807.232, 13595.64
3809.160, 13615.91
3811.089, 13569.07
3813.017, 13538.17
3814.946, 13546.58
3816.874, 13549.01
3818.802, 13546.24
3820.731, 13566.56
3822.659, 13534.48
3824.588, 13506.95
3826.516, 13485.75
3828.445, 13411.90
3830.373, 13407.48
3832.302, 13353.77
3834.230, 13297.96
3836.159, 13267.51
3838.087, 13277.03
3840.016, 13291.42
3841.944, 13298.63
3843.873, 13243.32
3845.801, 13183.55
3847.729, 13168.03
3849.658, 13155.84
3851.586, 13139.81
3853.515, 13188.05
3855.443, 13235.82
3857.372, 13146.12
3859.300, 13074.35
3861.229, 13086.83
3863.157, 13101.56
3865.086, 13101.28
3867.014, 13015.20
3868.943, 12925.82
3870.871, 12906.36
3872.800, 12906.47
3874.728, 12918.69
3876.656, 12920.25
3878.585, 12921.09
3880.513, 12958.24
3882.442, 12972.44
3884.370, 12934.81
3886.299, 12858.06
3888.227, 12770.53
3890.156, 12798.84
3892.084, 12846.74
3894.013, 12846.18
3895.941, 12827.52
3897.870, 12791.97
3899.798, 12802.15
3901.727, 12818.40
3903.655, 12743.13
3905.583, 12690.07
3907.512, 12702.55
3909.440, 12696.72
3911.369, 12670.59
3913.297, 12679.47
3915.226, 12589.24
3917.154, 12662.67
3919.083, 12687.37
3921.011, 12657.59
3922.940, 12599.39
3924.868, 12550.55
3926.797, 12546.18
3928.725, 12530.86
3930.654, 12505.40
3932.582, 12502.67
3934.510, 12510.25
3936.439, 12517.11
3938.367, 12517.75
3940.296, 12479.15
3942.224, 12505.01
3944.153, 12554.62
3946.081, 12520.43
3948.010, 12472.04
3949.938, 12418.83
3951.867, 12370.90
3953.795, 12345.53
3955.724, 12312.77
3957.652, 12297.14
3959.581, 12291.63
3961.509, 12274.02
3963.438, 12273.87
3965.366, 12290.87
3967.294, 12268.05
3969.223, 12284.79
3971.151, 12273.29
3973.080, 12266.48
3975.008, 12258.76
3976.937, 12247.24
3978.865, 12226.63
3980.794, 12204.83
3982.722, 12183.25
3984.651, 12192.45
3986.579, 12221.37
3988.508, 12242.65
3990.436, 12236.58
3992.365, 12237.68
3994.293, 12171.92
3996.221, 12187.01
3998.150, 12102.41
4000.078, 12023.10
4002.007, 12023.00
4003.935, 12025.27
4005.864, 12019.58
4007.792, 12014.29
4009.721, 12004.08
4011.649, 12005.08
4013.578, 12003.92
4015.506, 12000.42
4017.435, 12004.73
4019.363, 11992.30
4021.292, 11982.47
4023.220, 11987.48
4025.148, 11989.66
4027.077, 11977.01
4029.005, 11979.49
4030.934, 11974.90
4032.862, 11941.10
4034.791, 11899.65
4036.719, 11892.28
4038.648, 11883.93
4040.576, 11817.07
4042.505, 11784.42
4044.433, 11824.77
4046.362, 11853.32
4048.290, 11868.62
4050.219, 11803.71
4052.147, 11742.80
4054.075, 11736.20
4056.004, 11740.79
4057.932, 11739.28
4059.861, 11732.01
4061.789, 11737.50
4063.718, 11730.79
4065.646, 11725.14
4067.575, 11725.25
4069.503, 11691.73
4071.432, 11688.36
4073.360, 11641.04
4075.289, 11655.15
4077.217, 11650.55
4079.146, 11625.02
4081.074, 11604.08
4083.002, 11587.16
4084.931, 11575.47
4086.859, 11535.19
4088.788, 11544.94
4090.716, 11465.74
4092.645, 11437.86
4094.573, 11426.59
4096.502, 11416.57
4098.430, 11417.31
4100.359, 11405.80
4102.287, 11376.27
4104.216, 11396.04
4106.144, 11366.79
4108.073, 11446.53
4110.001, 11353.26
4111.930, 11354.67
4113.858, 11393.17
4115.787, 11320.94
4117.715, 11276.30
4119.644, 11290.29
4121.572, 11256.52
4123.500, 11254.52
4125.429, 11228.05
4127.357, 11197.71
4129.286, 11180.51
4131.214, 11146.42
4133.143, 11147.68
4135.071, 11153.74
4137.000, 11176.15
4138.928, 11149.34
4140.856, 11202.20
4142.785, 11112.22
4144.713, 11104.98
4146.642, 11108.14
4148.570, 11059.57
4150.499, 11067.21
4152.427, 11097.94
4154.356, 11072.06
4156.284, 11035.48
4158.213, 10982.15
4160.141, 11004.08
4162.070, 11066.23
4163.998, 11042.59
4165.927, 11024.26
4167.855, 11055.97
4169.784, 10992.32
4171.712, 11005.28
4173.641, 10947.83
4175.569, 10980.41
4177.498, 10985.03
4179.426, 10954.75
4181.354, 10911.62
4183.283, 10884.91
4185.211, 10865.07
4187.140, 10851.41
4189.068, 10868.79
4190.997, 10877.73
4192.925, 10835.60
4194.854, 10784.78
4196.782, 10742.92
4198.710, 10802.35
4200.639, 10840.69
4202.567, 10768.49
4204.496, 10723.32
4206.424, 10710.42
4208.353, 10705.47
4210.281, 10701.21
4212.210, 10697.90
4214.138, 10678.55
4216.067, 10648.60
4217.995, 10623.13
4219.924, 10618.11
4221.852, 10649.87
4223.781, 10653.21
4225.709, 10631.45
4227.638, 10590.56
4229.566, 10561.55
4231.495, 10562.47
4233.423, 10549.23
4235.352, 10528.63
4237.280, 10523.07
4239.208, 10498.16
4241.137, 10440.09
4243.065, 10435.14
4244.994, 10455.68
4246.922, 10471.61
4248.851, 10492.40
4250.779, 10517.81
4252.708, 10437.81
4254.636, 10354.11
4256.564, 10351.84
4258.493, 10380.31
4260.421, 10422.44
4262.350, 10420.57
4264.278, 10399.28
4266.207, 10367.37
4268.135, 10337.19
4270.064, 10316.54
4271.992, 10330.62
4273.921, 10353.04
4275.849, 10383.06
4277.778, 10319.28
4279.706, 10226.13
4281.635, 10207.11
4283.563, 10197.50
4285.492, 10184.42
4287.420, 10122.96
4289.349, 10071.68
4291.277, 10094.87
4293.206, 10109.58
4295.134, 10108.90
4297.063, 10117.41
4298.991, 10113.77
4300.919, 10107.97
4302.848, 10107.07
4304.776, 10087.98
4306.705, 10088.19
4308.633, 10074.87
4310.562, 10047.49
4312.490, 9999.668
4314.418, 9965.896
4316.347, 10003.26
4318.275, 10001.01
4320.204, 9949.834
4322.132, 9918.684
4324.061, 9913.805
4325.989, 9946.525
4327.918, 9956.248
4329.846, 9934.406
4331.775, 9837.781
4333.703, 9790.595
4335.632, 9828.319
4337.560, 9842.819
4339.489, 9840.986
4341.417, 9828.297
4343.346, 9837.864
4345.274, 9863.224
4347.203, 9850.171
4349.131, 9812.331
4351.060, 9818.349
4352.988, 9749.449
4354.917, 9779.894
4356.845, 9771.337
4358.773, 9728.167
4360.702, 9658.334
4362.630, 9648.525
4364.559, 9658.480
4366.487, 9643.806
4368.416, 9644.763
4370.344, 9655.334
4372.272, 9634.224
4374.201, 9628.913
4376.129, 9680.996
4378.058, 9618.048
4379.986, 9527.258
4381.915, 9558.153
4383.843, 9533.521
4385.772, 9442.623
4387.700, 9436.580
4389.629, 9460.180
4391.557, 9486.200
4393.486, 9515.631
4395.414, 9535.172
4397.343, 9521.104
4399.271, 9470.736
4401.200, 9390.582
4403.128, 9451.496
4405.057, 9478.544
4406.985, 9327.268
4408.914, 9315.549
4410.842, 9383.094
4412.771, 9306.601
4414.699, 9280.288
4416.627, 9342.827
4418.556, 9337.954
4420.484, 9313.509
4422.413, 9308.983
4424.341, 9330.479
4426.270, 9349.667
4428.198, 9275.225
4430.126, 9227.468
4432.055, 9247.667
4433.983, 9266.051
4435.912, 9264.245
4437.840, 9253.441
4439.769, 9195.136
4441.697, 9206.455
4443.626, 9157.234
4445.554, 9127.545
4447.483, 9138.745
4449.411, 9095.324
4451.340, 9064.056
4453.268, 9111.951
4455.197, 9074.988
4457.125, 8999.219
4459.054, 9048.166
4460.982, 9066.230
4462.911, 9022.620
4464.839, 9049.568
4466.768, 9088.541
4468.696, 9101.529
4470.625, 9049.897
4472.553, 8980.695
4474.481, 9019.828
4476.410, 9010.432
4478.338, 8928.844
4480.267, 8878.519
4482.195, 8874.110
4484.124, 8932.768
4486.052, 8932.816
4487.980, 8900.990
4489.909, 8892.232
4491.837, 8828.380
4493.766, 8738.620
4495.694, 8797.471
4497.623, 8868.454
4499.551, 8895.171
4501.480, 8830.089
4503.408, 8748.407
4505.337, 8729.289
4507.265, 8737.152
4509.194, 8757.862
4511.122, 8770.496
4513.051, 8759.511
4514.979, 8724.372
4516.908, 8698.774
4518.836, 8683.327
4520.765, 8657.252
4522.693, 8655.133
4524.622, 8623.144
4526.550, 8605.080
4528.479, 8597.299
4530.407, 8592.996
4532.335, 8549.729
4534.264, 8545.690
4536.192, 8540.479
4538.121, 8586.672
4540.049, 8530.147
4541.978, 8534.276
4543.906, 8502.362
4545.834, 8452.568
4547.763, 8425.107
4549.691, 8430.754
4551.620, 8458.566
4553.548, 8455.390
4555.477, 8432.229
4557.405, 8389.130
4559.334, 8363.064
4561.262, 8371.761
4563.191, 8448.615
4565.119, 8470.640
4567.048, 8450.067
4568.976, 8413.828
4570.905, 8407.205
4572.833, 8419.663
4574.762, 8343.731
4576.690, 8316.838
4578.619, 8409.830
4580.547, 8383.808
4582.476, 8319.839
4584.404, 8274.722
4586.333, 8317.961
4588.261, 8364.662
4590.189, 8234.887
4592.118, 8198.488
4594.046, 8252.092
4595.975, 8227.719
4597.903, 8224.810
4599.832, 8273.651
4601.760, 8248.059
4603.688, 8202.722
4605.617, 8167.612
4607.545, 8188.074
4609.474, 8217.712
4611.402, 8205.719
4613.331, 8160.417
4615.259, 8105.202
4617.188, 8075.591
4619.116, 8094.867
4621.045, 8153.499
4622.973, 8176.604
4624.902, 8162.952
4626.830, 8109.962
4628.759, 8092.604
4630.687, 8056.930
4632.616, 8052.411
4634.544, 7990.153
4636.473, 8058.019
4638.401, 7998.555
4640.330, 7998.697
4642.258, 8036.853
4644.187, 8020.500
4646.115, 7943.175
4648.043, 7833.177
4649.972, 7901.902
4651.900, 7951.086
4653.829, 7920.050
4655.757, 7958.127
4657.686, 7973.172
4659.614, 7869.697
4661.542, 7865.970
4663.471, 7878.480
4665.399, 7813.700
4667.328, 7791.634
4669.256, 7801.392
4671.185, 7810.667
4673.113, 7807.687
4675.042, 7800.713
4676.970, 7796.586
4678.899, 7831.114
4680.827, 7772.604
4682.756, 7785.634
4684.684, 7766.320
4686.613, 7685.678
4688.541, 7704.405
4690.470, 7748.341
4692.398, 7778.322
4694.327, 7709.459
4696.255, 7648.317
4698.184, 7710.584
4700.112, 7718.990
4702.041, 7685.301
4703.969, 7630.213
4705.897, 7616.970
4707.826, 7638.860
4709.754, 7683.223
4711.683, 7678.937
4713.611, 7625.043
4715.540, 7540.980
4717.468, 7549.672
4719.396, 7518.218
4721.325, 7579.742
4723.253, 7513.877
4725.182, 7522.854
4727.110, 7514.442
4729.039, 7514.873
4730.967, 7539.105
4732.896, 7578.540
4734.824, 7578.745
4736.753, 7465.497
4738.681, 7445.251
4740.610, 7468.131
4742.538, 7473.142
4744.467, 7451.436
4746.395, 7421.880
4748.324, 7414.970
4750.252, 7416.024
4752.181, 7411.532
4754.109, 7354.922
4756.038, 7362.303
4757.966, 7414.719
4759.895, 7363.674
4761.823, 7337.580
4763.751, 7346.786
4765.680, 7282.680
4767.608, 7246.899
4769.537, 7269.168
4771.465, 7316.203
4773.394, 7336.509
4775.322, 7314.076
4777.250, 7272.845
4779.179, 7247.786
4781.107, 7262.003
4783.036, 7255.134
4784.964, 7257.813
4786.893, 7289.092
4788.821, 7187.679
4790.750, 7091.870
4792.678, 7148.341
4794.607, 7153.571
4796.535, 7142.006
4798.464, 7149.762
4800.392, 7134.862
4802.321, 7110.050
4804.249, 7093.800
4806.178, 7078.166
4808.106, 7058.882
4810.035, 7018.568
4811.963, 7069.922
4813.892, 7142.181
4815.820, 7083.784
4817.749, 7109.977
4819.677, 7158.509
4821.605, 7032.828
4823.534, 7006.581
4825.462, 7050.570
4827.391, 7015.878
4829.319, 7011.017
4831.248, 7029.813
4833.176, 7008.438
4835.104, 6978.756
4837.033, 6959.858
4838.961, 7020.639
4840.890, 6979.786
4842.818, 6987.999
4844.747, 6925.937
4846.675, 6973.411
4848.604, 6981.034
4850.532, 6984.592
4852.461, 6966.945
4854.389, 6927.382
4856.318, 6864.672
4858.246, 6837.283
4860.175, 6842.902
4862.103, 6802.166
4864.032, 6828.992
4865.960, 6792.976
4867.889, 6794.321
4869.817, 6748.853
4871.746, 6803.195
4873.674, 6804.205
4875.603, 6810.583
4877.531, 6830.762
4879.459, 6816.081
4881.388, 6801.985
4883.316, 6799.177
4885.245, 6817.813
4887.173, 6838.982
4889.102, 6849.994
4891.030, 6806.310
4892.958, 6770.927
4894.887, 6749.592
4896.815, 6723.694
4898.744, 6707.676
4900.672, 6694.760
4902.601, 6688.035
4904.529, 6684.097
4906.458, 6685.817
4908.386, 6683.209
4910.315, 6658.440
4912.243, 6623.525
4914.172, 6644.330
4916.100, 6628.333
4918.029, 6587.235
4919.957, 6630.439
4921.886, 6596.693
4923.814, 6516.396
4925.743, 6538.710
4927.671, 6577.361
4929.600, 6602.164
4931.528, 6577.460
4933.457, 6538.268
4935.385, 6504.189
4937.313, 6503.680
4939.242, 6498.107
4941.170, 6498.280
4943.099, 6493.312
4945.027, 6519.831
4946.956, 6488.986
4948.884, 6525.917
4950.813, 6537.033
4952.741, 6522.682
4954.669, 6486.947
4956.598, 6468.660
4958.526, 6446.718
4960.455, 6391.020
4962.383, 6384.839
4964.312, 6406.507
4966.240, 6442.832
4968.169, 6395.688
4970.097, 6353.903
4972.026, 6373.340
4973.954, 6398.778
4975.883, 6406.376
4977.811, 6384.375
4979.740, 6371.235
4981.668, 6341.413
4983.597, 6296.338
4985.525, 6323.323
4987.454, 6331.413
4989.382, 6303.753
4991.311, 6339.891
4993.239, 6339.834
4995.167, 6296.586
4997.096, 6259.708
4999.024, 6264.684
5000.953, 6240.137
5002.881, 6237.021
5004.810, 6236.106
5006.738, 6266.350
5008.667, 6281.713
5010.595, 6219.987
5012.523, 6153.075
5014.452, 6185.492
5016.380, 6203.891
5018.309, 6211.327
5020.237, 6218.704
5022.166, 6123.522
5024.094, 6055.733
5026.023, 6093.137
5027.951, 6086.824
5029.880, 6072.599
5031.808, 6068.273
5033.737, 6052.741
5035.665, 6044.630
5037.594, 6049.056
5039.522, 6028.558
5041.451, 6060.349
5043.379, 6005.770
5045.308, 5984.286
5047.236, 5987.576
5049.165, 6003.637
5051.093, 6015.437
5053.021, 6035.018
5054.950, 6042.794
5056.878, 6011.992
5058.807, 5968.321
5060.735, 5944.426
5062.664, 5961.523
5064.592, 5932.680
5066.521, 5919.042
5068.449, 5943.171
5070.377, 5937.193
5072.306, 5899.403
5074.234, 5851.540
5076.163, 5898.530
5078.091, 5942.320
5080.020, 5950.650
5081.948, 5879.524
5083.877, 5843.545
5085.805, 5836.759
5087.734, 5850.476
5089.662, 5791.799
5091.591, 5752.596
5093.519, 5802.990
5095.448, 5854.463
5097.376, 5868.557
5099.305, 5831.485
5101.233, 5765.513
5103.162, 5785.606
5105.090, 5751.371
5107.019, 5816.922
5108.947, 5758.638
5110.875, 5734.441
5112.804, 5786.540
5114.732, 5764.987
5116.661, 5717.735
5118.589, 5703.939
5120.518, 5692.169
5122.446, 5717.922
5124.375, 5685.904
5126.303, 5720.576
5128.231, 5665.794
5130.160, 5669.467
5132.088, 5704.072
5134.017, 5706.813
5135.945, 5689.465
5137.874, 5702.911
5139.802, 5670.653
5141.731, 5625.888
5143.659, 5609.339
5145.588, 5618.820
5147.516, 5626.995
5149.445, 5620.702
5151.373, 5623.888
5153.302, 5605.355
5155.230, 5568.760
5157.159, 5541.114
5159.087, 5585.561
5161.016, 5644.493
5162.944, 5608.515
5164.873, 5560.414
5166.801, 5533.187
5168.729, 5545.406
5170.658, 5574.117
5172.586, 5587.598
5174.515, 5574.826
5176.443, 5551.344
5178.372, 5547.351
5180.300, 5536.285
5182.229, 5510.761
5184.157, 5519.001
5186.085, 5491.158
5188.014, 5468.699
5189.942, 5503.202
5191.871, 5523.055
5193.799, 5498.546
5195.728, 5502.026
5197.656, 5467.425
5199.585, 5405.840
5201.513, 5367.786
5203.442, 5409.654
5205.370, 5462.827
5207.299, 5451.031
5209.227, 5409.053
5211.156, 5374.472
5213.084, 5363.286
5215.013, 5333.937
5216.941, 5327.047
5218.870, 5308.967
5220.798, 5319.547
5222.727, 5331.170
5224.655, 5335.326
5226.583, 5327.905
5228.512, 5322.247
5230.440, 5320.790
5232.369, 5324.639
5234.297, 5339.645
5236.226, 5354.981
5238.154, 5347.659
5240.083, 5267.265
5242.011, 5215.570
5243.939, 5220.411
5245.868, 5289.970
5247.796, 5285.016
5249.725, 5268.221
5251.653, 5252.620
5253.582, 5201.752
5255.510, 5165.483
5257.439, 5166.041
5259.367, 5154.912
5261.296, 5190.725
5263.224, 5165.048
5265.153, 5213.755
5267.081, 5198.568
5269.010, 5179.012
5270.938, 5168.636
5272.867, 5169.887
5274.795, 5163.271
5276.724, 5159.378
5278.652, 5164.529
5280.581, 5110.630
5282.509, 5120.615
5284.438, 5178.789
5286.366, 5158.905
5288.294, 5116.934
5290.223, 5091.212
5292.151, 5120.377
5294.080, 5092.387
5296.008, 5076.226
5297.937, 5082.833
5299.865, 5053.618
5301.793, 5045.929
5303.722, 5044.780
5305.650, 5021.576
5307.579, 5034.210
5309.507, 5059.040
5311.436, 5075.418
5313.364, 5034.629
5315.293, 4981.813
5317.221, 4946.378
5319.150, 4954.355
5321.078, 4975.147
5323.007, 4998.177
5324.935, 5015.922
5326.864, 5013.307
5328.792, 5020.390
5330.721, 4999.898
5332.649, 5002.984
5334.578, 4965.769
5336.506, 4932.199
5338.435, 4952.548
5340.363, 4912.431
5342.292, 4893.250
5344.220, 4898.602
5346.148, 4917.675
5348.077, 4920.022
5350.005, 4887.041
5351.934, 4828.101
5353.862, 4838.947
5355.791, 4835.463
5357.719, 4824.353
5359.647, 4832.950
5361.576, 4821.144
5363.504, 4801.634
5365.433, 4781.008
5367.361, 4759.784
5369.290, 4726.811
5371.218, 4693.740
5373.147, 4674.875
5375.075, 4729.757
5377.004, 4782.895
5378.932, 4793.053
5380.861, 4693.761
5382.789, 4730.097
5384.718, 4772.983
5386.646, 4695.599
5388.575, 4730.521
5390.503, 4739.413
5392.432, 4720.853
5394.360, 4758.120
5396.289, 4705.239
5398.217, 4649.698
5400.146, 4651.162
5402.074, 4690.079
5404.002, 4727.997
5405.931, 4731.225
5407.859, 4656.138
5409.788, 4630.120
5411.716, 4654.791
5413.645, 4702.741
5415.573, 4696.563
5417.501, 4635.100
5419.430, 4592.051
5421.358, 4626.826
5423.287, 4626.073
5425.215, 4587.882
5427.144, 4544.766
5429.072, 4562.555
5431.001, 4549.267
5432.929, 4533.376
5434.858, 4532.031
5436.786, 4535.753
5438.715, 4533.221
5440.643, 4525.206
5442.572, 4515.372
5444.500, 4458.640
5446.429, 4479.293
5448.357, 4448.224
5450.286, 4407.038
5452.214, 4419.266
5454.143, 4457.701
5456.071, 4449.165
5458.000, 4439.340
5459.928, 4453.634
5461.856, 4460.043
5463.785, 4421.328
5465.713, 4416.724
5467.642, 4428.254
5469.570, 4433.642
5471.499, 4393.717
5473.427, 4411.361
5475.355, 4409.340
5477.284, 4371.215
5479.212, 4439.369
5481.141, 4397.253
5483.069, 4335.482
5484.998, 4351.145
5486.926, 4274.067
5488.855, 4311.795
5490.783, 4285.823
5492.712, 4386.184
5494.640, 4296.402
5496.569, 4285.934
5498.497, 4347.629
5500.426, 4316.865
5502.354, 4263.685
5504.283, 4251.658
5506.211, 4296.710
5508.140, 4304.125
5510.068, 4305.652
5511.997, 4297.221
5513.925, 4269.706
5515.854, 4212.482
5517.782, 4210.868
5519.710, 4235.015
5521.639, 4209.491
5523.567, 4225.098
5525.496, 4241.942
5527.424, 4235.662
5529.353, 4237.529
5531.281, 4199.358
5533.209, 4206.242
5535.138, 4162.341
5537.066, 4111.682
5538.995, 4154.226
5540.923, 4164.320
5542.852, 4062.521
5544.780, 4091.463
5546.709, 4071.656
5548.637, 4050.463
5550.566, 4105.616
5552.494, 4193.475
5554.423, 4180.888
5556.351, 4110.088
5558.280, 4088.090
5560.208, 4046.887
5562.137, 4078.021
5564.065, 4127.800
5565.994, 4004.687
5567.922, 4059.327
5569.851, 4089.583
5571.779, 4040.906
5573.708, 4021.270
5575.636, 4037.249
5577.564, 4028.854
5579.493, 3990.026
5581.421, 4040.336
5583.350, 3990.106
5585.278, 3950.928
5587.207, 3984.954
5589.135, 3926.250
5591.063, 3903.788
5592.992, 3931.366
5594.920, 3987.048
5596.849, 3921.754
5598.777, 3908.830
5600.706, 3916.472
5602.634, 3895.186
5604.563, 3941.979
5606.491, 3940.368
5608.420, 3917.892
5610.348, 3926.176
5612.277, 3914.512
5614.205, 3871.911
5616.134, 3904.616
5618.062, 3886.402
5619.991, 3884.341
5621.919, 3828.462
5623.848, 3859.010
5625.776, 3834.402
5627.705, 3834.531
5629.633, 3849.160
5631.562, 3853.606
5633.490, 3822.935
5635.418, 3815.024
5637.347, 3784.831
5639.275, 3756.355
5641.204, 3791.630
5643.132, 3818.742
5645.061, 3811.380
5646.989, 3787.953
5648.917, 3788.438
5650.846, 3742.152
5652.774, 3711.350
5654.703, 3703.693
5656.631, 3702.999
5658.560, 3691.167
5660.488, 3694.450
5662.417, 3681.398
5664.345, 3701.450
5666.274, 3686.365
5668.202, 3694.898
5670.131, 3714.834
5672.059, 3707.545
5673.988, 3644.901
5675.916, 3599.262
5677.845, 3598.086
5679.773, 3648.692
5681.702, 3694.635
5683.630, 3693.578
5685.559, 3688.493
5687.487, 3723.619
5689.416, 3648.709
5691.344, 3594.815
5693.272, 3584.815
5695.201, 3601.955
5697.129, 3538.229
5699.058, 3594.304
5700.986, 3667.831
5702.915, 3654.032
5704.843, 3629.019
5706.771, 3591.044
5708.700, 3561.487
5710.628, 3550.384
5712.557, 3532.331
5714.485, 3551.460
5716.414, 3553.242
5718.342, 3519.749
5720.271, 3504.597
5722.199, 3545.363
5724.128, 3526.074
5726.056, 3457.815
5727.985, 3503.396
5729.913, 3483.583
5731.842, 3472.473
5733.770, 3494.486
5735.699, 3469.917
5737.627, 3510.613
5739.556, 3463.254
5741.484, 3436.356
5743.413, 3465.012
5745.341, 3471.451
5747.270, 3427.768
5749.198, 3390.663
5751.126, 3414.728
5753.055, 3456.712
5754.983, 3456.706
5756.912, 3433.382
5758.840, 3408.675
5760.769, 3380.681
5762.697, 3409.232
5764.625, 3386.192
5766.554, 3322.758
5768.482, 3406.832
5770.411, 3366.939
5772.339, 3361.814
5774.268, 3398.015
5776.196, 3380.014
5778.125, 3299.326
5780.053, 3290.864
5781.982, 3302.977
5783.910, 3253.457
5785.839, 3278.320
5787.767, 3294.433
5789.696, 3309.161
5791.624, 3304.712
5793.553, 3308.240
5795.481, 3280.898
5797.410, 3251.238
5799.338, 3231.596
5801.267, 3241.419
5803.195, 3262.095
5805.124, 3255.262
5807.052, 3242.193
5808.980, 3251.570
5810.909, 3243.500
5812.837, 3245.573
5814.766, 3223.266
5816.694, 3247.960
5818.623, 3201.877
5820.551, 3194.792
5822.479, 3215.185
5824.408, 3231.129
5826.336, 3192.031
5828.265, 3222.846
5830.193, 3208.996
5832.122, 3174.572
5834.050, 3175.649
5835.979, 3161.527
5837.907, 3152.736
5839.836, 3166.112
5841.764, 3189.896
5843.693, 3171.193
5845.621, 3184.241
5847.550, 3120.052
5849.478, 3048.489
5851.407, 3098.593
5853.335, 3131.959
5855.264, 3104.114
5857.192, 3133.401
5859.121, 3123.730
5861.049, 3116.815
5862.978, 3103.639
5864.906, 3056.355
5866.834, 3028.253
5868.763, 3065.175
5870.691, 3054.072
5872.620, 3073.240
5874.548, 3080.921
5876.477, 3043.045
5878.405, 3004.385
5880.333, 3033.641
5882.262, 3073.219
5884.190, 3081.431
5886.119, 3037.855
5888.047, 2990.562
5889.976, 2991.626
5891.904, 3015.268
5893.833, 3024.022
5895.761, 2984.873
5897.690, 3012.887
5899.618, 3013.270
5901.547, 2990.942
5903.475, 3003.842
5905.404, 2995.577
5907.332, 2970.575
5909.261, 2939.757
5911.189, 2912.720
5913.118, 2892.385
5915.046, 2894.035
5916.975, 2893.364
5918.903, 2901.790
5920.832, 2915.093
5922.760, 2897.297
5924.688, 2899.952
5926.617, 2934.424
5928.545, 2964.003
5930.474, 2891.266
5932.402, 2943.447
5934.331, 2892.515
5936.259, 2858.115
5938.188, 2929.469
5940.116, 2919.921
5942.044, 2896.686
5943.973, 2857.737
5945.901, 2830.548
5947.830, 2849.414
5949.758, 2870.143
5951.687, 2867.903
5953.615, 2832.913
5955.544, 2797.895
5957.472, 2822.556
5959.401, 2794.603
5961.329, 2798.195
5963.258, 2788.471
5965.186, 2761.749
5967.115, 2845.455
5969.043, 2780.796
5970.972, 2785.306
5972.900, 2799.587
5974.829, 2735.308
5976.757, 2780.863
5978.686, 2797.709
5980.614, 2773.286
5982.542, 2739.952
5984.471, 2736.856
5986.399, 2801.113
5988.328, 2760.492
5990.256, 2733.348
5992.185, 2739.136
5994.113, 2690.393
5996.042, 2730.572
5997.970, 2700.951
5999.898, 2660.467
6001.827, 2662.692
6003.755, 2703.197
6005.684, 2705.643
6007.612, 2707.862
6009.541, 2705.560
6011.469, 2688.505
6013.398, 2687.476
6015.326, 2668.524
6017.255, 2673.122
6019.183, 2662.260
6021.112, 2657.638
6023.040, 2675.197
6024.969, 2671.744
6026.897, 2632.264
6028.826, 2591.635
6030.754, 2585.250
6032.683, 2634.721
6034.611, 2607.101
6036.540, 2595.567
6038.468, 2594.391
6040.396, 2571.905
6042.325, 2591.628
6044.253, 2538.145
6046.182, 2543.153
6048.110, 2573.986
6050.039, 2556.729
6051.967, 2564.915
6053.896, 2529.642
6055.824, 2556.280
6057.752, 2575.833
6059.681, 2508.817
6061.609, 2542.868
6063.538, 2522.192
6065.466, 2486.432
6067.395, 2497.252
6069.323, 2490.224
6071.252, 2482.167
6073.180, 2499.532
6075.109, 2511.179
6077.037, 2498.236
6078.966, 2483.829
6080.894, 2483.254
6082.823, 2478.386
6084.751, 2448.679
6086.680, 2446.800
6088.608, 2487.748
6090.537, 2473.031
6092.465, 2443.859
6094.394, 2406.308
6096.322, 2428.274
6098.250, 2410.256
6100.179, 2398.568
6102.107, 2424.354
6104.036, 2384.430
6105.964, 2402.198
6107.893, 2413.963
6109.821, 2377.650
6111.750, 2389.066
6113.678, 2387.794
6115.606, 2410.194
6117.535, 2426.117
6119.463, 2376.809
6121.392, 2388.527
6123.320, 2382.977
6125.249, 2406.220
6127.177, 2418.398
6129.106, 2370.734
6131.034, 2350.768
6132.963, 2365.215
6134.891, 2351.359
6136.820, 2348.227
6138.748, 2367.768
6140.677, 2318.464
6142.605, 2279.928
6144.534, 2302.310
6146.462, 2330.115
6148.391, 2343.064
6150.319, 2366.481
6152.248, 2314.589
6154.176, 2294.006
6156.104, 2292.846
6158.033, 2288.613
6159.961, 2274.301
6161.890, 2270.613
6163.818, 2273.208
6165.747, 2248.994
6167.675, 2218.330
6169.604, 2206.098
6171.532, 2216.880
6173.460, 2222.376
6175.389, 2269.454
6177.317, 2252.605
6179.246, 2267.344
6181.174, 2250.601
6183.103, 2230.538
6185.031, 2231.465
6186.960, 2243.425
6188.888, 2228.596
6190.817, 2231.083
6192.745, 2195.393
6194.674, 2209.193
6196.602, 2174.817
6198.531, 2135.700
6200.459, 2144.950
6202.388, 2222.106
6204.316, 2233.059
6206.245, 2182.902
6208.173, 2169.884
6210.102, 2147.995
6212.030, 2099.950
6213.958, 2127.191
6215.887, 2127.314
6217.815, 2073.026
6219.744, 2090.682
6221.672, 2167.377
6223.601, 2210.634
6225.529, 2131.995
6227.458, 2117.915
6229.386, 2095.426
6231.314, 2117.510
6233.243, 2156.124
6235.171, 2109.171
6237.100, 2110.953
6239.028, 2125.524
6240.957, 2109.708
6242.885, 2079.160
6244.814, 2057.770
6246.742, 2048.711
6248.671, 2063.579
6250.599, 2076.943
6252.528, 2053.730
6254.456, 2032.857
6256.385, 2040.253
6258.313, 2007.911
6260.242, 2080.742
6262.170, 2066.366
6264.099, 2073.263
6266.027, 2075.633
6267.956, 2062.765
6269.884, 2077.300
6271.813, 2053.149
6273.741, 2016.626
6275.669, 2031.610
6277.598, 2049.477
6279.526, 1998.984
6281.455, 1986.328
6283.383, 2030.543
6285.312, 2028.373
6287.240, 2007.739
6289.168, 1998.875
6291.097, 1992.784
6293.025, 1960.530
6294.954, 1988.481
6296.882, 1973.018
6298.811, 1983.129
6300.739, 2020.264
6302.668, 1999.170
6304.596, 1946.211
6306.525, 1952.012
6308.453, 1954.723
6310.382, 1931.992
6312.310, 1924.660
6314.239, 1925.476
6316.167, 1938.577
6318.096, 1924.169
6320.024, 1926.948
6321.953, 1919.296
6323.881, 1916.529
6325.810, 1942.212
6327.738, 1940.503
6329.667, 1931.687
6331.595, 1907.623
6333.523, 1917.082
6335.452, 1887.172
6337.380, 1906.490
6339.309, 1902.836
6341.237, 1900.601
6343.166, 1838.368
6345.094, 1819.262
6347.022, 1831.405
6348.951, 1843.494
6350.879, 1832.877
6352.808, 1847.547
6354.736, 1827.188
6356.665, 1872.052
6358.593, 1874.350
6360.522, 1826.274
6362.450, 1856.081
6364.379, 1819.702
6366.307, 1822.076
6368.236, 1813.898
6370.164, 1813.238
6372.093, 1810.140
6374.021, 1777.239
6375.950, 1798.307
6377.878, 1774.898
6379.807, 1765.747
6381.735, 1794.989
6383.664, 1804.273
6385.592, 1768.511
6387.521, 1763.005
6389.449, 1781.422
6391.377, 1772.390
6393.306, 1793.860
6395.234, 1811.153
6397.163, 1796.980
6399.091, 1771.386
6401.020, 1765.020
6402.948, 1796.175
6404.876, 1741.204
6406.805, 1698.821
6408.733, 1712.659
6410.662, 1744.773
6412.590, 1734.847
6414.519, 1744.277
6416.447, 1727.153
6418.376, 1730.356
6420.304, 1710.960
6422.233, 1734.301
6424.161, 1719.141
6426.090, 1732.465
6428.018, 1715.305
6429.947, 1728.757
6431.875, 1714.152
6433.804, 1698.752
6435.732, 1703.013
6437.661, 1689.811
6439.589, 1671.589
6441.518, 1679.795
6443.446, 1696.649
6445.375, 1701.223
6447.303, 1679.394
6449.231, 1652.594
6451.160, 1661.760
6453.088, 1647.190
6455.017, 1688.023
6456.945, 1670.658
6458.874, 1673.996
6460.802, 1659.072
6462.730, 1620.106
6464.659, 1668.699
6466.587, 1660.115
6468.516, 1600.572
6470.444, 1628.874
6472.373, 1642.045
6474.301, 1619.728
6476.230, 1622.178
6478.158, 1610.570
6480.087, 1617.857
6482.015, 1595.293
6483.944, 1580.029
6485.872, 1594.797
6487.801, 1600.462
6489.729, 1580.918
6491.658, 1577.949
6493.586, 1571.177
6495.515, 1593.099
6497.443, 1595.055
6499.372, 1562.133
6501.300, 1529.786
6503.229, 1542.022
6505.157, 1591.142
6507.085, 1565.455
6509.014, 1558.856
6510.942, 1530.482
6512.871, 1555.355
6514.799, 1557.298
6516.728, 1565.186
6518.656, 1545.526
6520.584, 1576.153
6522.513, 1498.031
6524.441, 1477.127
6526.370, 1471.477
6528.298, 1508.733
6530.227, 1527.376
6532.155, 1499.911
6534.084, 1500.199
6536.012, 1502.085
6537.941, 1498.284
6539.869, 1509.166
6541.798, 1505.505
6543.726, 1521.707
6545.655, 1518.018
6547.583, 1502.752
6549.512, 1496.245
6551.440, 1473.925
6553.369, 1490.948
6555.297, 1447.690
6557.226, 1432.342
6559.154, 1443.909
6561.083, 1454.905
6563.011, 1470.109
6564.939, 1474.485
6566.868, 1480.060
6568.796, 1474.350
6570.725, 1464.266
6572.653, 1441.630
6574.582, 1448.039
6576.510, 1440.635
6578.438, 1453.721
6580.367, 1441.834
6582.295, 1421.016
6584.224, 1417.679
6586.152, 1425.888
6588.081, 1420.004
6590.009, 1408.036
6591.938, 1417.430
6593.866, 1447.155
6595.795, 1395.576
6597.723, 1380.725
6599.652, 1427.792
6601.580, 1434.757
6603.509, 1458.878
6605.437, 1455.722
6607.366, 1452.797
6609.294, 1396.308
6611.223, 1431.401
6613.151, 1385.242
6615.080, 1371.657
6617.008, 1401.362
6618.937, 1399.275
6620.865, 1387.972
6622.793, 1386.957
6624.722, 1368.335
6626.650, 1358.770
6628.579, 1348.913
6630.507, 1372.762
##END=



