##NAMES=Salammoniac
##RRUFFID=R061022
##IDEAL CHEMISTRY=(NH_4_)Cl
##LOCALITY=Schoeller mine, Kladno, Bohemia, Czech Republic
##OWNER=RRUFF
##SOURCE=Michael Scott
##DESCRIPTION=A crust of colorless tabular crystals
##STATUS=The identification of this mineral has been confirmed by X-ray diffraction and chemical analysis
##URL=https://www.rruff.net/odr/rruff_sample/R061022
##MEASURED CHEMISTRY=NH_4_Cl_1.00_ ; N, H not measured but estimated by stoichiometry
##DIFFRACTION SAMPLE DESCRIPTION=Powder
##CELL PARAMETERS=a: 3.87662 b: 3.87662 c: 3.87662 alpha: 90 beta: 90 gamma: 90 volume: 58.259 crystal system: cubic
##FILETYPE=Raman Processed
##RAMAN WAVELENGTH=532

93.98828, 2058.592
95.91675, 2238.876
97.84521, 2355.373
99.77368, 2378.270
101.7021, 2325.815
103.6306, 2281.997
105.5591, 2265.899
107.4875, 2275.892
109.4160, 2303.660
111.3445, 2368.579
113.2729, 2445.423
115.2014, 2520.497
117.1299, 2589.671
119.0583, 2679.211
120.9868, 2784.588
122.9153, 2911.352
124.8438, 3079.188
126.7722, 3300.414
128.7007, 3551.244
130.6292, 3817.905
132.5576, 4123.651
134.4861, 4407.979
136.4146, 4668.082
138.3430, 4896.371
140.2715, 5076.566
142.2000, 5181.917
144.1284, 5240.104
146.0569, 5269.875
147.9854, 5246.472
149.9138, 5218.050
151.8423, 5187.857
153.7708, 5155.369
155.6992, 5140.801
157.6277, 5151.374
159.5562, 5180.042
161.4846, 5219.084
163.4131, 5285.367
165.3416, 5335.344
167.2700, 5358.076
169.1985, 5359.197
171.1270, 5303.724
173.0554, 5172.231
174.9839, 4982.799
176.9124, 4786.325
178.8408, 4573.418
180.7693, 4368.674
182.6978, 4183.199
184.6262, 4023.778
186.5547, 3880.206
188.4832, 3759.194
190.4116, 3655.980
192.3401, 3560.145
194.2686, 3481.190
196.1970, 3402.314
198.1255, 3313.973
200.0540, 3213.965
201.9824, 3111.855
203.9109, 3008.555
205.8394, 2904.358
207.7678, 2801.782
209.6963, 2697.392
211.6248, 2596.990
213.5532, 2504.302
215.4817, 2419.236
217.4102, 2340.415
219.3386, 2266.581
221.2671, 2197.821
223.1956, 2134.475
225.1240, 2077.277
227.0525, 2024.956
228.9810, 1976.430
230.9094, 1932.475
232.8379, 1891.489
234.7664, 1853.229
236.6948, 1818.077
238.6233, 1785.715
240.5518, 1756.487
242.4802, 1730.225
244.4087, 1706.552
246.3372, 1687.209
248.2656, 1668.546
250.1941, 1649.429
252.1226, 1630.383
254.0510, 1613.765
255.9795, 1599.256
257.9080, 1587.741
259.8364, 1580.315
261.7649, 1581.514
263.6934, 1580.995
265.6218, 1576.278
267.5503, 1568.576
269.4788, 1561.872
271.4072, 1557.450
273.3357, 1553.748
275.2642, 1549.869
277.1926, 1545.589
279.1211, 1541.979
281.0496, 1539.977
282.9780, 1539.211
284.9065, 1537.554
286.8350, 1532.574
288.7634, 1528.295
290.6919, 1528.168
292.6204, 1533.034
294.5488, 1536.238
296.4773, 1534.744
298.4058, 1529.796
300.3342, 1526.732
302.2627, 1525.991
304.1912, 1526.466
306.1196, 1528.585
308.0481, 1533.124
309.9766, 1534.837
311.9050, 1531.085
313.8335, 1523.992
315.7620, 1518.913
317.6904, 1517.251
319.6189, 1515.841
321.5474, 1513.353
323.4758, 1509.600
325.4043, 1506.501
327.3328, 1505.100
329.2612, 1504.297
331.1897, 1502.105
333.1182, 1497.223
335.0466, 1493.147
336.9751, 1491.291
338.9036, 1492.271
340.8320, 1491.620
342.7605, 1488.975
344.6890, 1484.851
346.6175, 1479.728
348.5459, 1473.428
350.4744, 1467.031
352.4029, 1461.564
354.3313, 1457.047
356.2598, 1450.719
358.1883, 1441.396
360.1167, 1431.441
362.0452, 1421.725
363.9737, 1411.657
365.9021, 1403.714
367.8306, 1399.979
369.7591, 1398.618
371.6875, 1393.881
373.6160, 1383.670
375.5445, 1372.972
377.4729, 1363.698
379.4014, 1355.834
381.3299, 1349.481
383.2583, 1345.325
385.1868, 1342.151
387.1153, 1338.296
389.0437, 1333.327
390.9722, 1328.247
392.9007, 1323.338
394.8291, 1318.546
396.7576, 1313.528
398.6861, 1307.140
400.6145, 1301.371
402.5430, 1298.077
404.4715, 1297.846
406.3999, 1297.384
408.3284, 1295.175
410.2569, 1292.247
412.1853, 1291.639
414.1138, 1294.723
416.0423, 1298.520
417.9707, 1301.945
419.8992, 1304.973
421.8277, 1308.579
423.7561, 1312.848
425.6846, 1317.633
427.6131, 1322.883
429.5415, 1328.584
431.4700, 1334.585
433.3985, 1340.901
435.3269, 1347.483
437.2554, 1354.375
439.1839, 1361.736
441.1123, 1369.236
443.0408, 1376.932
444.9693, 1384.894
446.8977, 1392.336
448.8262, 1398.640
450.7547, 1404.517
452.6831, 1410.790
454.6116, 1418.204
456.5401, 1425.289
458.4685, 1432.180
460.3970, 1438.642
462.3255, 1443.625
464.2539, 1445.264
466.1824, 1447.147
468.1109, 1451.511
470.0393, 1461.900
471.9678, 1468.506
473.8963, 1467.305
475.8247, 1463.903
477.7532, 1465.959
479.6817, 1477.166
481.6101, 1486.810
483.5386, 1490.932
485.4671, 1489.514
487.3955, 1489.536
489.3240, 1492.187
491.2525, 1494.992
493.1809, 1496.907
495.1094, 1498.083
497.0379, 1497.948
498.9663, 1495.527
500.8948, 1492.290
502.8233, 1490.468
504.7517, 1491.673
506.6802, 1491.675
508.6087, 1488.437
510.5371, 1482.964
512.4656, 1478.173
514.3940, 1475.049
516.3225, 1471.913
518.2510, 1467.955
520.1794, 1462.937
522.1079, 1457.911
524.0364, 1453.425
525.9648, 1448.326
527.8933, 1441.343
529.8218, 1429.216
531.7502, 1420.427
533.6787, 1419.460
535.6072, 1422.792
537.5356, 1420.689
539.4641, 1411.046
541.3926, 1399.983
543.3210, 1389.807
545.2495, 1380.621
547.1780, 1372.363
549.1064, 1364.927
551.0349, 1358.206
552.9634, 1352.029
554.8918, 1346.114
556.8203, 1340.774
558.7488, 1335.861
560.6772, 1331.384
562.6057, 1327.505
564.5342, 1324.935
566.4626, 1322.164
568.3911, 1319.341
570.3196, 1316.310
572.2480, 1312.467
574.1765, 1306.481
576.1050, 1301.625
578.0334, 1299.458
579.9619, 1300.591
581.8904, 1301.172
583.8188, 1300.376
585.7473, 1299.627
587.6758, 1300.142
589.6043, 1302.159
591.5328, 1303.483
593.4612, 1301.578
595.3897, 1299.447
597.3182, 1301.299
599.2466, 1311.434
601.1751, 1319.341
603.1036, 1321.799
605.0320, 1320.955
606.9605, 1321.213
608.8890, 1322.910
610.8174, 1325.833
612.7459, 1330.640
614.6744, 1337.454
616.6028, 1342.590
618.5313, 1344.832
620.4598, 1346.495
622.3882, 1348.353
624.3167, 1350.263
626.2452, 1353.677
628.1736, 1359.465
630.1021, 1366.373
632.0306, 1373.589
633.9590, 1381.578
635.8875, 1388.627
637.8160, 1393.759
639.7444, 1397.954
641.6729, 1402.437
643.6014, 1407.322
645.5298, 1412.327
647.4583, 1418.326
649.3868, 1424.618
651.3152, 1428.324
653.2437, 1426.774
655.1722, 1426.893
657.1006, 1432.843
659.0291, 1443.519
660.9576, 1452.427
662.8860, 1457.856
664.8145, 1462.341
666.7430, 1466.041
668.6714, 1468.460
670.5999, 1472.782
672.5284, 1480.550
674.4568, 1488.616
676.3853, 1495.033
678.3138, 1499.425
680.2422, 1503.285
682.1707, 1507.480
684.0992, 1511.196
686.0276, 1513.671
687.9561, 1515.388
689.8846, 1515.589
691.8130, 1512.739
693.7415, 1508.982
695.6700, 1506.916
697.5984, 1506.833
699.5269, 1508.259
701.4554, 1511.771
703.3839, 1516.627
705.3123, 1520.991
707.2408, 1525.339
709.1693, 1528.439
711.0977, 1528.326
713.0262, 1526.287
714.9547, 1526.643
716.8831, 1533.177
718.8116, 1538.303
720.7401, 1538.531
722.6685, 1534.247
724.5970, 1533.404
726.5255, 1538.874
728.4539, 1544.426
730.3824, 1547.312
732.3109, 1547.684
734.2393, 1547.127
736.1678, 1544.377
738.0963, 1542.012
740.0247, 1541.631
741.9532, 1543.664
743.8817, 1544.840
745.8101, 1545.422
747.7386, 1544.845
749.6671, 1542.392
751.5955, 1537.638
753.5240, 1534.521
755.4525, 1533.630
757.3809, 1534.438
759.3094, 1537.258
761.2379, 1543.111
763.1663, 1546.720
765.0948, 1545.758
767.0233, 1543.036
768.9517, 1540.388
770.8802, 1537.179
772.8087, 1536.206
774.7371, 1540.176
776.6656, 1545.297
778.5941, 1547.212
780.5225, 1544.417
782.4510, 1542.841
784.3795, 1545.295
786.3079, 1548.412
788.2364, 1548.180
790.1649, 1542.640
792.0933, 1539.598
794.0218, 1542.000
795.9503, 1546.954
797.8787, 1550.429
799.8072, 1550.794
801.7357, 1552.891
803.6641, 1559.565
805.5926, 1567.319
807.5211, 1571.709
809.4495, 1571.290
811.3780, 1570.896
813.3065, 1571.210
815.2349, 1572.202
817.1634, 1574.075
819.0919, 1579.287
821.0203, 1581.673
822.9488, 1577.862
824.8773, 1572.032
826.8057, 1569.963
828.7342, 1572.888
830.6627, 1576.219
832.5911, 1578.644
834.5196, 1580.752
836.4481, 1583.401
838.3765, 1588.325
840.3050, 1591.471
842.2335, 1591.796
844.1619, 1590.461
846.0904, 1588.790
848.0189, 1586.208
849.9473, 1585.481
851.8758, 1588.855
853.8043, 1593.951
855.7327, 1597.974
857.6612, 1600.630
859.5897, 1602.390
861.5181, 1603.599
863.4466, 1603.591
865.3751, 1600.526
867.3035, 1593.084
869.2320, 1588.498
871.1605, 1592.074
873.0889, 1597.354
875.0174, 1598.082
876.9459, 1592.217
878.8743, 1586.648
880.8028, 1581.346
882.7313, 1577.138
884.6597, 1575.681
886.5882, 1577.840
888.5167, 1578.056
890.4451, 1572.855
892.3736, 1567.542
894.3021, 1566.277
896.2305, 1569.908
898.1590, 1572.670
900.0875, 1573.104
902.0159, 1572.863
903.9444, 1572.513
905.8729, 1571.625
907.8013, 1572.207
909.7298, 1577.338
911.6583, 1581.112
913.5867, 1579.260
915.5152, 1572.502
917.4437, 1567.525
919.3721, 1567.037
921.3006, 1567.069
923.2291, 1565.487
925.1575, 1562.408
927.0860, 1562.596
929.0145, 1569.173
930.9429, 1575.292
932.8714, 1577.489
934.7999, 1577.093
936.7283, 1578.314
938.6568, 1582.033
940.5853, 1585.775
942.5137, 1588.621
944.4422, 1590.677
946.3707, 1592.408
948.2991, 1593.805
950.2276, 1594.788
952.1561, 1594.814
954.0845, 1594.691
956.0130, 1595.867
957.9415, 1598.709
959.8699, 1601.961
961.7984, 1606.222
963.7269, 1610.407
965.6553, 1613.010
967.5838, 1612.870
969.5123, 1614.608
971.4407, 1619.994
973.3692, 1625.888
975.2977, 1629.741
977.2261, 1630.965
979.1546, 1632.283
981.0831, 1634.159
983.0115, 1635.775
984.9400, 1636.829
986.8685, 1637.500
988.7969, 1637.917
990.7254, 1636.836
992.6539, 1637.711
994.5823, 1643.057
996.5108, 1651.925
998.4393, 1658.496
1000.368, 1659.313
1002.296, 1661.906
1004.225, 1668.563
1006.153, 1677.395
1008.082, 1685.668
1010.010, 1693.900
1011.939, 1699.439
1013.867, 1697.938
1015.795, 1695.625
1017.724, 1698.780
1019.652, 1710.461
1021.581, 1719.723
1023.509, 1724.000
1025.438, 1727.833
1027.366, 1733.989
1029.295, 1742.547
1031.223, 1752.236
1033.152, 1764.557
1035.080, 1775.700
1037.009, 1782.276
1038.937, 1785.875
1040.865, 1792.150
1042.794, 1804.618
1044.722, 1814.387
1046.651, 1817.401
1048.579, 1817.173
1050.508, 1820.188
1052.436, 1829.218
1054.365, 1837.492
1056.293, 1844.708
1058.222, 1850.988
1060.150, 1855.961
1062.079, 1859.454
1064.007, 1863.323
1065.936, 1869.199
1067.864, 1873.433
1069.792, 1872.833
1071.721, 1867.533
1073.649, 1866.170
1075.578, 1873.522
1077.506, 1879.455
1079.435, 1881.619
1081.363, 1880.859
1083.292, 1878.680
1085.220, 1874.075
1087.149, 1871.100
1089.077, 1873.113
1091.006, 1875.639
1092.934, 1874.015
1094.863, 1867.975
1096.791, 1865.005
1098.720, 1868.973
1100.648, 1873.671
1102.577, 1876.308
1104.505, 1876.863
1106.433, 1876.903
1108.362, 1876.286
1110.290, 1874.817
1112.219, 1871.484
1114.147, 1867.402
1116.076, 1864.805
1118.004, 1864.136
1119.933, 1863.076
1121.861, 1860.737
1123.790, 1858.391
1125.718, 1856.944
1127.647, 1856.470
1129.575, 1856.402
1131.504, 1857.996
1133.432, 1858.496
1135.360, 1855.696
1137.289, 1850.887
1139.217, 1849.010
1141.146, 1853.084
1143.074, 1855.205
1145.003, 1852.289
1146.931, 1848.245
1148.860, 1847.308
1150.788, 1849.425
1152.717, 1851.905
1154.645, 1854.433
1156.574, 1857.172
1158.502, 1860.940
1160.431, 1865.341
1162.359, 1867.504
1164.287, 1865.357
1166.216, 1864.348
1168.144, 1864.773
1170.073, 1867.102
1172.001, 1872.551
1173.930, 1882.858
1175.858, 1890.117
1177.787, 1891.285
1179.715, 1891.664
1181.644, 1894.095
1183.572, 1898.022
1185.501, 1902.075
1187.429, 1907.379
1189.358, 1910.461
1191.286, 1907.639
1193.214, 1903.823
1195.143, 1904.635
1197.071, 1911.342
1199.000, 1918.704
1200.928, 1927.751
1202.857, 1935.774
1204.785, 1941.133
1206.714, 1943.859
1208.642, 1945.059
1210.571, 1941.371
1212.499, 1941.248
1214.428, 1949.982
1216.356, 1960.884
1218.285, 1966.419
1220.213, 1966.873
1222.141, 1969.261
1224.070, 1977.220
1225.998, 1984.273
1227.927, 1985.994
1229.855, 1984.464
1231.784, 1986.692
1233.712, 1993.941
1235.641, 2002.045
1237.569, 2010.613
1239.498, 2019.342
1241.426, 2028.387
1243.355, 2037.914
1245.283, 2045.576
1247.212, 2049.208
1249.140, 2053.871
1251.068, 2061.988
1252.997, 2071.675
1254.925, 2079.423
1256.854, 2084.683
1258.782, 2091.582
1260.711, 2102.997
1262.639, 2113.892
1264.568, 2120.887
1266.496, 2124.903
1268.425, 2130.167
1270.353, 2135.917
1272.282, 2145.011
1274.210, 2160.549
1276.139, 2177.598
1278.067, 2190.888
1279.995, 2199.172
1281.924, 2210.425
1283.852, 2228.248
1285.781, 2244.357
1287.709, 2254.758
1289.638, 2262.140
1291.566, 2271.389
1293.495, 2282.620
1295.423, 2294.299
1297.352, 2305.468
1299.280, 2317.844
1301.209, 2334.279
1303.137, 2352.710
1305.066, 2366.799
1306.994, 2375.023
1308.922, 2382.810
1310.851, 2392.366
1312.779, 2401.450
1314.708, 2408.169
1316.636, 2412.367
1318.565, 2416.772
1320.493, 2422.052
1322.422, 2426.411
1324.350, 2428.573
1326.279, 2430.104
1328.207, 2433.553
1330.136, 2440.023
1332.064, 2442.960
1333.993, 2440.390
1335.921, 2436.738
1337.849, 2432.285
1339.778, 2428.218
1341.706, 2426.877
1343.635, 2428.578
1345.563, 2429.450
1347.492, 2429.683
1349.420, 2427.691
1351.349, 2418.778
1353.277, 2407.635
1355.206, 2407.449
1357.134, 2422.431
1359.063, 2435.010
1360.991, 2438.354
1362.920, 2441.688
1364.848, 2449.181
1366.776, 2460.736
1368.705, 2475.942
1370.633, 2501.397
1372.562, 2520.696
1374.490, 2523.318
1376.419, 2527.627
1378.347, 2545.883
1380.276, 2578.152
1382.204, 2621.409
1384.133, 2671.730
1386.061, 2739.243
1387.990, 2820.426
1389.918, 2923.639
1391.847, 3063.033
1393.775, 3233.732
1395.703, 3418.793
1397.632, 3648.420
1399.560, 3817.425
1401.489, 3885.009
1403.417, 3876.854
1405.346, 3799.831
1407.274, 3659.265
1409.203, 3527.719
1411.131, 3406.015
1413.060, 3304.486
1414.988, 3230.414
1416.917, 3173.528
1418.845, 3126.122
1420.774, 3088.809
1422.702, 3053.689
1424.630, 3021.800
1426.559, 2990.612
1428.487, 2961.526
1430.416, 2932.258
1432.344, 2900.602
1434.273, 2866.804
1436.201, 2831.750
1438.130, 2792.418
1440.058, 2756.133
1441.987, 2727.925
1443.915, 2700.592
1445.844, 2664.199
1447.772, 2619.237
1449.701, 2581.925
1451.629, 2554.529
1453.557, 2531.044
1455.486, 2509.141
1457.414, 2491.119
1459.343, 2480.530
1461.271, 2476.189
1463.200, 2470.758
1465.128, 2462.275
1467.057, 2457.037
1468.985, 2458.068
1470.914, 2462.115
1472.842, 2467.154
1474.771, 2472.990
1476.699, 2478.914
1478.628, 2485.089
1480.556, 2490.816
1482.484, 2494.861
1484.413, 2499.517
1486.341, 2507.253
1488.270, 2517.167
1490.198, 2523.937
1492.127, 2525.732
1494.055, 2528.310
1495.984, 2529.565
1497.912, 2534.373
1499.841, 2549.138
1501.769, 2569.142
1503.698, 2580.697
1505.626, 2579.143
1507.555, 2579.098
1509.483, 2581.210
1511.411, 2584.328
1513.340, 2587.441
1515.268, 2591.485
1517.197, 2598.937
1519.125, 2611.170
1521.054, 2619.154
1522.982, 2618.327
1524.911, 2618.657
1526.839, 2623.356
1528.768, 2630.230
1530.696, 2637.342
1532.625, 2644.667
1534.553, 2651.093
1536.482, 2656.569
1538.410, 2661.369
1540.339, 2663.439
1542.267, 2666.658
1544.195, 2676.159
1546.124, 2689.140
1548.052, 2696.572
1549.981, 2696.978
1551.909, 2697.280
1553.838, 2699.382
1555.766, 2701.625
1557.695, 2702.807
1559.623, 2703.946
1561.552, 2707.412
1563.480, 2713.571
1565.409, 2716.223
1567.337, 2710.304
1569.266, 2707.859
1571.194, 2717.554
1573.122, 2729.885
1575.051, 2735.229
1576.979, 2734.051
1578.908, 2732.964
1580.836, 2731.971
1582.765, 2732.271
1584.693, 2735.276
1586.622, 2738.830
1588.550, 2741.259
1590.479, 2743.259
1592.407, 2747.478
1594.336, 2754.884
1596.264, 2760.833
1598.193, 2761.806
1600.121, 2765.789
1602.049, 2779.193
1603.978, 2795.013
1605.906, 2804.014
1607.835, 2805.642
1609.763, 2808.292
1611.692, 2810.386
1613.620, 2815.045
1615.549, 2823.230
1617.477, 2832.323
1619.406, 2840.343
1621.334, 2847.828
1623.263, 2856.959
1625.191, 2868.942
1627.120, 2880.315
1629.048, 2893.611
1630.976, 2904.098
1632.905, 2907.550
1634.833, 2910.044
1636.762, 2918.813
1638.690, 2933.538
1640.619, 2946.164
1642.547, 2951.935
1644.476, 2962.727
1646.404, 2981.969
1648.333, 3002.705
1650.261, 3021.825
1652.190, 3039.980
1654.118, 3057.904
1656.047, 3074.911
1657.975, 3095.342
1659.903, 3115.970
1661.832, 3144.557
1663.760, 3178.935
1665.689, 3225.214
1667.617, 3286.514
1669.546, 3363.277
1671.474, 3459.521
1673.403, 3587.131
1675.331, 3700.784
1677.260, 3801.511
1679.188, 3885.583
1681.117, 3933.309
1683.045, 3977.790
1684.974, 4035.195
1686.902, 4112.517
1688.830, 4256.911
1690.759, 4456.591
1692.687, 4749.449
1694.616, 5110.349
1696.544, 5599.326
1698.473, 6250.326
1700.401, 7034.366
1702.330, 8074.548
1704.258, 9332.938
1706.187, 9996.265
1708.115, 9988.259
1710.044, 9554.354
1711.972, 8336.080
1713.901, 7137.854
1715.829, 6272.021
1717.757, 5655.183
1719.686, 5199.476
1721.614, 4904.815
1723.543, 4679.493
1725.471, 4540.202
1727.400, 4438.801
1729.328, 4384.677
1731.257, 4354.336
1733.185, 4346.110
1735.114, 4351.008
1737.042, 4353.920
1738.971, 4354.778
1740.899, 4372.720
1742.828, 4421.804
1744.756, 4464.993
1746.684, 4499.125
1748.613, 4527.058
1750.541, 4548.237
1752.470, 4564.166
1754.398, 4576.739
1756.327, 4586.022
1758.255, 4594.417
1760.184, 4609.617
1762.112, 4611.988
1764.041, 4592.054
1765.969, 4571.162
1767.898, 4561.817
1769.826, 4553.330
1771.755, 4533.124
1773.683, 4501.537
1775.611, 4464.347
1777.540, 4420.414
1779.468, 4373.120
1781.397, 4320.038
1783.325, 4266.808
1785.254, 4216.369
1787.182, 4165.204
1789.111, 4109.697
1791.039, 4050.410
1792.968, 3990.553
1794.896, 3929.987
1796.825, 3870.352
1798.753, 3813.240
1800.682, 3755.758
1802.610, 3692.462
1804.538, 3634.026
1806.467, 3588.719
1808.395, 3553.345
1810.324, 3521.041
1812.252, 3491.834
1814.181, 3460.839
1816.109, 3425.582
1818.038, 3392.428
1819.966, 3361.694
1821.895, 3334.618
1823.823, 3313.821
1825.752, 3295.780
1827.680, 3275.913
1829.609, 3254.848
1831.537, 3235.376
1833.465, 3217.677
1835.394, 3202.958
1837.322, 3191.631
1839.251, 3183.073
1841.179, 3179.430
1843.108, 3176.059
1845.036, 3166.947
1846.965, 3155.730
1848.893, 3151.463
1850.822, 3154.403
1852.750, 3156.509
1854.679, 3156.927
1856.607, 3157.774
1858.536, 3158.689
1860.464, 3161.537
1862.392, 3168.149
1864.321, 3176.295
1866.249, 3181.870
1868.178, 3185.416
1870.106, 3194.036
1872.035, 3209.768
1873.963, 3220.875
1875.892, 3225.815
1877.820, 3227.133
1879.749, 3221.777
1881.677, 3217.950
1883.606, 3224.091
1885.534, 3235.240
1887.463, 3240.871
1889.391, 3240.927
1891.319, 3246.167
1893.248, 3259.325
1895.176, 3271.135
1897.105, 3277.230
1899.033, 3285.930
1900.962, 3301.803
1902.890, 3318.740
1904.819, 3332.777
1906.747, 3344.361
1908.676, 3353.271
1910.604, 3359.613
1912.533, 3371.777
1914.461, 3391.834
1916.390, 3411.730
1918.318, 3431.252
1920.246, 3447.343
1922.175, 3454.181
1924.103, 3461.134
1926.032, 3475.796
1927.960, 3496.031
1929.889, 3518.933
1931.817, 3544.220
1933.746, 3566.915
1935.674, 3585.732
1937.603, 3605.838
1939.531, 3628.569
1941.460, 3652.225
1943.388, 3675.909
1945.317, 3700.391
1947.245, 3725.469
1949.173, 3752.194
1951.102, 3783.098
1953.030, 3818.430
1954.959, 3853.266
1956.887, 3886.079
1958.816, 3921.432
1960.744, 3960.709
1962.673, 3999.982
1964.601, 4037.768
1966.530, 4074.997
1968.458, 4111.549
1970.387, 4148.173
1972.315, 4187.924
1974.244, 4230.230
1976.172, 4264.823
1978.100, 4290.003
1980.029, 4323.609
1981.957, 4374.589
1983.886, 4417.348
1985.814, 4439.057
1987.743, 4458.624
1989.671, 4488.315
1991.600, 4518.542
1993.528, 4540.048
1995.457, 4554.286
1997.385, 4564.762
1999.314, 4571.673
2001.242, 4576.831
2003.171, 4581.181
2005.099, 4582.293
2007.027, 4579.596
2008.956, 4573.550
2010.884, 4562.895
2012.813, 4549.402
2014.741, 4535.149
2016.670, 4518.034
2018.598, 4494.453
2020.527, 4465.351
2022.455, 4435.729
2024.384, 4406.539
2026.312, 4376.402
2028.241, 4346.078
2030.169, 4313.948
2032.098, 4277.829
2034.026, 4241.778
2035.954, 4207.533
2037.883, 4172.630
2039.811, 4133.884
2041.740, 4093.875
2043.668, 4057.922
2045.597, 4025.432
2047.525, 3992.054
2049.454, 3958.154
2051.382, 3923.010
2053.311, 3885.609
2055.239, 3849.329
2057.167, 3813.065
2059.096, 3779.712
2061.024, 3752.468
2062.953, 3725.762
2064.881, 3694.761
2066.810, 3661.203
2068.738, 3627.154
2070.667, 3593.109
2072.595, 3564.482
2074.524, 3542.990
2076.452, 3515.160
2078.381, 3477.016
2080.309, 3443.945
2082.238, 3421.319
2084.166, 3400.927
2086.095, 3378.293
2088.023, 3358.039
2089.952, 3344.536
2091.880, 3333.795
2093.809, 3320.165
2095.737, 3304.368
2097.666, 3289.697
2099.594, 3275.602
2101.522, 3264.699
2103.451, 3261.028
2105.379, 3253.276
2107.308, 3239.853
2109.236, 3226.271
2111.165, 3212.654
2113.093, 3201.568
2115.022, 3196.876
2116.950, 3192.942
2118.879, 3181.533
2120.807, 3168.730
2122.736, 3167.839
2124.664, 3175.490
2126.593, 3176.758
2128.521, 3170.629
2130.449, 3169.357
2132.378, 3176.688
2134.306, 3179.803
2136.235, 3173.610
2138.163, 3167.226
2140.092, 3161.426
2142.020, 3158.501
2143.949, 3162.484
2145.877, 3167.554
2147.806, 3168.502
2149.734, 3166.040
2151.663, 3159.700
2153.591, 3150.529
2155.520, 3148.330
2157.448, 3153.383
2159.376, 3154.208
2161.305, 3149.618
2163.233, 3141.619
2165.162, 3127.297
2167.090, 3117.434
2169.019, 3117.399
2170.947, 3120.745
2172.876, 3126.663
2174.804, 3132.199
2176.733, 3134.962
2178.661, 3135.220
2180.590, 3132.859
2182.518, 3128.228
2184.447, 3122.677
2186.375, 3116.119
2188.303, 3113.864
2190.232, 3116.724
2192.160, 3120.964
2194.089, 3127.969
2196.017, 3130.467
2197.946, 3122.912
2199.874, 3117.340
2201.803, 3120.533
2203.731, 3124.357
2205.660, 3123.822
2207.588, 3121.609
2209.517, 3119.885
2211.445, 3118.951
2213.374, 3119.633
2215.302, 3121.736
2217.230, 3123.596
2219.159, 3125.190
2221.087, 3125.808
2223.016, 3124.870
2224.944, 3125.440
2226.873, 3128.420
2228.801, 3129.606
2230.730, 3126.504
2232.658, 3123.710
2234.587, 3124.251
2236.515, 3124.289
2238.444, 3121.994
2240.372, 3118.766
2242.301, 3115.963
2244.229, 3113.209
2246.157, 3108.808
2248.086, 3104.039
2250.014, 3102.711
2251.943, 3104.630
2253.871, 3110.463
2255.800, 3120.198
2257.728, 3124.413
2259.657, 3120.816
2261.585, 3116.967
2263.514, 3110.930
2265.442, 3110.297
2267.371, 3121.802
2269.299, 3131.488
2271.228, 3133.993
2273.156, 3134.324
2275.084, 3134.694
2277.013, 3134.682
2278.941, 3133.568
2280.870, 3131.957
2282.798, 3130.210
2284.727, 3128.940
2286.655, 3130.469
2288.584, 3134.329
2290.512, 3135.672
2292.441, 3134.209
2294.369, 3133.485
2296.298, 3132.810
2298.226, 3134.364
2300.155, 3140.444
2302.083, 3142.282
2304.011, 3134.907
2305.940, 3130.777
2307.868, 3135.906
2309.797, 3141.083
2311.725, 3142.588
2313.654, 3141.997
2315.582, 3137.397
2317.511, 3134.328
2319.439, 3138.817
2321.368, 3148.093
2323.296, 3161.421
2325.225, 3174.805
2327.153, 3174.512
2329.082, 3162.532
2331.010, 3155.083
2332.938, 3152.040
2334.867, 3148.795
2336.795, 3145.129
2338.724, 3143.323
2340.652, 3146.169
2342.581, 3144.306
2344.509, 3129.281
2346.438, 3121.674
2348.366, 3128.682
2350.295, 3137.105
2352.223, 3145.790
2354.152, 3150.547
2356.080, 3147.380
2358.009, 3142.075
2359.937, 3135.877
2361.865, 3132.262
2363.794, 3137.142
2365.722, 3145.065
2367.651, 3149.465
2369.579, 3150.220
2371.508, 3144.104
2373.436, 3133.626
2375.365, 3133.396
2377.293, 3142.719
2379.222, 3148.236
2381.150, 3149.607
2383.079, 3153.793
2385.007, 3161.681
2386.936, 3168.614
2388.864, 3173.753
2390.792, 3177.817
2392.721, 3182.050
2394.649, 3182.852
2396.578, 3175.353
2398.506, 3171.138
2400.435, 3175.992
2402.363, 3180.394
2404.292, 3178.457
2406.220, 3177.929
2408.149, 3186.022
2410.077, 3194.861
2412.006, 3198.284
2413.934, 3198.635
2415.863, 3196.052
2417.791, 3193.689
2419.719, 3197.960
2421.648, 3205.759
2423.576, 3209.364
2425.505, 3210.231
2427.433, 3212.690
2429.362, 3216.930
2431.290, 3225.420
2433.219, 3238.875
2435.147, 3239.121
2437.076, 3220.218
2439.004, 3215.412
2440.933, 3230.818
2442.861, 3234.738
2444.790, 3221.045
2446.718, 3213.157
2448.646, 3216.607
2450.575, 3220.263
2452.503, 3221.510
2454.432, 3222.307
2456.360, 3222.846
2458.289, 3223.569
2460.217, 3225.314
2462.146, 3226.364
2464.074, 3225.536
2466.003, 3224.374
2467.931, 3224.041
2469.860, 3223.235
2471.788, 3220.544
2473.717, 3217.415
2475.645, 3212.840
2477.573, 3210.646
2479.502, 3218.882
2481.430, 3230.313
2483.359, 3232.806
2485.287, 3229.748
2487.216, 3226.180
2489.144, 3224.056
2491.073, 3231.309
2493.001, 3244.737
2494.930, 3249.290
2496.858, 3245.486
2498.787, 3240.195
2500.715, 3232.950
2502.644, 3229.225
2504.572, 3228.858
2506.500, 3233.116
2508.429, 3242.629
2510.357, 3244.577
2512.286, 3235.289
2514.214, 3230.350
2516.143, 3235.550
2518.071, 3237.309
2520.000, 3232.747
2521.928, 3232.025
2523.857, 3237.875
2525.785, 3243.011
2527.714, 3245.779
2529.642, 3247.425
2531.571, 3247.646
2533.499, 3247.648
2535.427, 3247.895
2537.356, 3247.505
2539.284, 3246.276
2541.213, 3244.039
2543.141, 3238.504
2545.070, 3235.848
2546.998, 3242.330
2548.927, 3249.272
2550.855, 3250.818
2552.784, 3251.745
2554.712, 3255.896
2556.641, 3260.404
2558.569, 3261.630
2560.498, 3262.891
2562.426, 3268.567
2564.354, 3274.312
2566.283, 3274.521
2568.211, 3273.145
2570.140, 3275.383
2572.068, 3279.640
2573.997, 3285.177
2575.925, 3290.090
2577.854, 3288.234
2579.782, 3284.300
2581.711, 3288.850
2583.639, 3297.899
2585.568, 3301.921
2587.496, 3302.858
2589.425, 3307.906
2591.353, 3315.641
2593.281, 3320.941
2595.210, 3323.800
2597.138, 3322.141
2599.067, 3317.676
2600.995, 3318.172
2602.924, 3323.555
2604.852, 3330.022
2606.781, 3337.588
2608.709, 3346.820
2610.638, 3357.588
2612.566, 3360.639
2614.495, 3356.529
2616.423, 3361.896
2618.352, 3377.798
2620.280, 3385.630
2622.208, 3382.691
2624.137, 3387.276
2626.065, 3401.616
2627.994, 3409.833
2629.922, 3411.277
2631.851, 3410.782
2633.779, 3407.928
2635.708, 3412.387
2637.636, 3429.389
2639.565, 3436.818
2641.493, 3429.574
2643.422, 3430.543
2645.350, 3442.609
2647.279, 3450.924
2649.207, 3453.374
2651.135, 3456.619
2653.064, 3461.713
2654.992, 3466.378
2656.921, 3469.328
2658.849, 3473.374
2660.778, 3478.744
2662.706, 3483.430
2664.635, 3487.380
2666.563, 3489.903
2668.492, 3490.266
2670.420, 3491.866
2672.349, 3495.783
2674.277, 3500.316
2676.206, 3506.102
2678.134, 3510.289
2680.063, 3511.646
2681.991, 3515.855
2683.919, 3526.514
2685.848, 3533.743
2687.776, 3530.660
2689.705, 3535.189
2691.633, 3550.697
2693.562, 3564.850
2695.490, 3575.005
2697.419, 3586.242
2699.347, 3601.029
2701.276, 3612.459
2703.204, 3618.376
2705.133, 3622.423
2707.061, 3623.528
2708.990, 3627.187
2710.918, 3634.378
2712.846, 3644.271
2714.775, 3659.084
2716.703, 3671.426
2718.632, 3677.461
2720.560, 3689.437
2722.489, 3710.163
2724.417, 3727.749
2726.346, 3739.163
2728.274, 3752.633
2730.203, 3769.522
2732.131, 3787.400
2734.060, 3806.433
2735.988, 3825.632
2737.917, 3845.808
2739.845, 3861.257
2741.773, 3869.683
2743.702, 3884.464
2745.630, 3910.447
2747.559, 3933.610
2749.487, 3950.508
2751.416, 3979.064
2753.344, 4021.318
2755.273, 4063.150
2757.201, 4102.810
2759.130, 4145.144
2761.058, 4188.944
2762.987, 4241.144
2764.915, 4301.762
2766.844, 4368.492
2768.772, 4441.302
2770.700, 4525.687
2772.629, 4621.984
2774.557, 4733.385
2776.486, 4859.400
2778.414, 5002.722
2780.343, 5163.718
2782.271, 5355.763
2784.200, 5578.518
2786.128, 5828.938
2788.057, 6105.072
2789.985, 6399.345
2791.914, 6708.705
2793.842, 6996.339
2795.771, 7266.547
2797.699, 7535.613
2799.627, 7801.651
2801.556, 8063.990
2803.484, 8315.686
2805.413, 8534.673
2807.341, 8724.341
2809.270, 8896.146
2811.198, 9041.922
2813.127, 9145.715
2815.055, 9214.307
2816.984, 9255.180
2818.912, 9272.219
2820.841, 9269.340
2822.769, 9248.698
2824.698, 9215.267
2826.626, 9165.689
2828.554, 9089.504
2830.483, 9002.613
2832.411, 8923.086
2834.340, 8839.665
2836.268, 8742.047
2838.197, 8637.449
2840.125, 8526.807
2842.054, 8416.001
2843.982, 8313.730
2845.911, 8205.397
2847.839, 8078.302
2849.768, 7952.118
2851.696, 7834.694
2853.625, 7722.536
2855.553, 7614.164
2857.481, 7510.751
2859.410, 7408.770
2861.338, 7318.549
2863.267, 7242.646
2865.195, 7174.985
2867.124, 7118.701
2869.052, 7060.188
2870.981, 6991.462
2872.909, 6942.152
2874.838, 6918.737
2876.766, 6890.452
2878.695, 6851.625
2880.623, 6819.938
2882.552, 6795.316
2884.480, 6781.046
2886.408, 6776.620
2888.337, 6769.408
2890.265, 6759.557
2892.194, 6752.244
2894.122, 6748.608
2896.051, 6753.359
2897.979, 6766.974
2899.908, 6790.672
2901.836, 6823.885
2903.765, 6863.304
2905.693, 6910.941
2907.622, 6969.690
2909.550, 7040.705
2911.479, 7129.706
2913.407, 7228.202
2915.335, 7326.028
2917.264, 7430.167
2919.192, 7548.178
2921.121, 7673.954
2923.049, 7802.046
2924.978, 7939.255
2926.906, 8091.522
2928.835, 8250.057
2930.763, 8405.983
2932.692, 8575.431
2934.620, 8763.857
2936.549, 8963.151
2938.477, 9172.683
2940.406, 9390.029
2942.334, 9615.137
2944.262, 9849.526
2946.191, 10094.08
2948.119, 10346.67
2950.048, 10606.83
2951.976, 10889.03
2953.905, 11194.56
2955.833, 11499.01
2957.762, 11802.53
2959.690, 12127.44
2961.619, 12469.83
2963.547, 12812.28
2965.476, 13162.51
2967.404, 13534.84
2969.333, 13931.26
2971.261, 14351.25
2973.189, 14797.23
2975.118, 15272.17
2977.046, 15766.76
2978.975, 16266.24
2980.903, 16792.98
2982.832, 17363.15
2984.760, 17966.95
2986.689, 18592.77
2988.617, 19265.46
2990.546, 19996.74
2992.474, 20772.76
2994.403, 21583.99
2996.331, 22455.88
2998.260, 23397.63
3000.188, 24396.52
3002.116, 25446.92
3004.045, 26583.89
3005.973, 27810.60
3007.902, 29135.09
3009.830, 30552.68
3011.759, 32018.59
3013.687, 33531.95
3015.616, 35121.13
3017.544, 36762.05
3019.473, 38416.41
3021.401, 40098.04
3023.330, 41850.77
3025.258, 43612.84
3027.187, 45376.79
3029.115, 47053.16
3031.043, 48598.07
3032.972, 50031.25
3034.900, 51391.27
3036.829, 52594.55
3038.757, 53623.71
3040.686, 54526.11
3042.614, 55320.63
3044.543, 55947.79
3046.471, 56397.66
3048.400, 56667.15
3050.328, 56751.16
3052.257, 56606.97
3054.185, 56228.86
3056.114, 55645.24
3058.042, 54875.55
3059.970, 53954.22
3061.899, 52910.89
3063.827, 51772.60
3065.756, 50579.31
3067.684, 49338.52
3069.613, 48104.07
3071.541, 46903.45
3073.470, 45754.34
3075.398, 44679.34
3077.327, 43632.07
3079.255, 42583.11
3081.184, 41596.91
3083.112, 40678.59
3085.041, 39833.39
3086.969, 39062.88
3088.897, 38308.66
3090.826, 37560.06
3092.754, 36875.91
3094.683, 36250.85
3096.611, 35684.71
3098.540, 35167.37
3100.468, 34669.07
3102.397, 34226.12
3104.325, 33893.77
3106.254, 33637.25
3108.182, 33446.45
3110.111, 33297.16
3112.039, 33176.80
3113.968, 33094.10
3115.896, 33054.06
3117.824, 33037.25
3119.753, 33051.79
3121.681, 33041.91
3123.610, 32999.46
3125.538, 32970.88
3127.467, 32955.13
3129.395, 32939.96
3131.324, 32925.20
3133.252, 32928.80
3135.181, 32919.64
3137.109, 32842.02
3139.038, 32724.95
3140.966, 32620.80
3142.895, 32449.57
3144.823, 32154.02
3146.751, 31790.40
3148.680, 31367.83
3150.608, 30904.71
3152.537, 30409.81
3154.465, 29856.90
3156.394, 29242.32
3158.322, 28625.83
3160.251, 28011.93
3162.179, 27436.71
3164.108, 26878.79
3166.036, 26259.09
3167.965, 25620.03
3169.893, 25028.18
3171.822, 24450.67
3173.750, 23847.47
3175.678, 23265.64
3177.607, 22733.12
3179.535, 22214.79
3181.464, 21698.80
3183.392, 21198.21
3185.321, 20713.47
3187.249, 20245.89
3189.178, 19795.88
3191.106, 19368.60
3193.035, 18958.78
3194.963, 18541.52
3196.892, 18132.83
3198.820, 17766.25
3200.749, 17418.93
3202.677, 17065.10
3204.605, 16729.99
3206.534, 16430.54
3208.462, 16139.82
3210.391, 15839.84
3212.319, 15557.39
3214.248, 15294.30
3216.176, 15020.76
3218.105, 14733.10
3220.033, 14450.69
3221.962, 14174.28
3223.890, 13910.84
3225.819, 13649.27
3227.747, 13364.70
3229.676, 13082.08
3231.604, 12822.04
3233.532, 12572.98
3235.461, 12334.27
3237.389, 12089.45
3239.318, 11819.60
3241.246, 11577.69
3243.175, 11366.69
3245.103, 11141.69
3247.032, 10906.14
3248.960, 10698.71
3250.889, 10511.81
3252.817, 10332.37
3254.746, 10156.85
3256.674, 9974.343
3258.603, 9805.094
3260.531, 9662.578
3262.459, 9531.897
3264.388, 9409.451
3266.316, 9295.416
3268.245, 9188.801
3270.173, 9093.822
3272.102, 9008.124
3274.030, 8911.736
3275.959, 8812.623
3277.887, 8736.856
3279.816, 8664.445
3281.744, 8573.205
3283.673, 8474.954
3285.601, 8368.568
3287.530, 8271.494
3289.458, 8188.981
3291.386, 8107.664
3293.315, 8025.361
3295.243, 7942.568
3297.172, 7858.617
3299.100, 7768.603
3301.029, 7673.893
3302.957, 7572.034
3304.886, 7474.495
3306.814, 7402.192
3308.743, 7325.667
3310.671, 7227.626
3312.600, 7128.213
3314.528, 7029.444
3316.457, 6940.240
3318.385, 6860.397
3320.313, 6765.873
3322.242, 6659.999
3324.170, 6556.729
3326.099, 6460.925
3328.027, 6387.101
3329.956, 6312.451
3331.884, 6215.415
3333.813, 6121.708
3335.741, 6037.942
3337.670, 5958.068
3339.598, 5879.456
3341.527, 5808.762
3343.455, 5744.784
3345.384, 5682.853
3347.312, 5622.817
3349.240, 5562.861
3351.169, 5507.882
3353.097, 5460.595
3355.026, 5420.178
3356.954, 5390.140
3358.883, 5356.958
3360.811, 5318.543
3362.740, 5278.997
3364.668, 5237.927
3366.597, 5187.815
3368.525, 5131.668
3370.454, 5077.277
3372.382, 5019.478
3374.311, 4947.601
3376.239, 4882.164
3378.167, 4835.612
3380.096, 4778.517
3382.024, 4696.103
3383.953, 4634.247
3385.881, 4590.212
3387.810, 4549.772
3389.738, 4505.306
3391.667, 4432.737
3393.595, 4362.000
3395.524, 4319.582
3397.452, 4280.140
3399.381, 4235.593
3401.309, 4185.235
3403.238, 4128.726
3405.166, 4075.549
3407.094, 4027.935
3409.023, 3998.634
3410.951, 3977.800
3412.880, 3954.667
3414.808, 3924.707
3416.737, 3875.960
3418.665, 3835.458
3420.594, 3810.438
3422.522, 3789.950
3424.451, 3773.322
3426.379, 3750.984
3428.308, 3727.121
3430.236, 3714.904
3432.165, 3704.848
3434.093, 3681.282
3436.021, 3663.824
3437.950, 3663.389
3439.878, 3664.198
3441.807, 3665.259
3443.735, 3649.824
3445.664, 3621.767
3447.592, 3607.169
3449.521, 3600.531
3451.449, 3594.089
3453.378, 3588.928
3455.306, 3589.385
3457.235, 3585.148
3459.163, 3573.226
3461.092, 3562.889
3463.020, 3554.582
3464.948, 3539.570
3466.877, 3523.222
3468.805, 3523.634
3470.734, 3525.767
3472.662, 3517.188
3474.591, 3505.417
3476.519, 3490.508
3478.448, 3486.729
3480.376, 3497.473
3482.305, 3505.145
3484.233, 3508.382
3486.162, 3500.895
3488.090, 3491.225
3490.019, 3489.476
3491.947, 3487.691
3493.875, 3483.067
3495.804, 3478.933
3497.732, 3475.971
3499.661, 3475.376
3501.589, 3475.891
3503.518, 3471.266
3505.446, 3467.122
3507.375, 3472.268
3509.303, 3476.012
3511.232, 3472.173
3513.160, 3469.367
3515.089, 3468.652
3517.017, 3467.857
3518.946, 3465.240
3520.874, 3450.266
3522.802, 3435.651
3524.731, 3438.227
3526.659, 3439.216
3528.588, 3428.369
3530.516, 3419.529
3532.445, 3414.064
3534.373, 3408.426
3536.302, 3402.489
3538.230, 3394.396
3540.159, 3387.959
3542.087, 3391.194
3544.016, 3387.606
3545.944, 3370.390
3547.873, 3355.157
3549.801, 3344.114
3551.729, 3340.427
3553.658, 3341.153
3555.586, 3341.770
3557.515, 3338.842
3559.443, 3323.378
3561.372, 3315.768
3563.300, 3322.856
3565.229, 3322.296
3567.157, 3313.220
3569.086, 3306.407
3571.014, 3301.521
3572.943, 3300.068
3574.871, 3297.827
3576.800, 3292.075
3578.728, 3288.417
3580.656, 3287.818
3582.585, 3293.242
3584.513, 3300.867
3586.442, 3297.125
3588.370, 3290.013
3590.299, 3288.878
3592.227, 3287.053
3594.156, 3282.775
3596.084, 3275.810
3598.013, 3266.744
3599.941, 3263.425
3601.870, 3261.636
3603.798, 3249.930
3605.727, 3241.349
3607.655, 3244.458
3609.583, 3251.941
3611.512, 3264.839
3613.440, 3259.903
3615.369, 3243.624
3617.297, 3242.687
3619.226, 3247.153
3621.154, 3247.989
3623.083, 3246.782
3625.011, 3242.342
3626.940, 3241.021
3628.868, 3242.487
3630.797, 3240.886
3632.725, 3238.135
3634.654, 3238.474
3636.582, 3237.226
3638.510, 3229.261
3640.439, 3225.186
3642.367, 3225.862
3644.296, 3223.126
3646.224, 3218.687
3648.153, 3218.442
3650.081, 3217.931
3652.010, 3213.428
3653.938, 3208.827
3655.867, 3204.787
3657.795, 3203.395
3659.724, 3204.183
3661.652, 3204.356
3663.581, 3205.450
3665.509, 3210.772
3667.438, 3212.699
3669.366, 3208.453
3671.294, 3203.622
3673.223, 3198.734
3675.151, 3191.641
3677.080, 3186.954
3679.008, 3192.998
3680.937, 3197.156
3682.865, 3192.720
3684.794, 3189.866
3686.722, 3189.030
3688.651, 3188.858
3690.579, 3187.325
3692.508, 3176.880
3694.436, 3172.588
3696.365, 3189.096
3698.293, 3193.342
3700.221, 3184.215
3702.150, 3181.211
3704.078, 3180.847
3706.007, 3174.990
3707.935, 3171.658
3709.864, 3179.265
3711.792, 3179.609
3713.721, 3172.350
3715.649, 3169.661
3717.578, 3170.967
3719.506, 3178.260
3721.435, 3182.266
3723.363, 3174.397
3725.292, 3169.100
3727.220, 3167.374
3729.148, 3174.128
3731.077, 3181.281
3733.005, 3172.721
3734.934, 3162.376
3736.862, 3157.717
3738.791, 3152.102
3740.719, 3146.480
3742.648, 3154.515
3744.576, 3164.385
3746.505, 3151.854
3748.433, 3141.634
3750.362, 3146.623
3752.290, 3154.252
3754.219, 3162.147
3756.147, 3159.138
3758.075, 3151.953
3760.004, 3149.437
3761.932, 3147.751
3763.861, 3144.740
3765.789, 3148.059
3767.718, 3155.090
3769.646, 3147.952
3771.575, 3137.723
3773.503, 3134.167
3775.432, 3136.747
3777.360, 3149.487
3779.289, 3148.273
3781.217, 3137.342
3783.146, 3132.169
3785.074, 3131.783
3787.002, 3136.947
3788.931, 3141.990
3790.859, 3146.699
3792.788, 3142.209
3794.716, 3133.242
3796.645, 3131.196
3798.573, 3128.967
3800.502, 3121.368
3802.430, 3119.613
3804.359, 3125.304
3806.287, 3116.736
3808.216, 3105.956
3810.144, 3113.875
3812.073, 3120.895
3814.001, 3119.694
3815.929, 3115.638
3817.858, 3110.172
3819.786, 3107.782
3821.715, 3107.418
3823.643, 3110.360
3825.572, 3111.541
3827.500, 3110.183
3829.429, 3097.959
3831.357, 3082.912
3833.286, 3087.842
3835.214, 3096.750
3837.143, 3101.511
3839.071, 3103.337
3841.000, 3102.177
3842.928, 3094.667
3844.856, 3085.682
3846.785, 3080.895
3848.713, 3078.343
3850.642, 3077.600
3852.570, 3073.653
3854.499, 3069.505
3856.427, 3084.724
3858.356, 3094.397
3860.284, 3071.306
3862.213, 3061.338
3864.141, 3068.471
3866.070, 3070.061
3867.998, 3067.503
3869.927, 3061.932
3871.855, 3058.008
3873.783, 3057.879
3875.712, 3061.206
3877.640, 3065.220
3879.569, 3059.573
3881.497, 3052.000
3883.426, 3048.078
3885.354, 3042.143
3887.283, 3033.417
3889.211, 3039.637
3891.140, 3049.288
3893.068, 3045.316
3894.997, 3039.396
3896.925, 3034.425
3898.854, 3031.326
3900.782, 3031.083
3902.710, 3041.058
3904.639, 3046.999
3906.567, 3036.972
3908.496, 3036.054
3910.424, 3045.726
3912.353, 3045.213
3914.281, 3039.430
3916.210, 3031.113
3918.138, 3026.801
3920.067, 3027.999
3921.995, 3025.939
3923.924, 3023.769
3925.852, 3031.480
3927.781, 3035.182
3929.709, 3025.512
3931.637, 3019.492
3933.566, 3017.696
3935.494, 3023.409
3937.423, 3024.821
3939.351, 3009.349
3941.280, 3005.459
3943.208, 3014.542
3945.137, 3018.668
3947.065, 3018.807
3948.994, 3014.399
3950.922, 3010.051
3952.851, 3006.500
3954.779, 3007.324
3956.708, 3010.896
3958.636, 3016.332
3960.564, 3018.141
3962.493, 3014.284
3964.421, 3008.734
3966.350, 3002.981
3968.278, 3001.557
3970.207, 2999.965
3972.135, 2995.513
3974.064, 2991.226
3975.992, 2988.090
3977.921, 2991.872
3979.849, 2993.391
3981.778, 2982.752
3983.706, 2973.713
3985.635, 2968.082
3987.563, 2970.302
3989.491, 2972.878
3991.420, 2965.900
3993.348, 2963.219
3995.277, 2968.631
3997.205, 2974.071
3999.134, 2976.170
4001.062, 2964.516
4002.991, 2960.587
4004.919, 2971.698
4006.848, 2973.528
4008.776, 2969.224
4010.705, 2963.503
4012.633, 2962.281
4014.562, 2968.153
4016.490, 2965.564
4018.418, 2958.187
4020.347, 2959.099
4022.275, 2958.756
4024.204, 2949.801
4026.132, 2951.548
4028.061, 2959.655
4029.989, 2957.283
4031.918, 2952.069
4033.846, 2947.262
4035.775, 2944.319
4037.703, 2943.617
4039.632, 2949.609
4041.560, 2952.280
4043.489, 2944.274
4045.417, 2939.348
4047.345, 2937.886
4049.274, 2930.524
4051.202, 2925.216
4053.131, 2930.548
4055.059, 2933.503
4056.988, 2932.390
4058.916, 2919.927
4060.845, 2911.891
4062.773, 2925.489
4064.702, 2932.429
4066.630, 2931.410
4068.559, 2932.679
4070.487, 2930.488
4072.416, 2917.247
4074.344, 2915.357
4076.272, 2924.928
4078.201, 2918.930
4080.129, 2909.330
4082.058, 2903.730
4083.986, 2904.153
4085.915, 2909.746
4087.843, 2912.067
4089.772, 2912.599
4091.700, 2912.909
4093.629, 2908.699
4095.557, 2901.127
4097.486, 2900.324
4099.414, 2900.257
4101.343, 2896.618
4103.271, 2892.779
4105.200, 2889.117
4107.128, 2883.305
4109.057, 2881.815
4110.985, 2891.048
4112.914, 2890.593
4114.842, 2881.792
4116.771, 2877.887
4118.699, 2877.559
4120.627, 2881.615
4122.556, 2880.868
4124.484, 2877.816
4126.413, 2886.560
4128.341, 2893.385
4130.270, 2888.640
4132.198, 2885.727
4134.126, 2884.840
4136.055, 2884.896
4137.983, 2888.722
4139.912, 2899.189
4141.840, 2895.607
4143.769, 2885.894
4145.697, 2887.763
4147.626, 2888.613
4149.554, 2884.910
4151.483, 2877.521
4153.411, 2873.676
4155.340, 2888.946
4157.268, 2896.334
4159.197, 2890.575
4161.125, 2888.591
4163.054, 2888.162
4164.982, 2888.315
4166.911, 2881.066
4168.839, 2866.762
4170.768, 2877.479
4172.696, 2890.489
4174.625, 2884.434
4176.553, 2885.464
4178.481, 2893.362
4180.410, 2894.229
4182.338, 2892.397
4184.267, 2890.555
4186.195, 2884.958
4188.124, 2877.880
4190.052, 2876.243
4191.980, 2874.945
4193.909, 2872.050
4195.837, 2870.491
4197.766, 2869.651
4199.694, 2868.746
4201.623, 2866.761
4203.551, 2863.342
4205.480, 2854.935
4207.408, 2849.069
4209.337, 2853.892
4211.265, 2861.271
4213.194, 2868.675
4215.122, 2871.825
4217.051, 2869.328
4218.979, 2859.455
4220.908, 2856.684
4222.836, 2858.123
4224.765, 2847.639
4226.693, 2845.562
4228.622, 2858.681
4230.550, 2859.382
4232.479, 2854.416
4234.407, 2856.042
4236.335, 2851.323
4238.264, 2840.260
##END=



