##NAMES=Sassolite
##RRUFFID=R060496
##IDEAL CHEMISTRY=B(OH)_3_
##LOCALITY=Upper Biddy mine, near Ryan, Death Valley, Inyo County, California, USA
##OWNER=RRUFF
##SOURCE=Michael Scott
##DESCRIPTION=Colorless thin pseudohexagonal single crystals
##STATUS=The identification of this mineral has been confirmed by single-crystal X-ray diffraction
##URL=https://www.rruff.net/odr/rruff_sample/R060496
##DIFFRACTION SAMPLE DESCRIPTION=Single crystal, powder profile is calculated
##CELL PARAMETERS=a: 7.011 b: 7.024 c: 6.564 alpha: 92.57 beta: 101.08 gamma: 119.87 volume: 271.3 crystal system: triclinic
##FILETYPE=Raman RAW
##RAMAN WAVELENGTH=532

179.3953, 379913.6
181.3237, 382752.0
183.2522, 385233.9
185.1807, 387461.3
187.1091, 389437.7
189.0376, 391232.7
190.9661, 392964.7
192.8945, 394660.2
194.8230, 396265.8
196.7515, 397913.0
198.6799, 399834.2
200.6084, 402055.3
202.5369, 404491.9
204.4653, 407101.7
206.3938, 409794.0
208.3223, 412690.4
210.2507, 416110.6
212.1792, 419933.8
214.1077, 423015.8
216.0361, 425784.7
217.9646, 427652.2
219.8931, 427969.6
221.8215, 426397.0
223.7500, 424691.1
225.6785, 423189.8
227.6069, 421891.4
229.5354, 420863.7
231.4639, 420136.1
233.3923, 419649.1
235.3208, 419361.0
237.2493, 419368.3
239.1777, 419489.8
241.1062, 419701.2
243.0347, 420051.3
244.9631, 420571.5
246.8916, 421288.3
248.8201, 422198.6
250.7485, 423271.7
252.6770, 424580.6
254.6055, 425933.1
256.5339, 427275.8
258.4624, 428601.1
260.3909, 429948.3
262.3193, 431350.0
264.2478, 432723.3
266.1763, 434010.3
268.1047, 435195.3
270.0332, 436305.7
271.9617, 437326.9
273.8901, 438278.6
275.8186, 439194.7
277.7471, 440107.8
279.6755, 441003.9
281.6040, 441875.4
283.5325, 442746.9
285.4609, 443637.2
287.3894, 444552.9
289.3179, 445503.3
291.2463, 446541.8
293.1748, 447676.8
295.1033, 448856.1
297.0317, 450021.5
298.9602, 451121.7
300.8887, 452262.6
302.8171, 453485.1
304.7456, 454748.8
306.6741, 455927.7
308.6025, 456976.1
310.5310, 457991.0
312.4595, 459032.3
314.3879, 460109.8
316.3164, 461166.7
318.2449, 462184.3
320.1733, 463173.4
322.1018, 464174.4
324.0303, 465262.6
325.9587, 466290.7
327.8872, 467185.0
329.8157, 467920.1
331.7441, 468835.5
333.6726, 470020.1
335.6011, 471408.6
337.5295, 472885.1
339.4580, 474436.8
341.3865, 476018.6
343.3149, 477566.8
345.2434, 479011.3
347.1719, 480474.1
349.1003, 482081.4
351.0288, 483569.3
352.9573, 484709.7
354.8857, 485441.3
356.8142, 486105.3
358.7427, 486839.2
360.6711, 487678.7
362.5996, 488590.3
364.5281, 489605.2
366.4565, 490692.7
368.3850, 491820.6
370.3135, 492960.8
372.2419, 494137.1
374.1704, 495344.8
376.0989, 496569.9
378.0273, 497791.1
379.9558, 498996.3
381.8843, 500245.1
383.8127, 501565.1
385.7412, 502967.2
387.6697, 504486.1
389.5981, 506153.8
391.5266, 507880.9
393.4551, 509516.4
395.3835, 510977.6
397.3120, 512364.6
399.2405, 513694.9
401.1689, 514952.7
403.0974, 516006.7
405.0259, 516781.1
406.9543, 517436.3
408.8828, 518126.3
410.8113, 518931.1
412.7397, 519674.8
414.6682, 520342.4
416.5967, 520999.9
418.5251, 521771.4
420.4536, 522644.9
422.3821, 523666.3
424.3105, 524876.1
426.2390, 526251.4
428.1675, 527688.7
430.0959, 529132.1
432.0244, 530596.4
433.9529, 532111.1
435.8813, 533700.9
437.8098, 535247.6
439.7383, 536683.7
441.6667, 538041.9
443.5952, 539440.7
445.5237, 540922.2
447.4521, 542402.0
449.3806, 543812.1
451.3091, 545119.8
453.2375, 546542.3
455.1660, 548071.1
457.0945, 549757.8
459.0229, 551673.9
460.9514, 554261.8
462.8799, 556633.9
464.8083, 558651.2
466.7368, 560321.4
468.6653, 561759.4
470.5938, 562901.4
472.5222, 563874.1
474.4507, 564736.1
476.3792, 565349.9
478.3076, 566200.9
480.2361, 567237.0
482.1646, 568596.8
484.0930, 570380.8
486.0215, 572678.6
487.9500, 575215.5
489.8784, 577857.8
491.8069, 580577.7
493.7354, 583398.1
495.6638, 585710.3
497.5923, 588551.8
499.5208, 592907.6
501.4492, 599124.9
503.3777, 604187.9
505.3062, 608262.5
507.2346, 610871.4
509.1631, 610781.7
511.0916, 606593.9
513.0200, 602644.5
514.9485, 600107.7
516.8770, 598702.5
518.8054, 597822.9
520.7339, 597611.2
522.6624, 597759.9
524.5908, 598172.9
526.5193, 598821.2
528.4478, 599665.8
530.3762, 600785.4
532.3047, 601936.6
534.2332, 602907.6
536.1616, 603569.3
538.0901, 604180.5
540.0186, 604905.6
541.9470, 605669.6
543.8755, 606241.5
545.8040, 606645.3
547.7324, 607100.0
549.6609, 607734.3
551.5894, 608604.6
553.5178, 609682.6
555.4463, 610941.1
557.3748, 612353.6
559.3032, 613853.6
561.2317, 615344.4
563.1602, 616903.9
565.0886, 618564.9
567.0171, 620188.1
568.9456, 621629.9
570.8740, 622728.4
572.8025, 623828.1
574.7310, 625076.6
576.6594, 626425.6
578.5879, 627674.9
580.5164, 628804.8
582.4448, 629920.2
584.3733, 631045.6
586.3018, 632166.3
588.2302, 633375.9
590.1587, 634649.4
592.0872, 636001.9
594.0156, 637475.1
595.9441, 639085.3
597.8726, 640611.1
599.8010, 641938.1
601.7295, 643166.1
603.6580, 644424.6
605.5864, 645759.4
607.5149, 647044.1
609.4434, 648204.3
611.3718, 649302.9
613.3003, 650482.6
615.2288, 651881.1
617.1572, 653220.1
619.0857, 654384.2
621.0142, 655375.8
622.9426, 656493.9
624.8711, 657796.7
626.7996, 659176.1
628.7280, 660579.4
630.6565, 662003.6
632.5850, 663456.6
634.5134, 664993.8
636.4419, 666523.8
638.3704, 667955.2
640.2988, 669251.6
642.2273, 670474.9
644.1558, 671586.3
646.0842, 672600.7
648.0127, 673547.9
649.9412, 674425.7
651.8696, 675215.1
653.7981, 675884.5
655.7266, 676496.9
657.6550, 677258.4
659.5835, 678355.6
661.5120, 679523.4
663.4404, 680671.6
665.3689, 681863.9
667.2974, 683339.6
669.2258, 685194.6
671.1543, 687242.5
673.0828, 689342.9
675.0112, 691405.5
676.9397, 693558.7
678.8682, 695898.1
680.7966, 697989.9
682.7251, 699582.9
684.6536, 700578.9
686.5820, 701295.4
688.5105, 701855.6
690.4390, 702263.9
692.3674, 702525.3
694.2959, 702723.8
696.2244, 702940.9
698.1528, 703213.1
700.0813, 703625.4
702.0098, 704258.9
703.9382, 705228.8
705.8667, 706270.9
707.7952, 707252.7
709.7236, 708249.9
711.6521, 709489.0
713.5806, 710989.9
715.5090, 712623.3
717.4375, 714350.7
719.3660, 716136.9
721.2944, 717927.1
723.2229, 719662.4
725.1514, 721356.8
727.0798, 722998.3
729.0083, 724552.2
730.9368, 725994.6
732.8652, 727317.9
734.7937, 728521.0
736.7222, 729611.4
738.6506, 730609.9
740.5791, 731592.8
742.5076, 732650.6
744.4360, 733659.6
746.3645, 734531.4
748.2930, 735246.2
750.2214, 736027.3
752.1499, 736980.9
754.0784, 737979.6
756.0068, 738957.0
757.9353, 739926.1
759.8638, 741028.0
761.7922, 742305.4
763.7207, 743740.0
765.6492, 745321.8
767.5776, 747016.5
769.5061, 748784.9
771.4346, 750611.9
773.3630, 752345.9
775.2915, 753871.6
777.2200, 755108.7
779.1484, 756229.6
781.0769, 757324.8
783.0054, 758346.3
784.9338, 759227.0
786.8623, 759947.5
788.7908, 760820.9
790.7192, 762269.0
792.6477, 763764.5
794.5762, 764679.8
796.5046, 764727.3
798.4331, 765051.1
800.3616, 765915.1
802.2900, 767136.7
804.2185, 768504.2
806.1470, 770089.0
808.0754, 771713.1
810.0039, 773293.4
811.9324, 774898.2
813.8608, 776590.8
815.7893, 778330.3
817.7178, 780070.8
819.6462, 781787.3
821.5747, 783428.0
823.5032, 784933.1
825.4316, 786292.1
827.3601, 787560.7
829.2886, 788665.5
831.2170, 789804.1
833.1455, 791135.3
835.0740, 792579.4
837.0024, 794601.4
838.9309, 797516.1
840.8594, 800968.4
842.7878, 804482.2
844.7163, 808099.5
846.6448, 811684.0
848.5732, 815655.4
850.5017, 819391.5
852.4302, 822042.6
854.3586, 823428.8
856.2871, 824577.4
858.2156, 825202.4
860.1440, 826029.6
862.0725, 827949.1
864.0010, 831139.8
865.9294, 835251.4
867.8579, 840369.0
869.7864, 846266.2
871.7148, 852645.0
873.6433, 859383.4
875.5718, 866548.3
877.5002, 873540.7
879.4287, 881297.0
881.3572, 891443.1
883.2856, 907139.4
885.2141, 917857.4
887.1426, 924231.3
889.0710, 925143.9
890.9995, 917576.8
892.9280, 900175.7
894.8564, 884430.4
896.7849, 871792.0
898.7134, 861863.5
900.6418, 854266.0
902.5703, 849192.3
904.4988, 845347.6
906.4272, 842798.5
908.3557, 841025.5
910.2842, 839742.7
912.2126, 838920.1
914.1411, 838409.9
916.0696, 838385.3
917.9980, 838456.9
919.9265, 838486.2
921.8550, 838522.2
923.7834, 838566.4
925.7119, 838848.9
927.6404, 839158.4
929.5688, 839380.4
931.4973, 839578.9
933.4258, 840259.9
935.3542, 841486.8
937.2827, 843063.5
939.2112, 844951.5
941.1396, 847057.9
943.0681, 849210.8
944.9966, 851337.1
946.9250, 853372.8
948.8535, 855239.6
950.7820, 856914.0
952.7104, 858417.2
954.6389, 859624.6
956.5674, 860761.8
958.4958, 861926.0
960.4243, 863071.7
962.3528, 864130.5
964.2813, 865178.7
966.2097, 866242.8
968.1382, 867380.0
970.0667, 868627.1
971.9951, 869951.6
973.9236, 871247.0
975.8521, 872873.9
977.7805, 875071.2
979.7090, 877237.6
981.6375, 878830.5
983.5659, 879640.4
985.4944, 880442.6
987.4229, 881391.1
989.3513, 882203.3
991.2798, 882794.4
993.2083, 883253.8
995.1367, 883684.7
997.0652, 884197.6
998.9937, 884829.1
1000.922, 885525.4
1002.851, 886357.9
1004.779, 887636.9
1006.708, 889425.9
1008.636, 891339.0
1010.564, 893356.4
1012.493, 895264.9
1014.421, 896793.6
1016.350, 897845.8
1018.278, 898728.7
1020.207, 899527.6
1022.135, 900288.6
1024.064, 901069.6
1025.992, 901971.9
1027.921, 902924.1
1029.849, 903923.7
1031.778, 905049.6
1033.706, 906338.5
1035.635, 907765.8
1037.563, 909241.2
1039.491, 910612.1
1041.420, 912012.0
1043.348, 913557.4
1045.277, 915099.4
1047.205, 916240.4
1049.134, 916816.0
1051.062, 917311.4
1052.991, 917959.9
1054.919, 918765.4
1056.848, 919679.3
1058.776, 920849.9
1060.705, 922171.9
1062.633, 923624.0
1064.562, 925238.2
1066.490, 926970.4
1068.418, 928719.5
1070.347, 930569.6
1072.275, 932583.2
1074.204, 934415.6
1076.132, 935849.6
1078.061, 936878.3
1079.989, 937875.5
1081.918, 938955.4
1083.846, 939913.6
1085.775, 940747.0
1087.703, 941438.6
1089.632, 941926.6
1091.560, 942216.7
1093.489, 942423.5
1095.417, 942599.5
1097.345, 942820.9
1099.274, 943171.8
1101.202, 943715.6
1103.131, 944478.7
1105.059, 945387.6
1106.988, 946653.8
1108.916, 948455.4
1110.845, 950694.5
1112.773, 952668.0
1114.702, 953768.2
1116.630, 955087.8
1118.559, 957208.8
1120.487, 959499.3
1122.416, 960812.9
1124.344, 960985.3
1126.272, 961235.5
1128.201, 961890.1
1130.129, 962798.4
1132.058, 963938.4
1133.986, 965345.8
1135.915, 966622.3
1137.843, 967543.9
1139.772, 968541.8
1141.700, 969791.9
1143.629, 971214.1
1145.557, 972537.3
1147.486, 973603.5
1149.414, 974777.2
1151.343, 976058.8
1153.271, 977474.1
1155.199, 979097.2
1157.128, 980920.2
1159.056, 982716.4
1160.985, 984330.9
1162.913, 986086.8
1164.842, 988377.8
1166.770, 991076.7
1168.699, 993215.2
1170.627, 994412.4
1172.556, 995732.9
1174.484, 997519.9
1176.413, 999430.8
1178.341, 1000994.
1180.270, 1001992.
1182.198, 1002944.
1184.126, 1003659.
1186.055, 1004307.
1187.983, 1004966.
1189.912, 1005612.
1191.840, 1006241.
1193.769, 1007015.
1195.697, 1007673.
1197.626, 1008185.
1199.554, 1008745.
1201.483, 1009538.
1203.411, 1010631.
1205.340, 1012087.
1207.268, 1013863.
1209.197, 1015932.
1211.125, 1018265.
1213.053, 1020711.
1214.982, 1022886.
1216.910, 1024601.
1218.839, 1026010.
1220.767, 1027078.
1222.696, 1027864.
1224.624, 1028551.
1226.553, 1029263.
1228.481, 1029846.
1230.410, 1030314.
1232.338, 1030955.
1234.267, 1031869.
1236.195, 1033032.
1238.124, 1034378.
1240.052, 1035786.
1241.980, 1037370.
1243.909, 1039297.
1245.837, 1041150.
1247.766, 1042542.
1249.694, 1043429.
1251.623, 1044468.
1253.551, 1045799.
1255.480, 1047214.
1257.408, 1048708.
1259.337, 1050215.
1261.265, 1051587.
1263.194, 1052756.
1265.122, 1054000.
1267.051, 1055455.
1268.979, 1056906.
1270.907, 1058271.
1272.836, 1059576.
1274.764, 1060830.
1276.693, 1061963.
1278.621, 1063278.
1280.550, 1064912.
1282.478, 1066682.
1284.407, 1068425.
1286.335, 1070120.
1288.264, 1071673.
1290.192, 1072973.
1292.121, 1074232.
1294.049, 1075445.
1295.978, 1076671.
1297.906, 1078052.
1299.834, 1079625.
1301.763, 1081061.
1303.691, 1082275.
1305.620, 1083381.
1307.548, 1084391.
1309.477, 1085371.
1311.405, 1086486.
1313.334, 1087806.
1315.262, 1089177.
1317.191, 1090631.
1319.119, 1092119.
1321.048, 1093561.
1322.976, 1094933.
1324.905, 1096475.
1326.833, 1098286.
1328.761, 1100027.
1330.690, 1101628.
1332.618, 1103100.
1334.547, 1104446.
1336.475, 1105647.
1338.404, 1106937.
1340.332, 1108362.
1342.261, 1109890.
1344.189, 1111624.
1346.118, 1113409.
1348.046, 1114898.
1349.975, 1116005.
1351.903, 1117340.
1353.832, 1119167.
1355.760, 1121022.
1357.688, 1122727.
1359.617, 1124309.
1361.545, 1125800.
1363.474, 1127247.
1365.402, 1128497.
1367.331, 1129230.
1369.259, 1130015.
1371.188, 1131246.
1373.116, 1132815.
1375.045, 1134089.
1376.973, 1134815.
1378.902, 1135619.
1380.830, 1136645.
1382.759, 1137755.
1384.687, 1138839.
1386.615, 1139932.
1388.544, 1141216.
1390.472, 1142968.
1392.401, 1144427.
1394.329, 1145130.
1396.258, 1145679.
1398.186, 1146588.
1400.115, 1147769.
1402.043, 1148926.
1403.972, 1150034.
1405.900, 1151035.
1407.829, 1151891.
1409.757, 1152672.
1411.686, 1153445.
1413.614, 1154262.
1415.542, 1155211.
1417.471, 1156344.
1419.399, 1157623.
1421.328, 1159041.
1423.256, 1160454.
1425.185, 1161650.
1427.113, 1162492.
1429.042, 1163397.
1430.970, 1164539.
1432.899, 1165440.
1434.827, 1166276.
1436.756, 1166870.
1438.684, 1166955.
1440.613, 1166594.
1442.541, 1166798.
1444.469, 1167654.
1446.398, 1169034.
1448.326, 1170929.
1450.255, 1173156.
1452.183, 1175526.
1454.112, 1177901.
1456.040, 1180153.
1457.969, 1182225.
1459.897, 1184030.
1461.826, 1185495.
1463.754, 1186787.
1465.683, 1188088.
1467.611, 1189455.
1469.540, 1190932.
1471.468, 1192686.
1473.396, 1194274.
1475.325, 1195270.
1477.253, 1196235.
1479.182, 1197555.
1481.110, 1199149.
1483.039, 1200760.
1484.967, 1202418.
1486.896, 1203980.
1488.824, 1205393.
1490.753, 1206772.
1492.681, 1208220.
1494.610, 1209734.
1496.538, 1211172.
1498.467, 1212461.
1500.395, 1213741.
1502.323, 1214977.
1504.252, 1216184.
1506.180, 1217447.
1508.109, 1218715.
1510.037, 1219810.
1511.966, 1220727.
1513.894, 1221624.
1515.823, 1222419.
1517.751, 1223430.
1519.680, 1224899.
1521.608, 1226629.
1523.537, 1228248.
1525.465, 1229658.
1527.394, 1231216.
1529.322, 1232980.
1531.250, 1234707.
1533.179, 1236303.
1535.107, 1237784.
1537.036, 1239181.
1538.964, 1240518.
1540.893, 1241808.
1542.821, 1243033.
1544.750, 1244339.
1546.678, 1245980.
1548.607, 1247512.
1550.535, 1248451.
1552.464, 1248963.
1554.392, 1249614.
1556.321, 1250446.
1558.249, 1251228.
1560.177, 1252060.
1562.106, 1252792.
1564.034, 1253283.
1565.963, 1253797.
1567.891, 1254712.
1569.820, 1256065.
1571.748, 1257626.
1573.677, 1259287.
1575.605, 1261035.
1577.534, 1262764.
1579.462, 1264405.
1581.391, 1265990.
1583.319, 1267465.
1585.248, 1268466.
1587.176, 1268896.
1589.104, 1269212.
1591.033, 1269460.
1592.961, 1269815.
1594.890, 1270437.
1596.818, 1271221.
1598.747, 1271860.
1600.675, 1272351.
1602.604, 1272772.
1604.532, 1273147.
1606.461, 1273695.
1608.389, 1274617.
1610.318, 1275895.
1612.246, 1277420.
1614.175, 1279177.
1616.103, 1281431.
1618.031, 1284116.
1619.960, 1286863.
1621.888, 1289466.
1623.817, 1291731.
1625.745, 1293433.
1627.674, 1294626.
1629.602, 1295696.
1631.531, 1296969.
1633.459, 1297648.
1635.388, 1297620.
1637.316, 1297635.
1639.245, 1298023.
1641.173, 1298645.
1643.102, 1299335.
1645.030, 1300103.
1646.958, 1300980.
1648.887, 1301827.
1650.815, 1302937.
1652.744, 1304432.
1654.672, 1305972.
1656.601, 1307358.
1658.529, 1308660.
1660.458, 1310020.
1662.386, 1311412.
1664.315, 1312834.
1666.243, 1314318.
1668.172, 1315835.
1670.100, 1317405.
1672.029, 1319072.
1673.957, 1320856.
1675.885, 1322761.
1677.814, 1324809.
1679.742, 1327103.
1681.671, 1329153.
1683.599, 1330598.
1685.528, 1332109.
1687.456, 1333939.
1689.385, 1335748.
1691.313, 1337191.
1693.242, 1338294.
1695.170, 1339330.
1697.099, 1340540.
1699.027, 1341226.
1700.956, 1341028.
1702.884, 1340894.
1704.813, 1341336.
1706.741, 1342077.
1708.669, 1342759.
1710.598, 1343431.
1712.526, 1344388.
1714.455, 1345748.
1716.383, 1347162.
1718.312, 1348518.
1720.240, 1349901.
1722.169, 1351289.
1724.097, 1352594.
1726.026, 1353700.
1727.954, 1354517.
1729.883, 1355105.
1731.811, 1355569.
1733.740, 1355566.
1735.668, 1354944.
1737.596, 1354313.
1739.525, 1354309.
1741.453, 1354633.
1743.382, 1354634.
1745.310, 1354388.
1747.239, 1355058.
1749.167, 1356799.
1751.096, 1358951.
1753.024, 1361491.
1754.953, 1363875.
1756.881, 1365768.
1758.810, 1367141.
1760.738, 1367992.
1762.667, 1368343.
1764.595, 1368654.
1766.523, 1369220.
1768.452, 1369645.
1770.380, 1369819.
1772.309, 1370251.
1774.237, 1371272.
1776.166, 1372551.
1778.094, 1373680.
1780.023, 1374627.
1781.951, 1375515.
1783.880, 1376188.
1785.808, 1377049.
1787.737, 1378280.
1789.665, 1379408.
1791.594, 1380323.
1793.522, 1381002.
1795.450, 1381352.
1797.379, 1381409.
1799.307, 1381439.
1801.236, 1381453.
1803.164, 1381504.
1805.093, 1381818.
1807.021, 1382121.
1808.950, 1382372.
1810.878, 1382814.
1812.807, 1383579.
1814.735, 1384704.
1816.664, 1386192.
1818.592, 1387970.
1820.521, 1390079.
1822.449, 1392560.
1824.377, 1394667.
1826.306, 1395956.
1828.234, 1396883.
1830.163, 1397669.
1832.091, 1398276.
1834.020, 1398752.
1835.948, 1399138.
1837.877, 1399237.
1839.805, 1399066.
1841.734, 1399076.
1843.662, 1399387.
1845.591, 1399839.
1847.519, 1400371.
1849.448, 1400926.
1851.376, 1401454.
1853.304, 1401951.
1855.233, 1402468.
1857.161, 1403058.
1859.090, 1403675.
1861.018, 1404412.
1862.947, 1405388.
1864.875, 1406638.
1866.804, 1408257.
1868.732, 1410183.
1870.661, 1412407.
1872.589, 1414959.
1874.518, 1417609.
1876.446, 1419822.
1878.375, 1421386.
1880.303, 1422314.
1882.231, 1422444.
1884.160, 1422177.
1886.088, 1421838.
1888.017, 1421367.
1889.945, 1420834.
1891.874, 1420455.
1893.802, 1420419.
1895.731, 1420821.
1897.659, 1421636.
1899.588, 1422884.
1901.516, 1424058.
1903.445, 1424660.
1905.373, 1425262.
1907.302, 1426075.
1909.230, 1426750.
1911.158, 1427174.
1913.087, 1427351.
1915.015, 1427082.
1916.944, 1426454.
1918.872, 1426544.
1920.801, 1427604.
1922.729, 1428609.
1924.658, 1429221.
1926.586, 1429691.
1928.515, 1430077.
1930.443, 1430309.
1932.372, 1430445.
1934.300, 1430446.
1936.229, 1430128.
1938.157, 1429586.
1940.085, 1429281.
1942.014, 1429284.
1943.942, 1429449.
1945.871, 1429851.
1947.799, 1430132.
1949.728, 1430089.
1951.656, 1429911.
1953.585, 1429698.
1955.513, 1429548.
1957.442, 1429621.
1959.370, 1429967.
1961.299, 1430680.
1963.227, 1431983.
1965.156, 1433263.
1967.084, 1434240.
1969.012, 1435378.
1970.941, 1436767.
1972.869, 1438092.
1974.798, 1439143.
1976.726, 1439856.
1978.655, 1440251.
1980.583, 1440360.
1982.512, 1440083.
1984.440, 1439473.
1986.369, 1439350.
1988.297, 1440137.
1990.226, 1441035.
1992.154, 1441639.
1994.083, 1442493.
1996.011, 1443855.
1997.939, 1445371.
1999.868, 1446745.
2001.796, 1447920.
2003.725, 1448851.
2005.653, 1449590.
2007.582, 1450515.
2009.510, 1451861.
2011.439, 1453089.
2013.367, 1453749.
2015.296, 1454709.
2017.224, 1456366.
2019.153, 1457947.
2021.081, 1458889.
2023.010, 1459291.
2024.938, 1459381.
2026.866, 1459254.
2028.795, 1459121.
2030.723, 1459250.
2032.652, 1459273.
2034.580, 1459172.
2036.509, 1459402.
2038.437, 1459775.
2040.366, 1460689.
2042.294, 1462493.
2044.223, 1464276.
2046.151, 1465279.
2048.080, 1465740.
2050.008, 1466108.
2051.937, 1466457.
2053.865, 1466916.
2055.793, 1467664.
2057.722, 1468238.
2059.650, 1468416.
2061.579, 1468918.
2063.507, 1469935.
2065.436, 1470935.
2067.364, 1471655.
2069.293, 1472053.
2071.221, 1472157.
2073.150, 1471894.
2075.078, 1471093.
2077.007, 1469849.
2078.935, 1468809.
2080.864, 1468139.
2082.792, 1467240.
2084.720, 1466017.
2086.649, 1465208.
2088.577, 1465249.
2090.506, 1465442.
2092.434, 1465318.
2094.363, 1465497.
2096.291, 1466299.
2098.220, 1467476.
2100.148, 1468829.
2102.077, 1470066.
2104.005, 1470626.
2105.934, 1470345.
2107.862, 1469526.
2109.791, 1468249.
2111.719, 1466487.
2113.647, 1464481.
2115.576, 1462334.
2117.504, 1460113.
2119.433, 1458283.
2121.361, 1456938.
2123.290, 1456344.
2125.218, 1456897.
2127.147, 1458125.
2129.075, 1459142.
2131.004, 1459916.
2132.932, 1460747.
2134.861, 1461538.
2136.789, 1462352.
2138.718, 1463268.
2140.646, 1463718.
2142.574, 1463284.
2144.503, 1462931.
2146.431, 1463097.
2148.360, 1463370.
2150.288, 1463646.
2152.217, 1463885.
2154.145, 1464144.
2156.074, 1464275.
2158.002, 1463771.
2159.931, 1462720.
2161.859, 1462131.
2163.788, 1461993.
2165.716, 1461728.
2167.645, 1461268.
2169.573, 1460929.
2171.501, 1461013.
2173.430, 1460962.
2175.358, 1460509.
2177.287, 1460205.
2179.215, 1460322.
2181.144, 1460674.
2183.072, 1460984.
2185.001, 1461328.
2186.929, 1461871.
2188.858, 1462489.
2190.786, 1463018.
2192.715, 1463437.
2194.643, 1463544.
2196.572, 1463411.
2198.500, 1463124.
2200.428, 1462730.
2202.357, 1462415.
2204.285, 1462212.
2206.214, 1462114.
2208.142, 1461986.
2210.071, 1461997.
2211.999, 1462356.
2213.928, 1462745.
2215.856, 1462850.
2217.785, 1462900.
2219.713, 1463339.
2221.642, 1464159.
2223.570, 1464958.
2225.499, 1465726.
2227.427, 1466621.
2229.355, 1467505.
2231.284, 1468695.
2233.212, 1470342.
2235.141, 1471176.
2237.069, 1470488.
2238.998, 1469491.
2240.926, 1468698.
2242.855, 1467863.
2244.783, 1467158.
2246.712, 1466366.
2248.640, 1465111.
2250.569, 1463909.
2252.497, 1463517.
2254.426, 1463749.
2256.354, 1463907.
2258.282, 1464014.
2260.211, 1464592.
2262.139, 1465594.
2264.068, 1466666.
2265.996, 1467788.
2267.925, 1468505.
2269.853, 1468480.
2271.782, 1468463.
2273.710, 1468748.
2275.639, 1468948.
2277.567, 1468974.
2279.496, 1468912.
2281.424, 1468790.
2283.353, 1468583.
2285.281, 1468101.
2287.209, 1467576.
2289.138, 1467439.
2291.066, 1467536.
2292.995, 1467547.
2294.923, 1467547.
2296.852, 1467589.
2298.780, 1467734.
2300.709, 1467954.
2302.637, 1468179.
2304.566, 1468451.
2306.494, 1468521.
2308.423, 1468824.
2310.351, 1469495.
2312.280, 1470013.
2314.208, 1470432.
2316.136, 1470346.
2318.065, 1469241.
2319.993, 1468088.
2321.922, 1467544.
2323.850, 1467364.
2325.779, 1467424.
2327.707, 1467594.
2329.636, 1467560.
2331.564, 1467415.
2333.493, 1467604.
2335.421, 1467944.
2337.350, 1467504.
2339.278, 1466287.
2341.207, 1465248.
2343.135, 1464580.
2345.063, 1463529.
2346.992, 1461915.
2348.920, 1460858.
2350.849, 1460843.
2352.777, 1461063.
2354.706, 1461224.
2356.634, 1461595.
2358.563, 1462152.
2360.491, 1462651.
2362.420, 1463049.
2364.348, 1463112.
2366.277, 1462527.
2368.205, 1461797.
2370.134, 1461680.
2372.062, 1461667.
2373.990, 1460822.
2375.919, 1459609.
2377.847, 1459017.
2379.776, 1459013.
2381.704, 1459327.
2383.633, 1459962.
2385.561, 1460686.
2387.490, 1461484.
2389.418, 1462400.
2391.347, 1463373.
2393.275, 1464399.
2395.204, 1465437.
2397.132, 1466262.
2399.061, 1466754.
2400.989, 1466968.
2402.917, 1466941.
2404.846, 1466601.
2406.774, 1465800.
2408.703, 1465157.
2410.631, 1465219.
2412.560, 1465347.
2414.488, 1464964.
2416.417, 1464752.
2418.345, 1465453.
2420.274, 1466380.
2422.202, 1466624.
2424.131, 1466577.
2426.059, 1466887.
2427.988, 1467384.
2429.916, 1467781.
2431.844, 1468060.
2433.773, 1468260.
2435.701, 1468349.
2437.630, 1467919.
2439.558, 1466979.
2441.487, 1466276.
2443.415, 1465819.
2445.344, 1465701.
2447.272, 1466051.
2449.201, 1466139.
2451.129, 1465749.
2453.058, 1465646.
2454.986, 1465960.
2456.915, 1466463.
2458.843, 1467414.
2460.771, 1467974.
2462.700, 1467749.
2464.628, 1467383.
2466.557, 1467021.
2468.485, 1466681.
2470.414, 1466484.
2472.342, 1466155.
2474.271, 1465253.
2476.199, 1464521.
2478.128, 1464761.
2480.056, 1465172.
2481.985, 1464841.
2483.913, 1464321.
2485.842, 1464358.
2487.770, 1464607.
2489.698, 1464574.
2491.627, 1464326.
2493.555, 1463995.
2495.484, 1463644.
2497.412, 1463377.
2499.341, 1463247.
2501.269, 1463264.
2503.198, 1463398.
2505.126, 1463383.
2507.055, 1463113.
2508.983, 1463146.
2510.912, 1463415.
2512.840, 1463164.
2514.769, 1462289.
2516.697, 1461700.
2518.625, 1461712.
2520.554, 1461301.
2522.482, 1459925.
2524.411, 1459222.
2526.339, 1459665.
2528.268, 1459819.
2530.196, 1459428.
2532.125, 1459017.
2534.053, 1458609.
2535.982, 1458331.
2537.910, 1458174.
2539.839, 1458107.
2541.767, 1458162.
2543.696, 1458111.
2545.624, 1458051.
2547.552, 1457559.
2549.481, 1456203.
2551.409, 1454993.
2553.338, 1454699.
2555.266, 1454625.
2557.195, 1454274.
2559.123, 1454190.
2561.052, 1454892.
2562.980, 1455847.
2564.909, 1456604.
2566.837, 1457204.
2568.766, 1457535.
2570.694, 1457726.
2572.623, 1457905.
2574.551, 1458035.
2576.479, 1458228.
2578.408, 1458396.
2580.336, 1458430.
2582.265, 1458437.
2584.193, 1458320.
2586.122, 1458361.
2588.050, 1459270.
2589.979, 1460542.
2591.907, 1461115.
2593.836, 1461033.
2595.764, 1460611.
2597.693, 1459868.
2599.621, 1459020.
2601.550, 1458138.
2603.478, 1457362.
2605.406, 1456770.
2607.335, 1456533.
2609.263, 1456649.
2611.192, 1456392.
2613.120, 1455783.
2615.049, 1455653.
2616.977, 1455960.
2618.906, 1456257.
2620.834, 1456471.
2622.763, 1456504.
2624.691, 1456298.
2626.620, 1456148.
2628.548, 1456169.
2630.477, 1455652.
2632.405, 1454508.
2634.333, 1453992.
2636.262, 1454213.
2638.190, 1454062.
2640.119, 1453349.
2642.047, 1452901.
2643.976, 1452885.
2645.904, 1452568.
2647.833, 1451844.
2649.761, 1451400.
2651.690, 1451483.
2653.618, 1451108.
2655.547, 1450043.
2657.475, 1449790.
2659.404, 1450830.
2661.332, 1451497.
2663.260, 1451342.
2665.189, 1451057.
2667.117, 1450568.
2669.046, 1449847.
2670.974, 1448952.
2672.903, 1447708.
2674.831, 1446032.
2676.760, 1444562.
2678.688, 1443636.
2680.617, 1442628.
2682.545, 1441553.
2684.474, 1440491.
2686.402, 1439431.
2688.331, 1438704.
2690.259, 1438488.
2692.188, 1438446.
2694.116, 1438499.
2696.044, 1438743.
2697.973, 1439018.
2699.901, 1439739.
2701.830, 1441059.
2703.758, 1442031.
2705.687, 1442364.
2707.615, 1442312.
2709.544, 1441643.
2711.472, 1440935.
2713.401, 1440170.
2715.329, 1439549.
2717.258, 1439226.
2719.186, 1438719.
2721.115, 1438031.
2723.043, 1437352.
2724.971, 1436658.
2726.900, 1436527.
2728.828, 1437118.
2730.757, 1437737.
2732.685, 1438149.
2734.614, 1438635.
2736.542, 1439201.
2738.471, 1439426.
2740.399, 1439274.
2742.328, 1438691.
2744.256, 1437640.
2746.185, 1436908.
2748.113, 1436763.
2750.042, 1436450.
2751.970, 1435839.
2753.898, 1435255.
2755.827, 1434683.
2757.755, 1434124.
2759.684, 1433560.
2761.612, 1433472.
2763.541, 1433982.
2765.469, 1434439.
2767.398, 1434753.
2769.326, 1434882.
2771.255, 1434719.
2773.183, 1434622.
2775.112, 1434555.
2777.040, 1434649.
2778.969, 1434992.
2780.897, 1434349.
2782.825, 1432654.
2784.754, 1431624.
2786.682, 1431240.
2788.611, 1430615.
2790.539, 1429757.
2792.468, 1428830.
2794.396, 1427865.
2796.325, 1427189.
2798.253, 1426746.
2800.182, 1425863.
2802.110, 1424751.
2804.039, 1424541.
2805.967, 1424904.
2807.896, 1424701.
2809.824, 1424070.
2811.752, 1423279.
2813.681, 1422503.
2815.609, 1422170.
2817.538, 1422091.
2819.466, 1421787.
2821.395, 1421382.
2823.323, 1421080.
2825.252, 1420808.
2827.180, 1420681.
2829.109, 1420355.
2831.037, 1419421.
2832.966, 1418170.
2834.894, 1416732.
2836.823, 1415434.
2838.751, 1414753.
2840.679, 1414250.
2842.608, 1413633.
2844.536, 1412928.
2846.465, 1411984.
2848.393, 1411150.
2850.322, 1410850.
2852.250, 1410491.
2854.179, 1409769.
2856.107, 1409011.
2858.036, 1408126.
2859.964, 1407719.
2861.893, 1408227.
2863.821, 1408828.
2865.750, 1409187.
2867.678, 1409381.
2869.606, 1409330.
2871.535, 1408974.
2873.463, 1408284.
2875.392, 1407438.
2877.320, 1406569.
2879.249, 1405918.
2881.177, 1405667.
2883.106, 1405478.
2885.034, 1405246.
2886.963, 1405396.
2888.891, 1405862.
2890.820, 1406273.
2892.748, 1406517.
2894.677, 1406055.
2896.605, 1404976.
2898.533, 1404472.
2900.462, 1404524.
2902.390, 1404228.
2904.319, 1403739.
2906.247, 1403497.
2908.176, 1403427.
2910.104, 1403428.
2912.033, 1403301.
2913.961, 1402565.
2915.890, 1401594.
2917.818, 1400980.
2919.747, 1400531.
2921.675, 1400134.
2923.604, 1399714.
2925.532, 1399262.
2927.460, 1398702.
2929.389, 1397873.
2931.317, 1397105.
2933.246, 1396648.
2935.174, 1396213.
2937.103, 1395498.
2939.031, 1395050.
2940.960, 1395244.
2942.888, 1395103.
2944.817, 1394287.
2946.745, 1393597.
2948.674, 1393369.
2950.602, 1393167.
2952.531, 1392982.
2954.459, 1393162.
2956.387, 1393698.
2958.316, 1394154.
2960.244, 1394344.
2962.173, 1394629.
2964.101, 1394885.
2966.030, 1394436.
2967.958, 1393480.
2969.887, 1392499.
2971.815, 1391733.
2973.744, 1391476.
2975.672, 1391666.
2977.601, 1392100.
2979.529, 1392607.
2981.458, 1392889.
2983.386, 1392941.
2985.314, 1392803.
2987.243, 1392340.
2989.171, 1391528.
2991.100, 1390534.
2993.028, 1389405.
2994.957, 1388477.
2996.885, 1388147.
2998.814, 1387658.
3000.742, 1386855.
3002.671, 1386052.
3004.599, 1385333.
3006.528, 1384718.
3008.456, 1384172.
3010.385, 1384059.
3012.313, 1384318.
3014.241, 1384961.
3016.170, 1385756.
3018.098, 1385977.
3020.027, 1385616.
3021.955, 1384973.
3023.884, 1384084.
3025.812, 1382818.
3027.741, 1381720.
3029.669, 1381674.
3031.598, 1381864.
3033.526, 1381279.
3035.455, 1380697.
3037.383, 1380585.
3039.312, 1380302.
3041.240, 1379612.
3043.168, 1378617.
3045.097, 1377298.
3047.025, 1376332.
3048.954, 1375965.
3050.882, 1375757.
3052.811, 1375549.
3054.739, 1375713.
3056.668, 1376143.
3058.596, 1376726.
3060.525, 1377253.
3062.453, 1376779.
3064.382, 1375708.
3066.310, 1375316.
3068.239, 1375296.
3070.167, 1375101.
3072.095, 1374873.
3074.024, 1374768.
3075.952, 1374517.
3077.881, 1373649.
3079.809, 1372807.
3081.738, 1372465.
3083.666, 1372042.
3085.595, 1371445.
3087.523, 1371119.
3089.452, 1371190.
3091.380, 1372012.
3093.309, 1373675.
3095.237, 1374936.
3097.166, 1375505.
3099.094, 1376169.
3101.022, 1376740.
3102.951, 1377186.
3104.879, 1377413.
3106.808, 1377192.
3108.736, 1376879.
3110.665, 1377022.
3112.593, 1377350.
3114.522, 1377500.
3116.450, 1378027.
3118.379, 1379396.
3120.307, 1380835.
3122.236, 1381928.
3124.164, 1383636.
3126.093, 1386326.
3128.021, 1388971.
3129.949, 1391414.
3131.878, 1393604.
3133.806, 1395536.
3135.735, 1397746.
3137.663, 1400143.
3139.592, 1402440.
3141.520, 1404677.
3143.449, 1406648.
3145.377, 1408965.
3147.306, 1412614.
3149.234, 1416269.
3151.163, 1418858.
3153.091, 1421594.
3155.020, 1424806.
3156.948, 1428428.
3158.876, 1432796.
3160.805, 1436603.
3162.733, 1439798.
3164.662, 1442967.
3166.590, 1446130.
3168.519, 1448881.
3170.447, 1451277.
3172.376, 1453787.
3174.304, 1455828.
3176.233, 1456528.
3178.161, 1456349.
3180.090, 1455396.
3182.018, 1454030.
3183.947, 1452491.
3185.875, 1450229.
3187.803, 1446638.
3189.732, 1443029.
3191.660, 1439576.
3193.589, 1435770.
3195.517, 1431590.
3197.446, 1427262.
3199.374, 1422856.
3201.303, 1418893.
3203.231, 1415155.
3205.160, 1411452.
3207.088, 1407777.
3209.017, 1403813.
3210.945, 1400705.
3212.874, 1399149.
3214.802, 1398295.
3216.730, 1397744.
3218.659, 1397405.
3220.587, 1397007.
3222.516, 1396779.
3224.444, 1396655.
3226.373, 1396405.
3228.301, 1396101.
3230.230, 1395637.
3232.158, 1395354.
3234.087, 1395543.
3236.015, 1396194.
3237.944, 1397244.
3239.872, 1398528.
3241.801, 1400111.
3243.729, 1401074.
3245.657, 1400892.
3247.586, 1400496.
3249.514, 1400012.
3251.443, 1399222.
3253.371, 1398115.
3255.300, 1396006.
3257.228, 1393245.
3259.157, 1390507.
3261.085, 1387679.
3263.014, 1384759.
3264.942, 1381461.
3266.871, 1377375.
3268.799, 1373234.
3270.728, 1369153.
3272.656, 1365032.
3274.584, 1360731.
3276.513, 1356715.
3278.441, 1352907.
3280.370, 1348715.
3282.298, 1344398.
3284.227, 1340550.
3286.155, 1337000.
3288.084, 1333353.
3290.012, 1330101.
3291.941, 1327701.
3293.869, 1325295.
3295.798, 1322542.
3297.726, 1320044.
3299.655, 1317883.
3301.583, 1316050.
3303.511, 1314487.
3305.440, 1312904.
3307.368, 1311154.
3309.297, 1308763.
3311.225, 1306351.
3313.154, 1304809.
3315.082, 1303265.
3317.011, 1301138.
3318.939, 1299495.
3320.868, 1298636.
3322.796, 1297993.
3324.725, 1297441.
3326.653, 1296308.
3328.582, 1294668.
3330.510, 1293158.
3332.438, 1291700.
3334.367, 1290321.
3336.295, 1288998.
3338.224, 1287808.
3340.152, 1286640.
3342.081, 1285295.
3344.009, 1284242.
3345.938, 1283500.
3347.866, 1282533.
3349.795, 1281288.
3351.723, 1279666.
3353.652, 1277930.
3355.580, 1276544.
3357.509, 1275365.
3359.437, 1274030.
3361.365, 1273135.
3363.294, 1272887.
3365.222, 1272814.
3367.151, 1272772.
3369.079, 1272157.
3371.008, 1270965.
3372.936, 1269959.
3374.865, 1268991.
3376.793, 1267749.
3378.722, 1266394.
3380.650, 1265018.
3382.579, 1263700.
3384.507, 1262445.
3386.436, 1261290.
3388.364, 1260219.
3390.292, 1259342.
3392.221, 1258641.
3394.149, 1258084.
3396.078, 1257512.
3398.006, 1256472.
3399.935, 1255433.
3401.863, 1254690.
3403.792, 1254139.
3405.720, 1253817.
3407.649, 1253441.
3409.577, 1252988.
3411.506, 1252477.
3413.434, 1251983.
3415.363, 1251986.
3417.291, 1252066.
3419.219, 1251472.
3421.148, 1250677.
3423.076, 1249946.
3425.005, 1249045.
3426.933, 1247959.
3428.862, 1246541.
3430.790, 1244862.
3432.719, 1243464.
3434.647, 1242318.
3436.576, 1241113.
3438.504, 1240000.
3440.433, 1239049.
3442.361, 1238291.
3444.290, 1237597.
3446.218, 1237087.
3448.146, 1236669.
3450.075, 1236238.
3452.003, 1235584.
3453.932, 1234044.
3455.860, 1231990.
3457.789, 1230236.
3459.717, 1228388.
3461.646, 1226286.
3463.574, 1224296.
3465.503, 1222512.
3467.431, 1221135.
3469.360, 1220104.
3471.288, 1219166.
3473.217, 1218092.
3475.145, 1216384.
3477.073, 1214578.
3479.002, 1213408.
3480.930, 1212070.
3482.859, 1210267.
3484.787, 1209144.
3486.716, 1208952.
3488.644, 1208237.
3490.573, 1207118.
3492.501, 1206143.
3494.430, 1204994.
3496.358, 1203428.
3498.287, 1201536.
3500.215, 1199310.
3502.144, 1197523.
3504.072, 1196388.
3506.000, 1195720.
3507.929, 1195392.
3509.857, 1194712.
3511.786, 1194118.
3513.714, 1194411.
3515.643, 1194316.
3517.571, 1192973.
3519.500, 1191854.
3521.428, 1191175.
3523.357, 1190566.
3525.285, 1189920.
3527.214, 1188516.
3529.142, 1187124.
3531.071, 1186776.
3532.999, 1186231.
3534.927, 1184829.
3536.856, 1183450.
3538.784, 1182229.
3540.713, 1181363.
3542.641, 1180771.
3544.570, 1180190.
3546.498, 1179485.
3548.427, 1178344.
3550.355, 1177229.
3552.284, 1176294.
3554.212, 1175283.
3556.141, 1174204.
3558.069, 1172690.
3559.998, 1171111.
3561.926, 1170304.
3563.854, 1169732.
3565.783, 1168732.
3567.711, 1168123.
3569.640, 1168041.
3571.568, 1167766.
3573.497, 1167146.
3575.425, 1166328.
3577.354, 1165307.
3579.282, 1164232.
3581.211, 1163071.
3583.139, 1161761.
3585.068, 1161097.
3586.996, 1161457.
3588.925, 1161261.
3590.853, 1160689.
3592.781, 1160680.
3594.710, 1160712.
3596.638, 1160327.
3598.567, 1159658.
3600.495, 1158866.
3602.424, 1157647.
3604.352, 1156099.
3606.281, 1154992.
3608.209, 1154142.
3610.138, 1153348.
3612.066, 1152299.
3613.995, 1150629.
3615.923, 1149403.
3617.852, 1148989.
3619.780, 1148477.
3621.708, 1147892.
3623.637, 1147134.
3625.565, 1146511.
3627.494, 1146272.
3629.422, 1146187.
3631.351, 1146413.
3633.279, 1146045.
3635.208, 1145182.
3637.136, 1144666.
3639.065, 1144224.
3640.993, 1143054.
3642.922, 1142055.
3644.850, 1141814.
3646.779, 1141413.
3648.707, 1140736.
3650.635, 1140046.
3652.564, 1139351.
3654.492, 1138704.
3656.421, 1137991.
3658.349, 1137174.
3660.278, 1136257.
3662.206, 1135257.
3664.135, 1134598.
3666.063, 1134273.
3667.992, 1134278.
3669.920, 1134128.
3671.849, 1133133.
3673.777, 1132169.
3675.706, 1131500.
3677.634, 1130966.
3679.563, 1130528.
3681.491, 1129499.
3683.419, 1128482.
3685.348, 1128115.
3687.276, 1128021.
3689.205, 1128164.
3691.133, 1127680.
3693.062, 1126526.
3694.990, 1125377.
3696.919, 1124262.
3698.847, 1123147.
3700.776, 1122277.
3702.704, 1121931.
3704.633, 1121416.
3706.561, 1120689.
3708.490, 1120532.
3710.418, 1120522.
3712.346, 1119971.
3714.275, 1119232.
3716.203, 1118391.
3718.132, 1117743.
3720.060, 1117318.
3721.989, 1116434.
3723.917, 1115257.
3725.846, 1113634.
3727.774, 1112605.
3729.703, 1113099.
3731.631, 1113247.
3733.560, 1112826.
3735.488, 1112694.
3737.417, 1112436.
3739.345, 1111303.
3741.273, 1109986.
3743.202, 1109175.
3745.130, 1107862.
3747.059, 1106187.
3748.987, 1104724.
3750.916, 1103543.
3752.844, 1102507.
3754.773, 1101926.
3756.701, 1102062.
3758.630, 1101990.
3760.558, 1101593.
3762.487, 1101238.
3764.415, 1100680.
3766.344, 1099710.
3768.272, 1098313.
3770.200, 1096395.
3772.129, 1094752.
3774.057, 1093525.
3775.986, 1092628.
3777.914, 1092034.
3779.843, 1091603.
3781.771, 1091373.
3783.700, 1091288.
3785.628, 1090841.
3787.557, 1090030.
3789.485, 1089191.
3791.414, 1088376.
3793.342, 1087761.
3795.271, 1087012.
3797.199, 1086115.
3799.127, 1085000.
3801.056, 1083755.
3802.984, 1082541.
3804.913, 1081345.
3806.841, 1080126.
3808.770, 1079209.
3810.698, 1078611.
3812.627, 1078175.
3814.555, 1077932.
3816.484, 1078180.
3818.412, 1078011.
3820.341, 1077087.
3822.269, 1075356.
3824.198, 1073063.
3826.126, 1071475.
3828.054, 1069892.
3829.983, 1067336.
3831.911, 1065435.
3833.840, 1064604.
3835.768, 1064182.
3837.697, 1063955.
3839.625, 1063571.
3841.554, 1063012.
3843.482, 1062199.
3845.411, 1061243.
3847.339, 1060172.
3849.268, 1058605.
3851.196, 1057015.
3853.125, 1056004.
3855.053, 1055156.
3856.981, 1054288.
3858.910, 1053878.
3860.838, 1053728.
3862.767, 1053220.
3864.695, 1052596.
3866.624, 1052134.
3868.552, 1051263.
3870.481, 1049995.
3872.409, 1049342.
3874.338, 1049029.
3876.266, 1048768.
3878.195, 1048350.
3880.123, 1047651.
3882.052, 1046910.
3883.980, 1046160.
3885.908, 1045402.
3887.837, 1044792.
3889.765, 1044550.
3891.694, 1043923.
3893.622, 1042837.
3895.551, 1042355.
3897.479, 1041962.
3899.408, 1040663.
3901.336, 1039579.
3903.265, 1039024.
3905.193, 1038660.
3907.122, 1038368.
3909.050, 1038059.
3910.979, 1037523.
3912.907, 1036501.
3914.835, 1035914.
3916.764, 1035785.
3918.692, 1035457.
3920.621, 1034884.
3922.549, 1033990.
3924.478, 1033062.
3926.406, 1032256.
3928.335, 1031173.
3930.263, 1030061.
3932.192, 1029267.
3934.120, 1028609.
3936.049, 1027921.
3937.977, 1027213.
3939.906, 1026492.
3941.834, 1026083.
3943.762, 1025648.
3945.691, 1025008.
3947.619, 1024346.
3949.548, 1023714.
3951.476, 1023120.
3953.405, 1022720.
3955.333, 1022940.
3957.262, 1022799.
3959.190, 1021971.
3961.119, 1021424.
3963.047, 1021014.
3964.976, 1020395.
3966.904, 1019927.
3968.833, 1019732.
3970.761, 1019129.
3972.689, 1018183.
3974.618, 1017253.
3976.546, 1016229.
3978.475, 1015126.
3980.403, 1013805.
3982.332, 1012452.
3984.260, 1012035.
3986.189, 1011751.
3988.117, 1010937.
3990.046, 1009902.
3991.974, 1008695.
3993.903, 1007654.
3995.831, 1006710.
3997.760, 1005751.
3999.688, 1005153.
4001.616, 1005106.
4003.545, 1004127.
4005.473, 1002798.
4007.402, 1001830.
4009.330, 1001191.
4011.259, 1000952.
4013.187, 999979.2
4015.116, 998700.6
4017.044, 997804.7
4018.973, 997224.6
4020.901, 996876.3
4022.830, 996764.9
4024.758, 996484.6
4026.687, 994756.2
4028.615, 992930.5
4030.543, 991802.5
4032.472, 990518.0
4034.400, 989202.7
4036.329, 988316.8
4038.257, 987309.5
4040.186, 985559.5
4042.114, 985017.2
4044.043, 985286.2
4045.971, 984377.0
4047.900, 983372.0
4049.828, 983073.3
4051.757, 982016.9
4053.685, 980314.6
4055.614, 979508.8
4057.542, 978955.5
4059.470, 978300.4
4061.399, 977568.4
4063.327, 976738.1
4065.256, 975533.9
4067.184, 974371.8
4069.113, 973451.7
4071.041, 972998.1
4072.970, 972836.0
4074.898, 972118.3
4076.827, 971158.4
4078.755, 970194.0
4080.684, 969130.2
4082.612, 967985.3
4084.541, 966512.4
4086.469, 964965.7
4088.397, 963408.3
4090.326, 962577.8
4092.254, 962443.3
4094.183, 961959.3
4096.111, 961426.2
4098.040, 961100.8
4099.968, 960501.2
4101.896, 959559.8
4103.825, 958274.4
4105.754, 956968.8
4107.682, 955892.7
4109.610, 955011.2
4111.539, 954291.2
4113.468, 953702.3
4115.396, 952846.9
4117.324, 951312.0
4119.253, 950591.1
4121.182, 950622.2
4123.110, 950592.1
4125.038, 950221.9
4126.967, 949140.4
4128.896, 948426.8
4130.824, 948117.1
4132.752, 948426.0
4134.681, 948456.1
4136.609, 947357.4
4138.538, 946997.2
4140.466, 947069.7
4142.395, 946787.5
4144.323, 946276.4
4146.251, 945558.3
4148.180, 944880.2
4150.108, 944208.4
4152.037, 943456.1
4153.965, 942792.5
4155.894, 942286.4
4157.822, 941765.4
4159.751, 941277.6
4161.679, 940837.5
4163.607, 940498.6
4165.536, 940212.1
4167.465, 939471.1
4169.393, 938503.1
4171.321, 937548.8
4173.250, 936722.4
4175.179, 936097.8
4177.107, 935753.9
4179.035, 935568.2
4180.964, 935423.9
4182.893, 935190.1
4184.821, 934802.2
4186.749, 934214.8
4188.678, 933496.9
4190.606, 932675.7
4192.535, 931744.0
4194.463, 930669.1
4196.392, 929432.4
4198.320, 927990.9
4200.249, 926344.2
4202.177, 924984.1
4204.105, 923915.0
4206.034, 923133.3
4207.962, 922319.4
4209.891, 921383.9
4211.819, 920099.5
4213.748, 919254.6
4215.676, 920000.2
4217.604, 919946.6
4219.533, 918968.7
4221.462, 918533.5
4223.390, 917629.8
4225.318, 915635.2
4227.247, 914099.2
4229.176, 913113.6
4231.104, 912246.9
4233.032, 911823.8
4234.961, 911824.9
4236.890, 911291.8
4238.818, 910406.7
4240.746, 909087.5
4242.675, 907171.2
##END=



