##NAMES=Scenicite
##RRUFFID=R250085
##IDEAL CHEMISTRY=[(UO_2_)(H_2_O)_2_(SO_4_)]_2_·3H_2_O
##LOCALITY=White Canyon district, San Juan County, Utah, USA
##OWNER=Natural History Museum of Los Angeles
##SOURCE=Tony Kampf
##DESCRIPTION=Secondary phase on granular quartz matrix of transparent, light green yellow, poorly formed blades or prisms, in association with various combinations of deliensite, gypsum, natrozippeite, rietveldite and shumwayite. Type sample, described in Kampf et al (2022)
##STATUS=The identification of this mineral is confirmed by single-crystal X-ray diffraction and chemical analysis
##URL=https://www.rruff.net/odr/rruff_sample/R250085
##MEASURED CHEMISTRY=U_1.996_S_2.005_O_19_H_13.997_ ; Calculated on the basis of 19 O atoms per formula unit
##DIFFRACTION SAMPLE DESCRIPTION=Single crystal
##CELL PARAMETERS=a: 21.2144 b: 6.8188 c: 11.2554 alpha: 90 beta: 90 gamma: 90 volume: 1628.18 crystal system: orthorhombic
##FILETYPE=Raman RAW
##RAMAN WAVELENGTH=532

60.3338	1822.21
62.2176	1963.05
64.101	2060.32
65.9818	2092.1
67.8644	2186.84
69.7467	2351.26
71.6264	2591.37
73.5079	2842.95
75.3868	3045.68
77.2676	3199.58
79.1458	3284
81.0236	3266.74
82.9011	3219.58
84.7803	3200.42
86.657	3158.21
88.5333	3127.26
90.4093	3135.47
92.2849	3138.11
94.1601	3112.95
96.0349	3066.21
97.9093	3078.63
99.7834	3042.21
101.655	3029.26
103.528	3033.79
105.401	3011.26
107.272	3005.16
109.144	3000.42
111.016	2990.21
112.885	2969.05
114.756	2965.89
116.625	2978.21
118.493	2955.26
120.363	2958.84
122.23	2932.84
124.097	2930.21
125.964	2924.21
127.83	2908.95
129.696	2910.53
131.562	2927.58
133.427	2922.84
135.292	2954
137.156	2937.79
139.02	2938.42
140.884	2952.84
142.745	2931.68
144.608	2893.79
146.471	2891.37
148.331	2848.21
150.193	2846.11
152.052	2813.9
153.913	2792.21
155.772	2779.79
157.63	2764.11
159.49	2746.21
161.348	2746.74
163.205	2754.74
165.062	2752.53
166.918	2789.37
168.774	2809.26
170.63	2848.11
172.485	2888.74
174.34	2944
176.195	2984.95
178.049	3061.37
179.903	3133.05
181.754	3201.79
183.607	3292.42
185.46	3380.63
187.31	3483.05
189.162	3627.16
191.011	3703.16
192.861	3789.79
194.711	3789.89
196.56	3765.89
198.408	3704.63
200.255	3563.58
202.105	3411.37
203.952	3243.89
205.798	3070
207.645	2935.37
209.49	2793.89
211.336	2712.42
213.179	2613.89
215.023	2540.42
216.868	2475.79
218.712	2408.42
220.553	2361.9
222.397	2298.11
224.237	2259.89
226.08	2232.74
227.92	2200.21
229.762	2175.16
231.601	2185.16
233.44	2169.79
235.279	2184.21
237.119	2195.79
238.957	2212.63
240.794	2199.37
242.631	2199.37
244.468	2179.05
246.305	2145.58
248.141	2082.21
249.974	2052
251.81	1994.42
253.645	1944.53
255.479	1898.95
257.311	1852.74
259.145	1828.21
260.977	1812
262.81	1776.95
264.64	1741.58
266.471	1717.26
268.303	1690.42
270.132	1657.05
271.962	1649.47
273.791	1625.47
275.619	1603.37
277.447	1594.53
279.275	1573.37
281.102	1552.95
282.93	1549.58
284.756	1527.37
286.583	1516.11
288.409	1508.74
290.232	1484.84
292.057	1479.16
293.88	1463.26
295.705	1451.16
297.527	1419.79
299.351	1428.53
301.172	1417.26
302.993	1393.26
304.816	1391.05
306.636	1369.89
308.456	1364.63
310.276	1351.16
312.095	1344
313.914	1330.32
315.732	1316.95
317.551	1306.74
319.368	1297.58
321.184	1294.42
323.001	1269.58
324.818	1272.53
326.632	1257.47
328.448	1257.47
330.262	1226.84
332.077	1236.21
333.89	1224.74
335.702	1218.84
337.516	1206.11
339.328	1205.47
341.14	1191.47
342.951	1185.58
344.762	1183.37
346.572	1173.58
348.382	1170.74
350.192	1157.58
352.001	1146
353.81	1143.89
355.616	1152.11
357.425	1145.68
359.233	1128.42
361.038	1118.32
362.845	1110
364.65	1094.42
366.456	1091.05
368.26	1099.58
370.064	1091.37
371.87	1086.84
373.673	1074.63
375.475	1074.74
377.278	1055.79
379.079	1061.16
380.881	1044.95
382.682	1042.11
384.483	1029.16
386.282	1021.05
388.082	1025.58
389.882	1017.89
391.679	1013.26
393.478	1000.21
395.275	993.158
397.073	982.842
398.869	977.052
400.667	977.684
402.462	960.211
404.257	960.105
406.052	951.579
407.846	926.842
409.642	937.579
411.436	938
413.229	920.316
415.02	915.263
416.812	919.053
418.604	898.421
420.396	907.053
422.185	901.684
423.976	895.579
425.767	893.684
427.556	902.105
429.346	894.421
431.133	887.895
432.921	893.579
434.708	883.789
436.496	882.737
438.282	863.053
440.068	870.105
441.854	862.632
443.639	860.211
445.424	875.053
447.208	877.263
448.993	869.684
450.774	879.474
452.558	865.579
454.341	853.684
456.122	827.158
457.904	817.368
459.684	807.368
461.466	794.105
463.245	787.263
465.024	770.105
466.805	762.21
468.583	755.579
470.361	754.842
472.139	740.105
473.916	722
475.693	724.632
477.47	722.105
479.246	716.737
481.02	710
482.795	706.737
484.571	694.105
486.343	699.789
488.118	690.316
489.89	682.632
491.664	682.632
493.435	684.105
495.206	675.895
496.979	665.263
498.75	668.421
500.52	669.474
502.29	653.158
504.059	657.158
505.828	660.947
507.597	645.158
509.365	641.368
511.131	645.158
512.899	636.316
514.666	632.211
516.431	632.526
518.198	627.789
519.962	629.474
521.728	618.947
523.492	616.842
525.255	617.368
527.02	598.21
528.782	600.737
530.545	589.263
532.306	595.158
534.068	588.842
535.829	586
537.59	585.895
539.351	580.316
541.109	573.895
542.869	564.737
544.628	570.737
546.385	569.895
548.144	564.421
549.901	554.737
551.659	557.368
553.415	548.632
555.17	545.053
556.925	546.947
558.68	541.789
560.436	543.79
562.19	540.316
563.944	532.211
565.696	544.842
567.449	527.368
569.202	530.211
570.954	529.579
572.704	532.211
574.456	523.579
576.207	518
577.956	523.158
579.707	520
581.455	520.842
583.203	519.579
584.951	511.684
586.7	508.316
588.447	514.947
590.194	513.053
591.941	515.263
593.687	515.579
595.43	517.474
597.176	520.737
598.921	526.632
600.665	522.316
602.408	519.789
604.152	518.526
605.893	522.737
607.637	529.684
609.378	530.105
611.118	549.684
612.861	548.842
614.601	560.105
616.34	566.105
618.08	561.053
619.819	560.632
621.557	551.684
623.296	558.737
625.034	574.421
626.769	589.368
628.507	607.263
630.244	625.579
631.978	628.526
633.715	630.737
635.449	615.895
637.184	593.579
638.918	576.421
640.651	556.842
642.383	539.158
644.116	520
645.848	511.684
647.579	502.632
649.311	494.21
651.042	484.105
652.773	481.368
654.503	470.421
656.231	466.842
657.961	462.737
659.688	459.684
661.417	466.632
663.144	455.368
664.872	461.789
666.598	451.368
668.324	455.579
670.049	450
671.774	447.158
673.501	446.947
675.223	445.368
676.948	457.789
678.671	459.263
680.395	458.421
682.118	450
683.839	456.632
685.561	448.421
687.281	454.105
689.003	456.842
690.722	446.947
692.443	452
694.162	459.895
695.881	458.632
697.599	457.368
699.317	456.737
701.034	457.158
702.751	454.947
704.468	460.105
706.185	454
707.901	459.053
709.615	461.474
711.33	456.632
713.044	471.684
714.758	453.368
716.471	469.684
718.185	465.263
719.897	472.842
721.609	469.474
723.32	478.842
725.031	480
726.742	484.316
728.452	482.947
730.162	486.737
731.872	488.105
733.581	494.632
735.288	495.895
736.997	488.316
738.705	492.632
740.411	498.316
742.119	499.158
743.824	514
745.529	504
747.234	507.263
748.94	509.053
750.645	508.105
752.348	514.632
754.052	516.947
755.755	522.316
757.456	520.105
759.158	521.263
760.861	527.895
762.56	525.263
764.262	527.684
765.961	527.789
767.662	533.053
769.361	532.105
771.061	533.263
772.759	537.474
774.457	543.895
776.154	550.632
777.851	539.684
779.548	548.316
781.244	555.053
782.94	558.421
784.634	553.053
786.329	557.474
788.024	566.421
789.717	563.474
791.411	574.211
793.104	583.579
794.795	576.842
796.489	583.368
798.18	591.158
799.871	602.21
801.562	600.632
803.252	610.632
804.942	614.316
806.631	628.526
808.321	646.631
810.01	647.368
811.696	664.211
813.385	667.368
815.071	687.368
816.758	695.789
818.444	715.158
820.131	734.211
821.816	761.158
823.5	777.158
825.184	798.632
826.868	828.211
828.552	855.263
830.235	882.421
831.918	931.684
833.6	966.947
835.281	1017.58
836.963	1086.42
838.644	1170.63
840.324	1277.05
842.003	1424.53
843.683	1652.32
845.362	2006.42
847.04	2556.84
848.718	3311.79
850.397	4129.37
852.074	4855.47
853.749	5312.32
855.426	5215.05
857.102	4839.68
858.778	5250.53
860.453	6815.47
862.127	8810.95
863.802	10490.1
865.474	11531.6
867.147	10843.9
868.821	7644.74
870.492	4457.9
872.164	2817.58
873.835	2071.05
875.506	1671.47
877.176	1443.05
878.846	1284.84
880.516	1185.58
882.186	1126.63
883.853	1076.21
885.522	1037.26
887.191	1010.53
888.857	988.947
890.523	960.842
892.191	953.053
893.856	946.211
895.521	938.421
897.186	934.316
898.851	930.211
900.515	926
902.179	920.105
903.842	927.895
905.506	916.632
907.167	924.421
908.829	928.421
910.492	912.632
912.152	916
913.814	926.316
915.473	938.211
917.132	932.105
918.791	947.789
920.45	951.474
922.108	955.789
923.766	982.737
925.423	990
927.081	990.632
928.738	996.842
930.394	997.895
932.049	976
933.705	961.368
935.359	943.263
937.014	933.684
938.667	937.474
940.32	916.526
941.973	913.895
943.625	931.263
945.277	921.263
946.929	932.316
948.58	932.526
950.231	933.368
951.882	947.263
953.533	950.947
955.181	946.632
956.831	930.737
958.478	940
960.126	924.737
961.774	911.895
963.421	917.158
965.068	922.842
966.714	911.474
968.359	912.737
970.005	918.842
971.65	905.684
973.295	912.421
974.94	910.632
976.582	909.474
978.226	912.526
979.868	906.737
981.511	916.316
983.152	909.684
984.793	899.263
986.435	915.263
988.076	911.684
989.715	911.684
991.355	911.684
992.994	899.895
994.631	914.105
996.27	914.105
997.909	926.632
999.547	907.895
1001.18	922.947
1002.82	916.632
1004.46	927.368
1006.09	947.579
1007.73	944.842
1009.36	961.368
1011	980.947
1012.63	988.737
1014.26	1020.53
1015.9	1066.21
1017.53	1099.89
1019.16	1137.79
1020.79	1180.95
1022.42	1224.32
1024.05	1276.63
1025.68	1346
1027.31	1413.58
1028.94	1476.95
1030.57	1494.74
1032.2	1487.26
1033.83	1413.05
1035.45	1321.05
1037.08	1224.63
1038.71	1152.63
1040.34	1094.21
1041.96	1046.32
1043.59	1017.37
1045.21	986.316
1046.84	959.263
1048.46	947.263
1050.08	941.684
1051.71	941.789
1053.33	940.316
1054.95	944.737
1056.57	960.632
1058.19	969.368
1059.82	985.474
1061.44	989.579
1063.06	1002.63
1064.68	999.263
1066.29	985.158
1067.91	972.105
1069.53	950.737
1071.15	944.737
1072.77	916.947
1074.38	897.053
1076	882.316
1077.62	855.474
1079.23	834.737
1080.85	826.105
1082.46	787.79
1084.08	784.526
1085.69	765.474
1087.3	758.316
1088.92	743.579
1090.53	734.526
1092.14	711.158
1093.75	719.474
1095.37	694.632
1096.98	696.842
1098.59	687.579
1100.2	692.211
1101.81	673.053
1103.41	676.947
1105.02	673.895
1106.63	663.895
1108.24	658.842
1109.85	659.158
1111.45	651.263
1113.06	640.105
1114.66	646.211
1116.27	636.105
1117.88	629.895
1119.48	626.421
1121.09	624.316
1122.69	624.842
1124.29	615.79
1125.89	621.053
1127.5	613.053
1129.1	609.158
1130.7	606.316
1132.3	604.947
1133.9	602.632
1135.5	602.947
1137.1	600.421
1138.7	591.789
1140.3	590.526
1141.9	581.789
1143.5	577.263
1145.09	574.526
1146.69	569.263
1148.29	564.632
1149.89	576
1151.48	561.053
1153.08	566.421
1154.67	558
1156.27	548.105
1157.86	553.684
1159.45	548.211
1161.05	557.158
1162.64	546.421
1164.23	542
1165.82	539.053
1167.41	536.526
1169	544.947
1170.6	539.368
1172.19	541.474
1173.77	539.79
1175.37	545.684
1176.95	539.895
1178.54	548.737
1180.13	551.263
1181.72	556.632
1183.31	550.211
1184.89	552
1186.48	554.211
1188.06	556.211
1189.65	557.579
1191.23	561.895
1192.82	555.368
1194.4	554.316
1195.98	560.316
1197.57	546
1199.15	551.789
1200.73	545.368
1202.31	540.737
1203.9	540
1205.48	544.316
1207.06	547.684
1208.64	552.421
1210.22	560
1211.8	568.842
1213.38	567.263
1214.95	578.211
1216.53	598
1218.11	612.947
1219.69	624.421
1221.26	657.579
1222.84	673.895
1224.42	708.105
1225.99	726.842
1227.57	742.105
1229.14	765.369
1230.71	764.105
1232.29	756.316
1233.86	740.947
1235.43	712.842
1237.01	664.211
1238.58	634
1240.15	600.211
1241.72	564.105
1243.29	547.263
1244.86	516.316
1246.43	505.789
1248	488.842
1249.57	475.895
1251.14	473.263
1252.7	457.053
1254.27	446.842
1255.84	452.211
1257.41	436.842
1258.97	424.421
1260.54	422.211
1262.1	416
1263.67	410.316
1265.23	400.842
1266.8	407.579
1268.36	404
1269.92	385.895
1271.48	390.526
1273.05	386
1274.61	387.895
1276.17	386.947
1277.73	378.632
1279.29	379.053
1280.85	376.105
1282.41	370.842
1283.97	372.526
1285.53	370.526
1287.09	369.895
1288.65	363.684
1290.2	365.158
1291.76	363.474
1293.32	360.737
1294.87	358.421
1296.43	358.105
1297.98	350.632
1299.54	350.842
1301.09	348.842
1302.65	352.105
1304.2	350.632
1305.75	344.947
1307.31	346.947
1308.86	345.789
1310.41	342.211
1311.96	341.053
1313.51	341.474
1315.06	340.737
1316.61	341.789
1318.16	341.368
1319.71	333.895
1321.26	337.368
1322.81	338
1324.36	334.211
1325.91	331.474
1327.45	330.421
1329	327.053
1330.55	331.053
1332.09	324.737
1333.64	325.474
1335.18	324
1336.73	329.263
1338.27	317.895
1339.81	323.368
1341.36	322.105
1342.9	318
1344.44	320.421
1345.98	321.789
1347.53	317.368
1349.07	311.053
1350.61	315.474
1352.15	312.105
1353.69	307.579
1355.23	312.105
1356.77	307.158
1358.31	305.158
1359.84	312.947
1361.38	304.947
1362.92	302
1364.45	305.789
1365.99	299.684
1367.53	298.211
1369.06	303.158
1370.6	301.684
1372.13	289.579
1373.67	292.526
1375.2	299.579
1376.73	292.632
1378.27	292.737
1379.8	294.737
1381.33	295.158
1382.86	288
1384.39	285.789
1385.92	284.737
1387.45	283.79
1388.98	283.895
1390.51	280.526
1392.04	281.684
1393.57	286
1395.1	284
1396.63	279.789
1398.15	279.789
1399.68	272.947
1401.21	279.053
1402.73	276
1404.26	269.474
1405.78	272.632
1407.31	275.684
1408.83	273.053
1410.36	272.316
1411.88	267.158
1413.4	272.842
1414.93	270.947
1416.45	271.684
1417.97	267.474
1419.49	270.211
1421.01	267.368
1422.53	269.158
1424.05	265.368
1425.57	268
1427.09	265.053
1428.61	266
1430.13	265.368
1431.65	270.421
1433.16	261.895
1434.68	260.421
1436.2	268.211
1437.71	265.579
1439.23	269.579
1440.75	269.684
1442.26	264.211
1443.77	260.211
1445.29	264.842
1446.8	261.684
1448.32	269.158
1449.83	261.368
1451.34	265.474
1452.85	262.105
1454.36	266.842
1455.87	263.895
1457.39	263.474
1458.9	266.105
1460.41	262.316
1461.91	260
1463.42	260.842
1464.93	259.579
1466.44	255.684
1467.95	254.737
1469.46	255.158
1470.96	251.263
1472.47	248.947
1473.97	252.211
1475.48	255.368
1476.99	251.263
1478.49	251.158
1479.99	248.105
1481.5	256.211
1483	252.632
1484.5	249.053
1486.01	244.947
1487.51	248.632
1489.01	248
1490.51	244.316
1492.01	239.158
1493.51	245.053
1495.01	242.421
1496.51	241.895
1498.01	246.316
1499.51	241.053
1501.01	246.421
1502.51	240.737
1504.01	244.211
1505.5	239.263
1507	243.474
1508.5	243.895
1509.99	239.895
1511.49	235.789
1512.98	234.632
1514.48	240.947
1515.97	234.211
1517.46	236.526
1518.96	238.737
1520.45	231.895
1521.94	235.684
1523.43	235.368
1524.93	232.842
1526.42	233.579
1527.91	235.263
1529.4	233.895
1530.89	234.737
1532.38	237.474
1533.87	237.158
1535.35	232.947
1536.84	238.105
1538.33	237.368
1539.82	236.105
1541.3	233.158
1542.79	236.737
1544.28	236
1545.76	235.158
1547.25	230.632
1548.73	233.263
1550.22	235.789
1551.7	238.526
1553.18	235.684
1554.67	235.158
1556.15	235.368
1557.63	239.158
1559.11	239.474
1560.6	240.632
1562.08	241.579
1563.56	237.368
1565.04	236
1566.52	239.684
1568	239.684
1569.48	239.864
1570.95	239.133
1572.43	235.787
1573.91	235.823
1575.39	235.009
1576.86	234.51
1578.34	236.058
1579.82	233.57
1581.29	235.978
1582.77	240.77
1584.24	234.065
1585.72	237.513
1587.19	238.927
1588.66	233.515
1590.14	235.871
1591.61	234.952
1593.08	240.783
1594.55	239.541
1596.02	233.544
1597.49	237.728
1598.97	239.421
1600.43	239.873
1601.9	240.075
1603.37	243.041
1604.84	241.376
1606.31	242.095
1607.78	242.506
1609.25	237.695
1610.71	238.328
1612.18	234.407
1613.65	234.873
1615.11	238.718
1616.58	232.742
1618.04	233.595
1619.51	231.524
1620.97	231.458
1622.44	232.186
1623.9	228.488
1625.36	229.461
1626.82	229.848
1628.29	231.742
1629.75	230.708
1631.21	227.331
1632.67	230.052
1634.13	230.8
1635.59	229.491
1637.05	228.243
1638.51	226.743
1639.97	228.472
1641.43	230.663
1642.88	230.211
1644.34	228.086
1645.8	226.746
1647.25	228.345
1648.71	228.7
1650.17	229.139
1651.62	228.489
1653.08	227.925
1654.53	226.863
1655.99	228.032
1657.44	225.473
1658.89	226.962
1660.35	229.98
1661.8	227.98
1663.25	229.248
1664.7	227.911
1666.15	228.099
1667.6	233.475
1669.05	231.352
1670.5	228.324
1671.95	226.117
1673.4	230.44
1674.85	228.777
1676.3	230.046
1677.75	231.054
1679.2	230.097
1680.64	229.501
1682.09	229.292
1683.53	230.313
1684.98	229.982
1686.43	230.63
1687.87	233.002
1689.31	230.579
1690.76	228.452
1692.2	231.618
1693.65	234.664
1695.09	231.845
1696.53	229.608
1697.97	231.8
1699.42	232.689
1700.86	233.384
1702.3	237.547
1703.74	239.239
1705.18	237.044
1706.62	238.68
1708.06	238.695
1709.49	240.67
1710.93	239.757
1712.37	241.696
1713.81	244.726
1715.25	239.432
1716.68	239.359
1718.12	243.722
1719.56	247.517
1720.99	242.64
1721.23	241.474
1722.72	247.579
1724.2	244.316
1725.69	249.684
1727.18	249.474
1728.66	250.211
1730.15	252.105
1731.63	252.421
1733.12	252.947
1734.6	255.263
1736.09	256.737
1737.57	251.053
1739.06	256.737
1740.54	259.789
1742.02	263.053
1743.5	260.632
1744.99	257.684
1746.47	260.632
1747.95	263.158
1749.43	267.789
1750.91	262
1752.39	262.947
1753.87	271.684
1755.35	264.632
1756.83	268.421
1758.31	273.684
1759.79	270.316
1761.27	272.947
1762.74	274.947
1764.22	272.211
1765.7	277.158
1767.17	277.684
1768.65	279.263
1770.13	272.316
1771.6	276.211
1773.08	277.895
1774.55	277.684
1776.03	278
1777.5	277.789
1778.97	278
1780.45	284.316
1781.92	274.842
1783.39	278.421
1784.87	278.421
1786.34	281.263
1787.81	280.842
1789.28	278.316
1790.75	294.421
1792.22	283.684
1793.69	284.737
1795.16	285.579
1796.63	284.316
1798.1	285.263
1799.57	280
1801.04	287.368
1802.5	292
1803.97	284.842
1805.44	285.684
1806.91	284.632
1808.37	279.053
1809.84	282.105
1811.31	286.421
1812.77	286.737
1814.24	280.737
1815.7	281.474
1817.16	282
1818.63	283.474
1820.09	287.368
1821.56	285.263
1823.02	279.895
1824.48	283.474
1825.94	275.895
1827.4	279.579
1828.87	287.684
1830.33	280.632
1831.79	281.895
1833.25	276.421
1834.71	285.368
1836.17	278.211
1837.63	273.053
1839.09	275.684
1840.55	277.579
1842	278.421
1843.46	278.316
1844.92	275.789
1846.37	270.526
1847.83	274.632
1849.29	277.474
1850.74	273.789
1852.2	267.263
1853.65	275.579
1855.11	272.211
1856.57	268.421
1858.02	273.789
1859.47	268.105
1860.93	266.842
1862.38	264.105
1863.83	270.316
1865.28	264
1866.74	272.421
1868.19	260.737
1869.64	265.158
1871.09	265.895
1872.54	262.105
1873.99	261.789
1875.44	264.526
1876.89	260.842
1878.34	257.579
1879.79	257.053
1881.24	258.211
1882.69	258.316
1884.13	259.368
1885.58	256.316
1887.03	260.316
1888.47	253.684
1889.92	255.368
1891.37	254.211
1892.81	252.737
1894.26	248.632
1895.7	245.368
1897.15	254.947
1898.59	249.474
1900.03	247.474
1901.48	247.789
1902.92	244.421
1904.36	241.053
1905.8	244.316
1907.25	242.632
1908.69	243.789
1910.13	240.526
1911.57	241.684
1913.01	235.684
1914.45	238.105
1915.89	239.368
1917.33	238.947
1918.77	236.842
1920.21	232.632
1921.65	232.421
1923.08	231.053
1924.52	235.368
1925.96	226.316
1927.4	228
1928.83	225.789
1930.27	227.263
1931.71	232.421
1933.14	232.737
1934.58	228.737
1936.01	224.632
1937.44	223.263
1938.88	227.158
1940.31	219.474
1941.75	225.789
1943.18	225.579
1944.61	223.263
1946.04	216.316
1947.47	218.632
1948.91	219.579
1950.34	218.211
1951.77	216.526
1953.2	213.684
1954.63	218
1956.06	216
1957.49	213.053
1958.92	214.211
1960.35	213.263
1961.77	214
1963.2	203.895
1964.63	215.789
1966.06	210.526
1967.48	207.895
1968.91	210.632
1970.34	205.368
1971.76	205.368
1973.19	206.632
1974.61	207.789
1976.04	204.737
1977.46	200.105
1978.89	199.895
1980.31	205.053
1981.73	202
1983.16	199.579
1984.58	197.684
1986	195.158
1987.42	197.053
1988.84	197.263
1990.26	198
1991.68	198.211
1993.11	196.737
1994.53	186.737
1995.95	189.053
1997.36	189.368
1998.78	192.526
2000.2	190.632
2001.62	193.895
2003.04	185.579
2004.46	188.316
2005.87	188.737
2007.29	185.158
2008.71	190.842
2010.12	183.684
2011.54	182.947
2012.95	186.632
2014.37	183.158
2015.78	179.474
2017.2	186.947
2018.61	179.474
2020.03	178.526
2021.44	178.842
2022.85	175.474
2024.26	176.737
2025.68	177.579
2027.09	178.211
2028.5	174.632
2029.91	174.316
2031.32	176.842
2032.73	175.895
2034.14	176.737
2035.55	173.684
2036.96	175.789
2038.37	172.526
2039.78	172.105
2041.19	172.947
2042.59	167.158
2044	171.368
2045.41	169.158
2046.82	167.474
2048.22	168.105
2049.63	166.842
2051.03	163.789
2052.44	166.105
2053.84	164.316
2055.25	162.316
2056.65	168.526
2058.06	168.632
2059.46	164.211
2060.86	161.263
2062.27	155.789
2063.67	162.842
2065.07	161.053
2066.47	161.368
2067.88	161.474
2069.28	160.947
2070.68	155.684
2072.08	160.105
2073.48	158.105
2074.88	157.263
2076.28	156.632
2077.68	154.105
2079.07	152.947
2080.47	158.737
2081.87	154.737
2083.27	156.632
2084.67	151.895
2086.06	153.053
2087.46	148.947
2088.85	154.947
2090.25	150.632
2091.65	152.632
2093.04	148.105
2094.44	145.368
2095.83	153.684
2097.22	151.158
2098.62	145.789
2100.01	152.211
2101.4	144.842
2102.8	144.947
2104.19	146.947
2105.58	140.316
2106.97	144.316
2108.36	144
2109.75	146.737
2111.14	142.421
2112.53	141.053
2113.92	144.632
2115.31	143.053
2116.7	143.053
2118.09	138.947
2119.48	139.789
2120.87	138
2122.25	138.632
2123.64	139.368
2125.03	142.632
2126.42	143.263
2127.8	137.368
2129.19	139.474
2130.57	138
2131.96	136.421
2133.34	140.316
2134.73	139.158
2136.11	138.947
2137.49	136.421
2138.88	135.789
2140.26	137.158
2141.64	133.684
2143.03	133.368
2144.41	136.421
2145.79	132.421
2147.17	135.579
2148.55	130
2149.93	130.842
2151.31	129.789
2152.69	131.579
2154.07	130.316
2155.45	127.263
2156.83	133.684
2158.21	131.895
2159.58	128.526
2160.96	131.895
2162.34	129.263
2163.72	126.842
2165.09	128.421
2166.47	125.789
2167.85	130.105
2169.22	124.632
2170.6	126.526
2171.97	126.842
2173.35	125.895
2174.72	122.526
2176.09	123.263
2177.47	128.105
2178.84	123.263
2180.21	126.105
2181.59	123.158
2182.96	124.316
2184.33	124.211
2185.7	125.895
2187.07	121.684
2188.44	127.158
2189.81	122
2191.18	121.368
2192.55	123.053
2193.92	122.737
2195.29	119.895
2196.66	121.474
2198.03	122.211
2199.39	120.526
2200.76	121.474
2202.13	119.579
2203.5	120.316
2204.86	119.263
2206.23	123.789
2207.59	116.737
2208.96	117.789
2210.32	117.789
2211.69	116.526
2213.05	117.368
2214.42	121.158
2215.78	119.789
2217.14	114.947
2218.51	116.421
2219.87	113.263
2221.23	114.842
2222.59	115.474
2223.95	116.211
2225.31	115.053
2226.68	116.632
2228.03	115.684
2229.4	111.158
2230.75	111.368
2232.12	116.842
2233.47	112.842
2234.83	116.737
2236.19	111.579
2237.55	114.737
2238.91	113.579
2240.26	112.105
2241.62	111.579
2242.98	110.737
2244.33	108.737
2245.69	107.368
2247.04	107.158
2248.4	108.211
2249.75	109.895
2251.11	111.474
2252.46	111.158
2253.82	108.947
2255.17	105.053
2256.52	105.895
2257.87	108.947
2259.23	112
2260.58	109.053
2261.93	108.105
2263.28	107.684
2264.63	108.632
2265.98	109.474
2267.33	106.421
2268.68	104.842
2270.03	105.895
2271.38	104.105
2272.73	105.368
2274.08	106.316
2275.43	108.211
2276.77	106.105
2278.12	108.842
2279.47	104.105
2280.81	106.632
2282.16	105.053
2283.51	104.632
2284.85	105.895
2286.2	107.158
2287.54	104.632
2288.89	106.316
2290.23	101.474
2291.58	108.842
2292.92	99.579
2294.26	103.684
2295.61	104.842
2296.95	101.368
2298.29	105.158
2299.63	101.474
2300.97	102
2302.31	102.842
2303.65	99.4737
2304.99	103.895
2306.33	104.526
2307.67	102.105
2309.01	105.684
2310.35	100.632
2311.69	101.684
2313.03	100.421
2314.37	103.053
2315.7	99.0526
2317.04	103.158
2318.38	100.105
2319.72	103.263
2321.05	98.8421
2322.39	100.526
2323.72	100.632
2325.06	102.526
2326.39	101.053
2327.73	100.737
2329.06	100.211
2330.39	99.4737
2331.73	97.3684
2333.06	99.4737
2334.39	99.6842
2335.73	99.7895
2337.06	98.2105
2338.39	97.6842
2339.72	97.4737
2341.05	99.3684
2342.38	93.8947
2343.71	99.4737
2345.04	96.2105
2346.37	95.6842
2347.7	101.474
2349.03	98.5263
2350.36	99.1579
2351.68	97.2632
2353.01	95.6842
2354.34	96
2355.67	98
2356.99	96.7368
2358.32	98.8421
2359.65	95.1579
2360.97	96
2362.3	96.3158
2363.62	99.3684
2364.95	96.4211
2366.27	97.3684
2367.6	94.4211
2368.92	95.8947
2370.24	96.8421
2371.56	96.2105
2372.89	92
2374.21	92.5263
2375.53	92.3158
2376.85	92.5263
2378.17	93.2632
2379.49	94.6316
2380.81	92.7368
2382.13	93.6842
2383.45	96.9474
2384.77	91.6842
2386.09	93.3684
2387.41	94.4211
2388.73	92.3158
2390.05	92.5263
2391.37	95.7895
2392.68	89.0526
2394	94.6316
2395.32	95.3684
2396.63	95.3684
2397.95	91.6842
2399.26	96.8421
2400.58	90.8421
2401.89	98.2105
2403.21	94.4211
2404.52	94.2105
2405.84	94.1053
2407.15	92.2105
2408.46	92.9474
2409.78	93.7895
2411.09	94.5263
2412.4	94.6316
2413.71	85.8947
2415.02	91.7895
2416.33	94.7368
2417.64	90.5263
2418.96	93.0526
2420.27	94.7368
2421.57	95.4737
2422.88	96.9474
2424.19	91.8947
2425.5	92.6316
2426.81	92
2428.12	94.421
2429.42	92.2105
2430.73	95.3684
2432.04	93.5789
2433.35	94.8421
2434.65	90.2105
2435.96	96.2105
2437.26	95.3684
2438.57	92.6316
2439.87	92.1053
2441.18	92
2442.48	91.1579
2443.78	90.3158
2445.09	92.6316
2446.39	93.7895
2447.69	93.1579
2449	92
2450.3	93.0526
2451.6	93.4737
2452.9	93.2632
2454.2	88.4211
2455.5	93.5789
2456.8	93.5789
2458.1	91.1579
2459.4	90
2460.7	93.4737
2462	91.7895
2463.3	90.9474
2464.6	91.0526
2465.89	92
2467.19	92.6316
2468.49	89.6842
2469.79	90
2471.08	90
2472.38	90.7368
2473.67	93.2632
2474.97	94.3158
2476.27	88.9474
2477.56	92.9474
2478.85	95.1579
2480.15	94.2105
2481.44	90.2105
2482.74	94.6316
2484.03	94.9474
2485.32	95.2632
2486.61	92.9474
2487.91	93.5789
2489.2	91.8947
2490.49	88.9474
2491.78	93.7895
2493.07	93.3684
2494.36	93.3684
2495.65	95.0526
2496.94	96.2105
2498.23	95.4737
2499.52	93.1579
2500.81	93.5789
2502.09	92.1053
2503.38	95.8947
2504.67	90
2505.96	95.0526
2507.24	97.1579
2508.53	95.0526
2509.82	95.1579
2511.1	94.7368
2512.39	91.1579
2513.67	91.0526
2514.96	95.2631
2516.24	95.1579
2517.52	94.3158
2518.81	92.3158
2520.09	97.5789
2521.37	93.3684
2522.66	97.1579
2523.94	97.0526
2525.22	95.4737
2526.5	97.2632
2527.78	97.0526
2529.07	97.8947
2530.35	96.8421
2531.63	95.2632
2532.91	96.7368
2534.19	97.4737
2535.47	97.8947
2536.74	102.526
2538.02	98.2105
2539.3	97.4737
2540.58	94.6316
2541.86	98.6316
2543.13	94.3158
2544.41	98
2545.69	96.6316
2546.96	98.9474
2548.24	99.7895
2549.51	97.0526
2550.79	98.3158
2552.06	100.421
2553.34	96.3158
2554.61	100.947
2555.89	99.5789
2557.16	99.1579
2558.43	100.105
2559.7	101.684
2560.98	101.684
2562.25	102.947
2563.52	100.632
2564.79	96.2105
2566.06	100
2567.33	102.211
2568.6	100
2569.87	100.632
2571.14	102.105
2572.41	103.684
2573.68	101.684
2574.95	98.9474
2576.22	103.053
2577.48	103.263
2578.75	101.789
2580.02	101.474
2581.29	103.895
2582.55	99.2632
2583.82	100.947
2585.08	100.526
2586.35	101.579
2587.62	104.737
2588.88	104.211
2590.15	104.316
2591.41	97.2632
2592.67	100.842
2593.94	104.211
2595.2	103.684
2596.46	101.579
2597.72	104.947
2598.99	105.895
2600.25	104.421
2601.51	102.842
2602.77	104.421
2604.03	104
2605.29	106.737
2606.55	104.947
2607.81	104
2609.07	103.368
2610.33	102.316
2611.59	103.474
2612.85	106.105
2614.1	106.316
2615.36	108.737
2616.62	104.842
2617.88	104.211
2619.13	105.579
2620.39	106
2621.64	107.158
2622.9	106.105
2624.16	102.211
2625.41	107.789
2626.67	107.895
2627.92	110.421
2629.17	105.263
2630.43	107.158
2631.68	108.316
2632.93	105.789
2634.18	110.211
2635.44	108.421
2636.69	106.421
2637.94	107.053
2639.19	107.474
2640.44	109.158
2641.69	107.368
2642.94	108.211
2644.19	110.105
2645.44	107.895
2646.69	106.947
2647.94	108.632
2649.19	106.737
2650.44	108.421
2651.68	109.579
2652.93	106.211
2654.18	111.684
2655.42	110.421
2656.67	110.211
2657.92	108.947
2659.16	110.526
2660.41	112
2661.65	112.105
2662.9	114
2664.14	108.105
2665.38	105.684
2666.63	108.737
2667.87	110.105
2669.11	110.737
2670.36	114.947
2671.6	108.526
2672.84	112.421
2674.08	108.316
2675.32	112.316
2676.57	109.263
2677.81	109.789
2679.05	109.053
2680.29	107.158
2681.52	110.842
2682.76	106.842
2684	113.579
2685.24	110.316
2686.48	107.684
2687.72	110.526
2688.95	108.632
2690.19	110.947
2691.43	109.579
2692.67	107.684
2693.9	105.474
2695.14	106.737
2696.37	110.316
2697.61	106.842
2698.84	109.158
2700.08	108.316
2701.31	110.632
2702.54	106.632
2703.78	104.316
2705.01	105.684
2706.24	107.579
2707.48	108.421
2708.71	110.105
2709.94	109.263
2711.17	106.316
2712.4	107.158
2713.63	108.316
2714.86	107.053
2716.09	107.053
2717.32	108.316
2718.55	109.368
2719.78	109.368
2721.01	105.579
2722.24	103.789
2723.47	106
2724.69	104.421
2725.92	106.842
2727.15	105.368
2728.38	105.895
2729.6	108.842
2730.83	108
2732.05	104.632
2733.28	108.211
2734.5	107.368
2735.73	108.316
2736.95	107.158
2738.18	106.737
2739.4	102.211
2740.62	105.474
2741.85	105.684
2743.07	106.421
2744.29	103.579
2745.51	103.158
2746.74	101.053
2747.96	103.789
2749.18	107.158
2750.4	101.895
2751.62	103.789
2752.84	105.789
2754.06	107.053
2755.28	107.263
2756.49	106
2757.71	107.789
2758.93	104.947
2760.15	106.947
2761.37	108.842
2762.58	105.579
2763.8	105.474
2765.02	102.947
2766.23	105.053
2767.45	108.526
2768.66	106.526
2769.88	106
2771.09	104.842
2772.31	108.842
2773.52	109.158
2774.74	106.105
2775.95	106.632
2777.16	106.632
2778.38	101.579
2779.59	106.316
2780.8	105.684
2782.01	110.737
2783.22	106.105
2784.43	108.421
2785.65	107.895
2786.86	109.474
2788.07	105.579
2789.28	105.263
2790.49	107.684
2791.7	108.947
2792.9	107.158
2794.11	104.526
2795.32	104.316
2796.53	106.737
2797.73	107.044
2798.94	106.1
2800.15	103.543
2801.35	106.327
2802.56	106.752
2803.77	108.578
2804.97	108.338
2806.18	107.816
2807.38	107.935
2808.59	106.76
2809.79	107.255
2811	107.941
2812.2	109.108
2813.4	108.06
2814.6	108.044
2815.81	105.565
2817.01	107.492
2818.21	105.898
2819.41	105.762
2820.61	108.985
2821.81	106.415
2823.01	107.219
2824.21	109.679
2825.41	110.248
2826.61	109.37
2827.81	105.527
2829.01	108.045
2830.21	107.849
2831.41	106.739
2832.6	108.865
2833.8	109.409
2835	110.04
2836.19	107.949
2837.39	108.922
2838.59	109.335
2839.78	109.638
2840.98	109.251
2842.17	112.477
2843.37	111.415
2844.56	111.365
2845.76	111.839
2846.95	113.484
2848.14	113.747
2849.34	112.912
2850.53	114.345
2851.72	111.852
2852.91	114.121
2854.1	112.046
2855.3	113.308
2856.49	110.546
2857.68	111.059
2858.87	111.769
2860.06	111.573
2861.25	112.043
2862.44	114.883
2863.63	111.954
2864.81	114.182
2866	112.677
2867.19	113.089
2868.38	113.161
2869.57	111.557
2870.75	113.118
2871.94	112.75
2873.13	114.527
2874.31	113.91
2875.5	115.019
2876.68	116.5
2877.87	115.247
2879.05	115.97
2880.24	116.154
2881.42	114.662
2882.6	113.574
2883.79	115.654
2884.97	115.878
2886.15	115.003
2887.34	117.127
2888.52	113.852
2889.7	115.59
2890.88	117.102
2892.06	118.772
2893.24	118.733
2894.42	118.431
2895.6	117.639
2896.78	119.811
2897.96	119.14
2899.14	117.015
2900.32	116.841
2901.5	117.606
2902.67	118.62
2903.85	119.335
2905.03	119.824
2906.21	118.456
2907.38	120.238
2908.56	119.766
2909.74	120.475
2910.91	121.781
2912.09	122.801
2913.26	120.119
2914.44	122.411
2915.61	120.777
2916.78	121.717
2917.96	117.969
2919.13	123.27
2920.3	123.89
2920.55	123.789
2921.78	123.895
2923	123.158
2924.23	120.105
2925.45	126.421
2926.68	123.789
2927.9	125.579
2929.12	121.368
2930.35	119.684
2931.57	124.632
2932.79	124
2934.02	121.579
2935.24	119.684
2936.46	125.579
2937.68	123.789
2938.9	125.368
2940.12	123.368
2941.34	124.316
2942.56	121.053
2943.78	120.632
2945	121.263
2946.22	123.368
2947.44	124.632
2948.66	123.053
2949.88	124.421
2951.1	124.842
2952.32	125.053
2953.54	124.632
2954.75	124
2955.97	122.947
2957.19	123.789
2958.4	127.263
2959.62	125.789
2960.84	127.789
2962.05	120.526
2963.27	119.263
2964.48	127.368
2965.7	125.368
2966.91	126.526
2968.13	125.368
2969.34	126.316
2970.55	124.526
2971.77	125.789
2972.98	123.368
2974.19	125.053
2975.41	123.263
2976.62	127.579
2977.83	124.842
2979.04	124.632
2980.25	126.526
2981.46	126.947
2982.68	127.368
2983.89	129.263
2985.1	126.737
2986.31	123.789
2987.52	127.053
2988.73	123.263
2989.94	127.579
2991.14	130.632
2992.35	127.368
2993.56	124.211
2994.77	128.947
2995.98	126.947
2997.18	126.105
2998.39	125.684
2999.6	127.263
3000.8	127.158
3002.01	127.579
3003.22	123.053
3004.42	125.368
3005.63	129.474
3006.83	126
3008.04	128.737
3009.24	125.158
3010.45	125.684
3011.65	129.158
3012.85	130.632
3014.06	128
3015.26	131.053
3016.46	129.158
3017.66	125.263
3018.87	126.842
3020.07	128.737
3021.27	133.158
3022.47	127.579
3023.67	128.947
3024.87	125.684
3026.07	128.421
3027.27	131.789
3028.48	130.526
3029.67	124.842
3030.87	129.158
3032.07	129.895
3033.27	130.526
3034.47	128.211
3035.67	135.474
3036.87	127.789
3038.06	131.895
3039.26	131.684
3040.46	133.158
3041.65	129.684
3042.85	129.579
3044.05	132.421
3045.24	130.526
3046.44	129.158
3047.63	129.474
3048.83	129.053
3050.02	132.526
3051.22	131.158
3052.41	125.895
3053.6	132.947
3054.8	135.474
3055.99	133.789
3057.18	131.579
3058.38	129.053
3059.57	132.842
3060.76	129.474
3061.95	132.211
3063.14	130.737
3064.34	130.105
3065.53	126.421
3066.72	132
3067.91	137.684
3069.1	130.842
3070.29	131.684
3071.48	132.105
3072.67	133.895
3073.85	134
3075.04	132.842
3076.23	134.211
3077.42	133.579
3078.61	134.421
3079.8	134.526
3080.98	132.947
3082.17	136.421
3083.36	133.263
3084.54	134.737
3085.73	134.421
3086.91	136.842
3088.1	133.579
3089.29	136.947
3090.47	129.158
3091.65	137.263
3092.84	131.474
3094.02	135.789
3095.21	134.737
3096.39	137.368
3097.57	134.421
3098.76	135.368
3099.94	138.737
3101.12	132.947
3102.3	133.579
3103.48	137.684
3104.67	136.211
3105.85	135.368
3107.03	135.158
3108.21	133.789
3109.39	138.105
3110.57	134.316
3111.75	135.053
3112.93	138.842
3114.11	133.053
3115.28	135.789
3116.46	137.579
3117.64	139.158
3118.82	136.211
3120	138.105
3121.17	140.526
3122.35	138.105
3123.53	139.263
3124.71	142
3125.88	138
3127.06	136.947
3128.23	139.789
3129.41	136.421
3130.58	142.105
3131.76	139.474
3132.93	137.895
3134.11	133.474
3135.28	142.632
3136.45	139.474
3137.63	137.474
3138.8	143.263
3139.97	138.211
3141.15	142.105
3142.32	140.737
3143.49	144.105
3144.66	145.263
3145.83	144.421
3147	145.579
3148.18	148.105
3149.35	145.579
3150.52	144.211
3151.68	146.842
3152.85	148.421
3154.02	153.158
3155.19	148.316
3156.36	146.526
3157.53	151.474
3158.7	149.684
3159.87	150
3161.03	152.421
3162.2	149.474
3163.37	150.526
3164.54	151.579
3165.7	150.211
3166.87	153.474
3168.03	150.211
3169.2	148.526
3170.36	155.579
3171.53	150.737
3172.69	152.211
3173.86	155.789
3175.02	156.842
3176.19	156.632
3177.35	155.053
3178.51	156.632
3179.68	157.789
3180.84	156.632
3182	156.947
3183.16	155.895
3184.33	159.895
3185.49	155.263
3186.65	163.158
3187.81	165.895
3188.97	156.947
3190.13	166
3191.29	161.789
3192.45	166.632
3193.61	167.474
3194.77	163.158
3195.93	170.947
3197.09	166.105
3198.24	162.316
3199.4	168.316
3200.56	170.21
3201.72	164.632
3202.88	161.789
3204.03	165.263
3205.19	166.105
3206.35	174.737
3207.5	168.105
3208.66	168.421
3209.81	172.526
3210.97	173.158
3212.12	171.474
3213.28	169.789
3214.43	176.316
3215.59	173.789
3216.74	175.474
3217.89	171.263
3219.05	174.526
3220.2	167.368
3221.35	173.579
3222.51	177.368
3223.66	171.053
3224.81	175.053
3225.96	176.211
3227.11	181.368
3228.26	177.474
3229.41	179.368
3230.56	179.789
3231.71	177.895
3232.86	180
3234.01	182.421
3235.16	177.053
3236.31	176.526
3237.46	175.053
3238.61	181.789
3239.76	182.316
3240.9	178.421
3242.05	176.947
3243.2	180
3244.35	181.684
3245.49	175.895
3246.64	178.947
3247.78	184.211
3248.93	181.684
3250.08	181.579
3251.22	182.316
3252.37	178
3253.51	178.316
3254.65	174.842
3255.8	184
3256.94	183.158
3258.09	178.842
3259.23	182.105
3260.37	179.474
3261.52	177.474
3262.66	178.947
3263.8	180.632
3264.94	182
3266.08	175.263
3267.22	176.947
3268.36	182.211
3269.51	178.526
3270.65	180.421
3271.79	182.316
3272.93	180.632
3274.07	180.842
3275.2	183.474
3276.34	180.316
3277.48	176.421
3278.62	176.632
3279.76	180.947
3280.9	182.526
3282.03	185.579
3283.17	185.263
3284.31	181.474
3285.44	187.789
3286.58	185.263
3287.72	183.053
3288.85	180.421
3289.99	182.737
3291.12	182.737
3292.26	183.789
3293.39	187.053
3294.53	184.632
3295.66	188
3296.79	186.842
3297.93	189.684
3299.06	191.263
3300.19	192.211
3301.33	190.421
3302.46	195.263
3303.59	191.789
3304.72	193.053
3305.85	189.158
3306.99	194.211
3308.12	195.474
3309.25	198.211
3310.38	195.579
3311.51	197.895
3312.64	197.789
3313.77	201.684
3314.9	196.632
3316.02	201.789
3317.15	201.895
3318.28	200.211
3319.41	205.263
3320.54	197.474
3321.67	203.579
3322.79	207.368
3323.92	205.263
3325.05	205.474
3326.17	208.737
3327.3	209.684
3328.42	208.632
3329.55	209.895
3330.68	214.947
3331.8	217.263
3332.92	213.684
3334.05	215.789
3335.17	218.737
3336.3	224
3337.42	223.053
3338.54	219.579
3339.67	218
3340.79	224.947
3341.91	225.684
3343.03	228
3344.16	232.947
3345.28	231.474
3346.4	229.263
3347.52	232.842
3348.64	234.316
3349.76	233.368
3350.88	233.368
3352	236.947
3353.12	235.053
3354.24	239.474
3355.36	240.947
3356.48	245.158
3357.59	238
3358.71	248.632
3359.83	247.368
3360.95	251.053
3362.07	244.316
3363.18	241.789
3364.3	248.211
3365.42	252.421
3366.53	250.632
3367.65	247.789
3368.76	255.579
3369.88	250.842
3370.99	250.105
3372.11	253.158
3373.22	252.737
3374.34	250.842
3375.45	248.211
3376.56	255.684
3377.68	260.737
3378.79	260.632
3379.9	254.632
3381.02	256.526
3382.13	251.368
3383.24	264.737
3384.35	252.105
3385.46	255.053
3386.57	260.316
3387.68	259.158
3388.79	264.737
3389.9	261.158
3391.01	261.684
3392.12	256.211
3393.23	260.737
3394.34	269.263
3395.45	264.947
3396.56	262
3397.67	263.895
3398.78	258.842
3399.88	258.842
3400.99	257.263
3402.1	257.053
3403.2	258.632
3404.31	259.789
3405.42	255.158
3406.52	261.368
3407.63	261.263
3408.73	260.421
3409.84	260.421
3410.94	260.211
3412.05	257.789
3413.15	257.895
3414.26	257.158
3415.36	260
3416.46	259.158
3417.56	258.947
3418.67	258.526
3419.77	256.316
3420.87	259.263
3421.97	255.895
3423.08	258.632
3424.18	255.053
3425.28	255.895
3426.38	254.105
3427.48	255.474
3428.58	252.632
3429.68	252.737
3430.78	250.632
3431.88	250.526
3432.98	254.737
3434.08	254.842
3435.18	248.947
3436.27	255.684
3437.37	257.368
3438.47	256.421
3439.57	256.105
3440.66	255.053
3441.76	250.737
3442.86	256.211
3443.95	255.684
3445.05	255.474
3446.14	252.211
3447.24	261.579
3448.33	255.579
3449.43	260
3450.52	258.316
3451.62	258.316
3452.71	262.947
3453.81	261.158
3454.9	259.474
3455.99	260.947
3457.08	263.474
3458.18	268.316
3459.27	265.474
3460.36	268.421
3461.45	275.789
3462.55	275.579
3463.64	279.158
3464.73	285.579
3465.82	283.158
3466.91	286
3468	290.947
3469.09	293.895
3470.18	291.368
3471.27	301.474
3472.36	306.737
3473.44	299.789
3474.53	308.947
3475.62	311.053
3476.71	316
3477.8	325.895
3478.88	327.053
3479.97	331.474
3481.06	334.947
3482.14	335.368
3483.23	344.316
3484.32	353.263
3485.4	355.263
3486.49	364.947
3487.57	364.421
3488.65	380.737
3489.74	389.368
3490.82	395.263
3491.91	405.579
3492.99	418.316
3494.07	427.895
3495.16	440
3496.24	447.579
3497.32	467.263
3498.4	476.842
3499.49	501.474
3500.57	513.474
3501.65	530.947
3502.73	550.211
3503.81	570.526
3504.89	595.789
3505.97	618.211
3507.05	615.263
3508.13	638
3509.21	649.895
3510.29	653.263
3511.37	656.421
3512.45	651.895
3513.52	647.895
3514.6	642.316
3515.68	621.474
3516.76	598.316
3517.83	578.632
3518.91	557.158
3519.99	546.211
3521.06	536.211
3522.14	511.158
3523.21	489.789
3524.29	468
3525.36	468
3526.44	446.526
3527.51	428.632
3528.59	401.684
3529.66	395.158
3530.74	385.895
3531.81	375.789
3532.88	360.526
3533.95	351.579
3535.03	348.211
3536.1	336.316
3537.17	330
3538.24	322.737
3539.31	317.263
3540.39	312.316
3541.46	298.211
3542.53	301.474
3543.6	291.579
3544.67	288.211
3545.74	286
3546.81	272.737
3547.88	272.316
3548.94	269.789
3550.01	261.895
3551.08	265.053
3552.15	258.421
3553.22	255.789
3554.28	256.526
3555.35	249.895
3556.42	247.789
3557.49	250
3558.55	250.211
3559.62	249.263
3560.68	252.211
3561.75	255.579
3562.81	251.053
3563.88	249.789
3564.94	258.105
3566.01	254.105
3567.07	252.105
3568.14	256.316
3569.2	254
3570.26	256.316
3571.32	244.105
3572.39	242.211
3573.45	242.632
3574.51	232.947
3575.57	230.211
3576.63	220.211
3577.7	220.526
3578.76	217.053
3579.82	209.789
3580.88	203.579
3581.94	203.368
3583	195.158
3584.06	190.316
3585.12	183.263
3586.18	183.474
3587.24	181.895
3588.29	177.789
3589.35	177.053
3590.41	170.842
3591.47	168.842
3592.52	165.684
3593.58	158.316
3594.64	155.158
3595.7	156.211
3596.75	154.947
3597.81	149.053
3598.86	149.053
3599.92	145.474
3600.97	140.526
3602.03	134.842
3603.08	133.579
3604.14	132.105
3605.19	123.158
3606.24	123.158
3607.3	121.474
3608.35	120
3609.4	118.526
3610.46	115.579
3611.51	110.842
3612.56	106.105
3613.61	107.053
3614.66	107.158
3615.71	103.684
3616.77	101.158
3617.82	100.737
3618.87	99.1579
3619.92	98.5263
3620.97	97.2632
3622.02	92.8421
3623.07	94.2105
3624.11	93.3684
3625.16	92.2105
3626.21	90.6316
3627.26	89.8947
3628.31	87.0526
3629.35	86.5263
3630.4	86
3631.45	82.9474
3632.5	82.8421
3633.54	83.5789
3634.59	80.6316
3635.63	80.5263
3636.68	83.2632
3637.73	81.579
3638.77	81.3684
3639.81	80.9474
3640.86	77.7895
3641.9	77.3684
3642.95	78.5263
3643.99	75.2632
3645.03	72.1053
3646.08	72.5263
3647.12	76.2105
3648.16	74
3649.2	74.7368
3650.25	71.2631
3651.29	69.6842
3652.33	74.1053
3653.37	74.6316
3654.41	70.3158
3655.45	70.8421
3656.49	71.0526
3657.53	70.2105
3658.57	65.7895
3659.61	69.4737
3660.65	67.2632
3661.69	68.6316
3662.73	69.5789
3663.77	66
3664.8	68.421
3665.84	65.5789
3666.88	62.3158
3667.92	62.7369
3668.95	63.2632
3669.99	65.0526
3671.03	64.1053
3672.06	63.8947
3673.1	61.2632
3674.13	63.4737
3675.17	61.7895
3676.2	62.8421
3677.24	58.9474
3678.27	59.3684
3679.31	62
3680.34	61.0526
3681.38	57.4737
3682.41	58.6316
3683.44	60.7368
3684.47	62.5263
3685.51	57.0526
3686.54	57.4737
3687.57	57.6842
3688.6	54.5263
3689.63	57.7895
3690.66	57.1579
3691.7	56.3158
3692.72	58.8421
3693.76	56.1053
3694.79	54.6316
3695.81	55.7895
3696.84	57.5789
3697.87	57.3684
3698.9	55.1579
3699.93	54.2105
3700.96	56.2105
3701.99	51.8947
3703.02	53.3684
3704.04	52.3158
3705.07	56
3706.1	55.5789
3707.12	56.2105
3708.15	54
3709.17	53.4737
3710.2	53.3684
3711.23	54.8421
3712.25	55.1579
3713.28	52.9474
3714.3	52.3158
3715.33	52.7368
3716.35	51.2632
3717.37	52.1053
3718.4	53.4737
3719.42	53.5789
3720.44	54.2105
3721.47	53.8947
3722.49	50.8421
3723.51	53.2632
3724.53	53.1579
3725.55	52.3158
3726.58	51.3684
3727.6	53.8947
3728.62	51.7895
3729.64	54.7368
3730.66	51.0526
3731.68	50.8421
3732.7	51.3684
3733.72	53.1579
3734.74	51.3684
3735.75	51.1579
3736.77	48.2105
3737.79	49.5789
3738.81	48.1053
3739.83	50.3158
3740.84	50.9474
3741.86	50.3158
3742.88	48.421
3743.89	50.4211
3744.91	47.5789
3745.93	50.1053
3746.94	50.6316
3747.96	49.0526
3748.97	49.2632
3749.99	49.1579
3751	51.2632
3752.02	49.2632
3753.03	47.5789
3754.05	50.2105
3755.06	48.421
3756.07	49.0526
3757.09	48.6316
3758.1	48.5263
3759.11	46
3760.12	47.2632
3761.13	48.6316
3762.15	48.8421
3763.16	45.6842
3764.17	48.9474
3765.18	45.8947
3766.19	49.8947
3767.2	48.4211
3768.21	48.9474
3769.22	48.5263
3770.23	49.579
3771.24	45.5789
3772.25	48.1053
3773.26	49.7895
3774.26	44.8421
3775.27	47.5789
3776.28	46.1053
3777.29	48.6316
3778.29	47.5789
3779.3	48.6316
3780.31	46.8421
3781.31	49.6842
3782.32	46.2105
3783.33	46.7368
3784.33	47.1579
3785.34	47.8947
3786.34	47.7895
3787.35	48
3788.35	48
3789.35	45.6842
3790.36	47.8947
3791.36	45.6842
3792.36	44.9474
3793.37	45.7895
3794.37	46.421
3795.37	48.1053
3796.38	48.3158
3797.38	43.5789
3798.38	47.3684
3799.38	44.9474
3800.38	46.7368
3801.38	49.2632
3802.38	45.1579
3803.38	45.3684
3804.38	48.7368
3805.38	47.3684
3806.38	45.7895
3807.38	48.3158
3808.38	45.0526
3809.38	45.4746
3810.38	46.3491
3811.37	47.7113
3812.37	48.4586
3813.37	47.0537
3814.37	47.3554
3815.36	45.7419
3816.36	47.3066
3817.36	45.4651
3818.35	48.1498
3819.35	45.6553
3820.34	46.2879
3821.34	45.8109
3822.34	48.2152
3823.33	46.1464
3824.32	44.948
3825.32	46.5957
3826.31	45.6241
3827.31	47.5512
3828.3	45.6348
3829.29	44.9582
3830.29	44.9116
3831.28	47.5932
3832.27	46.7648
3833.26	47.0835
3834.25	45.5034
3835.25	45.4065
3836.24	46.0139
3837.23	43.9872
3838.22	46.5432
3839.21	44.0726
3840.2	46.1498
3841.19	48.2192
3842.18	45.5556
3843.17	46.3877
3844.16	46.4537
3845.14	46.302
3846.13	46.8003
3847.12	45.956
3848.11	46.8017
3849.1	45.8266
3850.08	46.4992
3851.07	46.8222
3852.06	48.183
3853.04	46.6913
3854.03	46.4008
3855.02	45.1822
3856	46.2934
3856.99	43.7215
3857.97	46.943
3858.96	45.8945
3859.94	43.28
3860.93	44.3059
3861.91	46.0691
3862.89	44.6577
3863.88	44.8935
3864.86	43.4948
3865.84	45.6672
3866.83	47.0874
3867.81	45.3828
3868.79	45.4192
3869.77	46.1886
3870.75	46.5874
3871.73	45.5796
3872.72	46.26
3873.7	46.5227
3874.68	44.9066
3875.66	46.7576
3876.64	47.0425
3877.62	46.5686
3878.6	44.8417
3879.57	46.1609
3880.55	45.0316
3881.53	47.3121
3882.51	47.457
3883.49	45.9662
3884.47	46.1754
3885.44	46.0882
3886.42	46.2493
3887.4	46.6471
3888.37	46.1327
3889.35	46.779
3890.33	46.8577
3891.3	47.6866
3892.28	43.8108
3893.25	46.0356
3894.23	44.6394
3895.2	45.5949
3896.18	46.284
3897.15	47.7762
3898.13	45.1084
3899.1	44.9195
3900.07	45.138
3901.04	46.9238
3902.02	45.6882
3902.99	45.1676
3903.96	47.3124
3904.93	47.7394
3905.91	46.3121
3906.88	45.7757
3907.85	45.9739
3908.82	45.901
3909.79	46.3192
3910.76	44.9117
3911.73	46.0285
3912.7	46.3298
3913.57	45.3684
3914.59	44
3915.61	46.421
3916.63	45.8947
3917.65	46.9474
3918.68	44.2105
3919.7	45.4737
3920.72	45.7895
3921.74	43.6842
3922.76	44.9474
3923.78	43.5789
3924.8	45.2632
3925.82	42.5263
3926.83	45.3684
3927.85	44.2105
3928.87	46.3158
3929.89	45.6842
3930.91	46.1053
3931.93	42
3932.94	44.2105
3933.96	42.9474
3934.98	44.3158
3936	42.7368
3937.01	47.2632
3938.03	44.2105
3939.05	45.5789
3940.06	44.9474
3941.08	44.3158
3942.09	42.7368
3943.11	45.1579
3944.12	46.5263
3945.14	43.3684
3946.15	47.8947
3947.17	44.1053
3948.18	42.8421
3949.19	45.3684
3950.21	40.8421
3951.22	44.6316
3952.23	42.6316
3953.25	42.9474
3954.26	41.7895
3955.27	44.2105
3956.28	43.8947
3957.3	41.6842
3958.31	44.4211
3959.32	43.2632
3960.33	43.2632
3961.34	44.9474
3962.35	43.2632
3963.36	44.8421
3964.37	44.8421
3965.38	42
3966.39	43.3684
3967.4	46.8421
3968.41	44.1053
3969.42	44.7368
3970.43	45.4737
3971.44	42.7368
3972.45	43.7895
3973.45	45.0526
3974.46	43.3684
3975.47	43.2632
3976.48	44.4211
3977.49	42.2105
3978.49	44.9474
3979.5	44.8421
3980.51	44.7368
3981.51	45.0526
3982.52	43.3684
3983.52	44.8421
3984.53	44
3985.53	44.1053
3986.54	43.579
3987.54	41.6842
3988.55	42.9474
3989.55	44.8421
3990.56	41.3684
3991.56	42.6316
3992.56	42.2105
3993.57	44.3158
3994.57	40.9474
3995.57	41.6842
3996.58	43.2632
3997.58	39.6842
3998.58	44.6316
3999.58	43.0526
