##NAMES=Scholzite
##RRUFFID=R050238
##IDEAL CHEMISTRY=CaZn_2_(PO_4_)_2_·2H_2_O
##LOCALITY=near Blinman, South Australia, Australia
##OWNER=RRUFF
##SOURCE=Marcus Origlieri
##DESCRIPTION=Colorless bladed crystals
##STATUS=The identification of this mineral has been confirmed by X-ray diffraction and chemical analysis
##URL=https://www.rruff.net/odr/rruff_sample/R050238
##MEASURED CHEMISTRY=Ca_1.00_Zn_2.00_(P_1.00_O_4_)_2_·2H_2_O
##DIFFRACTION SAMPLE DESCRIPTION=Single crystal, powder profile is calculated
##CELL PARAMETERS=a: 17.1976 b: 22.2751 c: 6.5836 alpha: 90 beta: 90 gamma: 90 volume: 2560.33 crystal system: orthorhombic
##FILETYPE=Raman RAW
##RAMAN WAVELENGTH=532

86.05151, 27.18725
87.97998, 29.83194
89.90845, 35.87353
91.83691, 43.33557
93.76538, 51.98383
95.69385, 62.09471
97.62231, 73.65165
99.55078, 86.15231
101.4792, 101.3565
103.4077, 119.4045
105.3362, 140.4142
107.2646, 163.0024
109.1931, 186.5576
111.1216, 212.2250
113.0500, 240.5633
114.9785, 273.1226
116.9070, 307.0301
118.8354, 343.7425
120.7639, 382.8409
122.6924, 418.6537
124.6208, 448.6059
126.5493, 475.2901
128.4778, 495.2364
130.4063, 494.0440
132.3347, 492.4883
134.2632, 495.1336
136.1917, 502.1804
138.1201, 509.2988
140.0486, 516.5895
141.9771, 523.7223
143.9055, 529.8027
145.8340, 533.4232
147.7625, 537.7385
149.6909, 543.9788
151.6194, 553.5122
153.5479, 563.0295
155.4763, 573.7018
157.4048, 584.4557
159.3333, 592.4498
161.2617, 596.0194
163.1902, 597.6769
165.1187, 599.0053
167.0471, 602.1659
168.9756, 601.0943
170.9041, 592.2194
172.8325, 576.3078
174.7610, 561.9552
176.6895, 548.9730
178.6179, 537.6358
180.5464, 528.2908
182.4749, 520.7721
184.4033, 515.1322
186.3318, 511.3685
188.2603, 509.9055
190.1887, 508.6895
192.1172, 507.1942
194.0457, 506.2250
195.9741, 506.3586
197.9026, 507.9220
199.8311, 510.3245
201.7595, 513.3975
203.6880, 517.2016
205.6165, 521.4936
207.5449, 525.0944
209.4734, 529.4724
211.4019, 536.7629
213.3303, 548.3156
215.2588, 561.6688
217.1873, 576.5832
219.1157, 593.0035
221.0442, 610.6297
222.9727, 630.8431
224.9011, 652.1356
226.8296, 671.7841
228.7581, 689.4554
230.6865, 706.0834
232.6150, 722.3779
234.5435, 738.6976
236.4719, 752.0001
238.4004, 762.3365
240.3289, 769.4519
242.2573, 773.1107
244.1858, 773.5449
246.1143, 770.4845
248.0427, 763.5505
249.9712, 750.4706
251.8997, 739.9292
253.8281, 731.6973
255.7566, 726.5456
257.6851, 724.7020
259.6135, 726.7299
261.5420, 731.7443
263.4705, 739.1875
265.3989, 749.5464
267.3274, 761.8380
269.2559, 777.5943
271.1843, 794.8394
273.1128, 811.1840
275.0413, 827.8853
276.9697, 841.9491
278.8982, 852.1218
280.8267, 857.9430
282.7551, 861.8986
284.6836, 864.1169
286.6121, 864.4077
288.5405, 862.4334
290.4690, 857.5259
292.3975, 850.9276
294.3259, 842.3937
296.2544, 832.0692
298.1829, 821.0250
300.1113, 807.6173
302.0398, 794.3080
303.9683, 783.4881
305.8967, 776.1296
307.8252, 769.9843
309.7537, 765.6999
311.6821, 762.7593
313.6106, 758.4423
315.5391, 751.1019
317.4675, 743.0033
319.3960, 736.0615
321.3245, 731.1095
323.2529, 725.2766
325.1814, 717.2133
327.1099, 707.4232
329.0383, 698.4978
330.9668, 690.1567
332.8953, 682.9031
334.8238, 677.6948
336.7522, 674.8175
338.6807, 671.6914
340.6092, 667.3583
342.5376, 662.3282
344.4661, 658.0115
346.3946, 653.5121
348.3230, 650.3901
350.2515, 649.5454
352.1800, 650.8135
354.1084, 653.0028
356.0369, 656.1747
357.9654, 659.9005
359.8938, 663.5848
361.8223, 666.6353
363.7508, 670.3446
365.6792, 675.8102
367.6077, 682.9517
369.5362, 688.6707
371.4646, 692.1722
373.3931, 694.7191
375.3216, 696.7717
377.2500, 697.2528
379.1785, 700.3854
381.1070, 708.9024
383.0354, 721.5955
384.9639, 732.4979
386.8924, 737.2919
388.8208, 743.7374
390.7493, 757.2068
392.6778, 777.7876
394.6062, 797.7144
396.5347, 813.3543
398.4632, 827.7477
400.3916, 845.9462
402.3201, 868.9686
404.2486, 894.4554
406.1770, 925.3898
408.1055, 960.5590
410.0340, 988.7378
411.9624, 1013.243
413.8909, 1027.518
415.8194, 1023.651
417.7478, 997.7072
419.6763, 964.8656
421.6048, 922.2582
423.5332, 874.0770
425.4617, 830.3584
427.3902, 790.2798
429.3186, 755.6823
431.2471, 728.6320
433.1756, 709.2219
435.1040, 692.9953
437.0325, 680.7201
438.9610, 671.0103
440.8894, 662.7321
442.8179, 656.5947
444.7464, 651.5530
446.6748, 647.9328
448.6033, 645.6821
450.5318, 644.0767
452.4602, 642.7744
454.3887, 642.6308
456.3172, 644.1517
458.2456, 648.3461
460.1741, 651.8973
462.1026, 654.0875
464.0310, 655.6777
465.9595, 657.6302
467.8880, 660.2312
469.8164, 662.4651
471.7449, 663.6357
473.6734, 663.9060
475.6018, 665.3430
477.5303, 668.9308
479.4588, 672.8535
481.3872, 676.1749
483.3157, 678.7615
485.2442, 681.7106
487.1726, 684.9417
489.1011, 688.6481
491.0296, 692.9799
492.9580, 697.1224
494.8865, 703.2737
496.8150, 712.3782
498.7434, 724.0609
500.6719, 737.3100
502.6004, 753.7169
504.5288, 770.3192
506.4573, 786.6255
508.3858, 802.9316
510.3142, 816.2020
512.2427, 824.5890
514.1711, 830.2300
516.0996, 834.8221
518.0281, 835.1024
519.9565, 838.0099
521.8850, 843.4877
523.8135, 852.0817
525.7419, 864.4178
527.6704, 882.0301
529.5989, 901.4020
531.5273, 920.3214
533.4558, 937.8892
535.3843, 960.3141
537.3127, 988.4058
539.2412, 1020.738
541.1697, 1055.013
543.0981, 1089.823
545.0266, 1133.288
546.9551, 1190.263
548.8835, 1255.898
550.8120, 1323.708
552.7405, 1418.250
554.6689, 1483.061
556.5974, 1494.095
558.5259, 1461.644
560.4543, 1408.955
562.3828, 1315.677
564.3113, 1220.186
566.2397, 1134.277
568.1682, 1058.545
570.0967, 995.7104
572.0251, 950.0065
573.9536, 915.9625
575.8821, 888.2005
577.8105, 867.1942
579.7390, 852.6505
581.6675, 845.9183
583.5960, 844.9720
585.5245, 845.5968
587.4529, 848.1289
589.3814, 851.3423
591.3099, 854.6271
593.2383, 858.1002
595.1668, 862.9056
597.0953, 871.0948
599.0237, 878.8415
600.9522, 884.8885
602.8807, 889.2487
604.8091, 891.3253
606.7376, 889.5972
608.6661, 886.4178
610.5945, 883.4650
612.5230, 881.1691
614.4515, 878.1457
616.3799, 874.6135
618.3084, 870.2549
620.2369, 864.1370
622.1653, 854.7471
624.0938, 847.9274
626.0223, 846.9867
627.9507, 850.1561
629.8792, 851.6595
631.8077, 849.6570
633.7361, 847.9486
635.6646, 847.3610
637.5931, 847.8301
639.5215, 849.3153
641.4500, 853.2183
643.3785, 856.5617
645.3069, 857.6453
647.2354, 855.4011
649.1639, 854.5132
651.0923, 855.5569
653.0208, 857.5336
654.9493, 859.3514
656.8777, 860.6753
658.8062, 863.8309
660.7347, 871.9009
662.6631, 880.8309
664.5916, 886.0246
666.5201, 884.5460
668.4485, 882.9476
670.3770, 883.2922
672.3055, 883.3387
674.2339, 879.4159
676.1624, 869.3390
678.0909, 859.4033
680.0193, 850.5419
681.9478, 843.0862
683.8763, 839.1125
685.8047, 841.5007
687.7332, 843.8275
689.6617, 842.9696
691.5901, 839.8905
693.5186, 838.9484
695.4471, 842.5412
697.3755, 846.5451
699.3040, 849.0825
701.2325, 849.7035
703.1609, 850.8542
705.0894, 852.9689
707.0179, 855.1898
708.9464, 856.7922
710.8748, 857.6758
712.8033, 859.1333
714.7318, 862.3022
716.6602, 865.5715
718.5887, 867.6219
720.5172, 867.5673
722.4456, 868.1696
724.3741, 870.4105
726.3026, 872.9447
728.2310, 874.4115
730.1595, 874.5219
732.0880, 874.4097
734.0164, 874.2909
735.9449, 874.1038
737.8734, 873.7259
739.8018, 872.8514
741.7303, 872.2767
743.6588, 872.3069
745.5872, 872.7366
747.5157, 873.1844
749.4442, 873.5573
751.3726, 874.1747
753.3011, 875.2700
755.2296, 876.6464
757.1580, 877.6249
759.0865, 877.7625
761.0150, 877.9537
762.9434, 878.6025
764.8719, 879.4465
766.8004, 879.8169
768.7288, 879.2882
770.6573, 878.9924
772.5858, 879.0765
774.5142, 879.6615
776.4427, 881.5474
778.3712, 886.3662
780.2996, 890.6085
782.2281, 892.1772
784.1566, 891.8423
786.0850, 892.7601
788.0135, 896.6629
789.9420, 899.8593
791.8704, 900.6671
793.7989, 899.0210
795.7274, 897.8019
797.6558, 896.7108
799.5843, 896.4500
801.5128, 897.9064
803.4412, 900.7534
805.3697, 903.3224
807.2982, 905.9835
809.2266, 907.6329
811.1551, 907.3557
813.0836, 904.8846
815.0120, 903.4910
816.9405, 903.6981
818.8690, 904.3765
820.7974, 904.8008
822.7259, 905.1434
824.6544, 906.6296
826.5828, 909.9890
828.5113, 913.8167
830.4398, 917.8367
832.3682, 922.1810
834.2967, 924.6537
836.2252, 924.0402
838.1536, 922.9105
840.0821, 922.1188
842.0106, 921.7428
843.9390, 922.3688
845.8675, 925.3271
847.7960, 927.8345
849.7244, 928.3442
851.6529, 926.6862
853.5814, 925.9906
855.5098, 926.6569
857.4383, 927.7456
859.3668, 928.6232
861.2952, 929.4860
863.2237, 931.5907
865.1522, 935.3662
867.0806, 939.9865
869.0091, 945.0542
870.9376, 950.6001
872.8660, 956.7930
874.7945, 963.9822
876.7230, 971.3896
878.6514, 978.8759
880.5799, 986.3307
882.5084, 993.6510
884.4368, 1001.882
886.3653, 1008.293
888.2938, 1010.780
890.2222, 1010.603
892.1507, 1011.480
894.0792, 1013.519
896.0076, 1016.981
897.9361, 1021.693
899.8646, 1027.920
901.7930, 1036.377
903.7215, 1046.683
905.6500, 1059.407
907.5784, 1075.745
909.5069, 1094.369
911.4354, 1113.037
913.3638, 1130.667
915.2923, 1150.636
917.2208, 1173.606
919.1492, 1199.043
921.0777, 1227.045
923.0062, 1263.914
924.9346, 1291.207
926.8631, 1305.371
928.7916, 1309.066
930.7200, 1305.103
932.6485, 1292.660
934.5770, 1277.800
936.5054, 1257.665
938.4339, 1238.678
940.3624, 1224.932
942.2908, 1215.466
944.2193, 1215.236
946.1478, 1224.475
948.0762, 1242.038
950.0047, 1268.903
951.9332, 1304.229
953.8616, 1343.601
955.7901, 1391.445
957.7186, 1436.650
959.6470, 1475.014
961.5755, 1506.540
963.5040, 1531.895
965.4324, 1546.255
967.3609, 1560.494
969.2894, 1574.339
971.2178, 1590.512
973.1463, 1617.412
975.0748, 1652.758
977.0032, 1702.445
978.9317, 1769.006
980.8602, 1851.301
982.7886, 1949.068
984.7171, 2062.827
986.6456, 2191.670
988.5740, 2338.111
990.5025, 2496.075
992.4310, 2660.877
994.3594, 2836.702
996.2879, 3007.480
998.2164, 3203.893
1000.145, 3369.975
1002.073, 3474.862
1004.002, 3521.350
1005.930, 3482.654
1007.859, 3317.829
1009.787, 3097.871
1011.716, 2838.100
1013.644, 2535.158
1015.573, 2265.542
1017.501, 2020.232
1019.430, 1813.776
1021.358, 1658.127
1023.286, 1548.357
1025.215, 1460.662
1027.143, 1398.943
1029.072, 1350.434
1031.000, 1314.258
1032.929, 1287.415
1034.857, 1267.322
1036.786, 1255.922
1038.714, 1247.180
1040.643, 1240.664
1042.571, 1236.250
1044.500, 1234.084
1046.428, 1234.484
1048.356, 1236.123
1050.285, 1239.265
1052.213, 1243.440
1054.142, 1247.885
1056.070, 1252.906
1057.999, 1260.508
1059.927, 1272.017
1061.856, 1284.298
1063.784, 1295.737
1065.713, 1307.196
1067.641, 1320.950
1069.570, 1338.672
1071.498, 1356.541
1073.427, 1375.227
1075.355, 1393.510
1077.284, 1409.533
1079.212, 1423.231
1081.141, 1437.609
1083.069, 1456.376
1084.997, 1472.327
1086.926, 1481.070
1088.854, 1482.690
1090.783, 1483.076
1092.711, 1486.325
1094.640, 1483.611
1096.568, 1471.291
1098.497, 1451.537
1100.425, 1429.374
1102.354, 1403.781
1104.282, 1378.595
1106.211, 1351.421
1108.139, 1327.093
1110.068, 1310.242
1111.996, 1300.968
1113.924, 1293.577
1115.853, 1288.935
1117.781, 1283.902
1119.710, 1277.284
1121.638, 1269.106
1123.567, 1259.370
1125.495, 1247.402
1127.424, 1234.914
1129.352, 1221.288
1131.281, 1207.751
1133.209, 1196.467
1135.138, 1187.734
1137.066, 1179.219
1138.995, 1168.907
1140.923, 1160.055
1142.851, 1154.888
1144.780, 1153.201
1146.708, 1152.323
1148.637, 1151.708
1150.565, 1152.299
1152.494, 1155.068
1154.422, 1159.222
1156.351, 1162.691
1158.279, 1164.449
1160.208, 1167.276
1162.136, 1170.868
1164.065, 1175.996
1165.993, 1185.052
1167.922, 1197.656
1169.850, 1206.064
1171.778, 1208.406
1173.707, 1207.656
1175.635, 1204.628
1177.564, 1199.696
1179.492, 1193.807
1181.421, 1186.757
1183.349, 1178.984
1185.278, 1168.820
1187.206, 1159.081
1189.135, 1152.357
1191.063, 1149.049
1192.992, 1146.971
1194.920, 1146.386
1196.849, 1146.757
1198.777, 1149.467
1200.705, 1152.970
1202.634, 1153.014
1204.562, 1148.130
1206.491, 1145.098
1208.419, 1146.942
1210.348, 1150.495
1212.276, 1153.256
1214.205, 1154.984
1216.133, 1156.851
1218.062, 1159.727
1219.990, 1161.547
1221.919, 1161.401
1223.847, 1159.914
1225.776, 1158.409
1227.704, 1156.418
1229.632, 1155.985
1231.561, 1158.548
1233.489, 1161.829
1235.418, 1164.266
1237.346, 1165.868
1239.275, 1166.703
1241.203, 1165.793
1243.132, 1165.785
1245.060, 1167.803
1246.989, 1171.319
1248.917, 1176.272
1250.846, 1183.738
1252.774, 1188.848
1254.703, 1190.150
1256.631, 1190.027
1258.559, 1188.408
1260.488, 1185.805
1262.416, 1185.635
1264.345, 1190.041
1266.273, 1193.138
1268.202, 1192.879
1270.130, 1191.852
1272.059, 1183.965
1273.987, 1196.693
1275.916, 1204.561
1277.844, 1207.829
1279.773, 1192.728
1281.701, 1201.342
1283.630, 1200.450
1285.558, 1199.165
1287.486, 1211.110
1289.415, 1198.670
1291.343, 1210.401
1293.272, 1212.481
1295.200, 1218.974
1297.129, 1215.903
1299.057, 1215.783
1300.986, 1225.227
1302.914, 1229.372
1304.843, 1225.191
1306.771, 1231.952
1308.700, 1219.156
1310.628, 1223.518
1312.557, 1235.282
1314.485, 1231.570
1316.413, 1238.495
1318.342, 1241.367
1320.270, 1225.821
1322.199, 1242.299
1324.127, 1244.924
1326.056, 1233.327
1327.984, 1248.700
1329.913, 1239.060
1331.841, 1238.344
1333.770, 1244.345
1335.698, 1243.340
1337.627, 1253.376
1339.555, 1252.771
1341.484, 1251.214
1343.412, 1253.801
1345.340, 1244.633
1347.269, 1257.269
1349.197, 1255.007
1351.126, 1260.148
1353.054, 1266.964
1354.983, 1260.928
1356.911, 1268.494
1358.840, 1254.961
1360.768, 1259.078
1362.697, 1261.293
1364.625, 1274.788
1366.554, 1261.350
1368.482, 1264.968
1370.411, 1275.848
1372.339, 1276.562
1374.267, 1281.522
1376.196, 1273.902
1378.124, 1278.096
1380.053, 1279.032
1381.981, 1291.221
1383.910, 1294.523
1385.838, 1287.104
1387.767, 1279.729
1389.695, 1292.720
1391.624, 1286.404
1393.552, 1290.500
1395.481, 1283.838
1397.409, 1286.460
1399.338, 1288.934
1401.266, 1296.166
1403.194, 1288.959
1405.123, 1300.478
1407.051, 1301.170
1408.980, 1305.049
1410.908, 1308.570
1412.837, 1297.565
1414.765, 1298.464
1416.694, 1316.399
1418.622, 1308.348
1420.551, 1305.541
1422.479, 1306.458
1424.408, 1324.967
1426.336, 1327.120
1428.265, 1309.725
1430.193, 1327.452
1432.121, 1323.567
1434.050, 1326.103
1435.978, 1326.292
1437.907, 1327.174
1439.835, 1319.231
1441.764, 1322.912
1443.692, 1336.042
1445.621, 1333.056
1447.549, 1341.018
1449.478, 1329.021
1451.406, 1328.868
1453.335, 1331.857
1455.263, 1335.990
1457.192, 1330.959
1459.120, 1344.249
1461.048, 1345.336
1462.977, 1335.850
1464.905, 1337.829
1466.834, 1337.903
1468.762, 1357.798
1470.691, 1350.436
1472.619, 1341.140
1474.548, 1353.451
1476.476, 1358.833
1478.405, 1354.850
1480.333, 1355.840
1482.262, 1347.390
1484.190, 1353.411
1486.119, 1354.453
1488.047, 1363.695
1489.975, 1355.273
1491.904, 1367.182
1493.832, 1359.229
1495.761, 1371.956
1497.689, 1363.579
1499.618, 1373.998
1501.546, 1361.977
1503.475, 1366.195
1505.403, 1371.696
1507.332, 1381.354
1509.260, 1375.024
1511.189, 1385.664
1513.117, 1381.408
1515.046, 1386.844
1516.974, 1386.902
1518.902, 1380.229
1520.831, 1392.532
1522.759, 1387.524
1524.688, 1394.201
1526.616, 1381.947
1528.545, 1392.702
1530.473, 1398.500
1532.402, 1403.275
1534.330, 1403.756
1536.259, 1402.323
1538.187, 1403.888
1540.116, 1400.443
1542.044, 1389.681
1543.973, 1394.093
1545.901, 1403.094
1547.829, 1409.817
1549.758, 1401.130
1551.686, 1409.023
1553.615, 1409.448
1555.543, 1416.935
1557.472, 1410.878
1559.400, 1420.941
1561.329, 1409.324
1563.257, 1421.020
1565.186, 1426.389
1567.114, 1407.941
1569.043, 1428.601
1570.971, 1413.947
1572.900, 1420.107
1574.828, 1424.951
1576.756, 1419.573
1578.685, 1434.057
1580.613, 1416.834
1582.542, 1421.984
1584.470, 1435.428
1586.399, 1428.852
1588.327, 1441.896
1590.256, 1435.220
1592.184, 1424.399
1594.113, 1442.661
1596.041, 1430.996
1597.970, 1438.979
1599.898, 1430.625
1601.827, 1450.036
1603.755, 1442.392
1605.683, 1435.999
1607.612, 1444.620
1609.540, 1452.618
1611.469, 1443.012
1613.397, 1446.628
1615.326, 1445.244
1617.254, 1454.864
1619.183, 1461.922
1621.111, 1446.513
1623.040, 1459.185
1624.968, 1452.404
1626.897, 1466.353
1628.825, 1447.826
1630.754, 1449.385
1632.682, 1468.455
1634.610, 1463.080
1636.539, 1473.100
1638.467, 1454.528
1640.396, 1455.915
1642.324, 1473.101
1644.253, 1459.434
1646.181, 1479.130
1648.110, 1465.901
1650.038, 1465.359
1651.967, 1479.261
1653.895, 1471.650
1655.824, 1482.644
1657.752, 1478.623
1659.681, 1487.650
1661.609, 1483.929
1663.537, 1472.942
1665.466, 1489.783
1667.394, 1485.610
1669.323, 1473.257
1671.251, 1484.769
1673.180, 1492.691
1675.108, 1491.820
1677.037, 1496.620
1678.965, 1494.337
1680.894, 1483.331
1682.822, 1487.593
1684.751, 1494.072
1686.679, 1486.806
1688.608, 1491.276
1690.536, 1499.685
1692.464, 1495.027
1694.393, 1493.112
1696.321, 1498.846
1698.250, 1498.380
1700.178, 1495.107
1702.107, 1504.063
1704.035, 1499.001
1705.964, 1511.121
1707.892, 1508.878
1709.821, 1514.500
1711.749, 1502.260
1713.678, 1508.514
1715.606, 1503.345
1717.535, 1508.645
1719.463, 1516.957
1721.391, 1523.226
1723.320, 1522.059
1725.248, 1512.447
1727.177, 1510.423
1729.105, 1513.523
1731.034, 1519.442
1732.962, 1516.888
1734.891, 1517.034
1736.819, 1518.206
1738.748, 1535.120
1740.676, 1521.286
1742.605, 1530.987
1744.533, 1536.654
1746.462, 1536.383
1748.390, 1529.559
1750.318, 1521.856
1752.247, 1523.709
1754.175, 1526.672
1756.104, 1538.825
1758.032, 1524.902
1759.961, 1531.096
1761.889, 1536.344
1763.818, 1538.547
1765.746, 1537.427
1767.675, 1530.496
1769.603, 1534.120
1771.532, 1538.721
1773.460, 1538.702
1775.389, 1548.126
1777.317, 1545.395
1779.245, 1554.670
1781.174, 1552.613
1783.102, 1558.904
1785.031, 1544.165
1786.959, 1544.621
1788.888, 1545.743
1790.816, 1563.453
1792.745, 1552.401
1794.673, 1560.728
1796.602, 1549.076
1798.530, 1564.229
1800.459, 1563.476
1802.387, 1553.728
1804.316, 1560.336
1806.244, 1571.723
1808.172, 1560.005
1810.101, 1565.812
1812.029, 1554.292
1813.958, 1576.029
1815.886, 1577.224
1817.815, 1571.517
1819.743, 1563.583
1821.672, 1568.107
1823.600, 1574.460
1825.529, 1577.219
1827.457, 1582.625
1829.386, 1572.415
1831.314, 1577.245
1833.243, 1585.212
1835.171, 1585.858
1837.099, 1569.934
1839.028, 1575.552
1840.956, 1577.114
1842.885, 1576.947
1844.813, 1581.600
1846.742, 1586.905
1848.670, 1576.125
1850.599, 1584.024
1852.527, 1587.162
1854.456, 1585.108
1856.384, 1585.917
1858.313, 1591.556
1860.241, 1583.713
1862.170, 1596.211
1864.098, 1581.675
1866.026, 1583.160
1867.955, 1591.228
1869.883, 1598.597
1871.812, 1605.649
1873.740, 1586.375
1875.669, 1596.229
1877.597, 1599.382
1879.526, 1595.042
1881.454, 1609.953
1883.383, 1603.367
1885.311, 1599.805
1887.240, 1605.180
1889.168, 1604.142
1891.097, 1601.430
1893.025, 1609.957
1894.953, 1599.984
1896.882, 1614.151
1898.810, 1610.005
1900.739, 1618.360
1902.667, 1619.577
1904.596, 1616.627
1906.524, 1617.945
1908.453, 1609.747
1910.381, 1621.399
1912.310, 1607.788
1914.238, 1621.399
1916.167, 1611.585
1918.095, 1608.482
1920.024, 1612.854
1921.952, 1625.032
1923.880, 1614.734
1925.809, 1623.034
1927.737, 1624.323
1929.666, 1616.387
1931.594, 1629.862
1933.523, 1618.411
1935.451, 1632.443
1937.380, 1625.498
1939.308, 1620.096
1941.237, 1622.341
1943.165, 1627.165
1945.094, 1640.070
1947.022, 1628.767
1948.951, 1634.741
1950.879, 1629.026
1952.807, 1636.028
1954.736, 1638.073
1956.664, 1627.081
1958.593, 1643.621
1960.521, 1637.026
1962.450, 1644.480
1964.378, 1648.709
1966.307, 1640.634
1968.235, 1638.649
1970.164, 1635.559
1972.092, 1639.810
1974.021, 1646.380
1975.949, 1635.878
1977.878, 1648.181
1979.806, 1647.355
1981.734, 1651.989
1983.663, 1651.379
1985.591, 1652.394
1987.520, 1646.924
1989.448, 1648.012
1991.377, 1655.913
1993.305, 1641.227
1995.234, 1642.517
1997.162, 1648.363
1999.091, 1646.133
2001.019, 1662.910
2002.948, 1652.893
2004.876, 1659.809
2006.805, 1651.619
2008.733, 1660.995
2010.661, 1656.377
2012.590, 1662.634
2014.518, 1656.645
2016.447, 1663.445
2018.375, 1672.321
2020.304, 1673.133
2022.232, 1657.041
2024.161, 1667.166
2026.089, 1655.578
2028.018, 1665.571
2029.946, 1663.681
2031.875, 1670.414
2033.803, 1659.827
2035.732, 1662.031
2037.660, 1662.594
2039.589, 1663.224
2041.517, 1669.873
2043.445, 1680.286
2045.374, 1682.208
2047.302, 1665.301
2049.231, 1679.458
2051.159, 1674.499
2053.088, 1674.731
2055.016, 1673.246
2056.945, 1670.665
2058.873, 1678.799
2060.802, 1682.163
2062.730, 1672.108
2064.659, 1679.172
2066.587, 1672.217
2068.516, 1688.244
2070.444, 1672.826
2072.373, 1685.488
2074.301, 1694.794
2076.229, 1693.002
2078.158, 1695.716
2080.086, 1683.577
2082.015, 1676.602
2083.943, 1684.206
2085.872, 1686.152
2087.800, 1699.121
2089.729, 1688.148
2091.657, 1688.986
2093.586, 1685.168
2095.514, 1682.445
2097.443, 1689.916
2099.371, 1700.788
2101.300, 1699.454
2103.228, 1690.316
2105.156, 1698.497
2107.085, 1703.903
2109.013, 1694.115
2110.942, 1698.328
2112.870, 1690.342
2114.799, 1691.724
2116.727, 1703.388
2118.656, 1693.027
2120.584, 1708.880
2122.513, 1696.960
2124.441, 1695.628
2126.370, 1693.833
2128.298, 1697.114
2130.227, 1712.619
2132.155, 1708.202
2134.083, 1705.055
2136.012, 1706.231
2137.940, 1711.304
2139.869, 1706.496
2141.797, 1700.266
2143.726, 1714.740
2145.654, 1704.565
2147.583, 1700.457
2149.511, 1715.618
2151.440, 1702.889
2153.368, 1710.446
2155.297, 1715.476
2157.225, 1718.250
2159.154, 1717.678
2161.082, 1725.679
2163.010, 1723.302
2164.939, 1711.435
2166.867, 1712.149
2168.796, 1709.169
2170.724, 1721.440
2172.653, 1712.205
2174.581, 1710.223
2176.510, 1713.247
2178.438, 1712.979
2180.367, 1715.844
2182.295, 1713.847
2184.224, 1714.481
2186.152, 1732.680
2188.081, 1728.783
2190.009, 1733.686
2191.938, 1716.959
2193.866, 1734.494
2195.794, 1725.143
2197.723, 1718.394
2199.651, 1733.891
2201.580, 1732.857
2203.508, 1730.224
2205.437, 1734.166
2207.365, 1735.099
2209.294, 1730.158
2211.222, 1724.919
2213.151, 1735.396
2215.079, 1726.614
2217.008, 1737.440
2218.936, 1729.387
2220.865, 1742.381
2222.793, 1743.345
2224.721, 1742.995
2226.650, 1724.856
2228.578, 1742.426
2230.507, 1744.100
2232.435, 1744.865
2234.364, 1737.028
2236.292, 1736.366
2238.221, 1747.526
2240.149, 1738.753
2242.078, 1749.119
2244.006, 1746.085
2245.935, 1748.322
2247.863, 1735.242
2249.792, 1750.437
2251.720, 1731.977
2253.648, 1738.926
2255.577, 1752.004
2257.505, 1749.942
2259.434, 1746.500
2261.362, 1747.289
2263.291, 1736.628
2265.219, 1750.110
2267.148, 1739.381
2269.076, 1746.044
2271.005, 1743.070
2272.933, 1743.190
2274.862, 1759.076
2276.790, 1753.113
2278.719, 1758.744
2280.647, 1749.707
2282.575, 1757.889
2284.504, 1753.649
2286.432, 1758.715
2288.361, 1754.416
2290.289, 1745.774
2292.218, 1757.873
2294.146, 1756.915
2296.075, 1749.931
2298.003, 1748.528
2299.932, 1759.590
2301.860, 1753.073
2303.789, 1761.132
2305.717, 1760.712
2307.646, 1751.931
2309.574, 1747.759
2311.502, 1754.705
2313.431, 1766.004
2315.359, 1755.717
2317.288, 1762.952
2319.216, 1757.608
2321.145, 1763.755
2323.073, 1750.273
2325.002, 1750.466
2326.930, 1762.468
2328.859, 1752.118
2330.787, 1758.332
2332.716, 1766.270
2334.644, 1761.789
2336.573, 1773.107
2338.501, 1758.401
2340.429, 1760.343
2342.358, 1767.455
2344.286, 1775.067
2346.215, 1771.905
2348.143, 1757.793
2350.072, 1756.364
2352.000, 1776.358
2353.929, 1764.997
2355.857, 1765.177
2357.786, 1771.130
2359.714, 1761.149
2361.643, 1774.880
2363.571, 1763.994
2365.500, 1773.669
2367.428, 1768.026
2369.356, 1760.704
2371.285, 1763.728
2373.213, 1770.919
2375.142, 1769.413
2377.070, 1765.033
2378.999, 1782.893
2380.927, 1777.810
2382.856, 1780.456
2384.784, 1781.100
2386.713, 1770.323
2388.641, 1765.239
2390.570, 1768.190
2392.498, 1771.883
2394.427, 1775.108
2396.355, 1778.031
2398.283, 1783.825
2400.212, 1772.324
2402.140, 1773.824
2404.069, 1769.289
2405.997, 1781.439
2407.926, 1775.585
2409.854, 1777.187
2411.783, 1773.406
2413.711, 1777.005
2415.640, 1789.605
2417.568, 1785.634
2419.497, 1777.404
2421.425, 1786.988
2423.354, 1783.640
2425.282, 1790.828
2427.210, 1772.659
2429.139, 1782.370
2431.067, 1785.930
2432.996, 1792.627
2434.924, 1776.172
2436.853, 1776.739
2438.781, 1792.410
2440.710, 1780.297
2442.638, 1781.034
2444.567, 1785.466
2446.495, 1790.501
2448.424, 1793.807
2450.352, 1781.307
2452.281, 1779.414
2454.209, 1787.768
2456.137, 1785.982
2458.066, 1791.138
2459.994, 1793.547
2461.923, 1784.885
2463.851, 1794.572
2465.780, 1777.683
2467.708, 1783.667
2469.637, 1796.128
2471.565, 1798.370
2473.494, 1784.367
2475.422, 1781.551
2477.351, 1785.088
2479.279, 1794.550
2481.208, 1785.957
2483.136, 1796.165
2485.064, 1800.977
2486.993, 1784.942
2488.921, 1784.040
2490.850, 1784.211
2492.778, 1789.005
2494.707, 1783.664
2496.635, 1786.340
2498.564, 1800.875
2500.492, 1773.585
2502.421, 1785.213
2504.349, 1791.983
2506.278, 1794.156
2508.206, 1777.961
2510.135, 1785.484
2512.063, 1783.501
2513.991, 1781.129
2515.920, 1791.990
2517.848, 1778.466
2519.777, 1789.117
2521.705, 1790.118
2523.634, 1795.536
2525.562, 1791.390
2527.491, 1790.198
2529.419, 1798.572
2531.348, 1801.649
2533.276, 1796.402
2535.205, 1802.101
2537.133, 1788.243
2539.062, 1791.546
2540.990, 1802.253
2542.918, 1797.487
2544.847, 1803.360
2546.775, 1805.181
2548.704, 1788.588
2550.632, 1804.019
2552.561, 1805.601
2554.489, 1792.961
2556.418, 1807.296
2558.346, 1796.617
2560.275, 1794.867
2562.203, 1799.835
2564.132, 1797.799
2566.060, 1806.806
2567.989, 1805.175
2569.917, 1802.593
2571.845, 1804.159
2573.774, 1793.971
2575.702, 1805.589
2577.631, 1802.312
2579.559, 1806.438
2581.488, 1812.244
2583.416, 1805.198
2585.345, 1811.758
2587.273, 1797.220
2589.202, 1800.335
2591.130, 1801.548
2593.059, 1814.046
2594.987, 1799.611
2596.916, 1802.235
2598.844, 1812.123
2600.772, 1811.847
2602.701, 1815.821
2604.629, 1807.215
2606.558, 1810.427
2608.486, 1810.381
2610.415, 1821.592
2612.343, 1823.917
2614.272, 1815.524
2616.200, 1807.176
2618.129, 1819.198
2620.057, 1811.913
2621.986, 1815.044
2623.914, 1807.418
2625.843, 1809.080
2627.771, 1810.594
2629.699, 1816.869
2631.628, 1808.708
2633.556, 1819.273
2635.485, 1819.015
2637.413, 1821.945
2639.342, 1824.521
2641.270, 1812.572
2643.199, 1812.530
2645.127, 1829.524
2647.056, 1820.536
2648.984, 1816.793
2650.913, 1816.777
2652.841, 1834.355
2654.770, 1835.580
2656.698, 1817.258
2658.626, 1834.060
2660.555, 1829.254
2662.483, 1830.868
2664.412, 1830.141
2666.340, 1830.106
2668.269, 1821.250
2670.197, 1824.019
2672.126, 1836.241
2674.054, 1832.347
2675.983, 1839.404
2677.911, 1826.504
2679.840, 1825.451
2681.768, 1827.541
2683.697, 1830.778
2685.625, 1824.853
2687.553, 1837.251
2689.482, 1837.449
2691.410, 1827.074
2693.339, 1828.169
2695.267, 1827.359
2697.196, 1846.373
2699.124, 1838.131
2701.053, 1827.960
2702.981, 1839.395
2704.910, 1843.906
2706.838, 1839.052
2708.767, 1839.175
2710.695, 1829.858
2712.624, 1835.016
2714.552, 1835.196
2716.480, 1843.579
2718.409, 1834.300
2720.337, 1845.353
2722.266, 1836.548
2724.194, 1848.424
2726.123, 1839.199
2728.051, 1848.771
2729.980, 1835.907
2731.908, 1839.281
2733.837, 1843.944
2735.765, 1852.763
2737.694, 1845.599
2739.622, 1855.405
2741.551, 1850.318
2743.479, 1854.924
2745.407, 1854.156
2747.336, 1846.659
2749.264, 1858.138
2751.193, 1852.311
2753.121, 1858.169
2755.050, 1845.100
2756.978, 1855.040
2758.907, 1860.027
2760.835, 1863.993
2762.764, 1863.667
2764.692, 1861.428
2766.621, 1862.191
2768.549, 1857.944
2770.478, 1846.384
2772.406, 1849.999
2774.334, 1858.206
2776.263, 1864.138
2778.191, 1854.660
2780.120, 1861.766
2782.048, 1861.404
2783.977, 1868.109
2785.905, 1861.270
2787.834, 1870.554
2789.762, 1858.160
2791.691, 1869.082
2793.619, 1873.678
2795.548, 1854.460
2797.476, 1874.352
2799.405, 1858.931
2801.333, 1864.327
2803.261, 1868.410
2805.190, 1862.273
2807.118, 1875.999
2809.047, 1858.021
2810.975, 1862.417
2812.904, 1875.111
2814.832, 1867.786
2816.761, 1880.084
2818.689, 1872.663
2820.618, 1861.100
2822.546, 1878.622
2824.475, 1866.220
2826.403, 1873.467
2828.332, 1864.380
2830.260, 1883.058
2832.188, 1874.686
2834.117, 1867.566
2836.045, 1875.461
2837.974, 1882.737
2839.902, 1872.411
2841.831, 1875.309
2843.759, 1873.208
2845.688, 1882.114
2847.616, 1888.461
2849.545, 1872.343
2851.473, 1884.307
2853.402, 1876.820
2855.330, 1890.066
2857.259, 1870.838
2859.187, 1871.698
2861.115, 1890.071
2863.044, 1884.003
2864.972, 1893.330
2866.901, 1874.069
2868.829, 1874.768
2870.758, 1891.268
2872.686, 1876.916
2874.615, 1895.932
2876.543, 1882.023
2878.472, 1880.804
2880.400, 1894.031
2882.329, 1885.748
2884.257, 1896.071
2886.186, 1891.382
2888.114, 1899.742
2890.042, 1895.357
2891.971, 1883.709
2893.899, 1899.890
2895.828, 1895.060
2897.756, 1882.051
2899.685, 1892.910
2901.613, 1900.180
2903.542, 1898.661
2905.470, 1902.814
2907.399, 1899.887
2909.327, 1888.239
2911.256, 1891.861
2913.184, 1897.701
2915.113, 1889.800
2917.041, 1893.636
2918.969, 1901.413
2920.898, 1896.126
2922.826, 1893.583
2924.755, 1898.693
2926.683, 1897.604
2928.612, 1893.711
2930.540, 1902.048
2932.469, 1896.370
2934.397, 1907.875
2936.326, 1905.020
2938.254, 1910.033
2940.183, 1897.185
2942.111, 1902.833
2944.040, 1897.062
2945.968, 1901.760
2947.896, 1909.473
2949.825, 1915.145
2951.753, 1913.384
2953.682, 1903.180
2955.610, 1900.565
2957.539, 1903.077
2959.467, 1908.409
2961.396, 1905.272
2963.324, 1904.837
2965.253, 1905.430
2967.181, 1921.766
2969.110, 1907.357
2971.038, 1916.485
2972.967, 1921.581
2974.895, 1920.741
2976.823, 1913.352
2978.752, 1905.085
2980.680, 1906.375
2982.609, 1908.779
2984.537, 1920.373
2986.466, 1905.895
2988.394, 1911.536
2990.323, 1916.232
2992.251, 1917.886
2994.180, 1916.220
2996.108, 1908.744
2998.037, 1911.825
2999.965, 1915.885
3001.894, 1915.329
3003.822, 1924.216
3005.750, 1920.952
3007.679, 1929.696
3009.607, 1927.109
3011.536, 1932.873
3013.464, 1917.608
3015.393, 1917.542
3017.321, 1918.142
3019.250, 1935.334
3021.178, 1923.765
3023.107, 1931.578
3025.035, 1919.413
3026.964, 1934.057
3028.892, 1932.796
3030.821, 1922.543
3032.749, 1928.646
3034.677, 1939.533
3036.606, 1927.315
3038.534, 1932.625
3040.463, 1920.611
3042.391, 1941.855
3044.320, 1942.560
3046.248, 1936.365
3048.177, 1927.945
3050.105, 1931.984
3052.034, 1937.856
3053.962, 1940.135
3055.891, 1945.064
3057.819, 1934.378
3059.748, 1930.897
3061.676, 1941.656
3063.604, 1947.708
3065.533, 1949.315
3067.461, 1932.707
3069.390, 1939.967
3071.318, 1937.875
3073.247, 1935.544
3075.175, 1946.598
3077.104, 1933.420
3079.032, 1944.568
3080.961, 1946.218
3082.889, 1952.436
3084.818, 1949.243
3086.746, 1949.154
3088.675, 1958.785
3090.603, 1963.270
3092.531, 1959.582
3094.460, 1966.992
3096.388, 1954.997
3098.317, 1960.315
3100.245, 1973.189
3102.174, 1970.742
3104.102, 1979.084
3106.031, 1983.528
3107.959, 1969.708
3109.888, 1988.066
3111.816, 1992.724
3113.745, 1983.316
3115.673, 2001.030
3117.602, 1993.885
3119.530, 1995.818
3121.458, 2004.622
3123.387, 2006.576
3125.315, 2019.722
3127.244, 2022.383
3129.172, 2024.244
3131.101, 2030.407
3133.029, 2024.965
3134.958, 2041.484
3136.886, 2043.256
3138.815, 2046.340
3140.743, 2048.620
3142.672, 2050.428
3144.600, 2056.993
3146.529, 2067.047
3148.457, 2072.374
3150.385, 2074.877
3152.314, 2078.652
3154.242, 2083.677
3156.171, 2090.188
3158.099, 2097.325
3160.028, 2105.488
3161.956, 2112.050
3163.885, 2115.433
3165.813, 2118.365
3167.742, 2123.411
3169.670, 2123.927
3171.599, 2117.947
3173.527, 2119.562
3175.456, 2129.632
3177.384, 2138.754
3179.313, 2146.410
3181.241, 2150.169
3183.169, 2152.518
3185.098, 2158.718
3187.026, 2166.487
3188.955, 2172.776
3190.883, 2180.432
3192.812, 2193.557
3194.740, 2204.061
3196.669, 2206.316
3198.597, 2210.019
3200.526, 2217.224
3202.454, 2223.493
3204.383, 2228.367
3206.311, 2234.050
3208.240, 2240.259
3210.168, 2242.754
3212.096, 2243.670
3214.025, 2248.749
3215.953, 2255.479
3217.882, 2260.834
3219.810, 2266.360
3221.739, 2272.903
3223.667, 2280.514
3225.596, 2291.859
3227.524, 2298.880
3229.453, 2298.290
3231.381, 2304.759
3233.310, 2319.758
3235.238, 2334.738
3237.167, 2349.108
3239.095, 2361.478
3241.023, 2372.459
3242.952, 2383.541
3244.880, 2394.168
3246.809, 2405.068
3248.737, 2413.491
3250.666, 2416.292
3252.594, 2420.922
3254.523, 2429.156
3256.451, 2443.025
3258.380, 2464.009
3260.308, 2475.555
3262.237, 2477.092
3264.165, 2481.887
3266.094, 2489.821
3268.022, 2500.924
3269.950, 2513.484
3271.879, 2523.941
3273.807, 2536.465
3275.736, 2557.675
3277.664, 2575.689
3279.593, 2586.837
3281.521, 2591.450
3283.450, 2584.708
3285.378, 2586.119
3287.307, 2595.330
3289.235, 2599.461
3291.164, 2599.848
3293.092, 2600.539
3295.021, 2602.158
3296.949, 2606.631
3298.877, 2610.332
3300.806, 2610.200
3302.734, 2607.990
3304.663, 2602.164
3306.591, 2601.528
3308.520, 2609.743
3310.448, 2612.887
3312.377, 2610.655
3314.305, 2607.227
3316.234, 2606.438
3318.162, 2623.697
3320.091, 2642.218
3322.019, 2635.482
3323.948, 2626.954
3325.876, 2629.119
3327.804, 2636.045
3329.733, 2649.037
3331.661, 2657.670
3333.590, 2660.953
3335.518, 2662.131
3337.447, 2661.727
3339.375, 2662.683
3341.304, 2661.889
3343.232, 2651.492
3345.161, 2640.342
3347.089, 2638.055
3349.018, 2635.003
3350.946, 2627.401
3352.875, 2619.096
3354.803, 2610.883
3356.731, 2603.076
3358.660, 2595.250
3360.588, 2582.247
3362.517, 2566.319
3364.445, 2549.720
3366.374, 2537.847
3368.302, 2541.765
3370.231, 2542.286
3372.159, 2524.465
3374.088, 2510.471
3376.016, 2504.246
3377.945, 2498.667
3379.873, 2492.935
3381.802, 2480.640
3383.730, 2465.979
3385.658, 2462.926
3387.587, 2462.412
3389.515, 2452.057
3391.444, 2443.904
3393.372, 2444.683
3395.301, 2445.412
3397.229, 2445.318
3399.158, 2438.422
3401.086, 2426.168
3403.015, 2427.493
3404.943, 2437.077
3406.872, 2442.243
3408.800, 2445.621
3410.729, 2449.211
3412.657, 2453.062
3414.585, 2457.277
3416.514, 2461.510
3418.442, 2465.929
3420.371, 2465.771
3422.299, 2461.693
3424.228, 2466.755
3426.156, 2473.523
3428.085, 2468.303
3430.013, 2457.079
3431.942, 2441.115
3433.870, 2427.760
3435.799, 2419.790
3437.727, 2412.758
3439.656, 2406.418
3441.584, 2396.627
3443.512, 2384.290
3445.441, 2371.867
3447.369, 2361.170
3449.298, 2357.054
3451.226, 2352.360
3453.155, 2343.329
3455.083, 2332.080
3457.012, 2318.696
3458.940, 2305.236
3460.869, 2292.157
3462.797, 2283.033
3464.726, 2275.689
3466.654, 2265.573
3468.583, 2253.928
3470.511, 2241.346
3472.439, 2227.761
3474.368, 2212.542
3476.296, 2199.734
3478.225, 2190.179
3480.153, 2182.393
3482.082, 2176.674
3484.010, 2175.875
3485.939, 2174.624
3487.867, 2165.718
3489.796, 2156.080
3491.724, 2147.618
3493.653, 2141.139
3495.581, 2136.523
3497.510, 2134.816
3499.438, 2135.035
3501.366, 2135.190
3503.295, 2133.157
3505.223, 2124.554
3507.152, 2115.254
3509.080, 2108.437
3511.009, 2101.421
3512.937, 2093.746
3514.866, 2087.184
3516.794, 2081.337
3518.723, 2074.503
3520.651, 2066.583
3522.580, 2055.729
3524.508, 2046.813
3526.437, 2043.280
3528.365, 2042.080
3530.293, 2043.252
3532.222, 2040.818
3534.150, 2035.288
3536.079, 2030.483
3538.007, 2025.327
3539.936, 2017.078
3541.864, 2009.871
3543.793, 2005.895
3545.721, 2003.501
3547.650, 2003.172
3549.578, 1997.942
3551.507, 1989.467
3553.435, 1985.793
3555.364, 1983.717
3557.292, 1979.267
3559.220, 1974.969
3561.149, 1971.730
3563.077, 1967.675
3565.006, 1962.517
3566.934, 1951.807
3568.863, 1939.466
3570.791, 1937.621
3572.720, 1938.864
3574.648, 1937.703
3576.577, 1933.324
3578.505, 1923.418
3580.434, 1914.103
3582.362, 1906.156
3584.291, 1913.438
3586.219, 1925.644
3588.147, 1919.629
3590.076, 1911.569
3592.004, 1913.751
3593.933, 1913.440
3595.861, 1906.927
3597.790, 1902.414
3599.718, 1900.317
3601.647, 1901.869
3603.575, 1902.182
3605.504, 1893.494
3607.432, 1883.220
3609.361, 1871.394
3611.289, 1868.452
3613.218, 1874.771
3615.146, 1874.293
3617.074, 1869.217
3619.003, 1864.439
3620.931, 1862.909
3622.860, 1870.693
3624.788, 1874.557
3626.717, 1871.168
3628.645, 1870.500
3630.574, 1872.643
3632.502, 1873.628
3634.431, 1872.218
3636.359, 1865.365
3638.288, 1859.033
3640.216, 1855.238
3642.145, 1855.272
3644.073, 1859.477
3646.001, 1860.334
3647.930, 1858.066
3649.858, 1852.135
3651.787, 1845.448
3653.715, 1839.087
3655.644, 1834.832
3657.572, 1833.293
3659.501, 1831.028
3661.429, 1828.385
3663.358, 1826.730
3665.286, 1826.604
3667.215, 1829.858
3669.143, 1832.368
3671.072, 1833.301
3673.000, 1829.992
3674.928, 1823.776
3676.857, 1827.627
3678.785, 1833.783
3680.714, 1831.943
3682.642, 1830.031
3684.571, 1831.290
3686.499, 1830.440
3688.428, 1826.849
3690.356, 1822.539
3692.285, 1817.672
3694.213, 1812.498
3696.142, 1807.084
3698.070, 1800.422
3699.999, 1799.145
3701.927, 1804.743
3703.855, 1804.059
3705.784, 1800.585
3707.712, 1802.028
3709.641, 1801.730
3711.569, 1794.142
3713.498, 1790.723
3715.426, 1793.922
3717.355, 1801.964
3719.283, 1810.227
3721.212, 1808.593
3723.140, 1803.312
3725.069, 1796.443
3726.997, 1793.923
3728.926, 1798.313
3730.854, 1793.498
3732.782, 1784.865
3734.711, 1785.757
3736.639, 1787.555
3738.568, 1783.981
3740.496, 1781.864
3742.425, 1782.764
3744.353, 1784.344
3746.282, 1786.171
3748.210, 1787.172
3750.139, 1788.086
3752.067, 1789.385
3753.996, 1790.701
3755.924, 1792.043
3757.853, 1787.946
3759.781, 1783.168
3761.709, 1791.100
3763.638, 1795.929
3765.566, 1786.289
3767.495, 1781.986
3769.423, 1786.856
3771.352, 1788.805
3773.280, 1788.228
3775.209, 1784.721
3777.137, 1781.335
3779.066, 1779.293
3780.994, 1777.661
3782.923, 1776.371
3784.851, 1779.452
3786.780, 1782.503
3788.708, 1779.120
3790.636, 1773.797
3792.565, 1767.555
3794.493, 1764.132
3796.422, 1763.680
3798.350, 1766.792
3800.279, 1770.409
3802.207, 1769.282
3804.136, 1772.867
3806.064, 1784.811
3807.993, 1786.010
3809.921, 1779.292
3811.850, 1777.906
3813.778, 1778.960
3815.707, 1782.698
3817.635, 1781.436
3819.563, 1773.824
3821.492, 1767.260
3823.420, 1763.042
3825.349, 1767.006
3827.277, 1768.404
3829.206, 1757.545
3831.134, 1750.303
3833.063, 1748.472
3834.991, 1757.296
3836.920, 1767.035
3838.848, 1761.812
3840.777, 1757.945
3842.705, 1761.960
3844.634, 1760.683
3846.562, 1756.256
3848.490, 1762.724
3850.419, 1770.249
3852.347, 1772.485
3854.276, 1769.208
3856.204, 1760.733
3858.133, 1760.683
3860.061, 1764.077
3861.990, 1759.538
3863.918, 1755.390
3865.847, 1755.523
3867.775, 1757.239
3869.704, 1759.378
3871.632, 1751.718
3873.561, 1756.360
3875.489, 1758.843
3877.417, 1759.282
3879.346, 1751.558
3881.274, 1754.375
3883.203, 1752.968
3885.131, 1751.387
3887.060, 1755.688
3888.988, 1749.152
3890.917, 1753.359
3892.845, 1753.278
3894.774, 1755.159
3896.702, 1752.790
3898.631, 1751.734
3900.559, 1754.930
3902.488, 1755.771
3904.416, 1752.913
3906.344, 1754.920
3908.273, 1748.235
3910.201, 1749.176
3912.130, 1753.409
3914.058, 1750.764
3915.987, 1752.848
3917.915, 1753.131
3919.844, 1745.230
3921.772, 1751.562
3923.701, 1751.739
3925.629, 1745.596
3927.558, 1751.440
3929.486, 1746.168
3931.415, 1744.864
3933.343, 1746.545
3935.271, 1745.115
3937.200, 1748.591
3939.128, 1747.340
3941.057, 1745.666
3942.985, 1745.836
3944.914, 1740.782
3946.842, 1745.419
3948.771, 1743.436
3950.699, 1744.745
3952.628, 1746.798
3954.556, 1743.141
3956.485, 1745.530
3958.413, 1738.542
3960.342, 1739.400
3962.270, 1739.414
3964.198, 1744.442
3966.127, 1737.500
3968.055, 1738.140
3969.984, 1742.009
3971.912, 1741.360
3973.841, 1742.600
3975.769, 1738.249
3977.698, 1739.150
3979.626, 1738.603
3981.555, 1743.060
3983.483, 1743.567
3985.412, 1739.310
3987.340, 1735.074
3989.269, 1739.890
3991.197, 1735.531
3993.125, 1732.151
3995.054, 1729.743
3996.982, 1731.779
3998.911, 1730.659
4000.839, 1724.696
4002.768, 1723.899
4004.696, 1723.794
4006.625, 1725.429
4008.553, 1732.881
4010.482, 1734.911
4012.410, 1735.295
4014.339, 1736.244
4016.267, 1735.322
4018.196, 1733.880
4020.124, 1731.664
4022.052, 1733.519
4023.981, 1735.039
4025.909, 1733.419
4027.838, 1734.737
4029.766, 1739.345
4031.695, 1741.699
4033.623, 1741.462
4035.552, 1736.427
4037.480, 1730.917
4039.409, 1731.827
4041.337, 1730.005
4043.266, 1724.625
4045.194, 1721.019
4047.123, 1719.569
4049.051, 1722.386
4050.979, 1730.698
4052.908, 1731.909
4054.836, 1723.042
4056.765, 1721.302
4058.693, 1725.926
4060.622, 1724.510
4062.550, 1725.505
4064.479, 1727.204
4066.407, 1723.345
4068.336, 1722.973
4070.264, 1728.076
4072.193, 1730.090
4074.121, 1724.973
4076.050, 1725.399
4077.978, 1727.747
4079.906, 1723.874
4081.835, 1720.981
4083.763, 1718.288
4085.692, 1717.549
4087.620, 1714.459
4089.549, 1711.118
4091.477, 1714.464
4093.406, 1716.339
4095.334, 1712.823
4097.263, 1710.674
4099.191, 1714.501
4101.120, 1715.631
4103.048, 1706.871
4104.977, 1708.831
4106.905, 1718.722
4108.833, 1713.070
4110.762, 1706.545
4112.690, 1712.301
4114.619, 1715.275
4116.547, 1709.686
4118.476, 1705.499
4120.404, 1706.292
4122.333, 1711.678
4124.261, 1710.050
4126.190, 1704.794
4128.118, 1701.299
4130.047, 1699.047
4131.975, 1704.054
4133.904, 1704.679
4135.832, 1699.468
4137.761, 1700.816
4139.689, 1703.104
4141.618, 1702.251
4143.546, 1700.996
4145.475, 1698.292
4147.403, 1697.589
4149.332, 1699.812
4151.260, 1704.624
4153.188, 1700.539
4155.117, 1690.797
4157.045, 1695.359
4158.974, 1701.740
4160.902, 1702.031
4162.831, 1699.390
4164.759, 1694.667
4166.688, 1688.567
4168.616, 1684.608
4170.544, 1685.175
4172.473, 1687.278
4174.401, 1689.676
4176.330, 1693.917
4178.258, 1695.826
4180.187, 1691.188
4182.115, 1685.734
4184.044, 1680.904
4185.972, 1678.663
4187.901, 1678.732
4189.829, 1680.351
4191.758, 1690.191
4193.686, 1701.255
4195.615, 1695.824
4197.543, 1687.078
4199.472, 1680.354
4201.400, 1683.234
4203.329, 1689.410
4205.257, 1689.874
4207.186, 1684.859
4209.114, 1674.949
4211.042, 1673.916
4212.971, 1676.582
4214.899, 1675.903
4216.828, 1674.813
4218.756, 1673.949
4220.685, 1669.242
4222.613, 1665.456
4224.542, 1668.951
4226.470, 1671.044
4228.398, 1670.370
4230.327, 1667.113
4232.255, 1665.374
4234.184, 1669.255
4236.112, 1671.902
4238.041, 1672.390
4239.969, 1670.604
4241.898, 1669.499
4243.826, 1671.056
4245.755, 1671.964
4247.683, 1671.725
4249.612, 1669.399
4251.540, 1666.186
4253.469, 1662.765
4255.397, 1656.196
4257.326, 1650.229
4259.254, 1653.177
4261.183, 1656.473
4263.111, 1657.513
4265.040, 1660.617
4266.968, 1663.084
4268.896, 1661.456
4270.825, 1658.650
4272.753, 1655.351
4274.682, 1652.508
4276.610, 1650.128
4278.539, 1647.947
4280.467, 1648.590
4282.396, 1651.197
4284.324, 1651.236
4286.252, 1650.781
4288.181, 1650.883
4290.109, 1648.348
4292.038, 1645.965
4293.966, 1652.659
4295.895, 1652.531
4297.823, 1640.841
4299.752, 1637.524
4301.680, 1639.489
4303.609, 1647.043
4305.537, 1643.609
4307.466, 1629.631
4309.394, 1627.890
4311.323, 1631.017
4313.251, 1636.533
4315.180, 1630.241
4317.108, 1618.983
4319.037, 1623.463
4320.965, 1629.934
4322.894, 1634.053
4324.822, 1628.818
4326.750, 1622.325
4328.679, 1626.535
4330.607, 1625.386
4332.536, 1618.838
4334.464, 1625.778
4336.393, 1630.023
4338.321, 1619.729
4340.250, 1619.298
4342.178, 1625.719
4344.106, 1627.865
4346.035, 1627.846
4347.963, 1626.303
4349.892, 1619.089
4351.820, 1613.465
4353.749, 1619.785
4355.677, 1622.969
4357.606, 1621.736
4359.534, 1617.710
4361.463, 1616.715
4363.391, 1623.613
4365.320, 1624.212
4367.248, 1620.390
4369.177, 1613.799
4371.105, 1613.191
4373.034, 1620.114
4374.962, 1619.116
4376.891, 1616.102
4378.819, 1615.835
4380.748, 1617.265
4382.676, 1618.919
4384.604, 1616.940
4386.533, 1611.974
4388.461, 1603.489
4390.390, 1597.343
4392.318, 1594.442
4394.247, 1597.056
4396.175, 1599.009
4398.104, 1599.807
4400.032, 1601.534
4401.960, 1601.288
4403.889, 1597.736
4405.817, 1597.670
4407.746, 1598.156
4409.674, 1593.356
4411.603, 1593.826
4413.531, 1598.837
4415.460, 1596.697
4417.388, 1595.258
4419.317, 1598.971
4421.245, 1598.464
4423.174, 1594.317
4425.102, 1585.235
4427.031, 1584.365
4428.959, 1591.291
4430.888, 1583.239
4432.816, 1575.708
4434.745, 1578.981
4436.673, 1582.970
4438.602, 1585.333
4440.530, 1581.563
4442.458, 1577.944
4444.387, 1575.375
4446.315, 1571.359
4448.244, 1567.799
4450.172, 1565.677
4452.101, 1562.200
4454.029, 1561.200
4455.958, 1572.174
4457.886, 1575.112
4459.814, 1570.031
4461.743, 1573.042
4463.671, 1572.474
4465.600, 1561.590
4467.528, 1554.606
4469.457, 1551.860
4471.385, 1554.685
4473.314, 1556.742
4475.242, 1557.961
4477.171, 1563.347
4479.099, 1565.386
4481.028, 1560.929
4482.956, 1558.382
4484.885, 1555.547
4486.813, 1549.334
4488.742, 1547.840
4490.670, 1551.036
4492.599, 1561.687
4494.527, 1559.369
4496.456, 1541.630
4498.384, 1547.435
4500.313, 1554.928
4502.241, 1544.702
4504.169, 1539.551
4506.098, 1537.394
4508.026, 1531.033
4509.955, 1531.711
4511.883, 1539.129
4513.812, 1537.298
4515.740, 1536.179
4517.668, 1540.096
4519.597, 1540.807
4521.525, 1539.136
4523.454, 1535.756
4525.382, 1532.217
4527.311, 1529.737
4529.239, 1531.626
4531.168, 1533.014
4533.096, 1532.567
4535.025, 1530.700
4536.953, 1529.055
4538.882, 1528.792
4540.810, 1529.450
4542.739, 1529.437
4544.667, 1525.474
4546.596, 1525.673
4548.524, 1528.595
4550.453, 1525.987
4552.381, 1523.197
4554.310, 1521.911
4556.238, 1520.653
4558.167, 1518.106
4560.095, 1512.388
4562.023, 1507.775
4563.952, 1505.588
4565.880, 1509.441
4567.809, 1508.780
4569.737, 1504.265
4571.666, 1502.875
4573.594, 1502.491
4575.522, 1502.351
4577.451, 1502.229
4579.379, 1502.317
4581.308, 1502.888
4583.236, 1503.245
4585.165, 1502.121
4587.093, 1496.593
4589.022, 1495.714
4590.950, 1497.711
4592.879, 1494.173
4594.807, 1489.991
4596.736, 1487.139
4598.664, 1490.678
4600.593, 1494.775
4602.521, 1496.407
4604.450, 1494.406
4606.378, 1489.452
4608.307, 1480.649
4610.235, 1479.106
4612.164, 1480.687
4614.092, 1475.364
4616.021, 1472.643
4617.949, 1472.869
4619.877, 1469.994
4621.806, 1471.607
4623.734, 1480.139
4625.663, 1468.326
4627.591, 1459.694
4629.520, 1469.986
4631.448, 1467.471
4633.376, 1462.123
4635.305, 1466.339
4637.233, 1466.589
4639.162, 1464.944
4641.090, 1469.637
4643.019, 1470.481
4644.947, 1466.669
4646.876, 1461.674
4648.804, 1458.944
4650.733, 1459.632
4652.661, 1468.371
4654.590, 1469.067
4656.518, 1452.764
4658.447, 1452.632
4660.375, 1457.038
4662.304, 1452.557
4664.232, 1451.561
4666.161, 1451.515
4668.089, 1446.121
4670.018, 1448.440
4671.946, 1454.531
4673.875, 1446.831
4675.803, 1445.770
4677.731, 1453.240
4679.660, 1449.937
4681.588, 1448.104
4683.517, 1451.994
4685.445, 1446.491
4687.374, 1441.170
4689.302, 1441.312
4691.230, 1442.253
4693.159, 1441.427
4695.087, 1433.909
4697.016, 1436.886
4698.944, 1441.296
4700.873, 1432.726
4702.801, 1424.337
4704.730, 1419.745
4706.658, 1425.008
4708.587, 1426.624
4710.515, 1423.881
4712.444, 1424.897
4714.372, 1424.950
4716.301, 1423.083
4718.229, 1422.421
4720.158, 1423.662
4722.086, 1426.456
4724.015, 1419.125
4725.943, 1412.256
4727.872, 1414.022
4729.800, 1407.925
4731.729, 1400.985
4733.657, 1398.157
4735.585, 1406.819
4737.514, 1415.752
4739.442, 1411.054
4741.371, 1401.260
4743.299, 1393.732
4745.228, 1402.860
4747.156, 1399.756
4749.084, 1389.735
4751.013, 1395.091
4752.941, 1396.691
4754.870, 1392.780
4756.798, 1389.591
4758.727, 1389.025
4760.655, 1390.920
4762.584, 1389.722
4764.512, 1393.721
4766.441, 1403.014
4768.369, 1392.667
4770.298, 1381.826
4772.226, 1378.983
4774.155, 1386.417
4776.083, 1386.934
4778.012, 1372.409
4779.940, 1374.845
4781.869, 1380.031
4783.797, 1375.883
4785.726, 1375.128
4787.654, 1375.024
4789.583, 1373.147
4791.511, 1369.086
4793.439, 1366.024
4795.368, 1369.322
4797.296, 1366.427
4799.225, 1363.128
4801.153, 1368.254
4803.082, 1371.172
4805.010, 1370.015
4806.938, 1361.153
4808.867, 1359.608
4810.795, 1361.707
4812.724, 1357.746
4814.652, 1352.845
4816.581, 1349.223
4818.509, 1350.910
4820.438, 1350.547
4822.366, 1347.809
4824.295, 1344.052
4826.223, 1342.903
4828.152, 1344.015
4830.080, 1345.651
4832.009, 1344.940
4833.937, 1342.630
4835.866, 1345.138
4837.794, 1344.282
4839.723, 1339.618
4841.651, 1335.930
4843.580, 1332.795
4845.508, 1330.978
4847.437, 1338.884
4849.365, 1338.641
4851.293, 1328.474
4853.222, 1319.166
4855.150, 1319.799
4857.079, 1330.446
4859.007, 1333.875
4860.936, 1326.915
4862.864, 1312.893
4864.792, 1316.777
4866.721, 1320.515
4868.649, 1318.626
4870.578, 1320.381
4872.506, 1320.446
4874.435, 1317.552
4876.363, 1312.501
4878.292, 1310.782
4880.220, 1313.662
4882.149, 1313.623
4884.077, 1316.333
4886.006, 1321.591
4887.934, 1317.903
4889.863, 1313.992
4891.791, 1312.140
4893.720, 1301.611
4895.648, 1295.709
4897.577, 1297.171
4899.505, 1300.345
4901.434, 1303.148
4903.362, 1303.873
4905.291, 1290.628
4907.219, 1288.100
4909.147, 1297.920
4911.076, 1293.914
4913.004, 1287.317
4914.933, 1281.525
4916.861, 1275.449
4918.790, 1276.506
4920.718, 1282.740
4922.646, 1276.951
4924.575, 1277.586
4926.503, 1283.695
4928.432, 1276.681
4930.360, 1270.727
4932.289, 1268.801
4934.217, 1271.731
4936.146, 1273.137
4938.074, 1272.452
4940.003, 1270.602
4941.931, 1268.999
4943.860, 1267.203
4945.788, 1262.312
4947.717, 1266.564
4949.645, 1273.225
4951.574, 1266.879
4953.502, 1263.652
4955.431, 1262.342
4957.359, 1259.678
4959.288, 1252.098
4961.216, 1249.596
4963.145, 1267.578
4965.073, 1264.555
4967.001, 1254.319
4968.930, 1250.713
4970.858, 1258.091
4972.787, 1262.757
4974.715, 1254.630
4976.644, 1251.003
4978.572, 1249.106
4980.500, 1246.705
4982.429, 1241.548
4984.357, 1236.152
4986.286, 1232.143
4988.214, 1236.622
4990.143, 1237.603
4992.071, 1231.357
4994.000, 1229.507
4995.928, 1227.289
4997.857, 1224.329
4999.785, 1228.164
5001.714, 1225.359
5003.642, 1218.091
5005.571, 1223.183
5007.499, 1222.034
5009.428, 1216.120
5011.356, 1214.977
5013.285, 1214.384
5015.213, 1214.693
5017.142, 1219.277
5019.070, 1214.312
5020.999, 1208.830
5022.927, 1213.781
5024.855, 1210.288
5026.784, 1205.487
5028.712, 1205.260
5030.641, 1205.083
5032.569, 1203.996
5034.498, 1201.658
5036.426, 1202.016
5038.354, 1202.794
5040.283, 1202.197
5042.211, 1191.703
5044.140, 1192.851
5046.068, 1203.571
5047.997, 1195.558
5049.925, 1189.554
5051.854, 1186.996
5053.782, 1181.587
5055.711, 1187.640
5057.639, 1195.077
5059.568, 1185.181
5061.496, 1189.323
5063.425, 1192.773
5065.353, 1182.330
5067.282, 1177.441
5069.210, 1172.535
5071.139, 1165.104
5073.067, 1168.139
5074.996, 1171.099
5076.924, 1169.993
5078.853, 1164.696
5080.781, 1160.834
5082.709, 1159.627
5084.638, 1161.618
5086.566, 1163.657
5088.495, 1163.493
5090.423, 1156.521
5092.352, 1155.193
5094.280, 1156.642
5096.208, 1157.686
5098.137, 1152.770
5100.065, 1147.415
5101.994, 1144.913
5103.922, 1147.122
5105.851, 1150.093
5107.779, 1151.150
5109.708, 1141.574
5111.636, 1142.539
5113.565, 1150.238
5115.493, 1148.073
5117.422, 1146.450
5119.350, 1143.053
5121.279, 1131.533
5123.207, 1135.489
5125.136, 1138.552
5127.064, 1130.315
5128.993, 1127.793
5130.921, 1127.280
5132.850, 1126.942
5134.778, 1125.118
5136.707, 1128.255
5138.635, 1134.546
5140.563, 1137.834
5142.492, 1132.706
5144.420, 1125.868
5146.349, 1126.817
5148.277, 1121.575
5150.206, 1118.395
5152.134, 1122.472
5154.063, 1116.007
5155.991, 1112.259
5157.919, 1113.899
5159.848, 1115.053
5161.776, 1110.677
5163.705, 1104.792
5165.633, 1108.447
5167.562, 1103.423
5169.490, 1098.132
5171.419, 1100.924
5173.347, 1098.765
5175.276, 1100.296
5177.204, 1107.751
5179.133, 1101.068
5181.061, 1098.100
5182.990, 1100.193
5184.918, 1099.540
5186.847, 1100.444
5188.775, 1098.081
5190.704, 1085.762
5192.632, 1087.757
5194.561, 1088.419
5196.489, 1079.827
5198.417, 1091.032
5200.346, 1093.261
5202.274, 1084.854
5204.203, 1082.537
5206.131, 1075.085
5208.060, 1070.427
5209.988, 1082.795
5211.917, 1079.545
5213.845, 1076.587
5215.773, 1081.253
5217.702, 1073.463
5219.630, 1070.960
5221.559, 1074.222
5223.487, 1074.033
5225.416, 1072.909
5227.344, 1069.999
5229.273, 1062.583
5231.201, 1066.918
5233.130, 1069.713
5235.058, 1065.529
5236.987, 1057.821
5238.915, 1055.692
5240.844, 1057.744
5242.772, 1057.641
5244.701, 1059.506
5246.629, 1057.179
5248.558, 1045.867
5250.486, 1048.635
5252.415, 1050.091
5254.343, 1047.179
5256.271, 1050.305
5258.200, 1050.001
5260.128, 1046.974
5262.057, 1043.722
5263.985, 1038.943
5265.914, 1037.826
5267.842, 1041.481
5269.771, 1037.830
5271.699, 1035.826
5273.627, 1035.445
5275.556, 1032.142
5277.484, 1029.471
5279.413, 1025.254
5281.341, 1017.648
5283.270, 1022.443
5285.198, 1023.851
5287.127, 1020.907
5289.055, 1027.263
5290.984, 1025.535
5292.912, 1021.050
5294.841, 1021.920
5296.769, 1017.575
5298.698, 1014.856
5300.626, 1016.044
5302.555, 1020.163
5304.483, 1018.033
5306.412, 1012.665
5308.340, 1009.203
5310.269, 1011.704
5312.197, 1013.519
5314.125, 1011.307
5316.054, 1003.548
5317.982, 1001.475
5319.911, 1002.595
5321.839, 1000.495
5323.768, 995.6536
5325.696, 992.1641
5327.625, 992.1335
5329.553, 997.9091
5331.481, 992.4369
5333.410, 983.8317
5335.338, 991.2267
5337.267, 989.2834
5339.195, 984.1282
5341.124, 980.6527
5343.052, 982.2067
5344.981, 980.4213
5346.909, 977.8625
5348.838, 981.8695
5350.766, 985.7709
5352.695, 983.5330
5354.623, 974.3477
5356.552, 970.5553
5358.480, 970.9079
5360.409, 971.5509
5362.337, 967.9308
5364.266, 963.8320
5366.194, 961.4401
5368.123, 961.2673
5370.051, 961.0306
5371.979, 962.4250
5373.908, 963.3512
5375.836, 961.2710
5377.765, 952.3138
5379.693, 948.2266
5381.622, 950.0675
5383.550, 944.9597
5385.479, 947.5426
5387.407, 949.6989
5389.335, 942.0336
5391.264, 945.4046
5393.192, 950.4531
5395.121, 950.9503
5397.049, 938.5511
5398.978, 936.5795
5400.906, 938.1866
5402.835, 936.8572
5404.763, 929.0488
5406.692, 928.4528
5408.620, 932.1393
5410.549, 930.5614
5412.477, 934.2363
5414.406, 932.5990
5416.334, 923.8718
5418.263, 919.6340
5420.191, 923.2958
5422.120, 925.8864
5424.048, 919.0112
5425.977, 915.6374
5427.905, 915.0333
5429.833, 916.0765
5431.762, 918.4906
5433.690, 909.3983
5435.619, 907.5724
5437.547, 919.1511
5439.476, 914.6504
5441.404, 908.8649
5443.333, 904.4215
5445.261, 901.0638
5447.189, 902.6663
5449.118, 900.4042
5451.046, 894.5787
5452.975, 893.9621
5454.903, 891.5410
5456.832, 893.5342
5458.760, 901.4238
5460.689, 898.6788
5462.617, 895.4800
5464.546, 892.2616
5466.474, 887.2473
5468.403, 888.8229
5470.331, 887.8449
5472.260, 883.1068
5474.188, 878.4376
5476.117, 878.1046
5478.045, 879.6159
5479.974, 880.2624
5481.902, 873.1028
5483.831, 874.5026
5485.759, 877.6732
5487.688, 874.4115
5489.616, 873.4629
5491.544, 869.8992
5493.473, 865.1973
5495.401, 864.3846
5497.330, 863.1505
5499.258, 862.1149
5501.187, 861.4591
5503.115, 860.5392
5505.043, 863.4025
5506.972, 863.7667
5508.900, 858.4242
5510.829, 854.5114
5512.757, 854.0880
5514.686, 852.2429
5516.614, 842.6907
5518.543, 843.7371
5520.471, 850.0519
5522.400, 853.7927
5524.328, 845.1470
5526.257, 840.8989
5528.185, 840.0199
5530.114, 839.6996
5532.042, 834.5090
5533.971, 835.3854
5535.899, 836.9205
5537.828, 835.6034
5539.756, 831.7994
5541.685, 832.8543
5543.613, 833.1487
5545.542, 827.9113
5547.470, 826.5905
5549.398, 824.8641
5551.327, 821.8703
5553.255, 818.1805
5555.184, 823.0021
5557.112, 826.1224
5559.041, 824.8656
5560.969, 818.8443
5562.897, 822.0441
5564.826, 822.5898
5566.754, 819.1550
5568.683, 820.4334
5570.611, 810.7045
5572.540, 810.5515
5574.468, 820.6024
5576.397, 813.7804
5578.325, 809.9706
5580.254, 804.1854
5582.182, 796.2830
5584.111, 807.2488
5586.039, 804.6368
5587.968, 799.1584
5589.896, 799.8950
5591.825, 794.6617
5593.753, 795.0651
5595.682, 799.3698
5597.610, 803.2315
5599.539, 790.9162
5601.467, 787.5107
5603.396, 789.5704
5605.324, 788.7596
5607.252, 786.3920
5609.181, 785.0051
5611.109, 784.4171
5613.038, 783.8158
5614.966, 787.6107
5616.895, 784.2834
5618.823, 777.5361
5620.751, 776.2253
5622.680, 778.3250
5624.608, 779.1404
5626.537, 776.8680
5628.465, 771.1400
5630.394, 769.8159
5632.322, 770.9783
5634.251, 769.9628
5636.179, 761.3825
5638.108, 757.8488
5640.036, 757.0383
5641.965, 757.2437
5643.893, 757.5894
5645.822, 758.5314
5647.750, 754.3828
5649.679, 750.1045
5651.607, 758.1188
5653.536, 755.5159
5655.464, 748.8439
5657.393, 744.4808
5659.321, 748.0040
5661.250, 742.0609
5663.178, 740.6163
5665.106, 743.4327
5667.035, 743.1315
5668.963, 732.9537
5670.892, 730.4784
5672.820, 735.7087
5674.749, 741.0329
5676.677, 737.7330
5678.605, 734.5477
5680.534, 732.2039
5682.462, 727.9101
5684.391, 723.2079
5686.319, 725.1669
5688.248, 730.1074
5690.176, 731.5112
5692.105, 730.1169
5694.033, 727.8258
5695.962, 723.3636
5697.890, 716.0153
5699.819, 718.3302
5701.747, 715.8192
5703.676, 710.4037
5705.604, 706.7651
5707.533, 708.9218
5709.461, 710.7384
5711.390, 712.6555
5713.318, 714.7360
5715.247, 707.0162
5717.175, 703.4144
5719.104, 703.4422
5721.032, 704.0317
5722.960, 700.0218
5724.889, 698.7538
5726.817, 698.2913
5728.746, 697.7429
5730.674, 699.1205
5732.603, 697.3759
5734.531, 696.1835
5736.459, 694.3320
5738.388, 684.1714
5740.316, 685.7021
5742.245, 688.5131
5744.173, 688.7699
5746.102, 686.6464
5748.030, 682.6710
5749.959, 682.4122
5751.887, 681.5256
5753.816, 674.8676
5755.744, 679.6974
5757.673, 683.1577
5759.601, 682.0762
5761.530, 677.0627
5763.458, 672.0804
5765.387, 673.0013
5767.315, 671.1835
5769.244, 665.8002
5771.172, 670.6534
5773.101, 668.9251
5775.029, 664.5253
5776.958, 660.6053
5778.886, 658.3970
5780.814, 660.7597
5782.743, 664.9891
5784.671, 668.0350
5786.600, 667.4076
5788.528, 663.0638
5790.457, 654.4560
5792.385, 653.0172
5794.313, 661.9870
5796.242, 653.3253
5798.170, 651.4752
5800.099, 650.8661
5802.027, 646.7115
5803.956, 638.6154
5805.884, 645.8540
5807.813, 646.9307
5809.741, 642.5615
5811.670, 643.3799
5813.598, 645.0922
5815.527, 643.6962
5817.455, 640.3776
5819.384, 636.5879
5821.312, 628.8950
5823.241, 635.8387
5825.169, 641.2224
5827.098, 638.6890
5829.026, 633.7559
5830.955, 635.5160
5832.883, 632.4818
5834.812, 629.0864
5836.740, 634.5005
5838.668, 630.6388
5840.597, 625.5922
5842.525, 623.4905
5844.454, 624.2283
5846.382, 621.5787
5848.311, 619.1816
5850.239, 617.7350
5852.167, 617.5258
5854.096, 618.5428
5856.024, 613.2623
5857.953, 615.8242
5859.881, 616.9434
5861.810, 609.6961
5863.738, 610.6725
5865.667, 605.4153
5867.595, 604.0851
5869.524, 608.2210
5871.452, 610.4073
5873.381, 607.0416
5875.309, 607.7853
5877.238, 607.9600
5879.166, 602.4890
5881.095, 601.1934
5883.023, 597.9913
5884.952, 598.6997
5886.880, 600.6709
5888.809, 592.4569
5890.737, 590.4464
5892.666, 594.0903
5894.594, 595.4082
5896.522, 589.5369
5898.451, 586.7723
5900.379, 587.9128
5902.308, 587.2321
5904.236, 583.8613
5906.165, 580.8656
5908.093, 585.8989
5910.021, 584.1899
5911.950, 583.9590
5913.878, 589.3749
5915.807, 584.3845
5917.735, 580.1202
5919.664, 578.9564
5921.592, 579.9177
5923.521, 580.6664
5925.449, 573.8001
5927.378, 566.4415
5929.306, 564.6136
5931.235, 567.2739
5933.163, 563.3739
5935.092, 570.5524
5937.020, 569.6183
5938.949, 565.2573
5940.877, 565.5190
5942.806, 560.1373
5944.734, 561.7887
5946.663, 561.3615
5948.591, 558.1711
5950.520, 557.6742
5952.448, 561.1914
5954.376, 556.0621
5956.305, 554.1072
5958.233, 557.6597
5960.162, 552.2035
5962.090, 555.3845
5964.019, 558.8680
5965.947, 556.2175
5967.875, 547.7792
5969.804, 548.6498
5971.732, 550.9686
5973.661, 546.0856
5975.589, 542.2384
5977.518, 549.1567
5979.446, 547.3817
5981.375, 545.5977
5983.303, 543.1244
5985.232, 541.1961
5987.160, 542.2726
5989.089, 532.7892
5991.017, 532.2570
5992.946, 532.7232
5994.874, 531.4210
5996.803, 537.1308
5998.731, 536.5104
6000.660, 531.7994
6002.588, 527.8774
6004.517, 526.6512
6006.445, 525.0500
6008.374, 525.0017
6010.302, 524.7776
6012.230, 523.3241
6014.159, 521.0663
6016.087, 522.0007
6018.016, 519.6517
6019.944, 516.0858
6021.873, 515.2206
6023.801, 517.7831
6025.729, 509.6507
6027.658, 506.7986
6029.586, 508.5644
6031.515, 510.3088
6033.443, 508.4334
6035.372, 507.2533
6037.300, 504.3792
6039.229, 504.5560
6041.157, 506.7190
6043.086, 507.1338
6045.014, 506.6341
6046.943, 502.9644
6048.871, 503.1514
6050.800, 504.0959
6052.728, 498.4630
6054.657, 494.3323
6056.585, 499.3364
6058.514, 500.0133
6060.442, 495.3533
6062.371, 492.0081
6064.299, 488.8641
6066.228, 489.7484
6068.156, 486.4556
6070.084, 481.5368
6072.013, 482.3831
6073.941, 487.4679
6075.870, 485.0359
6077.798, 484.4798
6079.727, 484.7469
6081.655, 480.5259
6083.583, 478.1820
6085.512, 480.5485
6087.440, 478.3251
6089.369, 474.6165
6091.297, 475.3257
6093.226, 475.3795
6095.154, 480.6727
6097.083, 476.0303
6099.011, 468.2997
6100.940, 468.3020
6102.868, 477.7680
6104.797, 477.1490
6106.725, 469.2222
6108.654, 464.1089
6110.582, 465.0897
6112.511, 463.3912
6114.439, 463.1212
6116.368, 462.5050
6118.296, 459.3557
6120.225, 456.2457
6122.153, 459.7469
6124.082, 461.0810
6126.010, 457.1933
6127.938, 456.3336
6129.867, 457.1564
6131.795, 452.3245
6133.724, 449.0639
6135.652, 450.6415
6137.581, 452.8693
6139.509, 453.9877
6141.438, 452.9868
6143.366, 444.1666
6145.294, 442.3042
6147.223, 444.5839
6149.151, 443.3058
6151.080, 438.5261
6153.008, 442.3633
6154.937, 441.8703
6156.865, 441.3918
6158.794, 439.1781
6160.722, 436.0759
6162.651, 435.4595
6164.579, 434.5411
6166.508, 430.1024
6168.436, 429.4723
6170.365, 432.0618
6172.293, 433.1375
6174.222, 426.0606
6176.150, 426.6712
6178.079, 431.2651
6180.007, 432.4842
6181.936, 429.8332
6183.864, 429.9184
6185.792, 424.6762
6187.721, 424.8546
6189.649, 423.0166
6191.578, 419.3709
6193.506, 418.0780
6195.435, 417.5989
6197.363, 421.2811
6199.292, 418.6342
6201.220, 415.5662
6203.148, 415.4731
6205.077, 413.6857
6207.005, 409.6184
6208.934, 412.1074
6210.862, 410.7314
6212.791, 407.7494
6214.719, 408.6284
6216.648, 407.1514
6218.576, 406.0012
6220.505, 406.5121
6222.433, 404.7903
6224.362, 402.1176
6226.290, 403.2464
6228.219, 400.4229
6230.147, 407.0891
6232.076, 406.4212
6234.004, 402.3719
6235.933, 401.6343
6237.861, 400.9658
6239.790, 398.0527
6241.718, 396.7660
6243.646, 391.9847
6245.575, 388.7383
6247.503, 391.5408
6249.432, 389.3479
6251.360, 390.1799
6253.289, 385.7051
6255.217, 385.3303
6257.146, 389.9179
6259.074, 391.5397
6261.002, 387.6465
6262.931, 387.9052
6264.859, 384.2533
6266.788, 382.4427
6268.716, 384.7956
6270.645, 385.7450
6272.573, 383.8281
6274.502, 382.5125
6276.430, 382.5376
6278.359, 382.7258
6280.287, 381.2736
6282.216, 376.7186
6284.144, 374.3248
6286.073, 379.2169
6288.001, 375.1929
6289.930, 369.8682
6291.858, 371.4596
6293.787, 373.5829
6295.715, 368.3671
6297.644, 368.4895
6299.572, 371.9111
6301.500, 370.7009
6303.429, 364.9393
6305.357, 367.9713
6307.286, 366.1425
6309.214, 365.3845
6311.143, 362.9707
6313.071, 361.7459
6315.000, 362.7181
6316.928, 360.3958
6318.856, 360.2158
6320.785, 359.9788
6322.713, 360.2949
6324.642, 359.3936
6326.570, 356.1270
6328.499, 352.0302
6330.427, 349.9329
6332.356, 348.8493
6334.284, 349.2403
6336.213, 351.1358
6338.141, 352.1041
6340.070, 349.5584
6341.998, 352.9580
6343.927, 351.7612
6345.855, 349.6689
6347.784, 347.0810
6349.712, 347.5615
6351.641, 353.9030
6353.569, 342.3532
6355.498, 344.0395
6357.426, 345.4628
6359.354, 342.6757
6361.283, 342.3802
6363.211, 348.0036
6365.140, 343.1911
6367.068, 336.6478
6368.997, 339.1859
6370.925, 335.7241
6372.854, 331.3684
6374.782, 332.4590
6376.710, 331.0903
6378.639, 332.8022
6380.567, 337.3719
6382.496, 331.5215
6384.424, 329.1649
6386.353, 332.8459
6388.281, 331.0672
6390.210, 328.0751
6392.138, 327.9087
6394.067, 329.7332
6395.995, 327.0302
6397.924, 323.7651
6399.852, 324.0347
6401.781, 322.1909
6403.709, 323.0556
6405.638, 323.6262
6407.566, 322.1870
6409.495, 320.0342
6411.423, 319.7415
6413.352, 321.7374
6415.280, 315.7297
6417.208, 312.5290
6419.137, 312.1402
6421.065, 315.3092
6422.994, 317.7686
6424.922, 315.9467
6426.851, 311.4642
6428.779, 309.0690
6430.708, 313.8806
6432.636, 311.0478
6434.564, 307.0081
6436.493, 310.1005
6438.421, 316.0534
6440.350, 307.0048
6442.278, 305.4373
6444.207, 307.5383
6446.135, 308.7261
6448.064, 305.6494
6449.992, 301.1284
6451.921, 300.5766
6453.849, 307.3265
6455.778, 304.6841
6457.706, 300.9457
6459.635, 300.3532
6461.563, 303.4095
6463.492, 303.3862
6465.420, 297.6727
6467.349, 304.7947
6469.277, 302.6710
6471.206, 300.3463
6473.134, 299.8032
6475.063, 297.9216
6476.991, 292.1998
6478.919, 286.3901
6480.848, 296.7315
6482.776, 296.8491
6484.705, 295.1456
6486.633, 290.6091
6488.562, 290.8025
6490.490, 293.4515
6492.418, 290.4490
6494.347, 289.5761
6496.275, 292.4746
6498.204, 285.5291
6500.132, 283.2610
6502.061, 285.2714
6503.989, 286.5940
6505.918, 286.4606
6507.846, 287.4012
6509.775, 282.5271
6511.703, 283.5475
6513.632, 283.7731
6515.560, 276.8405
6517.489, 274.2204
6519.417, 280.5371
6521.346, 278.7945
6523.274, 280.7798
6525.203, 275.9268
6527.131, 275.5539
6529.060, 277.3423
6530.988, 278.0024
6532.917, 276.8364
6534.845, 276.1293
6536.773, 281.1817
6538.702, 276.2002
6540.630, 275.7796
6542.559, 275.0962
6544.487, 269.8177
6546.416, 266.6562
6548.344, 268.9383
6550.272, 265.8540
6552.201, 265.6385
6554.129, 266.4179
6556.058, 263.1505
6557.986, 260.9828
6559.915, 265.8383
6561.843, 268.9159
6563.772, 261.9270
6565.700, 261.7883
6567.629, 258.9586
6569.557, 261.9067
6571.486, 260.7645
6573.414, 259.8973
6575.343, 261.9759
6577.271, 263.8704
6579.200, 262.6376
6581.128, 265.3180
6583.057, 266.5178
6584.985, 259.6060
6586.914, 258.2991
6588.842, 258.4340
6590.771, 257.9980
6592.699, 256.3206
6594.627, 251.8881
6596.556, 253.8672
6598.484, 252.7962
6600.413, 248.8559
6602.341, 251.7470
6604.270, 255.0054
6606.198, 252.4191
6608.126, 248.0291
6610.055, 249.0406
6611.983, 245.7876
6613.912, 247.2601
6615.840, 247.9339
6617.769, 246.1929
6619.697, 247.5727
6621.626, 249.3174
6623.554, 248.6799
6625.483, 247.2407
6627.411, 243.6174
6629.340, 242.6200
##END=



