##NAMES=Schrockingerite
##RRUFFID=R060232
##IDEAL CHEMISTRY=NaCa_3_(UO_2_)(SO_4_)(CO_3_)_3_F·10H_2_O
##LOCALITY=Atomic King #2 mine, Cane Wash, San Juan County, Utah, USA
##OWNER=RRUFF
##SOURCE=Michael Scott
##DESCRIPTION=Aggregate of yellowish-green platy crystals
##STATUS=The identification of this mineral is confirmed by single-crystal X-ray diffraction and chemical analysis
##URL=https://www.rruff.net/odr/rruff_sample/R060232
##MEASURED CHEMISTRY=Na_0.17_Ca_3.33_(UO_2_)_1.21_(SO_4_)_0.99_(CO_3_)_2.95_F_1.11_·1.53H_2_O
##DIFFRACTION SAMPLE DESCRIPTION=Single crystal, powder profile is calculated
##CELL PARAMETERS=a: 9.63 b: 9.632 c: 14.405 alpha: 91.44 beta: 92.27 gamma: 120.17 volume: 1152.7 crystal system: triclinic
##FILETYPE=Raman RAW
##RAMAN WAVELENGTH=532

86.13089, 82.17502
88.05936, 84.08021
89.98782, 85.95217
91.91629, 86.73463
93.84476, 85.68547
95.77322, 85.17131
97.70169, 85.95473
99.63016, 87.87560
101.5586, 89.34304
103.4871, 89.59129
105.4156, 89.62852
107.3440, 90.25722
109.2725, 91.57990
111.2010, 93.44547
113.1294, 93.61313
115.0579, 92.58819
116.9864, 99.13969
118.9148, 103.8773
120.8433, 120.0199
122.7718, 163.9079
124.7002, 229.2959
126.6287, 327.5619
128.5572, 457.9001
130.4856, 622.3121
132.4141, 818.4064
134.3426, 1059.329
136.2710, 1326.727
138.1995, 1596.448
140.1280, 1870.319
142.0564, 2143.042
143.9849, 2409.804
145.9134, 2668.101
147.8418, 2935.862
149.7703, 3219.121
151.6988, 3487.342
153.6272, 3579.935
155.5557, 3664.372
157.4842, 3729.191
159.4126, 3764.332
161.3411, 3776.181
163.2696, 3778.270
165.1980, 3774.458
167.1265, 3765.346
169.0550, 3750.253
170.9834, 3727.760
172.9119, 3703.820
174.8404, 3681.126
176.7688, 3660.642
178.6973, 3638.312
180.6258, 3610.887
182.5542, 3581.477
184.4827, 3555.830
186.4112, 3533.697
188.3396, 3513.879
190.2681, 3495.439
192.1966, 3477.706
194.1250, 3460.772
196.0535, 3444.905
197.9820, 3429.427
199.9104, 3413.381
201.8389, 3395.537
203.7674, 3378.128
205.6958, 3361.630
207.6243, 3345.577
209.5528, 3332.135
211.4812, 3321.485
213.4097, 3313.642
215.3382, 3309.534
217.2666, 3309.404
219.1951, 3311.829
221.1236, 3316.307
223.0520, 3322.301
224.9805, 3329.475
226.9090, 3337.761
228.8374, 3346.658
230.7659, 3354.695
232.6944, 3362.492
234.6228, 3367.379
236.5513, 3368.366
238.4798, 3364.253
240.4082, 3359.427
242.3367, 3351.542
244.2652, 3344.896
246.1936, 3345.039
248.1221, 3357.153
250.0506, 3369.900
251.9790, 3380.913
253.9075, 3390.728
255.8360, 3393.866
257.7644, 3386.766
259.6929, 3373.106
261.6214, 3357.633
263.5498, 3334.649
265.4783, 3316.029
267.4068, 3305.208
269.3352, 3301.930
271.2637, 3300.589
273.1922, 3300.767
275.1206, 3302.490
277.0491, 3305.632
278.9776, 3312.871
280.9060, 3317.035
282.8345, 3316.048
284.7630, 3311.050
286.6914, 3305.609
288.6199, 3298.388
290.5484, 3292.532
292.4768, 3289.606
294.4053, 3289.521
296.3338, 3293.990
298.2622, 3305.980
300.1907, 3322.838
302.1192, 3340.363
304.0476, 3363.564
305.9761, 3383.663
307.9046, 3395.219
309.8330, 3398.915
311.7615, 3394.436
313.6900, 3378.288
315.6184, 3354.716
317.5469, 3329.316
319.4754, 3300.815
321.4038, 3273.930
323.3323, 3250.700
325.2608, 3231.525
327.1892, 3216.274
329.1177, 3205.660
331.0462, 3197.022
332.9747, 3189.922
334.9031, 3184.367
336.8316, 3180.702
338.7601, 3178.017
340.6885, 3176.184
342.6170, 3175.692
344.5455, 3175.887
346.4739, 3177.254
348.4024, 3180.175
350.3309, 3184.394
352.2593, 3188.084
354.1878, 3191.678
356.1163, 3195.208
358.0447, 3197.785
359.9732, 3198.407
361.9017, 3200.696
363.8301, 3207.206
365.7586, 3217.228
367.6871, 3227.151
369.6155, 3236.821
371.5440, 3246.872
373.4725, 3256.864
375.4009, 3266.528
377.3294, 3276.591
379.2579, 3287.688
381.1863, 3298.783
383.1148, 3309.554
385.0433, 3319.428
386.9717, 3331.448
388.9002, 3345.285
390.8287, 3359.974
392.7571, 3374.417
394.6856, 3389.695
396.6141, 3404.687
398.5425, 3418.975
400.4710, 3432.717
402.3995, 3446.516
404.3279, 3457.825
406.2564, 3467.471
408.1849, 3478.634
410.1133, 3495.599
412.0418, 3513.613
413.9703, 3529.618
415.8987, 3543.446
417.8272, 3557.142
419.7557, 3573.805
421.6841, 3592.541
423.6126, 3611.222
425.5411, 3627.416
427.4695, 3645.376
429.3980, 3667.712
431.3265, 3693.294
433.2549, 3719.346
435.1834, 3744.013
437.1119, 3767.632
439.0403, 3790.810
440.9688, 3813.680
442.8973, 3835.972
444.8257, 3856.784
446.7542, 3879.060
448.6827, 3903.925
450.6111, 3933.046
452.5396, 3959.908
454.4681, 3985.527
456.3965, 4011.562
458.3250, 4038.898
460.2535, 4065.763
462.1819, 4095.810
464.1104, 4130.949
466.0389, 4170.948
467.9673, 4211.234
469.8958, 4252.299
471.8243, 4288.371
473.7527, 4315.703
475.6812, 4333.545
477.6097, 4345.237
479.5381, 4352.349
481.4666, 4358.491
483.3951, 4367.304
485.3235, 4380.334
487.2520, 4396.528
489.1805, 4415.570
491.1089, 4436.408
493.0374, 4458.118
494.9659, 4477.786
496.8943, 4499.670
498.8228, 4527.022
500.7513, 4559.436
502.6797, 4590.894
504.6082, 4617.655
506.5367, 4643.070
508.4651, 4669.218
510.3936, 4697.435
512.3221, 4725.701
514.2505, 4754.390
516.1790, 4784.771
518.1075, 4817.199
520.0359, 4850.240
521.9644, 4881.786
523.8929, 4911.822
525.8214, 4941.079
527.7498, 4970.466
529.6783, 5000.114
531.6068, 5030.866
533.5352, 5063.930
535.4637, 5099.047
537.3922, 5132.726
539.3206, 5163.483
541.2491, 5193.878
543.1776, 5225.203
545.1060, 5257.982
547.0345, 5292.771
548.9630, 5328.351
550.8914, 5362.625
552.8199, 5394.335
554.7484, 5425.249
556.6768, 5457.942
558.6053, 5492.476
560.5338, 5525.958
562.4622, 5556.588
564.3907, 5584.862
566.3192, 5611.849
568.2476, 5637.333
570.1761, 5661.603
572.1046, 5687.269
574.0330, 5717.405
575.9615, 5748.425
577.8900, 5778.838
579.8184, 5807.311
581.7469, 5834.786
583.6754, 5862.636
585.6038, 5891.830
587.5323, 5922.623
589.4608, 5951.993
591.3892, 5980.548
593.3177, 6008.492
595.2462, 6034.772
597.1746, 6058.418
599.1031, 6080.865
601.0316, 6102.409
602.9600, 6122.235
604.8885, 6141.281
606.8170, 6161.584
608.7454, 6185.267
610.6739, 6208.647
612.6024, 6229.325
614.5308, 6247.177
616.4593, 6266.919
618.3878, 6292.006
620.3162, 6316.241
622.2447, 6337.672
624.1732, 6356.722
626.1016, 6375.239
628.0301, 6393.579
629.9586, 6412.274
631.8870, 6431.502
633.8155, 6449.404
635.7440, 6466.390
637.6724, 6483.190
639.6009, 6499.282
641.5294, 6513.756
643.4578, 6526.286
645.3863, 6537.638
647.3148, 6548.727
649.2432, 6558.099
651.1717, 6563.655
653.1002, 6564.846
655.0286, 6568.720
656.9571, 6578.353
658.8856, 6590.063
660.8140, 6600.719
662.7425, 6608.579
664.6710, 6615.935
666.5994, 6624.055
668.5279, 6631.568
670.4564, 6635.074
672.3848, 6634.148
674.3133, 6633.439
676.2418, 6636.207
678.1702, 6638.252
680.0987, 6635.280
682.0272, 6623.327
683.9556, 6614.163
685.8841, 6611.235
687.8126, 6612.524
689.7410, 6613.052
691.6695, 6613.526
693.5980, 6616.065
695.5264, 6620.162
697.4549, 6623.780
699.3834, 6631.291
701.3118, 6646.158
703.2403, 6663.726
705.1688, 6687.883
707.0972, 6708.453
709.0257, 6716.450
710.9542, 6704.313
712.8826, 6691.076
714.8111, 6678.670
716.7396, 6670.068
718.6680, 6666.629
720.5965, 6669.663
722.5250, 6675.936
724.4534, 6684.799
726.3819, 6695.229
728.3104, 6706.821
730.2388, 6712.366
732.1673, 6728.314
734.0958, 6762.794
736.0242, 6817.456
737.9527, 6876.268
739.8812, 6960.653
741.8096, 7017.466
743.7381, 7022.340
745.6666, 6981.603
747.5950, 6914.506
749.5235, 6799.304
751.4520, 6679.938
753.3804, 6563.032
755.3089, 6448.397
757.2374, 6353.790
759.1658, 6285.748
761.0943, 6231.402
763.0228, 6185.174
764.9512, 6146.922
766.8797, 6112.554
768.8082, 6081.164
770.7366, 6053.713
772.6651, 6030.457
774.5936, 6011.909
776.5220, 6002.329
778.4505, 6007.142
780.3790, 6015.800
782.3074, 6023.550
784.2359, 6030.091
786.1644, 6037.501
788.0928, 6034.771
790.0213, 6042.257
791.9498, 6071.084
793.8782, 6123.435
795.8067, 6180.687
797.7352, 6235.656
799.6636, 6303.254
801.5921, 6372.354
803.5206, 6437.926
805.4490, 6593.117
807.3775, 6870.477
809.3060, 7210.086
811.2344, 7661.725
813.1629, 8237.657
815.0914, 8576.048
817.0198, 8620.933
818.9483, 8456.681
820.8768, 8078.804
822.8052, 7477.421
824.7337, 6957.885
826.6622, 6546.038
828.5906, 6220.751
830.5191, 5985.445
832.4476, 5849.718
834.3760, 5745.180
836.3045, 5690.436
838.2330, 5643.747
840.1614, 5588.379
842.0899, 5527.327
844.0184, 5462.175
845.9468, 5382.935
847.8753, 5308.436
849.8038, 5245.217
851.7322, 5190.954
853.6607, 5140.331
855.5892, 5092.192
857.5176, 5048.781
859.4461, 5010.908
861.3746, 4977.193
863.3030, 4947.534
865.2315, 4924.869
867.1600, 4902.972
869.0884, 4880.732
871.0169, 4859.432
872.9454, 4838.221
874.8738, 4817.110
876.8023, 4796.635
878.7308, 4776.537
880.6592, 4758.002
882.5877, 4742.396
884.5162, 4730.364
886.4446, 4719.073
888.3731, 4708.660
890.3016, 4698.543
892.2300, 4686.906
894.1585, 4672.716
896.0870, 4662.201
898.0154, 4657.229
899.9439, 4655.207
901.8724, 4657.656
903.8008, 4670.575
905.7293, 4673.588
907.6578, 4659.420
909.5862, 4632.688
911.5147, 4599.755
913.4432, 4556.328
915.3716, 4518.085
917.3001, 4487.514
919.2286, 4465.174
921.1570, 4448.667
923.0855, 4436.923
925.0140, 4424.969
926.9424, 4412.078
928.8709, 4399.283
930.7994, 4386.367
932.7278, 4371.896
934.6563, 4357.936
936.5848, 4345.361
938.5132, 4334.886
940.4417, 4325.184
942.3702, 4314.663
944.2986, 4309.396
946.2271, 4313.058
948.1556, 4319.979
950.0840, 4325.970
952.0125, 4333.622
953.9410, 4336.657
955.8694, 4329.628
957.7979, 4324.062
959.7264, 4325.002
961.6548, 4328.047
963.5833, 4343.761
965.5118, 4368.937
967.4402, 4391.866
969.3687, 4399.221
971.2972, 4419.601
973.2256, 4458.775
975.1541, 4517.278
977.0826, 4635.909
979.0110, 4865.740
980.9395, 5120.908
982.8680, 5284.649
984.7964, 5338.436
986.7249, 5278.866
988.6534, 5061.249
990.5818, 4776.445
992.5103, 4543.351
994.4388, 4382.477
996.3672, 4269.491
998.2957, 4208.208
1000.224, 4175.079
1002.153, 4163.662
1004.081, 4154.625
1006.010, 4140.046
1007.938, 4121.225
1009.867, 4099.951
1011.795, 4073.433
1013.723, 4052.231
1015.652, 4036.168
1017.580, 4025.097
1019.509, 4015.766
1021.437, 4007.381
1023.366, 3996.703
1025.294, 3988.342
1027.223, 3984.399
1029.151, 3981.166
1031.080, 3976.297
1033.008, 3970.491
1034.937, 3967.901
1036.865, 3970.354
1038.794, 3970.729
1040.722, 3965.538
1042.651, 3957.188
1044.579, 3951.057
1046.507, 3951.660
1048.436, 3955.546
1050.364, 3958.336
1052.293, 3960.461
1054.221, 3964.783
1056.150, 3973.983
1058.078, 3986.361
1060.007, 4005.695
1061.935, 4025.620
1063.864, 4042.524
1065.792, 4055.833
1067.721, 4063.650
1069.649, 4066.838
1071.578, 4080.082
1073.506, 4102.521
1075.434, 4129.265
1077.363, 4163.141
1079.291, 4200.617
1081.220, 4234.095
1083.148, 4281.957
1085.077, 4367.872
1087.005, 4507.779
1088.934, 4701.605
1090.862, 4908.872
1092.791, 5108.206
1094.719, 5204.416
1096.648, 5133.116
1098.576, 4897.242
1100.505, 4651.866
1102.433, 4433.260
1104.361, 4263.268
1106.290, 4158.082
1108.218, 4104.052
1110.147, 4073.701
1112.075, 4058.707
1114.004, 4053.812
1115.932, 4044.777
1117.861, 4027.293
1119.789, 4005.131
1121.718, 3989.094
1123.646, 3971.843
1125.575, 3956.253
1127.503, 3947.224
1129.432, 3945.735
1131.360, 3949.750
1133.288, 3953.322
1135.217, 3952.389
1137.145, 3951.558
1139.074, 3954.563
1141.002, 3959.039
1142.931, 3960.281
1144.859, 3956.865
1146.788, 3954.773
1148.716, 3957.358
1150.645, 3962.476
1152.573, 3966.964
1154.502, 3969.530
1156.430, 3970.132
1158.359, 3969.158
1160.287, 3971.294
1162.215, 3976.411
1164.144, 3982.490
1166.072, 3987.866
1168.001, 3994.798
1169.929, 4001.099
1171.858, 4003.484
1173.786, 4002.923
1175.715, 4001.726
1177.643, 4000.343
1179.572, 4002.415
1181.500, 4011.070
1183.429, 4019.653
1185.357, 4024.236
1187.286, 4025.061
1189.214, 4025.619
1191.142, 4023.835
1193.071, 4023.275
1194.999, 4028.538
1196.928, 4036.205
1198.856, 4039.501
1200.785, 4037.879
1202.713, 4037.805
1204.642, 4041.437
1206.570, 4047.327
1208.499, 4053.857
1210.427, 4059.834
1212.356, 4065.970
1214.284, 4074.031
1216.213, 4083.819
1218.141, 4092.512
1220.069, 4100.527
1221.998, 4107.622
1223.926, 4112.738
1225.855, 4117.323
1227.783, 4122.973
1229.712, 4129.776
1231.640, 4135.902
1233.569, 4141.661
1235.497, 4148.885
1237.426, 4158.511
1239.354, 4167.348
1241.283, 4174.848
1243.211, 4181.538
1245.140, 4187.718
1247.068, 4193.750
1248.996, 4203.021
1250.925, 4216.997
1252.853, 4231.190
1254.782, 4245.398
1256.710, 4258.979
1258.639, 4269.043
1260.567, 4272.548
1262.496, 4275.189
1264.424, 4276.920
1266.353, 4281.766
1268.281, 4291.627
1270.210, 4305.344
1272.138, 4316.665
1274.067, 4324.804
1275.995, 4333.704
1277.923, 4345.147
1279.852, 4358.586
1281.780, 4371.597
1283.709, 4383.685
1285.637, 4396.144
1287.566, 4408.839
1289.494, 4421.622
1291.423, 4435.588
1293.351, 4450.212
1295.280, 4462.542
1297.208, 4470.352
1299.137, 4480.180
1301.065, 4494.845
1302.994, 4510.468
1304.922, 4523.983
1306.850, 4535.247
1308.779, 4547.533
1310.707, 4562.157
1312.636, 4576.157
1314.564, 4588.092
1316.493, 4598.989
1318.421, 4609.463
1320.350, 4619.213
1322.278, 4632.734
1324.207, 4653.085
1326.135, 4674.321
1328.064, 4691.573
1329.992, 4707.175
1331.921, 4726.079
1333.849, 4748.721
1335.777, 4770.972
1337.706, 4791.800
1339.634, 4812.111
1341.563, 4832.046
1343.491, 4850.672
1345.420, 4868.448
1347.348, 4884.796
1349.277, 4902.706
1351.205, 4921.724
1353.134, 4942.228
1355.062, 4963.403
1356.991, 4985.279
1358.919, 5013.085
1360.848, 5048.435
1362.776, 5086.629
1364.704, 5127.186
1366.633, 5170.011
1368.561, 5218.810
1370.490, 5272.053
1372.418, 5315.661
1374.347, 5348.685
1376.275, 5369.698
1378.204, 5370.207
1380.132, 5362.690
1382.061, 5360.158
1383.989, 5362.929
1385.918, 5356.429
1387.846, 5332.505
1389.775, 5311.781
1391.703, 5301.142
1393.631, 5296.048
1395.560, 5290.914
1397.488, 5284.561
1399.417, 5284.367
1401.345, 5292.269
1403.274, 5301.733
1405.202, 5312.956
1407.131, 5323.333
1409.059, 5328.951
1410.988, 5329.600
1412.916, 5330.192
1414.845, 5330.284
1416.773, 5332.912
1418.702, 5341.113
1420.630, 5352.292
1422.558, 5361.575
1424.487, 5368.704
1426.415, 5380.438
1428.344, 5398.997
1430.272, 5418.290
1432.201, 5435.560
1434.129, 5451.610
1436.058, 5467.583
1437.986, 5483.669
1439.915, 5496.424
1441.843, 5504.010
1443.772, 5511.002
1445.700, 5518.487
1447.629, 5527.872
1449.557, 5540.576
1451.485, 5556.782
1453.414, 5574.104
1455.342, 5593.776
1457.271, 5612.519
1459.199, 5627.781
1461.128, 5640.528
1463.056, 5652.424
1464.985, 5662.694
1466.913, 5672.531
1468.842, 5683.405
1470.770, 5691.664
1472.699, 5697.542
1474.627, 5700.797
1476.556, 5700.119
1478.484, 5696.120
1480.412, 5696.564
1482.341, 5703.817
1484.269, 5712.686
1486.198, 5721.526
1488.126, 5730.071
1490.055, 5737.794
1491.983, 5744.313
1493.912, 5750.381
1495.840, 5756.221
1497.769, 5761.313
1499.697, 5767.290
1501.626, 5772.486
1503.554, 5775.136
1505.483, 5776.471
1507.411, 5779.919
1509.339, 5784.715
1511.268, 5794.672
1513.196, 5813.981
1515.125, 5834.245
1517.053, 5850.344
1518.982, 5861.748
1520.910, 5869.507
1522.839, 5872.452
1524.767, 5875.792
1526.696, 5881.601
1528.624, 5886.195
1530.553, 5888.186
1532.481, 5888.011
1534.410, 5887.191
1536.338, 5886.329
1538.266, 5886.552
1540.195, 5890.923
1542.123, 5894.009
1544.052, 5892.123
1545.980, 5888.956
1547.909, 5889.995
1549.837, 5896.228
1551.766, 5902.326
1553.694, 5909.672
1555.623, 5914.177
1557.551, 5911.952
1559.480, 5908.724
1561.408, 5909.881
1563.337, 5915.775
1565.265, 5922.577
1567.193, 5929.526
1569.122, 5937.877
1571.050, 5950.274
1572.979, 5959.905
1574.907, 5961.360
1576.836, 5957.854
1578.764, 5956.333
1580.693, 5957.342
1582.621, 5956.950
1584.550, 5953.194
1586.478, 5951.100
1588.407, 5953.658
1590.335, 5958.625
1592.264, 5964.092
1594.192, 5969.628
1596.120, 5972.055
1598.049, 5970.289
1599.977, 5967.085
1601.906, 5964.822
1603.834, 5960.048
1605.763, 5948.897
1607.691, 5934.878
1609.620, 5924.124
1611.548, 5916.272
1613.477, 5911.997
1615.405, 5914.312
1617.334, 5914.440
1619.262, 5904.643
1621.191, 5890.600
1623.119, 5879.268
1625.047, 5870.345
1626.976, 5860.908
1628.904, 5851.912
1630.833, 5841.199
1632.761, 5827.919
1634.690, 5814.963
1636.618, 5803.311
1638.547, 5793.642
1640.475, 5788.048
1642.404, 5786.778
1644.332, 5783.241
1646.261, 5775.375
1648.189, 5766.213
1650.118, 5757.077
1652.046, 5747.738
1653.974, 5737.103
1655.903, 5726.244
1657.831, 5720.400
1659.760, 5721.787
1661.688, 5720.697
1663.617, 5711.735
1665.545, 5702.601
1667.474, 5695.848
1669.402, 5690.616
1671.331, 5686.724
1673.259, 5684.218
1675.188, 5680.043
1677.116, 5674.159
1679.045, 5668.336
1680.973, 5663.246
1682.901, 5659.500
1684.830, 5658.429
1686.758, 5658.686
1688.687, 5656.739
1690.615, 5652.054
1692.544, 5645.056
1694.472, 5634.196
1696.401, 5622.740
1698.329, 5612.031
1700.258, 5601.011
1702.186, 5588.770
1704.115, 5576.053
1706.043, 5565.679
1707.972, 5559.061
1709.900, 5549.229
1711.828, 5530.583
1713.757, 5515.888
1715.685, 5511.797
1717.614, 5510.721
1719.542, 5505.562
1721.471, 5496.784
1723.399, 5488.776
1725.328, 5481.885
1727.256, 5475.424
1729.185, 5471.703
1731.113, 5466.162
1733.042, 5455.390
1734.970, 5443.925
1736.899, 5435.475
1738.827, 5429.827
1740.755, 5427.845
1742.684, 5430.865
1744.612, 5429.135
1746.541, 5417.821
1748.469, 5406.017
1750.398, 5397.393
1752.326, 5390.797
1754.255, 5386.003
1756.183, 5382.768
1758.112, 5378.181
1760.040, 5371.588
1761.969, 5367.385
1763.897, 5367.711
1765.826, 5367.909
1767.754, 5364.094
1769.682, 5360.330
1771.611, 5361.753
1773.539, 5366.033
1775.468, 5364.589
1777.396, 5355.986
1779.325, 5349.630
1781.253, 5349.375
1783.182, 5347.155
1785.110, 5337.597
1787.039, 5327.409
1788.967, 5322.704
1790.896, 5321.943
1792.824, 5320.664
1794.753, 5318.606
1796.681, 5318.866
1798.609, 5324.462
1800.538, 5325.153
1802.466, 5313.062
1804.395, 5298.815
1806.323, 5288.274
1808.252, 5281.783
1810.180, 5281.201
1812.109, 5286.713
1814.037, 5289.469
1815.966, 5287.608
1817.894, 5286.610
1819.823, 5288.663
1821.751, 5289.827
1823.680, 5285.296
1825.608, 5279.412
1827.536, 5279.752
1829.465, 5285.366
1831.393, 5286.128
1833.322, 5280.721
1835.250, 5276.166
1837.179, 5274.540
1839.107, 5272.804
1841.036, 5269.588
1842.964, 5265.949
1844.893, 5262.475
1846.821, 5258.983
1848.750, 5255.601
1850.678, 5252.588
1852.607, 5249.289
1854.535, 5246.862
1856.464, 5243.804
1858.392, 5238.231
1860.320, 5234.522
1862.249, 5235.601
1864.177, 5239.128
1866.106, 5241.890
1868.034, 5243.478
1869.963, 5244.283
1871.891, 5243.799
1873.820, 5243.549
1875.748, 5244.486
1877.677, 5245.612
1879.605, 5247.404
1881.534, 5249.254
1883.462, 5249.523
1885.391, 5249.547
1887.319, 5253.399
1889.247, 5260.575
1891.176, 5263.044
1893.104, 5258.364
1895.033, 5255.492
1896.961, 5258.382
1898.890, 5261.248
1900.818, 5260.800
1902.747, 5260.561
1904.675, 5264.394
1906.604, 5270.493
1908.532, 5273.874
1910.461, 5274.185
1912.389, 5276.258
1914.318, 5281.912
1916.246, 5284.190
1918.174, 5277.510
1920.103, 5271.855
1922.031, 5272.623
1923.960, 5276.327
1925.888, 5280.412
1927.817, 5284.123
1929.745, 5284.646
1931.674, 5281.316
1933.602, 5278.077
1935.531, 5275.049
1937.459, 5272.491
1939.388, 5269.953
1941.316, 5269.398
1943.245, 5273.044
1945.173, 5278.443
1947.101, 5282.808
1949.030, 5286.361
1950.958, 5290.302
1952.887, 5294.247
1954.815, 5297.939
1956.744, 5300.284
1958.672, 5303.640
1960.601, 5310.682
1962.529, 5315.227
1964.458, 5313.407
1966.386, 5309.852
1968.315, 5308.774
1970.243, 5309.313
1972.172, 5308.785
1974.100, 5307.673
1976.028, 5309.188
1977.957, 5314.102
1979.885, 5318.960
1981.814, 5323.549
1983.742, 5326.147
1985.671, 5322.184
1987.599, 5319.534
1989.528, 5325.541
1991.456, 5335.895
1993.385, 5343.499
1995.313, 5348.771
1997.242, 5355.779
1999.170, 5366.250
2001.099, 5373.112
2003.027, 5372.734
2004.955, 5373.291
2006.884, 5378.906
2008.812, 5381.933
2010.741, 5377.342
2012.669, 5370.556
2014.598, 5365.730
2016.526, 5364.301
2018.455, 5370.891
2020.383, 5385.386
2022.312, 5397.783
2024.240, 5406.665
2026.169, 5414.415
2028.097, 5420.215
2030.026, 5425.792
2031.954, 5433.497
2033.882, 5439.088
2035.811, 5438.070
2037.739, 5435.064
2039.668, 5436.358
2041.596, 5440.969
2043.525, 5444.338
2045.453, 5446.024
2047.382, 5448.187
2049.310, 5449.959
2051.239, 5453.256
2053.167, 5461.267
2055.096, 5466.839
2057.024, 5466.293
2058.953, 5464.940
2060.881, 5466.188
2062.810, 5469.116
2064.738, 5472.991
2066.667, 5477.327
2068.595, 5478.964
2070.523, 5477.742
2072.452, 5481.160
2074.380, 5491.236
2076.309, 5499.869
2078.237, 5505.250
2080.166, 5509.252
2082.094, 5510.745
2084.023, 5512.983
2085.951, 5518.580
2087.880, 5525.303
2089.808, 5530.226
2091.737, 5533.786
2093.665, 5538.331
2095.594, 5544.239
2097.522, 5547.005
2099.450, 5543.614
2101.379, 5545.379
2103.307, 5556.353
2105.236, 5567.019
2107.164, 5576.065
2109.093, 5583.152
2111.021, 5587.796
2112.950, 5590.169
2114.878, 5588.072
2116.807, 5585.031
2118.735, 5588.877
2120.664, 5589.787
2122.592, 5592.853
2124.521, 5600.268
2126.449, 5603.678
2128.377, 5615.726
2130.306, 5627.084
2132.234, 5636.008
2134.163, 5643.359
2136.091, 5646.890
2138.020, 5650.683
2139.948, 5659.143
2141.877, 5667.571
2143.805, 5669.728
2145.734, 5668.751
2147.662, 5672.017
2149.591, 5679.141
2151.519, 5686.776
2153.448, 5694.734
2155.376, 5699.584
2157.304, 5699.665
2159.233, 5700.196
2161.161, 5703.597
2163.090, 5706.362
2165.018, 5707.009
2166.947, 5708.398
2168.875, 5711.952
2170.804, 5717.873
2172.732, 5727.071
2174.661, 5737.922
2176.589, 5746.397
2178.518, 5752.544
2180.446, 5762.606
2182.375, 5768.604
2184.303, 5773.992
2186.231, 5783.075
2188.160, 5789.323
2190.088, 5794.496
2192.017, 5804.701
2193.945, 5813.943
2195.874, 5822.488
2197.802, 5830.466
2199.731, 5836.452
2201.659, 5838.690
2203.588, 5838.600
2205.516, 5837.665
2207.445, 5837.133
2209.373, 5840.812
2211.302, 5849.291
2213.230, 5855.460
2215.158, 5859.329
2217.087, 5863.643
2219.015, 5867.687
2220.944, 5873.799
2222.872, 5881.179
2224.801, 5890.808
2226.729, 5906.732
2228.658, 5919.059
2230.586, 5920.447
2232.515, 5919.751
2234.443, 5925.441
2236.372, 5933.679
2238.300, 5937.008
2240.229, 5939.630
2242.157, 5954.408
2244.085, 5979.382
2246.014, 5997.288
2247.942, 6007.001
2249.871, 6011.186
2251.799, 6006.650
2253.728, 6012.019
2255.656, 6038.309
2257.585, 6056.460
2259.513, 6055.107
2261.442, 6051.871
2263.370, 6052.089
2265.299, 6054.940
2267.227, 6062.538
2269.156, 6070.276
2271.084, 6071.858
2273.012, 6071.653
2274.941, 6076.174
2276.869, 6084.477
2278.798, 6095.730
2280.726, 6108.882
2282.655, 6117.891
2284.583, 6122.271
2286.512, 6124.166
2288.440, 6121.083
2290.369, 6122.479
2292.297, 6131.313
2294.226, 6141.440
2296.154, 6154.261
2298.083, 6165.197
2300.011, 6171.083
2301.939, 6176.661
2303.868, 6185.722
2305.796, 6193.064
2307.725, 6192.700
2309.653, 6190.216
2311.582, 6193.334
2313.510, 6199.624
2315.439, 6204.027
2317.367, 6207.346
2319.296, 6209.979
2321.224, 6211.617
2323.153, 6221.381
2325.081, 6240.323
2327.010, 6252.586
2328.938, 6255.102
2330.866, 6256.176
2332.795, 6256.087
2334.723, 6256.612
2336.652, 6261.611
2338.580, 6263.103
2340.509, 6254.653
2342.437, 6249.327
2344.366, 6257.922
2346.294, 6267.523
2348.223, 6268.394
2350.151, 6265.999
2352.080, 6263.204
2354.008, 6261.911
2355.937, 6264.787
2357.865, 6271.473
2359.793, 6284.420
2361.722, 6301.334
2363.650, 6308.638
2365.579, 6306.154
2367.507, 6306.847
2369.436, 6311.361
2371.364, 6317.968
2373.293, 6328.405
2375.221, 6331.743
2377.150, 6322.568
2379.078, 6318.845
2381.007, 6327.813
2382.935, 6334.057
2384.864, 6329.972
2386.792, 6326.880
2388.720, 6331.968
2390.649, 6337.197
2392.577, 6336.638
2394.506, 6336.865
2396.434, 6345.227
2398.363, 6354.427
2400.291, 6353.061
2402.220, 6362.635
2404.148, 6358.013
2406.077, 6372.369
2408.005, 6378.563
2409.934, 6378.614
2411.862, 6382.604
2413.791, 6390.112
2415.719, 6393.202
2417.647, 6391.598
2419.576, 6388.626
2421.504, 6384.503
2423.433, 6380.978
2425.361, 6378.750
2427.290, 6377.497
2429.218, 6376.555
2431.147, 6379.826
2433.075, 6392.403
2435.004, 6401.916
2436.932, 6403.791
2438.861, 6403.847
2440.789, 6401.133
2442.718, 6399.161
2444.646, 6398.675
2446.574, 6399.614
2448.503, 6405.853
2450.431, 6409.158
2452.360, 6399.435
2454.288, 6387.600
2456.217, 6386.477
2458.145, 6389.226
2460.074, 6387.122
2462.002, 6381.661
2463.931, 6374.913
2465.859, 6367.477
2467.788, 6359.853
2469.716, 6352.681
2471.645, 6349.398
2473.573, 6341.215
2475.501, 6334.671
2477.430, 6329.415
2479.358, 6321.091
2481.287, 6318.559
2483.215, 6315.090
2485.144, 6310.185
2487.072, 6308.085
2489.001, 6303.816
2490.929, 6298.441
2492.858, 6297.091
2494.786, 6288.959
2496.715, 6286.337
2498.643, 6285.759
2500.572, 6289.952
2502.500, 6289.682
2504.428, 6281.018
2506.357, 6271.544
2508.285, 6263.196
2510.214, 6256.257
2512.142, 6250.264
2514.071, 6247.053
2515.999, 6251.320
2517.928, 6254.005
2519.856, 6245.255
2521.785, 6236.425
2523.713, 6238.706
2525.642, 6241.528
2527.570, 6235.519
2529.499, 6225.929
2531.427, 6218.677
2533.355, 6212.366
2535.284, 6204.130
2537.212, 6196.501
2539.141, 6194.156
2541.069, 6189.393
2542.998, 6192.157
2544.926, 6188.089
2546.855, 6191.096
2548.783, 6197.679
2550.712, 6195.956
2552.640, 6198.169
2554.569, 6198.203
2556.497, 6194.709
2558.426, 6193.618
2560.354, 6185.351
2562.282, 6177.150
2564.211, 6169.502
2566.139, 6167.103
2568.068, 6170.128
2569.996, 6170.685
2571.925, 6167.206
2573.853, 6161.972
2575.782, 6154.373
2577.710, 6149.114
2579.639, 6148.268
2581.567, 6145.599
2583.496, 6141.540
2585.424, 6135.696
2587.353, 6121.040
2589.281, 6120.372
2591.209, 6145.120
2593.138, 6159.712
2595.066, 6154.032
2596.995, 6152.378
2598.923, 6161.892
2600.852, 6166.712
2602.780, 6160.486
2604.709, 6153.272
2606.637, 6147.979
2608.566, 6143.756
2610.494, 6142.674
2612.423, 6141.213
2614.351, 6138.896
2616.280, 6136.276
2618.208, 6132.893
2620.136, 6129.814
2622.065, 6124.769
2623.993, 6122.542
2625.922, 6127.186
2627.850, 6130.583
2629.779, 6129.425
2631.707, 6125.618
2633.636, 6119.776
2635.564, 6113.138
2637.493, 6105.573
2639.421, 6100.053
2641.350, 6099.143
2643.278, 6100.390
2645.207, 6103.788
2647.135, 6105.919
2649.063, 6102.497
2650.992, 6098.729
2652.920, 6099.764
2654.849, 6099.749
2656.777, 6092.092
2658.706, 6084.922
2660.634, 6087.372
2662.563, 6091.288
2664.491, 6089.968
2666.420, 6087.985
2668.348, 6089.126
2670.277, 6086.589
2672.205, 6087.261
2674.134, 6083.295
2676.062, 6082.294
2677.990, 6080.796
2679.919, 6074.235
2681.847, 6068.313
2683.776, 6070.672
2685.704, 6074.698
2687.633, 6073.032
2689.561, 6070.284
2691.490, 6070.447
2693.418, 6071.863
2695.347, 6073.205
2697.275, 6073.778
2699.204, 6073.620
2701.132, 6071.990
2703.061, 6065.922
2704.989, 6061.396
2706.917, 6069.292
2708.846, 6077.746
2710.774, 6070.249
2712.703, 6060.908
2714.631, 6062.974
2716.560, 6069.151
2718.488, 6073.860
2720.417, 6076.658
2722.345, 6078.914
2724.274, 6077.914
2726.202, 6065.288
2728.131, 6056.056
2730.059, 6068.192
2731.988, 6084.737
2733.916, 6090.803
2735.844, 6091.470
2737.773, 6087.584
2739.701, 6083.947
2741.630, 6085.792
2743.558, 6087.724
2745.487, 6085.761
2747.415, 6082.604
2749.344, 6082.233
2751.272, 6080.376
2753.201, 6070.554
2755.129, 6062.588
2757.058, 6063.961
2758.986, 6067.616
2760.915, 6068.945
2762.843, 6070.126
2764.771, 6071.809
2766.700, 6074.604
2768.628, 6079.985
2770.557, 6084.523
2772.485, 6085.587
2774.414, 6085.984
2776.342, 6086.428
2778.271, 6087.242
2780.199, 6091.084
2782.128, 6091.653
2784.056, 6084.920
2785.985, 6079.703
2787.913, 6080.567
2789.842, 6084.337
2791.770, 6092.322
2793.698, 6099.307
2795.627, 6101.096
2797.555, 6105.637
2799.484, 6115.624
2801.412, 6123.043
2803.341, 6122.581
2805.269, 6121.949
2807.198, 6123.624
2809.126, 6124.149
2811.055, 6125.175
2812.983, 6122.896
2814.912, 6117.969
2816.840, 6109.552
2818.769, 6106.924
2820.697, 6105.258
2822.625, 6098.321
2824.554, 6105.928
2826.482, 6103.523
2828.411, 6104.354
2830.339, 6110.375
2832.268, 6116.517
2834.196, 6123.075
2836.125, 6127.404
2838.053, 6129.649
2839.982, 6132.705
2841.910, 6136.631
2843.839, 6139.951
2845.767, 6142.553
2847.696, 6141.263
2849.624, 6137.038
2851.552, 6136.774
2853.481, 6139.773
2855.409, 6143.929
2857.338, 6148.243
2859.266, 6149.378
2861.195, 6148.461
2863.123, 6148.771
2865.052, 6149.727
2866.980, 6151.299
2868.909, 6152.783
2870.837, 6152.258
2872.766, 6152.181
2874.694, 6157.217
2876.623, 6162.586
2878.551, 6163.271
2880.479, 6161.201
2882.408, 6152.747
2884.336, 6147.879
2886.265, 6158.982
2888.193, 6168.640
2890.122, 6167.935
2892.050, 6163.892
2893.979, 6156.948
2895.907, 6154.080
2897.836, 6162.154
2899.764, 6168.716
2901.693, 6169.513
2903.621, 6171.361
2905.550, 6174.477
2907.478, 6180.834
2909.406, 6194.185
2911.335, 6201.924
2913.263, 6202.092
2915.192, 6205.253
2917.120, 6213.368
2919.049, 6216.468
2920.977, 6213.021
2922.906, 6210.727
2924.834, 6209.347
2926.763, 6212.240
2928.691, 6218.316
2930.620, 6224.592
2932.548, 6229.290
2934.477, 6223.872
2936.405, 6213.663
2938.333, 6214.341
2940.262, 6221.212
2942.190, 6228.241
2944.119, 6233.414
2946.047, 6232.126
2947.976, 6229.432
2949.904, 6229.392
2951.833, 6231.553
2953.761, 6235.253
2955.690, 6240.575
2957.618, 6249.562
2959.547, 6256.288
2961.475, 6257.084
2963.404, 6256.495
2965.332, 6256.337
2967.260, 6254.359
2969.189, 6249.864
2971.117, 6244.891
2973.046, 6239.879
2974.974, 6235.352
2976.903, 6230.969
2978.831, 6235.741
2980.760, 6252.490
2982.688, 6260.543
2984.617, 6259.442
2986.545, 6263.290
2988.474, 6270.362
2990.402, 6275.615
2992.331, 6278.407
2994.259, 6275.817
2996.188, 6271.606
2998.116, 6272.376
3000.044, 6277.625
3001.973, 6292.484
3003.901, 6304.344
3005.830, 6297.154
3007.758, 6288.122
3009.687, 6287.967
3011.615, 6289.817
3013.544, 6287.925
3015.472, 6291.021
3017.401, 6304.998
3019.329, 6317.851
3021.258, 6328.468
3023.186, 6331.775
3025.115, 6335.822
3027.043, 6336.873
3028.971, 6333.125
3030.900, 6334.259
3032.828, 6328.243
3034.757, 6326.926
3036.685, 6331.181
3038.614, 6344.275
3040.542, 6360.607
3042.471, 6364.874
3044.399, 6361.199
3046.328, 6349.208
3048.256, 6341.422
3050.185, 6358.720
3052.113, 6375.779
3054.042, 6371.005
3055.970, 6367.004
3057.898, 6377.194
3059.827, 6385.966
3061.755, 6387.575
3063.684, 6387.910
3065.612, 6387.087
3067.541, 6386.658
3069.469, 6386.347
3071.398, 6388.994
3073.326, 6395.240
3075.255, 6394.278
3077.183, 6397.682
3079.112, 6391.540
3081.040, 6399.265
3082.969, 6397.107
3084.897, 6394.210
3086.825, 6408.485
3088.754, 6426.369
3090.682, 6435.208
3092.611, 6440.796
3094.539, 6447.351
3096.468, 6451.582
3098.396, 6454.303
3100.325, 6451.473
3102.253, 6438.086
3104.182, 6430.217
3106.110, 6430.623
3108.039, 6431.111
3109.967, 6431.225
3111.896, 6438.544
3113.824, 6451.627
3115.752, 6455.070
3117.681, 6452.322
3119.609, 6451.674
3121.538, 6455.421
3123.466, 6471.352
3125.395, 6487.776
3127.323, 6490.795
3129.252, 6492.180
3131.180, 6497.565
3133.109, 6504.527
3135.037, 6514.331
3136.966, 6521.069
3138.894, 6523.575
3140.823, 6526.374
3142.751, 6530.421
3144.679, 6533.304
3146.608, 6535.243
3148.536, 6545.464
3150.465, 6560.177
3152.393, 6565.186
3154.322, 6565.780
3156.250, 6569.786
3158.179, 6576.259
3160.107, 6586.484
3162.036, 6595.217
3163.964, 6599.495
3165.893, 6601.212
3167.821, 6597.745
3169.750, 6601.473
3171.678, 6615.739
3173.606, 6630.279
3175.535, 6644.466
3177.463, 6652.630
3179.392, 6655.295
3181.320, 6654.884
3183.249, 6654.078
3185.177, 6659.107
3187.106, 6668.208
3189.034, 6678.981
3190.963, 6692.087
3192.891, 6709.394
3194.820, 6726.073
3196.748, 6737.688
3198.677, 6751.448
3200.605, 6769.736
3202.533, 6783.341
3204.462, 6789.442
3206.390, 6796.807
3208.319, 6805.448
3210.247, 6814.254
3212.176, 6821.638
3214.104, 6818.172
3216.033, 6815.472
3217.961, 6837.503
3219.890, 6859.614
3221.818, 6859.272
3223.747, 6860.049
3225.675, 6873.623
3227.604, 6890.071
3229.532, 6908.545
3231.460, 6926.612
3233.389, 6944.146
3235.317, 6954.713
3237.246, 6959.370
3239.174, 6968.477
3241.103, 6980.573
3243.031, 6994.792
3244.960, 7008.672
3246.888, 7021.653
3248.817, 7031.020
3250.745, 7042.083
3252.674, 7053.173
3254.602, 7057.517
3256.531, 7070.667
3258.459, 7072.429
3260.387, 7071.917
3262.316, 7069.398
3264.244, 7072.541
3266.173, 7078.070
3268.101, 7077.200
3270.030, 7073.585
3271.958, 7071.528
3273.887, 7070.389
3275.815, 7069.841
3277.744, 7070.883
3279.672, 7066.089
3281.601, 7075.942
3283.529, 7059.294
3285.458, 7051.153
3287.386, 7052.361
3289.314, 7053.715
3291.243, 7055.317
3293.171, 7060.474
3295.100, 7063.006
3297.028, 7053.931
3298.957, 7041.141
3300.885, 7025.482
3302.814, 7016.439
3304.742, 7020.490
3306.671, 7018.986
3308.599, 7008.923
3310.528, 6994.892
3312.456, 6980.104
3314.385, 6988.208
3316.313, 7005.033
3318.241, 6999.253
3320.170, 6986.750
3322.098, 6980.851
3324.027, 6978.048
3325.955, 6971.267
3327.884, 6968.459
3329.812, 6967.103
3331.741, 6961.710
3333.669, 6965.730
3335.598, 6962.414
3337.526, 6955.784
3339.455, 6964.522
3341.383, 6962.947
3343.312, 6973.667
3345.240, 6970.100
3347.168, 6975.990
3349.097, 6979.438
3351.025, 6975.153
3352.954, 6973.521
3354.882, 6976.095
3356.811, 6979.236
3358.739, 6983.271
3360.668, 6988.553
3362.596, 6995.119
3364.525, 7002.019
3366.453, 7011.893
3368.382, 7030.327
3370.310, 7045.953
3372.239, 7054.247
3374.167, 7065.339
3376.095, 7081.017
3378.024, 7089.763
3379.952, 7093.118
3381.881, 7100.535
3383.809, 7114.599
3385.738, 7141.249
3387.666, 7172.561
3389.595, 7204.212
3391.523, 7233.555
3393.452, 7255.197
3395.380, 7287.086
3397.309, 7318.402
3399.237, 7363.290
3401.166, 7385.235
3403.094, 7415.305
3405.022, 7446.891
3406.951, 7467.944
3408.879, 7488.110
3410.808, 7513.453
3412.736, 7537.739
3414.665, 7560.524
3416.593, 7575.929
3418.522, 7583.748
3420.450, 7590.618
3422.379, 7598.302
3424.307, 7613.983
3426.236, 7629.313
3428.164, 7636.940
3430.093, 7637.664
3432.021, 7630.290
3433.949, 7621.259
3435.878, 7611.693
3437.806, 7602.488
3439.735, 7592.961
3441.663, 7576.169
3443.592, 7555.029
3445.520, 7532.145
3447.449, 7510.451
3449.377, 7491.188
3451.306, 7476.081
3453.234, 7468.882
3455.163, 7460.610
3457.091, 7451.233
3459.020, 7438.231
3460.948, 7425.467
3462.876, 7427.323
3464.805, 7428.847
3466.733, 7411.933
3468.662, 7397.538
3470.590, 7394.720
3472.519, 7397.693
3474.447, 7405.784
3476.376, 7398.282
3478.304, 7393.253
3480.233, 7373.516
3482.161, 7368.055
3484.090, 7350.053
3486.018, 7328.928
3487.947, 7309.755
3489.875, 7291.049
3491.803, 7273.017
3493.732, 7254.625
3495.660, 7235.136
3497.589, 7211.961
3499.517, 7186.641
3501.446, 7157.841
3503.374, 7134.486
3505.303, 7127.727
3507.231, 7105.462
3509.160, 7053.583
3511.088, 7005.907
3513.017, 6964.438
3514.945, 6944.662
3516.874, 6930.021
3518.802, 6893.756
3520.730, 6856.896
3522.659, 6830.577
3524.587, 6804.947
3526.516, 6778.423
3528.444, 6749.126
3530.373, 6718.564
3532.301, 6694.396
3534.230, 6671.848
3536.158, 6641.303
3538.087, 6614.470
3540.015, 6599.949
3541.944, 6584.403
3543.872, 6565.896
3545.801, 6554.618
3547.729, 6535.082
3549.657, 6525.545
3551.586, 6501.272
3553.514, 6485.133
3555.443, 6472.974
3557.371, 6464.175
3559.300, 6456.223
3561.228, 6448.503
3563.157, 6431.893
3565.085, 6410.968
3567.014, 6399.795
3568.942, 6392.978
3570.871, 6391.011
3572.799, 6382.562
3574.728, 6364.030
3576.656, 6349.875
3578.584, 6341.418
3580.513, 6325.928
3582.441, 6312.633
3584.370, 6318.568
3586.298, 6328.749
3588.227, 6336.196
3590.155, 6338.244
3592.084, 6342.056
3594.012, 6342.823
3595.941, 6341.188
3597.869, 6340.042
3599.798, 6335.711
3601.726, 6335.683
3603.655, 6328.638
3605.583, 6333.854
3607.511, 6336.130
3609.440, 6335.423
3611.368, 6332.802
3613.297, 6330.689
3615.225, 6327.027
3617.154, 6334.632
3619.082, 6367.729
3621.011, 6387.213
3622.939, 6376.994
3624.868, 6375.807
3626.796, 6380.106
3628.725, 6381.237
3630.653, 6379.257
3632.582, 6375.890
3634.510, 6367.736
3636.438, 6353.702
3638.367, 6334.419
3640.295, 6310.694
3642.224, 6288.936
3644.152, 6268.871
3646.081, 6249.434
3648.009, 6233.516
3649.938, 6222.450
3651.866, 6215.608
3653.795, 6212.775
3655.723, 6201.557
3657.652, 6184.800
3659.580, 6167.537
3661.509, 6150.750
3663.437, 6134.562
3665.365, 6122.153
3667.294, 6115.409
3669.222, 6111.923
3671.151, 6110.695
3673.079, 6106.497
3675.008, 6102.877
3676.936, 6099.744
3678.865, 6103.244
3680.793, 6119.389
3682.722, 6121.017
3684.650, 6111.505
3686.579, 6107.335
3688.507, 6104.843
3690.436, 6103.118
3692.364, 6098.281
3694.292, 6088.896
3696.221, 6078.533
3698.149, 6069.590
3700.078, 6072.740
3702.006, 6081.880
3703.935, 6094.042
3705.863, 6099.847
3707.792, 6093.807
3709.720, 6085.140
3711.649, 6074.907
3713.577, 6063.503
3715.506, 6054.521
3717.434, 6055.169
3719.363, 6055.400
3721.291, 6051.263
3723.219, 6047.097
3725.148, 6043.067
3727.076, 6036.942
3729.005, 6033.359
3730.933, 6041.574
3732.862, 6048.610
3734.790, 6050.152
3736.719, 6046.065
3738.647, 6037.873
3740.576, 6036.134
3742.504, 6037.302
3744.433, 6040.482
3746.361, 6039.597
3748.290, 6031.644
3750.218, 6027.927
3752.146, 6027.952
3754.075, 6022.296
3756.003, 6017.486
3757.932, 6020.123
3759.860, 6026.564
3761.789, 6022.495
3763.717, 6023.110
3765.646, 6021.096
3767.574, 6018.307
3769.503, 6018.862
3771.431, 6018.190
3773.360, 6016.276
3775.288, 6013.018
3777.217, 6011.958
3779.145, 6012.977
3781.073, 6016.633
3783.002, 6019.557
3784.930, 6018.907
3786.859, 6017.979
3788.787, 6017.347
3790.716, 6013.160
3792.644, 6009.851
3794.573, 6018.800
3796.501, 6025.687
3798.430, 6023.538
3800.358, 6015.417
3802.287, 6017.306
3804.215, 6005.034
3806.144, 6010.564
3808.072, 6006.478
3810.000, 6000.640
3811.929, 5995.441
3813.857, 5989.475
3815.786, 5983.357
3817.714, 5979.454
3819.643, 5978.915
3821.571, 5979.333
3823.500, 5987.936
3825.428, 5986.413
3827.357, 5990.571
3829.285, 5996.726
3831.214, 5997.563
3833.142, 5994.553
3835.071, 5997.229
3836.999, 5995.243
3838.927, 5994.007
3840.856, 5991.281
3842.784, 5983.794
3844.713, 5977.205
3846.641, 5977.635
3848.570, 5975.417
3850.498, 5977.038
3852.427, 5978.751
3854.355, 5980.761
3856.284, 5980.471
3858.212, 5980.795
3860.141, 5977.746
3862.069, 5976.553
3863.998, 5971.007
3865.926, 5963.623
3867.854, 5956.622
3869.783, 5952.116
3871.711, 5950.918
3873.640, 5950.458
3875.568, 5951.283
3877.497, 5958.180
3879.425, 5964.063
3881.354, 5963.349
3883.282, 5962.842
3885.211, 5963.428
3887.139, 5960.723
3889.068, 5957.650
3890.996, 5956.139
3892.925, 5959.209
3894.853, 5967.236
3896.781, 5977.565
3898.710, 5986.677
3900.638, 5978.591
3902.567, 5968.835
3904.495, 5967.130
3906.424, 5973.401
3908.352, 5983.881
3910.281, 5984.539
3912.209, 5982.232
3914.138, 5980.390
3916.066, 5980.892
3917.995, 5980.851
3919.923, 5984.749
3921.852, 5984.052
3923.780, 5984.500
3925.708, 5987.694
3927.637, 5985.584
3929.565, 5984.271
3931.494, 5983.537
3933.422, 5979.712
3935.351, 5978.485
3937.279, 5979.130
3939.208, 5984.531
3941.136, 5993.919
3943.065, 5998.762
3944.993, 6000.358
3946.922, 5998.723
3948.850, 6000.583
3950.779, 6006.019
3952.707, 6008.283
3954.635, 6006.766
3956.564, 6002.499
3958.492, 5997.360
3960.421, 5991.876
3962.349, 5987.790
3964.278, 5984.509
3966.206, 5984.164
3968.135, 5980.762
3970.063, 5986.853
3971.992, 5991.654
3973.920, 5995.265
3975.849, 5999.281
3977.777, 6003.448
3979.706, 6009.810
3981.634, 6008.231
3983.563, 6009.230
3985.491, 5998.511
3987.419, 6004.097
3989.348, 6007.428
3991.276, 6002.380
3993.205, 5988.041
3995.133, 5988.396
3997.062, 5996.239
3998.990, 6000.170
4000.919, 5999.327
4002.847, 5992.681
4004.776, 5985.062
4006.704, 5980.608
4008.633, 5993.006
4010.561, 6003.156
4012.490, 5997.945
4014.418, 5995.932
4016.346, 5997.529
4018.275, 5999.949
4020.203, 6004.025
4022.132, 6009.187
4024.060, 6018.365
4025.989, 6029.998
4027.917, 6022.940
4029.846, 6008.599
4031.774, 5992.584
4033.703, 5987.634
4035.631, 5996.495
4037.560, 6002.099
4039.488, 6001.648
4041.417, 5997.417
4043.345, 5995.609
4045.273, 5991.750
4047.202, 5992.819
4049.130, 5998.022
4051.059, 5999.346
4052.987, 5997.417
4054.916, 5994.285
4056.844, 5993.646
4058.773, 5995.470
4060.701, 5993.752
4062.630, 5992.206
4064.558, 5995.785
4066.487, 5994.989
4068.415, 5990.541
4070.344, 5985.504
4072.272, 5977.062
4074.200, 5966.317
4076.129, 5961.560
4078.057, 5959.672
4079.986, 5953.040
4081.914, 5950.868
4083.843, 5956.330
4085.771, 5956.993
4087.700, 5956.233
4089.628, 5957.806
4091.557, 5959.826
4093.485, 5959.796
4095.414, 5961.999
4097.342, 5962.955
4099.271, 5951.967
4101.199, 5943.783
4103.127, 5944.819
4105.056, 5939.769
4106.984, 5937.380
4108.913, 5939.719
4110.841, 5937.538
4112.770, 5930.372
4114.698, 5926.315
4116.627, 5924.486
4118.555, 5927.731
4120.484, 5931.109
4122.412, 5926.236
4124.341, 5921.845
4126.269, 5916.627
4128.198, 5915.477
4130.126, 5919.794
4132.055, 5917.944
4133.983, 5917.030
4135.912, 5919.509
4137.840, 5914.643
4139.769, 5907.545
4141.697, 5902.792
4143.625, 5901.307
4145.554, 5906.762
4147.482, 5909.915
4149.411, 5909.634
4151.339, 5911.037
4153.268, 5909.379
4155.196, 5907.362
4157.125, 5903.942
4159.053, 5897.677
4160.981, 5893.046
4162.910, 5891.200
4164.838, 5890.536
4166.767, 5885.572
4168.695, 5880.673
4170.624, 5884.843
4172.552, 5885.343
4174.481, 5872.778
4176.409, 5871.333
4178.338, 5878.992
4180.266, 5883.775
4182.195, 5883.531
4184.123, 5872.436
4186.052, 5866.030
4187.980, 5864.297
4189.909, 5864.479
4191.837, 5862.102
4193.766, 5852.418
4195.694, 5845.193
4197.623, 5840.533
4199.551, 5843.005
4201.479, 5842.718
4203.408, 5837.055
4205.336, 5829.966
4207.265, 5823.060
4209.193, 5822.189
4211.122, 5816.708
4213.050, 5805.820
4214.979, 5802.501
4216.907, 5803.709
4218.835, 5808.751
4220.764, 5816.266
4222.692, 5825.839
4224.621, 5821.289
4226.549, 5808.428
4228.478, 5794.208
4230.406, 5785.876
4232.335, 5783.706
4234.263, 5779.948
4236.192, 5777.045
4238.120, 5777.497
4240.049, 5776.923
4241.977, 5774.948
4243.906, 5769.395
4245.834, 5764.874
4247.763, 5763.785
4249.691, 5763.317
4251.620, 5762.841
4253.548, 5761.762
4255.477, 5760.764
4257.405, 5762.108
4259.333, 5750.692
4261.262, 5735.995
4263.190, 5737.353
4265.119, 5736.031
4267.047, 5726.468
4268.976, 5724.440
4270.904, 5726.094
4272.833, 5728.619
4274.761, 5726.921
4276.689, 5720.548
4278.618, 5712.992
4280.546, 5706.533
4282.475, 5705.190
4284.403, 5700.012
4286.332, 5692.609
4288.260, 5686.099
4290.189, 5685.713
4292.117, 5695.615
4294.046, 5699.107
4295.974, 5697.435
4297.903, 5692.655
4299.831, 5686.849
4301.760, 5680.828
4303.688, 5682.129
4305.617, 5686.913
4307.545, 5693.524
4309.474, 5690.019
4311.402, 5677.261
4313.331, 5669.327
4315.259, 5666.188
4317.188, 5671.658
4319.116, 5667.273
4321.044, 5657.822
4322.973, 5654.295
4324.901, 5645.968
4326.830, 5628.883
4328.758, 5620.536
4330.687, 5621.201
4332.615, 5635.713
4334.543, 5643.534
4336.472, 5643.488
4338.400, 5645.861
4340.329, 5639.789
4342.257, 5638.425
4344.186, 5618.609
4346.114, 5630.608
4348.043, 5621.673
4349.971, 5618.404
4351.900, 5625.194
4353.828, 5616.342
4355.757, 5602.475
4357.685, 5590.476
4359.614, 5590.443
4361.542, 5598.647
4363.471, 5603.393
4365.399, 5600.743
4367.328, 5588.411
4369.256, 5582.848
4371.185, 5583.777
4373.113, 5595.904
4375.042, 5594.822
4376.970, 5579.986
4378.898, 5574.836
4380.827, 5569.266
4382.755, 5553.232
4384.684, 5545.852
4386.612, 5543.938
4388.541, 5541.662
4390.469, 5538.109
4392.397, 5533.142
4394.326, 5530.038
4396.254, 5526.575
4398.183, 5519.629
4400.111, 5518.272
4402.040, 5519.657
4403.968, 5512.889
4405.897, 5509.865
4407.825, 5514.109
4409.754, 5510.221
4411.682, 5503.803
4413.611, 5498.813
4415.539, 5500.128
4417.468, 5494.660
4419.396, 5494.889
4421.325, 5489.783
4423.253, 5493.936
4425.182, 5493.275
4427.110, 5489.581
4429.039, 5483.804
4430.967, 5481.397
4432.896, 5480.853
4434.824, 5475.739
4436.752, 5469.131
4438.681, 5461.700
4440.609, 5462.068
4442.538, 5460.656
4444.466, 5443.232
4446.395, 5436.169
4448.323, 5438.704
4450.251, 5440.757
4452.180, 5439.179
4454.108, 5432.960
4456.037, 5429.483
4457.965, 5428.656
4459.894, 5431.912
4461.822, 5427.067
4463.751, 5427.878
4465.679, 5424.005
4467.608, 5425.268
4469.536, 5417.416
4471.465, 5414.807
4473.393, 5413.560
4475.322, 5412.259
4477.250, 5398.870
4479.179, 5382.189
4481.107, 5383.523
4483.036, 5393.103
4484.964, 5407.967
4486.893, 5406.875
4488.821, 5398.333
4490.750, 5386.790
4492.678, 5371.253
4494.606, 5358.841
4496.535, 5362.577
4498.463, 5366.299
4500.392, 5366.376
4502.320, 5366.833
4504.249, 5368.250
4506.177, 5363.380
4508.105, 5366.921
4510.034, 5363.805
4511.962, 5357.779
4513.891, 5354.962
4515.819, 5353.901
4517.748, 5348.990
4519.676, 5344.851
4521.605, 5342.156
4523.533, 5335.005
4525.462, 5326.259
4527.390, 5317.080
4529.319, 5311.880
4531.247, 5311.977
4533.176, 5304.839
4535.104, 5300.591
4537.033, 5298.323
4538.961, 5292.348
4540.890, 5292.509
4542.818, 5295.675
4544.747, 5289.718
4546.675, 5282.735
4548.604, 5279.837
4550.532, 5286.349
4552.460, 5293.382
4554.389, 5287.060
4556.317, 5273.314
4558.246, 5256.701
4560.174, 5253.331
4562.103, 5250.625
4564.031, 5244.373
4565.959, 5240.144
4567.888, 5225.450
4569.816, 5229.209
4571.745, 5225.416
4573.673, 5220.281
4575.602, 5228.697
4577.530, 5229.306
4579.459, 5222.641
4581.387, 5224.191
4583.316, 5223.768
4585.244, 5218.095
4587.173, 5215.828
4589.101, 5216.698
4591.030, 5221.140
4592.958, 5221.918
4594.887, 5219.681
4596.815, 5216.741
4598.744, 5203.768
4600.672, 5187.661
4602.601, 5194.483
4604.529, 5187.018
4606.458, 5159.915
4608.386, 5153.237
4610.314, 5156.086
4612.243, 5163.906
4614.171, 5158.454
4616.100, 5149.372
4618.028, 5145.538
4619.957, 5140.522
4621.885, 5136.861
4623.813, 5135.160
4625.742, 5133.098
4627.670, 5133.210
4629.599, 5131.906
4631.527, 5131.757
4633.456, 5131.562
4635.384, 5130.755
4637.313, 5124.471
4639.241, 5111.493
4641.170, 5092.657
4643.098, 5077.490
4645.027, 5072.924
4646.955, 5081.042
4648.884, 5093.256
4650.812, 5099.353
4652.741, 5093.866
4654.669, 5080.185
4656.598, 5064.915
4658.526, 5058.059
4660.455, 5059.704
4662.383, 5052.402
4664.312, 5044.326
4666.240, 5038.602
4668.168, 5037.636
4670.097, 5040.325
4672.025, 5047.062
4673.954, 5038.798
4675.882, 5028.985
4677.811, 5037.821
4679.739, 5029.105
4681.667, 5013.102
4683.596, 5013.305
4685.524, 5011.988
4687.453, 5008.597
4689.381, 5010.049
4691.310, 5013.893
4693.238, 5018.298
4695.167, 5016.847
4697.095, 5011.499
4699.024, 5002.797
4700.952, 4997.327
4702.881, 4988.210
4704.809, 4983.811
4706.738, 4980.191
4708.666, 4974.283
4710.595, 4970.197
4712.523, 4968.366
4714.452, 4961.401
4716.380, 4957.056
4718.309, 4954.123
4720.237, 4953.037
4722.166, 4956.557
4724.094, 4957.447
4726.022, 4953.950
4727.951, 4943.454
4729.879, 4928.620
4731.808, 4912.960
4733.736, 4916.758
4735.665, 4917.876
4737.593, 4910.724
4739.521, 4912.126
4741.450, 4908.326
4743.378, 4905.398
4745.307, 4901.436
4747.235, 4894.306
4749.164, 4888.464
4751.092, 4892.748
4753.021, 4896.786
4754.949, 4890.248
4756.878, 4888.212
4758.806, 4883.311
4760.735, 4865.679
4762.663, 4859.038
4764.592, 4859.994
4766.520, 4861.495
4768.449, 4860.214
4770.377, 4858.361
4772.306, 4865.428
4774.234, 4852.237
4776.163, 4857.135
4778.091, 4844.692
4780.020, 4852.174
4781.948, 4846.950
4783.876, 4832.959
4785.805, 4827.439
4787.733, 4830.645
4789.662, 4818.728
4791.590, 4811.881
4793.519, 4813.620
4795.447, 4806.553
4797.375, 4800.616
4799.304, 4799.187
4801.232, 4800.243
4803.161, 4797.805
4805.089, 4790.133
4807.018, 4787.208
4808.946, 4780.834
4810.875, 4780.912
4812.803, 4771.127
4814.732, 4780.236
4816.660, 4783.840
4818.589, 4779.004
4820.517, 4772.088
4822.446, 4766.631
4824.374, 4768.415
4826.303, 4768.362
4828.231, 4759.747
4830.160, 4755.822
4832.088, 4750.929
4834.017, 4738.197
4835.945, 4726.911
4837.874, 4723.860
4839.802, 4713.039
4841.730, 4721.914
4843.659, 4702.049
4845.587, 4710.446
4847.516, 4713.709
4849.444, 4709.044
4851.373, 4693.373
4853.301, 4687.720
4855.229, 4689.524
4857.158, 4694.555
4859.086, 4698.155
4861.015, 4696.378
4862.943, 4684.872
4864.872, 4667.237
4866.800, 4653.711
4868.729, 4660.019
4870.657, 4661.812
4872.586, 4659.492
4874.514, 4654.703
4876.443, 4648.627
4878.371, 4645.803
4880.300, 4656.542
4882.228, 4652.208
4884.157, 4641.174
4886.085, 4636.071
4888.014, 4626.692
4889.942, 4619.496
4891.871, 4625.673
4893.799, 4619.367
4895.728, 4610.216
4897.656, 4616.057
4899.584, 4604.217
4901.513, 4587.780
4903.441, 4584.171
4905.370, 4583.722
4907.298, 4585.203
4909.227, 4588.414
4911.155, 4589.741
4913.083, 4588.148
4915.012, 4582.215
4916.940, 4580.742
4918.869, 4580.774
4920.797, 4581.183
4922.726, 4569.593
4924.654, 4558.558
4926.583, 4558.045
4928.511, 4565.023
4930.440, 4564.102
4932.368, 4541.670
4934.297, 4523.003
4936.225, 4513.946
4938.154, 4517.498
4940.082, 4518.945
4942.011, 4516.377
4943.939, 4508.948
4945.868, 4514.881
4947.796, 4518.853
4949.725, 4513.552
4951.653, 4503.064
4953.582, 4491.459
4955.510, 4480.494
4957.438, 4468.248
4959.367, 4459.904
4961.295, 4457.318
4963.224, 4462.439
4965.152, 4460.361
4967.081, 4450.803
4969.009, 4448.993
4970.938, 4441.690
4972.866, 4431.326
4974.794, 4441.101
4976.723, 4440.718
4978.651, 4430.317
4980.580, 4419.185
4982.508, 4417.822
4984.437, 4422.583
4986.365, 4424.612
4988.294, 4419.393
4990.222, 4410.948
4992.151, 4407.728
4994.079, 4388.424
4996.008, 4379.783
4997.936, 4377.912
4999.865, 4387.478
5001.793, 4391.170
5003.722, 4376.475
5005.650, 4361.650
5007.579, 4353.289
5009.507, 4341.349
5011.436, 4337.241
5013.364, 4326.804
5015.292, 4331.775
5017.221, 4334.057
5019.149, 4330.417
5021.078, 4321.575
5023.006, 4313.188
5024.935, 4305.333
5026.863, 4300.094
5028.792, 4296.470
5030.720, 4292.354
5032.648, 4291.736
5034.577, 4287.302
5036.505, 4282.904
5038.434, 4280.119
5040.362, 4281.675
5042.291, 4276.342
5044.219, 4273.322
5046.148, 4270.985
5048.076, 4266.078
5050.005, 4266.843
5051.933, 4268.295
5053.862, 4263.438
5055.790, 4250.476
5057.719, 4232.042
5059.647, 4226.804
5061.576, 4225.952
5063.504, 4225.947
5065.433, 4223.497
5067.361, 4222.976
5069.290, 4219.733
5071.218, 4201.174
5073.146, 4196.499
5075.075, 4201.788
5077.003, 4210.617
5078.932, 4211.935
5080.860, 4205.925
5082.789, 4192.113
5084.717, 4192.257
5086.646, 4185.157
5088.574, 4167.390
5090.502, 4175.964
5092.431, 4182.324
5094.359, 4179.534
5096.288, 4172.278
5098.216, 4164.205
5100.145, 4156.710
5102.073, 4150.787
5104.002, 4152.494
5105.930, 4152.782
5107.859, 4141.165
5109.787, 4133.894
5111.716, 4128.065
5113.644, 4122.077
5115.573, 4117.376
5117.501, 4113.247
5119.430, 4112.846
5121.358, 4109.786
5123.287, 4115.616
5125.215, 4122.114
5127.144, 4116.413
5129.072, 4104.936
5131.000, 4093.809
5132.929, 4088.409
5134.857, 4088.183
5136.786, 4087.139
5138.714, 4081.207
5140.643, 4080.542
5142.571, 4083.040
5144.500, 4087.493
5146.428, 4093.353
5148.356, 4093.032
5150.285, 4086.713
5152.213, 4075.234
5154.142, 4064.106
5156.070, 4056.511
5157.999, 4056.013
5159.927, 4047.187
5161.856, 4039.735
5163.784, 4037.671
5165.713, 4029.502
5167.641, 4024.900
5169.570, 4023.376
5171.498, 4021.449
5173.427, 4013.985
5175.355, 4021.738
5177.284, 4024.690
5179.212, 4022.468
5181.141, 4018.086
5183.069, 4013.566
5184.998, 4010.134
5186.926, 3996.476
5188.854, 3996.165
5190.783, 3989.857
5192.711, 3989.095
5194.640, 3978.078
5196.568, 3973.047
5198.497, 3966.223
5200.425, 3957.967
5202.354, 3948.399
5204.282, 3951.501
5206.210, 3953.479
5208.139, 3951.460
5210.067, 3956.306
5211.996, 3948.875
5213.924, 3936.978
5215.853, 3936.855
5217.781, 3932.914
5219.710, 3931.481
5221.638, 3925.927
5223.567, 3926.667
5225.495, 3914.790
5227.424, 3907.200
5229.352, 3903.781
5231.281, 3899.674
5233.209, 3900.719
5235.138, 3896.990
5237.066, 3895.179
5238.995, 3890.961
5240.923, 3882.968
5242.852, 3876.819
5244.780, 3872.545
5246.708, 3870.275
5248.637, 3871.968
5250.565, 3867.306
5252.494, 3860.751
5254.422, 3856.542
5256.351, 3850.999
5258.279, 3847.672
5260.208, 3845.428
5262.136, 3841.127
5264.064, 3837.351
5265.993, 3835.836
5267.921, 3829.398
5269.850, 3829.210
5271.778, 3827.267
5273.707, 3819.618
5275.635, 3811.846
5277.564, 3806.943
5279.492, 3805.530
5281.421, 3807.249
5283.349, 3815.683
5285.278, 3816.437
5287.206, 3799.040
5289.135, 3783.981
5291.063, 3774.731
5292.992, 3772.724
5294.920, 3782.429
5296.849, 3775.529
5298.777, 3763.002
5300.706, 3758.393
5302.634, 3750.201
5304.563, 3744.237
5306.491, 3743.797
5308.419, 3754.987
5310.348, 3752.543
5312.276, 3741.677
5314.205, 3732.009
5316.133, 3721.513
5318.062, 3714.927
5319.990, 3714.024
5321.918, 3719.875
5323.847, 3716.320
5325.775, 3707.839
5327.704, 3702.717
5329.632, 3695.594
5331.561, 3693.613
5333.489, 3685.240
5335.418, 3679.557
5337.346, 3671.161
5339.275, 3668.458
5341.203, 3662.898
5343.132, 3658.458
5345.060, 3658.974
5346.989, 3661.500
5348.917, 3644.498
5350.846, 3638.445
5352.774, 3639.611
5354.703, 3640.064
5356.631, 3629.124
5358.560, 3621.572
5360.488, 3619.966
5362.417, 3610.047
5364.345, 3600.248
5366.273, 3595.329
5368.202, 3598.080
5370.130, 3598.694
5372.059, 3600.924
5373.987, 3601.741
5375.916, 3585.765
5377.844, 3572.103
5379.772, 3566.020
5381.701, 3568.886
5383.629, 3560.330
5385.558, 3559.954
5387.486, 3564.788
5389.415, 3560.065
5391.343, 3546.216
5393.272, 3532.443
5395.200, 3524.830
5397.129, 3526.921
5399.057, 3530.054
5400.986, 3530.276
5402.914, 3524.637
5404.843, 3515.882
5406.771, 3507.016
5408.700, 3500.725
5410.628, 3506.740
5412.557, 3492.720
5414.485, 3480.378
5416.414, 3494.073
5418.342, 3482.208
5420.271, 3472.472
5422.199, 3469.099
5424.127, 3463.996
5426.056, 3461.224
5427.984, 3458.935
5429.913, 3455.402
5431.841, 3447.348
5433.770, 3440.159
5435.698, 3437.553
5437.626, 3444.302
5439.555, 3441.934
5441.483, 3434.910
5443.412, 3424.396
5445.340, 3420.968
5447.269, 3408.309
5449.197, 3408.446
5451.126, 3397.198
5453.054, 3388.572
5454.983, 3381.336
5456.911, 3377.896
5458.840, 3383.853
5460.768, 3374.349
5462.697, 3370.155
5464.625, 3370.335
5466.554, 3354.685
5468.482, 3351.178
5470.411, 3350.145
5472.339, 3343.926
5474.268, 3330.459
5476.196, 3327.025
5478.125, 3327.344
5480.053, 3321.382
5481.981, 3323.368
5483.910, 3319.653
5485.838, 3308.349
5487.767, 3306.741
5489.695, 3294.790
5491.624, 3295.770
5493.552, 3288.950
5495.480, 3285.815
5497.409, 3276.098
5499.337, 3266.908
5501.266, 3263.523
5503.194, 3253.349
5505.123, 3251.048
5507.051, 3256.957
5508.980, 3267.421
5510.908, 3250.225
5512.837, 3245.880
5514.765, 3251.272
5516.694, 3236.003
5518.622, 3231.943
5520.551, 3235.204
5522.479, 3239.792
5524.408, 3236.293
5526.336, 3226.813
5528.265, 3215.292
5530.193, 3204.656
5532.122, 3199.184
5534.050, 3190.909
5535.979, 3183.745
5537.907, 3181.866
5539.835, 3176.391
5541.764, 3165.725
5543.692, 3154.738
5545.621, 3149.790
5547.549, 3148.769
5549.478, 3156.008
5551.406, 3164.692
5553.334, 3157.784
5555.263, 3153.890
5557.191, 3146.324
5559.120, 3134.747
5561.048, 3127.504
5562.977, 3117.239
5564.905, 3111.116
5566.834, 3110.235
5568.762, 3097.071
5570.691, 3098.325
5572.619, 3100.262
5574.548, 3092.263
5576.476, 3091.166
5578.405, 3079.717
5580.333, 3069.974
5582.262, 3073.479
5584.190, 3059.920
5586.119, 3054.852
5588.047, 3053.735
5589.976, 3046.326
5591.904, 3042.148
5593.833, 3038.271
5595.761, 3036.065
5597.689, 3038.980
5599.618, 3034.477
5601.546, 3032.523
5603.475, 3027.858
5605.403, 3023.495
5607.332, 3015.696
5609.260, 3006.940
5611.188, 3001.210
5613.117, 2997.015
5615.045, 2985.750
5616.974, 2981.842
5618.902, 2976.213
5620.831, 2981.438
5622.759, 2968.983
5624.688, 2962.627
5626.616, 2962.854
5628.545, 2952.160
5630.473, 2951.831
5632.402, 2950.115
5634.330, 2943.068
5636.259, 2935.186
5638.187, 2931.380
5640.116, 2923.875
5642.044, 2919.604
5643.973, 2914.813
5645.901, 2910.506
5647.830, 2904.544
5649.758, 2898.956
5651.687, 2892.058
5653.615, 2888.310
5655.543, 2889.010
5657.472, 2880.563
5659.400, 2879.901
5661.329, 2876.304
5663.257, 2870.779
5665.186, 2865.456
5667.114, 2862.671
5669.042, 2875.200
5670.971, 2880.312
5672.899, 2870.833
5674.828, 2852.341
5676.756, 2849.573
5678.685, 2838.717
5680.613, 2820.777
5682.542, 2818.429
5684.470, 2816.327
5686.399, 2809.770
5688.327, 2804.336
5690.256, 2801.414
5692.184, 2796.553
5694.113, 2797.567
5696.041, 2786.953
5697.970, 2791.316
5699.898, 2781.537
5701.827, 2776.178
5703.755, 2772.971
5705.684, 2763.844
5707.612, 2764.527
5709.541, 2757.150
5711.469, 2749.089
5713.397, 2750.161
5715.326, 2744.428
5717.254, 2736.629
5719.183, 2730.708
5721.111, 2728.391
5723.040, 2727.017
5724.968, 2725.425
5726.896, 2719.970
5728.825, 2710.115
5730.753, 2702.277
5732.682, 2694.804
5734.610, 2690.438
5736.539, 2688.124
5738.467, 2680.965
5740.396, 2678.931
5742.324, 2676.242
5744.253, 2668.923
5746.181, 2655.103
5748.110, 2658.149
5750.038, 2651.653
5751.967, 2639.235
5753.895, 2636.623
5755.824, 2642.290
5757.752, 2643.848
5759.681, 2643.380
5761.609, 2644.538
5763.538, 2630.246
5765.466, 2616.634
5767.395, 2608.398
5769.323, 2598.144
5771.251, 2597.903
5773.180, 2586.525
5775.108, 2582.399
5777.037, 2584.602
5778.965, 2579.400
5780.894, 2576.511
5782.822, 2568.504
5784.750, 2561.736
5786.679, 2557.263
5788.607, 2557.858
5790.536, 2546.460
5792.464, 2536.652
5794.393, 2530.305
5796.321, 2540.073
5798.250, 2536.516
5800.178, 2530.176
5802.107, 2527.328
5804.035, 2519.847
5805.964, 2513.967
5807.892, 2508.283
5809.821, 2504.002
5811.749, 2495.727
5813.678, 2498.461
5815.606, 2493.511
5817.535, 2487.891
5819.463, 2490.146
5821.392, 2492.638
5823.320, 2490.547
5825.249, 2481.093
5827.177, 2466.778
5829.105, 2455.731
5831.034, 2447.500
5832.962, 2440.599
5834.891, 2435.191
5836.819, 2432.249
5838.748, 2427.390
5840.676, 2434.274
5842.604, 2427.071
5844.533, 2421.883
5846.461, 2419.212
5848.390, 2408.176
5850.318, 2403.042
5852.247, 2401.402
5854.175, 2395.375
5856.104, 2397.055
5858.032, 2391.792
5859.961, 2392.353
5861.889, 2395.508
5863.818, 2389.641
5865.746, 2381.126
5867.675, 2377.716
5869.603, 2376.263
5871.532, 2365.726
5873.460, 2365.130
5875.389, 2361.793
5877.317, 2357.999
5879.246, 2357.073
5881.174, 2343.696
5883.103, 2353.975
5885.031, 2362.377
5886.959, 2356.078
5888.888, 2337.278
5890.816, 2330.593
5892.745, 2319.296
5894.673, 2305.542
5896.602, 2296.420
5898.530, 2301.980
5900.458, 2305.806
5902.387, 2301.055
5904.315, 2291.224
5906.244, 2285.273
5908.172, 2286.769
5910.101, 2269.782
5912.029, 2258.105
5913.958, 2267.290
5915.886, 2277.043
5917.815, 2274.569
5919.743, 2262.636
5921.672, 2250.486
5923.600, 2245.484
5925.529, 2233.877
5927.457, 2235.016
5929.386, 2236.198
5931.314, 2234.103
5933.243, 2240.082
5935.171, 2234.976
5937.100, 2228.065
5939.028, 2219.365
5940.957, 2208.584
5942.885, 2204.673
5944.813, 2199.878
5946.742, 2199.062
5948.670, 2201.335
5950.599, 2202.483
5952.527, 2194.319
5954.456, 2190.109
5956.384, 2184.026
5958.313, 2174.055
5960.241, 2164.188
5962.169, 2164.562
5964.098, 2157.978
5966.026, 2151.750
5967.955, 2152.590
5969.883, 2155.027
5971.812, 2157.935
5973.740, 2147.733
5975.669, 2135.181
5977.597, 2134.729
5979.526, 2138.383
5981.454, 2142.860
5983.383, 2151.172
5985.311, 2151.437
5987.240, 2128.226
5989.168, 2114.491
5991.097, 2111.318
5993.025, 2108.815
5994.954, 2105.924
5996.882, 2108.881
5998.811, 2092.763
6000.739, 2078.266
6002.667, 2073.335
6004.596, 2076.114
6006.524, 2077.576
6008.453, 2075.079
6010.381, 2071.989
6012.310, 2065.821
6014.238, 2056.748
6016.167, 2051.384
6018.095, 2047.252
6020.023, 2042.594
6021.952, 2040.067
6023.880, 2038.957
6025.809, 2029.283
6027.737, 2031.572
6029.666, 2023.446
6031.594, 2031.941
6033.523, 2036.410
6035.451, 2037.659
6037.380, 2029.008
6039.308, 2006.609
6041.237, 1991.837
6043.165, 1997.428
6045.094, 1989.823
6047.022, 1987.878
6048.951, 1983.096
6050.879, 1981.175
6052.808, 1987.835
6054.736, 1992.122
6056.665, 1980.130
6058.593, 1971.105
6060.521, 1969.700
6062.450, 1969.915
6064.378, 1952.716
6066.307, 1946.851
6068.235, 1938.889
6070.164, 1932.895
6072.092, 1929.433
6074.021, 1925.505
6075.949, 1924.198
6077.877, 1920.324
6079.806, 1918.673
6081.734, 1913.896
6083.663, 1912.147
6085.591, 1912.427
6087.520, 1907.832
6089.448, 1904.957
6091.377, 1902.821
6093.305, 1899.860
6095.234, 1896.167
6097.162, 1893.924
6099.091, 1887.693
6101.019, 1880.764
6102.948, 1870.133
6104.876, 1861.097
6106.805, 1861.651
6108.733, 1864.001
6110.662, 1861.630
6112.590, 1859.164
6114.519, 1856.868
6116.447, 1850.311
6118.375, 1843.531
6120.304, 1838.019
6122.232, 1829.052
6124.161, 1832.883
6126.089, 1830.906
6128.018, 1825.047
6129.946, 1817.518
6131.875, 1810.697
6133.803, 1812.740
6135.731, 1810.061
6137.660, 1807.793
6139.588, 1802.521
6141.517, 1799.386
6143.445, 1792.516
6145.374, 1791.097
6147.302, 1788.225
6149.231, 1784.514
6151.159, 1783.491
6153.088, 1778.986
6155.016, 1775.781
6156.945, 1771.353
6158.873, 1767.432
6160.802, 1763.929
6162.730, 1758.498
6164.659, 1756.326
6166.587, 1751.942
6168.516, 1741.608
6170.444, 1744.682
6172.373, 1745.377
6174.301, 1742.365
6176.229, 1732.987
6178.158, 1736.238
6180.086, 1724.594
6182.015, 1716.721
6183.943, 1728.394
6185.872, 1722.958
6187.800, 1716.529
6189.729, 1710.589
6191.657, 1710.218
6193.585, 1711.527
6195.514, 1701.422
6197.442, 1698.459
6199.371, 1690.864
6201.299, 1685.709
6203.228, 1683.427
6205.156, 1681.068
6207.085, 1681.855
6209.013, 1678.941
6210.942, 1668.641
6212.870, 1663.275
6214.799, 1667.210
6216.727, 1672.611
6218.656, 1666.168
6220.584, 1654.615
6222.513, 1648.368
6224.441, 1649.541
6226.370, 1650.442
6228.298, 1636.477
6230.227, 1643.250
6232.155, 1640.732
6234.083, 1630.470
6236.012, 1624.576
6237.940, 1627.594
6239.869, 1620.113
6241.797, 1616.425
6243.726, 1619.179
6245.654, 1619.329
6247.583, 1612.350
6249.511, 1611.796
6251.439, 1601.013
6253.368, 1602.170
6255.296, 1598.645
6257.225, 1591.040
6259.153, 1584.350
6261.082, 1584.866
6263.010, 1596.775
6264.939, 1603.102
6266.867, 1591.143
6268.796, 1572.256
6270.724, 1562.718
6272.653, 1570.404
6274.581, 1563.888
6276.510, 1560.303
6278.438, 1555.491
6280.367, 1551.658
6282.295, 1550.138
6284.224, 1545.819
6286.152, 1543.895
6288.081, 1539.202
6290.009, 1538.282
6291.938, 1534.687
6293.866, 1529.337
6295.794, 1532.617
6297.723, 1527.998
6299.651, 1515.550
6301.580, 1514.270
6303.508, 1517.341
6305.437, 1512.319
6307.365, 1511.516
6309.293, 1506.798
6311.222, 1495.721
6313.150, 1495.595
6315.079, 1491.693
6317.007, 1487.165
6318.936, 1488.435
6320.864, 1488.523
6322.793, 1483.290
6324.721, 1482.240
6326.650, 1481.709
6328.578, 1474.964
6330.507, 1475.725
6332.435, 1467.218
6334.364, 1470.868
6336.292, 1467.426
6338.221, 1459.549
6340.149, 1451.399
6342.078, 1443.667
6344.006, 1441.426
6345.935, 1441.620
6347.863, 1438.063
6349.792, 1440.377
6351.720, 1437.927
6353.648, 1425.121
6355.577, 1427.686
6357.505, 1422.189
6359.434, 1417.719
6361.362, 1414.282
6363.291, 1410.746
6365.219, 1407.461
6367.147, 1403.898
6369.076, 1400.458
6371.004, 1399.098
6372.933, 1397.988
6374.861, 1393.395
6376.790, 1386.045
6378.718, 1381.967
6380.647, 1374.486
6382.575, 1379.502
6384.504, 1383.161
6386.432, 1380.712
6388.361, 1376.441
6390.289, 1373.686
6392.218, 1370.265
6394.146, 1366.598
6396.075, 1363.247
6398.003, 1357.158
6399.932, 1352.774
6401.860, 1350.688
6403.789, 1346.097
6405.717, 1350.354
6407.646, 1342.704
6409.574, 1339.024
6411.502, 1343.720
6413.431, 1344.832
6415.359, 1331.813
6417.288, 1327.707
6419.216, 1320.759
6421.145, 1314.137
6423.073, 1312.923
6425.001, 1316.242
6426.930, 1316.357
6428.858, 1308.122
6430.787, 1311.502
6432.715, 1305.770
6434.644, 1306.879
6436.572, 1301.805
6438.501, 1296.507
6440.429, 1299.187
6442.358, 1300.691
6444.286, 1308.870
6446.215, 1293.495
6448.143, 1280.880
6450.072, 1276.360
6452.000, 1278.125
6453.929, 1280.759
6455.857, 1272.468
6457.786, 1269.623
6459.714, 1267.315
6461.643, 1265.659
6463.571, 1260.398
6465.500, 1260.235
6467.428, 1267.242
6469.356, 1258.530
6471.285, 1259.386
6473.213, 1247.818
6475.142, 1250.817
6477.070, 1247.659
6478.999, 1239.382
6480.927, 1231.990
6482.855, 1237.973
6484.784, 1232.684
6486.712, 1244.146
6488.641, 1233.176
6490.569, 1232.133
6492.498, 1232.374
6494.426, 1226.094
6496.355, 1220.273
6498.283, 1215.335
6500.212, 1215.394
6502.140, 1205.004
6504.069, 1197.048
6505.997, 1196.051
6507.926, 1197.030
6509.854, 1195.938
6511.783, 1195.853
6513.711, 1193.164
6515.640, 1185.802
6517.568, 1185.970
6519.497, 1182.996
6521.425, 1176.733
6523.354, 1177.573
6525.282, 1173.119
6527.210, 1170.305
6529.139, 1166.450
6531.067, 1162.515
6532.996, 1164.103
6534.924, 1163.641
6536.853, 1158.938
6538.781, 1162.360
6540.709, 1155.661
6542.638, 1154.667
6544.566, 1147.950
6546.495, 1141.328
6548.423, 1136.769
6550.352, 1135.664
6552.280, 1138.263
6554.209, 1134.020
6556.137, 1128.375
6558.066, 1134.201
6559.994, 1139.584
6561.923, 1137.609
6563.851, 1130.941
6565.780, 1123.055
6567.708, 1114.922
6569.637, 1110.723
6571.565, 1111.158
6573.494, 1107.543
6575.422, 1106.139
6577.351, 1106.143
6579.279, 1102.454
6581.208, 1100.689
6583.136, 1097.751
6585.064, 1096.273
6586.993, 1093.723
6588.921, 1093.709
6590.850, 1089.108
6592.778, 1087.338
6594.707, 1085.268
6596.635, 1088.671
6598.563, 1082.351
6600.492, 1082.995
6602.420, 1081.629
6604.349, 1075.503
6606.277, 1070.741
6608.206, 1072.499
6610.134, 1070.910
6612.063, 1064.488
6613.991, 1064.810
6615.920, 1061.890
6617.848, 1054.254
6619.777, 1060.193
6621.705, 1055.186
6623.634, 1052.135
6625.562, 1048.408
6627.491, 1042.888
6629.419, 1043.156
##END=



