##NAMES=Schulenbergite
##RRUFFID=R060992
##IDEAL CHEMISTRY=(Cu,Zn)_7_(SO_4_)_2_(OH)_10_·3H_2_O
##LOCALITY=Platosa mine, Bermejillo, Mapimi Municipality, Mexico
##OWNER=RRUFF
##SOURCE=Peter Megaw
##DESCRIPTION=Coating of blue-green thin, tabular hexagonal crystals associated with gypsum, linarite, and serpierite
##STATUS=The identification of this mineral is not yet confirmed
##URL=https://www.rruff.net/odr/rruff_sample/R060992
##FILETYPE=Raman RAW
##RAMAN WAVELENGTH=532

136.1885, 1270.909
138.1169, 1321.239
140.0454, 1365.316
141.9739, 1403.865
143.9023, 1437.223
145.8308, 1461.020
147.7593, 1486.360
149.6877, 1515.461
151.6162, 1546.004
153.5447, 1573.150
155.4731, 1594.517
157.4016, 1613.099
159.3301, 1631.290
161.2585, 1655.074
163.1870, 1668.445
165.1155, 1662.131
167.0439, 1637.659
168.9724, 1618.377
170.9009, 1606.117
172.8293, 1599.223
174.7578, 1595.431
176.6863, 1592.821
178.6147, 1595.163
180.5432, 1603.588
182.4717, 1622.072
184.4001, 1637.436
186.3286, 1648.474
188.2571, 1656.224
190.1855, 1663.478
192.1140, 1670.562
194.0425, 1677.567
195.9709, 1684.932
197.8994, 1695.546
199.8279, 1702.840
201.7563, 1701.247
203.6848, 1694.723
205.6133, 1695.920
207.5417, 1710.882
209.4702, 1730.883
211.3987, 1751.175
213.3272, 1773.794
215.2556, 1792.518
217.1841, 1805.911
219.1126, 1814.584
221.0410, 1817.308
222.9695, 1804.920
224.8980, 1791.384
226.8264, 1794.231
228.7549, 1822.976
230.6834, 1849.328
232.6118, 1864.154
234.5403, 1863.987
236.4688, 1861.813
238.3972, 1854.989
240.3257, 1846.710
242.2542, 1842.012
244.1826, 1846.281
246.1111, 1846.278
248.0396, 1836.530
249.9680, 1810.396
251.8965, 1787.185
253.8250, 1770.899
255.7534, 1757.138
257.6819, 1739.044
259.6104, 1712.927
261.5388, 1685.502
263.4673, 1659.243
265.3958, 1634.444
267.3242, 1610.343
269.2527, 1586.814
271.1812, 1563.946
273.1096, 1542.124
275.0381, 1521.036
276.9666, 1501.122
278.8950, 1481.204
280.8235, 1458.842
282.7520, 1444.891
284.6804, 1446.269
286.6089, 1458.896
288.5374, 1470.143
290.4658, 1475.202
292.3943, 1482.188
294.3228, 1497.476
296.2512, 1522.546
298.1797, 1545.543
300.1082, 1565.322
302.0366, 1581.688
303.9651, 1590.699
305.8936, 1591.349
307.8220, 1586.861
309.7505, 1577.921
311.6790, 1563.837
313.6074, 1549.612
315.5359, 1534.778
317.4644, 1519.943
319.3928, 1508.845
321.3213, 1500.918
323.2498, 1496.317
325.1782, 1495.744
327.1067, 1500.539
329.0352, 1504.271
330.9636, 1504.591
332.8921, 1503.142
334.8206, 1505.713
336.7491, 1515.223
338.6775, 1526.471
340.6060, 1536.459
342.5345, 1543.666
344.4629, 1554.787
346.3914, 1569.714
348.3199, 1588.698
350.2483, 1611.881
352.1768, 1640.262
354.1053, 1670.622
356.0337, 1701.885
357.9622, 1735.188
359.8907, 1765.015
361.8191, 1787.571
363.7476, 1807.430
365.6761, 1832.673
367.6045, 1864.330
369.5330, 1900.579
371.4615, 1941.056
373.3899, 1988.172
375.3184, 2033.508
377.2469, 2071.347
379.1753, 2109.544
381.1038, 2157.356
383.0323, 2218.195
384.9607, 2281.278
386.8892, 2346.710
388.8177, 2416.985
390.7461, 2469.503
392.6746, 2498.026
394.6031, 2513.357
396.5315, 2526.609
398.4600, 2541.785
400.3885, 2545.482
402.3169, 2532.204
404.2454, 2502.629
406.1739, 2475.273
408.1023, 2450.580
410.0308, 2427.519
411.9593, 2405.476
413.8877, 2384.581
415.8162, 2365.024
417.7447, 2341.505
419.6731, 2318.600
421.6016, 2311.189
423.5301, 2325.226
425.4585, 2346.449
427.3870, 2368.643
429.3155, 2390.751
431.2439, 2418.847
433.1724, 2450.035
435.1009, 2487.276
437.0293, 2538.404
438.9578, 2612.884
440.8863, 2682.737
442.8147, 2741.511
444.7432, 2790.082
446.6717, 2824.691
448.6001, 2842.214
450.5286, 2849.437
452.4571, 2849.167
454.3855, 2840.861
456.3140, 2830.720
458.2425, 2827.867
460.1709, 2825.728
462.0994, 2802.388
464.0279, 2734.092
465.9563, 2664.248
467.8848, 2609.833
469.8133, 2572.064
471.7417, 2530.089
473.6702, 2478.616
475.5987, 2421.632
477.5271, 2363.019
479.4556, 2292.679
481.3841, 2232.907
483.3125, 2192.570
485.2410, 2169.280
487.1695, 2141.583
489.0979, 2101.802
491.0264, 2064.862
492.9549, 2038.864
494.8833, 2029.830
496.8118, 2021.448
498.7403, 2011.285
500.6687, 2001.552
502.5972, 1996.301
504.5257, 1998.492
506.4541, 1998.968
508.3826, 1994.803
510.3111, 1985.675
512.2395, 1972.220
514.1680, 1953.634
516.0964, 1931.860
518.0249, 1908.419
519.9534, 1884.188
521.8818, 1857.567
523.8103, 1827.770
525.7388, 1796.308
527.6672, 1765.436
529.5957, 1732.628
531.5242, 1703.450
533.4526, 1680.574
535.3811, 1663.117
537.3096, 1646.309
539.2380, 1627.202
541.1665, 1609.362
543.0950, 1595.088
545.0234, 1587.767
546.9519, 1578.689
548.8804, 1566.358
550.8088, 1552.365
552.7373, 1539.430
554.6658, 1527.195
556.5942, 1517.684
558.5227, 1511.101
560.4512, 1507.637
562.3796, 1508.249
564.3081, 1517.358
566.2366, 1526.759
568.1650, 1530.567
570.0935, 1528.411
572.0220, 1525.213
573.9504, 1517.684
575.8789, 1510.721
577.8074, 1511.903
579.7358, 1524.226
581.6644, 1541.478
583.5928, 1563.333
585.5213, 1590.099
587.4498, 1621.209
589.3782, 1655.349
591.3067, 1696.370
593.2352, 1745.871
595.1636, 1805.577
597.0921, 1869.681
599.0206, 1938.351
600.9490, 2010.504
602.8775, 2092.270
604.8060, 2195.783
606.7344, 2266.809
608.6629, 2283.081
610.5914, 2258.405
612.5198, 2223.628
614.4483, 2170.601
616.3768, 2116.798
618.3052, 2066.584
620.2337, 2019.205
622.1622, 1972.266
624.0906, 1925.479
626.0191, 1878.521
627.9476, 1831.096
629.8760, 1781.882
631.8045, 1735.822
633.7330, 1690.489
635.6614, 1650.371
637.5899, 1621.335
639.5184, 1606.157
641.4468, 1592.730
643.3753, 1575.850
645.3038, 1557.408
647.2322, 1543.309
649.1607, 1534.145
651.0892, 1527.117
653.0176, 1522.612
654.9461, 1519.892
656.8746, 1515.555
658.8030, 1510.439
660.7315, 1503.236
662.6600, 1492.220
664.5884, 1474.090
666.5169, 1465.958
668.4454, 1475.576
670.3738, 1490.540
672.3023, 1498.324
674.2308, 1497.082
676.1592, 1496.973
678.0877, 1501.510
680.0162, 1507.730
681.9446, 1511.668
683.8731, 1510.766
685.8016, 1510.189
687.7300, 1511.113
689.6585, 1513.348
691.5870, 1515.605
693.5154, 1518.921
695.4439, 1521.107
697.3724, 1521.187
699.3008, 1519.204
701.2293, 1516.096
703.1578, 1506.615
705.0862, 1500.228
707.0147, 1504.197
708.9432, 1520.897
710.8716, 1532.278
712.8001, 1534.597
714.7286, 1532.860
716.6570, 1530.063
718.5855, 1524.613
720.5140, 1523.924
722.4424, 1531.084
724.3709, 1542.125
726.2994, 1551.700
728.2278, 1559.091
730.1563, 1565.930
732.0848, 1572.646
734.0132, 1578.536
735.9417, 1582.532
737.8702, 1583.479
739.7986, 1584.020
741.7271, 1585.367
743.6556, 1587.291
745.5840, 1587.863
747.5125, 1583.122
749.4410, 1581.642
751.3694, 1590.177
753.2979, 1605.939
755.2264, 1616.047
757.1548, 1615.659
759.0833, 1612.634
761.0118, 1609.434
762.9402, 1605.396
764.8687, 1604.188
766.7972, 1606.091
768.7256, 1610.078
770.6541, 1615.844
772.5826, 1623.259
774.5110, 1631.675
776.4395, 1642.901
778.3680, 1653.760
780.2964, 1661.384
782.2249, 1661.346
784.1534, 1667.167
786.0818, 1685.097
788.0103, 1705.705
789.9388, 1718.737
791.8672, 1723.819
793.7957, 1725.469
795.7242, 1723.487
797.6526, 1719.295
799.5811, 1713.901
801.5096, 1704.087
803.4380, 1699.126
805.3665, 1703.851
807.2950, 1713.187
809.2234, 1716.495
811.1519, 1709.128
813.0804, 1705.475
815.0089, 1712.302
816.9373, 1724.704
818.8658, 1734.776
820.7943, 1742.273
822.7227, 1747.475
824.6512, 1750.626
826.5797, 1752.115
828.5081, 1752.455
830.4366, 1749.689
832.3651, 1749.073
834.2935, 1752.682
836.2220, 1759.400
838.1505, 1767.026
840.0789, 1777.058
842.0074, 1784.666
843.9359, 1788.005
845.8643, 1787.478
847.7928, 1785.836
849.7213, 1777.379
851.6497, 1774.388
853.5782, 1786.010
855.5067, 1807.215
857.4351, 1818.735
859.3636, 1814.112
861.2921, 1808.046
863.2205, 1805.231
865.1490, 1805.390
867.0775, 1807.945
869.0059, 1815.164
870.9344, 1822.151
872.8629, 1827.826
874.7913, 1832.333
876.7198, 1836.307
878.6483, 1839.975
880.5767, 1843.563
882.5052, 1845.806
884.4337, 1847.817
886.3621, 1854.693
888.2906, 1874.821
890.2191, 1890.147
892.1475, 1890.571
894.0760, 1878.222
896.0045, 1876.119
897.9329, 1891.698
899.8614, 1908.115
901.7899, 1921.667
903.7183, 1932.095
905.6468, 1937.515
907.5753, 1931.352
909.5037, 1930.658
911.4322, 1943.730
913.3607, 1967.837
915.2891, 1987.453
917.2176, 2001.522
919.1461, 2012.220
921.0745, 2016.788
923.0030, 2018.238
924.9315, 2025.863
926.8599, 2041.563
928.7884, 2060.237
930.7169, 2081.988
932.6453, 2105.286
934.5738, 2126.265
936.5023, 2140.300
938.4307, 2158.650
940.3592, 2180.192
942.2877, 2207.451
944.2161, 2246.472
946.1446, 2290.348
948.0731, 2356.015
950.0015, 2438.075
951.9300, 2549.882
953.8585, 2701.055
955.7869, 2888.071
957.7154, 3128.024
959.6439, 3427.011
961.5723, 3777.763
963.5008, 4179.991
965.4293, 4715.488
967.3577, 5166.605
969.2862, 5568.322
971.2147, 5862.249
973.1431, 5963.626
975.0716, 5869.634
977.0001, 5696.366
978.9285, 5389.483
980.8570, 5068.052
982.7855, 4808.969
984.7139, 4614.167
986.6424, 4466.233
988.5709, 4430.814
990.4993, 4382.106
992.4278, 4254.342
994.3563, 4038.901
996.2847, 3795.386
998.2132, 3476.493
1000.142, 3176.117
1002.070, 2934.358
1003.999, 2746.729
1005.927, 2601.946
1007.856, 2508.714
1009.784, 2445.506
1011.712, 2410.965
1013.641, 2398.924
1015.569, 2382.186
1017.498, 2353.531
1019.426, 2328.690
1021.355, 2314.080
1023.283, 2304.934
1025.212, 2289.758
1027.140, 2264.634
1029.069, 2245.027
1030.997, 2238.625
1032.926, 2237.469
1034.854, 2232.557
1036.782, 2222.567
1038.711, 2214.201
1040.639, 2208.786
1042.568, 2205.152
1044.496, 2203.133
1046.425, 2203.919
1048.353, 2202.981
1050.282, 2197.409
1052.210, 2193.789
1054.139, 2196.369
1056.067, 2205.068
1057.996, 2214.895
1059.924, 2224.067
1061.853, 2236.632
1063.781, 2257.188
1065.709, 2281.923
1067.638, 2299.864
1069.566, 2302.151
1071.495, 2311.869
1073.423, 2336.531
1075.352, 2370.488
1077.280, 2404.674
1079.209, 2434.248
1081.137, 2472.357
1083.066, 2523.498
1084.994, 2580.783
1086.923, 2641.012
1088.851, 2704.456
1090.780, 2761.176
1092.708, 2825.139
1094.637, 2863.812
1096.565, 2853.336
1098.494, 2798.177
1100.422, 2751.089
1102.350, 2715.427
1104.279, 2688.076
1106.207, 2670.539
1108.136, 2660.379
1110.064, 2650.818
1111.993, 2643.833
1113.921, 2633.169
1115.850, 2611.806
1117.778, 2589.079
1119.707, 2577.910
1121.635, 2579.731
1123.564, 2577.597
1125.492, 2569.035
1127.421, 2555.085
1129.349, 2533.587
1131.277, 2504.748
1133.206, 2484.865
1135.134, 2485.283
1137.063, 2483.119
1138.991, 2470.173
1140.920, 2449.567
1142.848, 2431.531
1144.777, 2422.768
1146.705, 2406.415
1148.634, 2370.202
1150.562, 2331.185
1152.491, 2311.419
1154.419, 2312.167
1156.348, 2307.231
1158.276, 2286.045
1160.204, 2264.705
1162.133, 2253.661
1164.061, 2251.606
1165.990, 2245.669
1167.918, 2235.691
1169.847, 2220.629
1171.775, 2195.384
1173.704, 2166.058
1175.632, 2145.011
1177.561, 2134.968
1179.489, 2129.210
1181.418, 2129.633
1183.346, 2132.520
1185.275, 2134.834
1187.203, 2136.532
1189.131, 2139.695
1191.060, 2148.573
1192.988, 2153.490
1194.917, 2146.045
1196.845, 2132.254
1198.774, 2125.313
1200.702, 2126.133
1202.631, 2133.577
1204.559, 2156.652
1206.488, 2179.426
1208.416, 2183.829
1210.345, 2159.161
1212.273, 2149.160
1214.202, 2165.817
1216.130, 2182.515
1218.058, 2188.239
1219.987, 2184.632
1221.915, 2178.055
1223.844, 2164.838
1225.772, 2158.280
1227.701, 2168.905
1229.629, 2183.911
1231.558, 2188.728
1233.486, 2182.646
1235.415, 2180.851
1237.343, 2186.528
1239.272, 2195.715
1241.200, 2208.764
1243.129, 2224.107
1245.057, 2233.826
1246.985, 2235.387
1248.914, 2234.465
1250.842, 2226.895
1252.771, 2220.094
1254.699, 2224.055
1256.628, 2244.130
1258.556, 2252.427
1260.485, 2236.681
1262.413, 2223.515
1264.342, 2227.372
1266.270, 2242.709
1268.199, 2252.980
1270.127, 2257.129
1272.056, 2259.677
1273.984, 2257.725
1275.912, 2257.274
1277.841, 2264.631
1279.769, 2279.125
1281.698, 2287.987
1283.626, 2283.948
1285.555, 2283.603
1287.483, 2296.838
1289.412, 2316.559
1291.340, 2328.616
1293.269, 2328.791
1295.197, 2330.097
1297.126, 2334.303
1299.054, 2338.204
1300.983, 2339.340
1302.911, 2338.006
1304.839, 2337.906
1306.768, 2337.983
1308.696, 2341.398
1310.625, 2349.616
1312.553, 2361.456
1314.482, 2378.770
1316.410, 2401.570
1318.339, 2411.929
1320.267, 2395.736
1322.196, 2383.111
1324.124, 2394.054
1326.053, 2416.640
1327.981, 2429.912
1329.910, 2432.758
1331.838, 2429.832
1333.766, 2413.200
1335.695, 2400.122
1337.623, 2402.623
1339.552, 2419.493
1341.480, 2431.839
1343.409, 2439.040
1345.337, 2441.726
1347.266, 2432.770
1349.194, 2423.488
1351.123, 2428.651
1353.051, 2452.241
1354.980, 2460.513
1356.908, 2444.389
1358.837, 2425.243
1360.765, 2403.489
1362.693, 2385.523
1364.622, 2384.961
1366.550, 2404.560
1368.479, 2417.808
1370.407, 2414.380
1372.336, 2411.905
1374.264, 2422.993
1376.193, 2440.842
1378.121, 2450.521
1380.050, 2449.163
1381.978, 2447.835
1383.907, 2451.085
1385.835, 2452.084
1387.764, 2442.742
1389.692, 2425.896
1391.620, 2422.762
1393.549, 2445.448
1395.477, 2458.435
1397.406, 2443.367
1399.334, 2427.098
1401.263, 2434.903
1403.191, 2468.606
1405.120, 2488.912
1407.048, 2489.217
1408.977, 2484.884
1410.905, 2472.926
1412.834, 2460.710
1414.762, 2457.300
1416.691, 2464.191
1418.619, 2468.252
1420.547, 2472.900
1422.476, 2470.811
1424.404, 2450.432
1426.333, 2427.023
1428.261, 2425.443
1430.190, 2446.245
1432.118, 2455.569
1434.047, 2439.075
1435.975, 2426.019
1437.904, 2432.625
1439.832, 2447.751
1441.761, 2457.036
1443.689, 2460.504
1445.618, 2460.622
1447.546, 2456.928
1449.474, 2452.714
1451.403, 2448.136
1453.331, 2445.145
1455.260, 2447.407
1457.188, 2455.568
1459.117, 2463.419
1461.045, 2470.936
1462.974, 2475.793
1464.902, 2475.661
1466.831, 2472.199
1468.759, 2468.059
1470.688, 2461.546
1472.616, 2460.251
1474.545, 2473.401
1476.473, 2482.277
1478.401, 2477.590
1480.330, 2465.859
1482.258, 2458.756
1484.187, 2457.123
1486.115, 2458.991
1488.044, 2470.329
1489.972, 2477.686
1491.901, 2468.903
1493.829, 2455.192
1495.758, 2457.797
1497.686, 2484.042
1499.615, 2500.846
1501.543, 2502.992
1503.472, 2502.273
1505.400, 2501.247
1507.328, 2500.912
1509.257, 2502.573
1511.185, 2506.384
1513.114, 2512.351
1515.042, 2521.030
1516.971, 2530.588
1518.899, 2543.155
1520.828, 2553.786
1522.756, 2552.913
1524.685, 2541.345
1526.613, 2539.745
1528.542, 2556.389
1530.470, 2570.032
1532.399, 2577.427
1534.327, 2576.188
1536.255, 2556.432
1538.184, 2523.884
1540.112, 2513.493
1542.041, 2534.503
1543.969, 2558.415
1545.898, 2579.792
1547.826, 2597.115
1549.755, 2606.623
1551.683, 2610.947
1553.612, 2622.199
1555.540, 2645.281
1557.469, 2658.478
1559.397, 2651.818
1561.326, 2639.318
1563.254, 2624.822
1565.182, 2611.062
1567.111, 2606.069
1569.039, 2611.123
1570.968, 2617.466
1572.896, 2625.748
1574.825, 2632.505
1576.753, 2637.238
1578.682, 2639.746
1580.610, 2636.681
1582.539, 2626.372
1584.467, 2631.087
1586.396, 2668.622
1588.324, 2694.273
1590.253, 2683.373
1592.181, 2664.397
1594.109, 2665.182
1596.038, 2685.360
1597.966, 2702.213
1599.895, 2718.101
1601.823, 2725.756
1603.752, 2718.202
1605.680, 2709.227
1607.609, 2706.006
1609.537, 2708.229
1611.466, 2715.482
1613.394, 2732.483
1615.323, 2740.852
1617.251, 2731.063
1619.180, 2721.589
1621.108, 2718.868
1623.036, 2718.985
1624.965, 2716.398
1626.893, 2710.250
1628.822, 2707.185
1630.750, 2719.134
1632.679, 2717.846
1634.607, 2688.809
1636.536, 2656.096
1638.464, 2636.789
1640.393, 2629.354
1642.321, 2625.875
1644.250, 2631.166
1646.178, 2629.128
1648.107, 2606.126
1650.035, 2590.367
1651.964, 2597.876
1653.892, 2616.259
1655.820, 2628.522
1657.749, 2634.564
1659.677, 2636.354
1661.606, 2629.323
1663.534, 2625.828
1665.463, 2633.185
1667.391, 2640.119
1669.320, 2637.089
1671.248, 2626.983
1673.177, 2620.072
1675.105, 2614.835
1677.034, 2615.299
1678.962, 2626.426
1680.891, 2635.524
1682.819, 2635.352
1684.747, 2632.787
1686.676, 2636.728
1688.604, 2647.213
1690.533, 2654.579
1692.461, 2655.292
1694.390, 2659.586
1696.318, 2675.944
1698.247, 2687.500
1700.175, 2681.607
1702.104, 2666.672
1704.032, 2657.652
1705.961, 2654.728
1707.889, 2657.007
1709.818, 2672.280
1711.746, 2681.586
1713.674, 2679.445
1715.603, 2673.157
1717.531, 2665.489
1719.460, 2657.758
1721.388, 2654.862
1723.317, 2658.567
1725.245, 2660.389
1727.174, 2660.498
1729.102, 2657.917
1731.031, 2647.549
1732.959, 2638.894
1734.888, 2640.824
1736.816, 2652.170
1738.745, 2666.909
1740.673, 2689.056
1742.601, 2699.950
1744.530, 2684.847
1746.458, 2675.183
1748.387, 2690.012
1750.315, 2708.192
1752.244, 2703.198
1754.172, 2679.166
1756.101, 2675.901
1758.029, 2703.105
1759.958, 2714.743
1761.886, 2688.753
1763.815, 2667.988
1765.743, 2676.092
1767.672, 2694.136
1769.600, 2702.390
1771.528, 2702.556
1773.457, 2703.523
1775.385, 2705.282
1777.314, 2709.007
1779.242, 2714.696
1781.171, 2721.707
1783.099, 2734.290
1785.028, 2743.628
1786.956, 2736.601
1788.885, 2717.542
1790.813, 2707.784
1792.742, 2710.084
1794.670, 2712.828
1796.599, 2716.339
1798.527, 2716.622
1800.455, 2709.593
1802.384, 2700.819
1804.312, 2694.016
1806.241, 2690.160
1808.169, 2694.941
1810.098, 2711.173
1812.026, 2719.940
1813.955, 2711.407
1815.883, 2706.199
1817.812, 2714.907
1819.740, 2726.984
1821.669, 2732.552
1823.597, 2733.256
1825.526, 2735.735
1827.454, 2740.516
1829.382, 2742.181
1831.311, 2736.890
1833.239, 2733.492
1835.168, 2737.025
1837.096, 2740.514
1839.025, 2738.211
1840.953, 2732.965
1842.882, 2730.752
1844.810, 2732.023
1846.739, 2732.490
1848.667, 2729.927
1850.596, 2729.279
1852.524, 2732.906
1854.453, 2736.154
1856.381, 2740.066
1858.309, 2740.926
1860.238, 2730.522
1862.166, 2710.279
1864.095, 2701.376
1866.023, 2705.614
1867.952, 2715.915
1869.880, 2738.448
1871.809, 2754.855
1873.737, 2755.095
1875.666, 2748.925
1877.594, 2740.849
1879.523, 2732.682
1881.451, 2729.318
1883.380, 2730.914
1885.308, 2738.695
1887.236, 2756.604
1889.165, 2769.668
1891.093, 2771.897
1893.022, 2770.289
1894.950, 2768.489
1896.879, 2765.156
1898.807, 2756.174
1900.736, 2743.484
1902.664, 2738.068
1904.593, 2741.230
1906.521, 2747.713
1908.450, 2763.320
1910.378, 2773.802
1912.307, 2774.830
1914.235, 2770.308
1916.163, 2756.902
1918.092, 2742.227
1920.020, 2744.341
1921.949, 2764.640
1923.877, 2774.127
1925.806, 2765.076
1927.734, 2759.031
1929.663, 2758.432
1931.591, 2759.263
1933.520, 2763.587
1935.448, 2766.065
1937.377, 2758.656
1939.305, 2747.019
1941.234, 2748.183
1943.162, 2762.399
1945.090, 2770.639
1947.019, 2769.510
1948.947, 2769.559
1950.876, 2775.864
1952.804, 2778.887
1954.733, 2770.017
1956.661, 2759.174
1958.590, 2753.946
1960.518, 2754.375
1962.447, 2762.829
1964.375, 2779.673
1966.304, 2787.439
1968.232, 2778.799
1970.161, 2775.380
1972.089, 2791.140
1974.017, 2798.704
1975.946, 2776.255
1977.874, 2751.067
1979.803, 2751.410
1981.731, 2768.477
1983.660, 2779.701
1985.588, 2785.187
1987.517, 2784.426
1989.445, 2772.852
1991.374, 2765.925
1993.302, 2763.858
1995.231, 2768.649
1997.159, 2789.115
1999.088, 2808.378
2001.016, 2813.333
2002.944, 2809.874
2004.873, 2806.509
2006.801, 2803.861
2008.730, 2806.693
2010.658, 2816.817
2012.587, 2821.990
2014.515, 2814.437
2016.444, 2812.820
2018.372, 2831.477
2020.301, 2847.703
2022.229, 2844.697
2024.158, 2833.204
2026.086, 2825.301
2028.015, 2821.052
2029.943, 2821.469
2031.871, 2827.042
2033.800, 2836.349
2035.728, 2854.990
2037.657, 2867.048
2039.585, 2868.765
2041.514, 2866.444
2043.442, 2858.552
2045.371, 2851.363
2047.299, 2849.087
2049.228, 2850.776
2051.156, 2855.772
2053.084, 2863.440
2055.013, 2870.785
2056.941, 2877.725
2058.870, 2884.407
2060.798, 2893.068
2062.727, 2897.026
2064.656, 2890.218
2066.584, 2883.333
2068.512, 2880.897
2070.441, 2881.286
2072.369, 2883.811
2074.298, 2887.963
2076.226, 2891.851
2078.155, 2895.652
2080.083, 2905.432
2082.012, 2926.044
2083.940, 2932.365
2085.869, 2915.692
2087.797, 2897.120
2089.726, 2877.272
2091.654, 2864.104
2093.583, 2861.698
2095.511, 2867.950
2097.439, 2889.371
2099.368, 2915.120
2101.296, 2915.978
2103.225, 2893.133
2105.153, 2889.603
2107.082, 2920.058
2109.010, 2933.151
2110.939, 2911.022
2112.867, 2899.244
2114.796, 2912.990
2116.724, 2927.300
2118.653, 2931.402
2120.581, 2932.177
2122.510, 2934.721
2124.438, 2938.062
2126.366, 2940.932
2128.295, 2942.863
2130.223, 2940.227
2132.152, 2931.961
2134.080, 2934.668
2136.009, 2958.310
2137.937, 2967.788
2139.866, 2942.336
2141.794, 2922.508
2143.723, 2925.615
2145.651, 2933.958
2147.580, 2943.181
2149.508, 2947.015
2151.437, 2928.161
2153.365, 2899.798
2155.293, 2906.846
2157.222, 2945.577
2159.150, 2962.377
2161.079, 2952.160
2163.007, 2944.289
2164.936, 2942.858
2166.864, 2962.527
2168.793, 2973.544
2170.721, 2976.375
2172.650, 2946.497
2174.578, 2958.855
2176.507, 2954.287
2178.435, 2949.025
2180.364, 2967.328
2182.292, 2942.208
2184.220, 2960.137
2186.149, 2960.881
2188.077, 2927.478
2190.006, 2922.885
2191.934, 2922.523
2193.863, 2928.776
2195.791, 2931.042
2197.720, 2921.514
2199.648, 2916.303
2201.577, 2925.443
2203.505, 2935.797
2205.434, 2939.283
2207.362, 2939.062
2209.291, 2940.002
2211.219, 2939.739
2213.147, 2929.774
2215.076, 2911.965
2217.004, 2909.728
2218.933, 2924.770
2220.861, 2926.414
2222.790, 2908.368
2224.718, 2898.480
2226.647, 2906.387
2228.575, 2912.133
2230.504, 2904.997
2232.432, 2900.214
2234.361, 2905.061
2236.289, 2914.058
2238.218, 2924.596
2240.146, 2935.030
2242.074, 2942.814
2244.003, 2948.486
2245.931, 2955.831
2247.860, 2963.812
2249.788, 2963.539
2251.717, 2954.857
2253.645, 2943.276
2255.574, 2927.288
2257.502, 2919.033
2259.431, 2927.322
2261.359, 2932.073
2263.288, 2924.040
2265.216, 2917.816
2267.145, 2919.927
2269.073, 2925.526
2271.001, 2936.102
2272.930, 2944.655
2274.858, 2941.645
2276.787, 2931.631
2278.715, 2918.005
2280.644, 2904.987
2282.572, 2913.404
2284.501, 2943.284
2286.429, 2963.678
2288.358, 2973.381
2290.286, 2972.939
2292.215, 2949.274
2294.143, 2938.855
2296.072, 2957.634
2298.000, 2968.847
2299.928, 2956.183
2301.857, 2945.879
2303.785, 2937.617
2305.714, 2956.478
2307.642, 2966.688
2309.571, 2968.710
2311.499, 2938.025
2313.428, 2949.575
2315.356, 2944.199
2317.285, 2938.128
2319.213, 2955.623
2321.142, 2929.695
2323.070, 2946.816
2324.999, 2946.752
2326.927, 2954.553
2328.855, 2945.324
2330.784, 2941.355
2332.712, 2954.422
2334.641, 2958.056
2336.569, 2946.866
2338.498, 2955.167
2340.426, 2928.645
2342.355, 2941.345
2344.283, 2952.965
2346.212, 2962.128
2348.140, 2959.354
2350.069, 2951.003
2351.997, 2941.710
2353.926, 2933.849
2355.854, 2930.811
2357.782, 2933.176
2359.711, 2948.038
2361.639, 2974.917
2363.568, 2982.327
2365.496, 2965.021
2367.425, 2950.293
2369.353, 2937.304
2371.282, 2931.940
2373.210, 2936.973
2375.139, 2943.251
2377.067, 2949.958
2378.996, 2955.148
2380.924, 2958.118
2382.853, 2959.033
2384.781, 2959.295
2386.709, 2955.386
2388.638, 2939.824
2390.566, 2924.965
2392.495, 2921.085
2394.423, 2924.689
2396.352, 2937.155
2398.280, 2951.135
2400.209, 2952.318
2402.137, 2944.311
2404.066, 2934.613
2405.994, 2924.119
2407.923, 2927.620
2409.851, 2947.496
2411.780, 2954.166
2413.708, 2945.823
2415.636, 2934.354
2417.565, 2919.060
2419.493, 2912.189
2421.422, 2918.498
2423.350, 2925.885
2425.279, 2934.614
2427.207, 2938.605
2429.136, 2935.656
2431.064, 2927.572
2432.993, 2903.522
2434.921, 2888.670
2436.850, 2904.623
2438.778, 2923.098
2440.707, 2927.060
2442.635, 2923.861
2444.563, 2918.392
2446.492, 2911.809
2448.420, 2899.930
2450.349, 2891.264
2452.277, 2910.919
2454.206, 2945.684
2456.134, 2949.030
2458.063, 2927.744
2459.991, 2914.670
2461.920, 2909.483
2463.848, 2903.065
2465.777, 2894.295
2467.705, 2893.789
2469.634, 2907.397
2471.562, 2911.589
2473.490, 2903.346
2475.419, 2895.275
2477.347, 2886.659
2479.276, 2884.803
2481.204, 2894.185
2483.133, 2901.137
2485.061, 2903.024
2486.990, 2899.667
2488.918, 2887.602
2490.847, 2876.273
2492.775, 2865.602
2494.704, 2862.941
2496.632, 2879.590
2498.561, 2895.297
2500.489, 2892.554
2502.417, 2887.368
2504.346, 2861.913
2506.274, 2893.976
2508.203, 2911.619
2510.131, 2915.617
2512.060, 2865.102
2513.988, 2884.979
2515.917, 2876.646
2517.845, 2867.157
2519.774, 2896.941
2521.702, 2854.356
2523.631, 2883.517
2525.559, 2884.039
2527.488, 2897.668
2529.416, 2882.913
2531.344, 2876.925
2533.273, 2899.330
2535.201, 2906.014
2537.130, 2887.992
2539.058, 2902.454
2540.987, 2858.876
2542.915, 2866.230
2544.844, 2895.558
2546.772, 2894.837
2548.701, 2868.421
2550.629, 2859.109
2552.558, 2881.751
2554.486, 2890.643
2556.415, 2867.730
2558.343, 2851.286
2560.271, 2862.839
2562.200, 2864.008
2564.128, 2832.906
2566.057, 2812.487
2567.985, 2818.845
2569.914, 2828.588
2571.842, 2835.121
2573.771, 2838.736
2575.699, 2836.468
2577.628, 2834.893
2579.556, 2841.998
2581.485, 2845.297
2583.413, 2832.440
2585.342, 2818.869
2587.270, 2816.681
2589.198, 2816.908
2591.127, 2810.729
2593.055, 2805.352
2594.984, 2811.815
2596.912, 2818.348
2598.841, 2805.045
2600.769, 2789.144
2602.698, 2800.670
2604.626, 2818.346
2606.555, 2806.817
2608.483, 2785.253
2610.412, 2786.604
2612.340, 2799.711
2614.269, 2801.876
2616.197, 2797.136
2618.125, 2795.599
2620.054, 2795.184
2621.982, 2789.713
2623.911, 2780.418
2625.839, 2767.566
2627.768, 2755.094
2629.696, 2767.365
2631.625, 2798.369
2633.553, 2801.072
2635.482, 2781.444
2637.410, 2779.310
2639.339, 2792.443
2641.267, 2801.054
2643.196, 2804.183
2645.124, 2789.872
2647.052, 2756.258
2648.981, 2744.969
2650.909, 2755.565
2652.838, 2774.172
2654.766, 2799.426
2656.695, 2797.456
2658.623, 2761.483
2660.552, 2748.818
2662.480, 2767.670
2664.409, 2769.962
2666.337, 2754.009
2668.266, 2740.254
2670.194, 2729.304
2672.123, 2730.250
2674.051, 2747.920
2675.979, 2756.046
2677.908, 2751.538
2679.836, 2743.852
2681.765, 2731.551
2683.693, 2729.783
2685.622, 2741.304
2687.550, 2752.730
2689.479, 2764.448
2691.407, 2768.002
2693.336, 2758.384
2695.264, 2755.647
2697.193, 2763.360
2699.121, 2757.524
2701.050, 2732.154
2702.978, 2713.175
2704.906, 2703.083
2706.835, 2705.395
2708.763, 2727.239
2710.692, 2742.433
2712.620, 2750.767
2714.549, 2743.113
2716.477, 2711.411
2718.406, 2697.182
2720.334, 2717.690
2722.263, 2726.819
2724.191, 2718.029
2726.120, 2712.649
2728.048, 2712.093
2729.977, 2719.238
2731.905, 2740.122
2733.833, 2744.957
2735.762, 2721.148
2737.690, 2698.646
2739.619, 2674.860
2741.547, 2665.844
2743.476, 2675.507
2745.404, 2679.579
2747.333, 2669.995
2749.261, 2675.943
2751.190, 2718.581
2753.118, 2719.348
2755.047, 2667.580
2756.975, 2634.722
2758.904, 2628.025
2760.832, 2635.587
2762.760, 2662.816
2764.689, 2679.230
2766.617, 2683.811
2768.546, 2679.699
2770.474, 2666.534
2772.403, 2646.956
2774.331, 2619.157
2776.260, 2610.189
2778.188, 2626.498
2780.117, 2633.481
2782.045, 2630.445
2783.974, 2631.456
2785.902, 2637.156
2787.831, 2643.698
2789.759, 2650.979
2791.688, 2649.809
2793.616, 2638.906
2795.544, 2632.697
2797.473, 2630.893
2799.401, 2637.878
2801.330, 2651.585
2803.258, 2653.219
2805.187, 2644.111
2807.115, 2634.762
2809.044, 2626.330
2810.972, 2629.066
2812.901, 2638.408
2814.829, 2633.033
2816.758, 2617.747
2818.686, 2608.768
2820.615, 2604.918
2822.543, 2600.920
2824.471, 2599.458
2826.400, 2616.946
2828.328, 2636.878
2830.257, 2616.469
2832.185, 2581.085
2834.114, 2583.810
2836.042, 2603.089
2837.971, 2601.137
2839.899, 2594.359
2841.828, 2608.207
2843.756, 2625.039
2845.685, 2615.849
2847.613, 2604.606
2849.542, 2626.083
2851.470, 2647.141
2853.398, 2633.684
2855.327, 2615.600
2857.255, 2623.212
2859.184, 2628.161
2861.112, 2600.517
2863.041, 2578.976
2864.969, 2588.215
2866.898, 2601.645
2868.826, 2610.522
2870.755, 2611.092
2872.683, 2592.140
2874.612, 2580.498
2876.540, 2588.509
2878.469, 2594.277
2880.397, 2590.402
2882.325, 2584.267
2884.254, 2572.715
2886.182, 2569.191
2888.111, 2578.285
2890.039, 2581.141
2891.968, 2569.976
2893.896, 2571.383
2895.825, 2600.451
2897.753, 2613.471
2899.682, 2608.392
2901.610, 2602.826
2903.539, 2597.707
2905.467, 2604.247
2907.396, 2624.175
2909.324, 2615.041
2911.252, 2580.206
2913.181, 2593.782
2915.109, 2640.542
2917.038, 2641.011
2918.966, 2609.813
2920.895, 2596.792
2922.823, 2596.453
2924.752, 2594.456
2926.680, 2594.128
2928.609, 2604.234
2930.537, 2616.364
2932.466, 2620.230
2934.394, 2618.241
2936.323, 2608.568
2938.251, 2600.414
2940.179, 2597.668
2942.108, 2604.199
2944.036, 2638.294
2945.965, 2659.111
2947.893, 2632.694
2949.822, 2610.917
2951.750, 2617.652
2953.679, 2624.684
2955.607, 2625.354
2957.536, 2618.551
2959.464, 2600.065
2961.393, 2585.930
2963.321, 2576.168
2965.250, 2582.436
2967.178, 2620.833
2969.106, 2629.493
2971.035, 2605.178
2972.963, 2603.035
2974.892, 2623.419
2976.820, 2622.657
2978.749, 2604.246
2980.677, 2614.911
2982.606, 2644.794
2984.534, 2650.947
2986.463, 2641.313
2988.391, 2629.973
2990.320, 2619.158
2992.248, 2610.626
2994.177, 2606.916
2996.105, 2612.510
2998.033, 2622.383
2999.962, 2635.539
3001.890, 2647.007
3003.819, 2657.251
3005.747, 2656.603
3007.676, 2628.575
3009.604, 2615.799
3011.533, 2650.426
3013.461, 2672.084
3015.390, 2670.014
3017.318, 2653.483
3019.247, 2619.490
3021.175, 2604.442
3023.104, 2618.957
3025.032, 2629.362
3026.960, 2635.708
3028.889, 2633.327
3030.817, 2625.060
3032.746, 2629.744
3034.674, 2642.720
3036.603, 2649.430
3038.531, 2652.819
3040.460, 2662.482
3042.388, 2669.142
3044.317, 2651.948
3046.245, 2637.853
3048.174, 2662.027
3050.102, 2683.175
3052.031, 2671.413
3053.959, 2661.344
3055.887, 2674.617
3057.816, 2681.915
3059.744, 2672.106
3061.673, 2671.729
3063.601, 2689.952
3065.530, 2694.235
3067.458, 2671.024
3069.387, 2675.807
3071.315, 2707.191
3073.244, 2715.798
3075.172, 2705.585
3077.101, 2717.799
3079.029, 2739.540
3080.958, 2727.050
3082.886, 2702.148
3084.814, 2696.969
3086.743, 2703.902
3088.671, 2724.045
3090.600, 2740.580
3092.528, 2734.276
3094.457, 2731.530
3096.385, 2747.621
3098.314, 2761.525
3100.242, 2759.611
3102.171, 2771.470
3104.099, 2807.168
3106.028, 2810.486
3107.956, 2766.861
3109.885, 2747.399
3111.813, 2753.159
3113.741, 2761.803
3115.670, 2773.095
3117.598, 2788.365
3119.527, 2803.198
3121.455, 2809.754
3123.384, 2809.140
3125.312, 2794.543
3127.241, 2785.768
3129.169, 2810.582
3131.098, 2826.551
3133.026, 2800.706
3134.955, 2792.143
3136.883, 2829.804
3138.812, 2848.217
3140.740, 2820.832
3142.668, 2815.281
3144.597, 2833.042
3146.525, 2845.214
3148.454, 2851.043
3150.382, 2863.542
3152.311, 2878.731
3154.239, 2883.719
3156.168, 2883.626
3158.096, 2889.515
3160.025, 2890.780
3161.953, 2865.099
3163.882, 2850.759
3165.810, 2873.490
3167.739, 2897.775
3169.667, 2910.422
3171.595, 2921.732
3173.524, 2932.762
3175.452, 2943.195
3177.381, 2953.007
3179.309, 2963.163
3181.238, 2973.437
3183.166, 2985.366
3185.095, 2992.892
3187.023, 2968.154
3188.952, 2945.344
3190.880, 2985.522
3192.809, 3033.559
3194.737, 3053.043
3196.666, 3057.594
3198.594, 3041.499
3200.522, 3036.115
3202.451, 3050.449
3204.379, 3060.548
3206.308, 3061.268
3208.236, 3076.932
3210.165, 3108.166
3212.093, 3116.006
3214.022, 3108.429
3215.950, 3103.524
3217.879, 3106.759
3219.807, 3133.919
3221.736, 3163.894
3223.664, 3175.919
3225.593, 3188.915
3227.521, 3215.105
3229.449, 3238.002
3231.378, 3254.095
3233.306, 3265.288
3235.235, 3271.588
3237.163, 3279.390
3239.092, 3289.639
3241.020, 3299.410
3242.949, 3306.903
3244.877, 3298.755
3246.806, 3292.962
3248.734, 3320.999
3250.663, 3353.585
3252.591, 3368.013
3254.520, 3382.251
3256.448, 3407.528
3258.376, 3426.463
3260.305, 3437.124
3262.233, 3441.878
3264.162, 3440.349
3266.090, 3466.901
3268.019, 3510.328
3269.947, 3500.057
3271.876, 3470.953
3273.804, 3480.670
3275.733, 3502.378
3277.661, 3510.512
3279.590, 3521.651
3281.518, 3545.958
3283.447, 3570.926
3285.375, 3597.961
3287.303, 3605.676
3289.232, 3591.940
3291.160, 3594.937
3293.089, 3616.024
3295.017, 3671.385
3296.946, 3729.860
3298.874, 3727.379
3300.803, 3713.088
3302.731, 3735.071
3304.660, 3759.264
3306.588, 3770.146
3308.517, 3783.020
3310.445, 3800.453
3312.374, 3827.926
3314.302, 3865.134
3316.230, 3891.884
3318.159, 3908.578
3320.087, 3917.637
3322.016, 3922.547
3323.944, 3922.130
3325.873, 3931.231
3327.801, 3973.976
3329.730, 4007.353
3331.658, 4011.752
3333.587, 4029.981
3335.515, 4079.550
3337.444, 4096.942
3339.372, 4086.305
3341.301, 4124.949
3343.229, 4182.395
3345.157, 4171.819
3347.086, 4156.583
3349.014, 4219.473
3350.943, 4281.486
3352.871, 4294.500
3354.800, 4310.464
3356.728, 4341.197
3358.657, 4351.871
3360.585, 4338.597
3362.514, 4377.030
3364.442, 4445.742
3366.371, 4454.021
3368.299, 4447.133
3370.228, 4481.392
3372.156, 4525.034
3374.084, 4564.005
3376.013, 4593.914
3377.941, 4607.867
3379.870, 4623.812
3381.798, 4641.560
3383.727, 4686.118
3385.655, 4740.955
3387.584, 4737.846
3389.512, 4717.660
3391.441, 4743.417
3393.369, 4774.771
3395.298, 4781.694
3397.226, 4801.688
3399.155, 4844.950
3401.083, 4891.422
3403.011, 4938.288
3404.940, 4944.208
3406.868, 4928.659
3408.797, 4982.632
3410.725, 5052.193
3412.654, 5079.788
3414.582, 5087.330
3416.511, 5081.269
3418.439, 5076.540
3420.368, 5079.477
3422.296, 5072.359
3424.225, 5057.467
3426.153, 5091.000
3428.082, 5145.644
3430.010, 5150.218
3431.938, 5141.964
3433.867, 5162.757
3435.795, 5171.151
3437.724, 5124.708
3439.652, 5118.596
3441.581, 5166.468
3443.509, 5160.651
3445.438, 5107.945
3447.366, 5079.383
3449.295, 5061.604
3451.223, 5032.072
3453.152, 5003.957
3455.080, 4985.957
3457.009, 4973.067
3458.937, 4967.189
3460.865, 4947.470
3462.794, 4912.535
3464.722, 4860.469
3466.651, 4807.826
3468.579, 4797.858
3470.508, 4797.204
3472.436, 4763.929
3474.365, 4745.637
3476.293, 4779.234
3478.222, 4780.083
3480.150, 4740.015
3482.079, 4695.896
3484.007, 4654.895
3485.936, 4642.634
3487.864, 4634.938
3489.792, 4593.597
3491.721, 4559.806
3493.649, 4566.097
3495.578, 4560.433
3497.506, 4536.466
3499.435, 4502.033
3501.363, 4460.947
3503.292, 4429.989
3505.220, 4402.610
3507.149, 4363.384
3509.077, 4335.914
3511.006, 4344.432
3512.934, 4342.963
3514.863, 4322.127
3516.791, 4290.563
3518.719, 4250.936
3520.648, 4228.485
3522.576, 4207.524
3524.505, 4154.097
3526.433, 4114.913
3528.362, 4130.159
3530.290, 4113.525
3532.219, 4024.149
3534.147, 3969.156
3536.076, 3940.776
3538.004, 3902.235
3539.933, 3855.874
3541.861, 3791.309
3543.790, 3745.332
3545.718, 3754.764
3547.646, 3742.208
3549.575, 3693.989
3551.503, 3646.189
3553.432, 3605.514
3555.360, 3608.800
3557.289, 3608.971
3559.217, 3526.730
3561.146, 3458.709
3563.074, 3472.603
3565.003, 3464.815
3566.931, 3427.065
3568.860, 3373.164
3570.788, 3315.123
3572.717, 3292.314
3574.645, 3275.306
3576.573, 3234.436
3578.502, 3195.243
3580.430, 3164.162
3582.359, 3137.640
3584.287, 3114.749
3586.216, 3093.115
3588.144, 3075.534
3590.073, 3077.810
3592.001, 3070.632
3593.930, 3020.529
3595.858, 2983.464
3597.787, 2972.098
3599.715, 2951.953
3601.644, 2924.736
3603.572, 2915.276
3605.500, 2909.133
3607.429, 2891.152
3609.357, 2866.244
3611.286, 2834.051
3613.214, 2808.349
3615.143, 2791.747
3617.071, 2755.967
3619.000, 2716.772
3620.928, 2712.979
3622.857, 2712.399
3624.785, 2692.179
3626.714, 2672.162
3628.642, 2665.646
3630.571, 2624.003
3632.499, 2561.799
3634.427, 2541.748
3636.356, 2537.561
3638.284, 2519.812
3640.213, 2501.694
3642.141, 2486.639
3644.070, 2478.344
3645.998, 2475.092
3647.927, 2444.898
3649.855, 2406.624
3651.784, 2394.536
3653.712, 2386.659
3655.641, 2372.404
3657.569, 2354.182
3659.498, 2331.671
3661.426, 2331.998
3663.354, 2339.416
3665.283, 2301.291
3667.211, 2265.350
3669.140, 2270.410
3671.068, 2276.046
3672.997, 2272.713
3674.925, 2266.411
3676.854, 2256.870
3678.782, 2238.992
3680.711, 2224.664
3682.639, 2232.405
3684.568, 2230.837
3686.496, 2201.953
3688.425, 2197.886
3690.353, 2213.602
3692.281, 2201.420
3694.210, 2185.861
3696.138, 2202.164
3698.067, 2214.654
3699.995, 2203.042
3701.924, 2198.790
3703.852, 2199.913
3705.781, 2181.486
3707.709, 2158.562
3709.638, 2152.229
3711.566, 2152.953
3713.495, 2162.630
3715.423, 2161.248
3717.352, 2149.974
3719.280, 2153.351
3721.208, 2161.414
3723.137, 2162.030
3725.065, 2153.541
3726.994, 2126.240
3728.922, 2115.577
3730.851, 2121.293
3732.779, 2116.425
3734.708, 2106.640
3736.636, 2092.859
3738.565, 2093.880
3740.493, 2139.207
3742.422, 2141.111
3744.350, 2103.313
3746.279, 2101.598
3748.207, 2118.436
3750.135, 2135.819
3752.064, 2141.655
3753.992, 2123.928
3755.921, 2107.474
3757.849, 2095.653
3759.778, 2108.516
3761.706, 2121.514
3763.635, 2094.191
3765.563, 2071.901
3767.492, 2079.990
3769.420, 2073.778
3771.349, 2057.738
3773.277, 2059.101
3775.206, 2068.069
3777.134, 2076.560
3779.063, 2082.432
3780.991, 2083.253
3782.919, 2086.204
3784.848, 2091.419
3786.776, 2103.806
3788.705, 2110.495
3790.633, 2097.935
3792.562, 2088.316
3794.490, 2085.814
3796.419, 2105.425
3798.347, 2128.820
3800.276, 2105.140
3802.204, 2078.809
3804.133, 2073.134
3806.061, 2081.223
3807.990, 2102.426
3809.918, 2086.601
3811.846, 2059.994
3813.775, 2065.860
3815.703, 2073.968
3817.632, 2071.857
3819.560, 2073.534
3821.489, 2078.856
3823.417, 2077.105
3825.346, 2071.836
3827.274, 2062.658
3829.203, 2059.690
3831.131, 2067.062
3833.060, 2062.752
3834.988, 2053.248
3836.917, 2065.485
3838.845, 2072.550
3840.773, 2050.319
3842.702, 2041.020
3844.630, 2050.714
3846.559, 2046.369
3848.487, 2037.650
3850.416, 2037.314
3852.344, 2041.952
3854.273, 2050.880
3856.201, 2058.212
3858.130, 2063.668
3860.058, 2068.720
3861.987, 2069.877
3863.915, 2065.767
3865.844, 2049.788
3867.772, 2022.471
3869.700, 2041.281
3871.629, 2072.027
3873.557, 2040.614
3875.486, 2011.987
3877.414, 2019.812
3879.343, 2022.734
3881.271, 2021.576
3883.200, 2030.327
3885.128, 2038.575
3887.057, 2039.880
3888.985, 2031.751
3890.914, 2013.593
3892.842, 2012.620
3894.771, 2018.997
3896.699, 2015.418
3898.627, 2009.581
3900.556, 2002.035
3902.484, 2010.357
3904.413, 2028.811
3906.341, 2037.329
3908.270, 2030.137
3910.198, 1996.938
3912.127, 1985.751
3914.055, 2001.330
3915.984, 1992.331
3917.912, 1985.661
3919.841, 2025.033
3921.769, 2040.880
3923.698, 2016.701
3925.626, 2007.726
3927.554, 2006.649
3929.483, 2001.439
3931.411, 1995.464
3933.340, 1987.431
3935.268, 1982.085
3937.197, 1981.971
3939.125, 1997.946
3941.054, 2009.524
3942.982, 1994.080
3944.911, 1971.917
3946.839, 1951.380
3948.768, 1957.460
3950.696, 1974.046
3952.625, 1971.005
3954.553, 1967.614
3956.481, 1970.948
3958.410, 1966.706
3960.338, 1956.036
3962.267, 1968.181
3964.195, 1979.638
3966.124, 1975.253
3968.052, 1968.022
3969.981, 1958.480
3971.909, 1965.913
3973.838, 1963.276
3975.766, 1942.721
3977.695, 1935.489
3979.623, 1942.318
3981.552, 1961.033
3983.480, 1971.040
3985.408, 1957.921
3987.337, 1944.473
3989.265, 1935.540
3991.194, 1938.172
3993.122, 1949.214
3995.051, 1936.272
3996.979, 1929.713
3998.908, 1944.811
4000.836, 1940.278
4002.765, 1937.900
4004.693, 1946.929
4006.622, 1943.132
4008.550, 1931.437
4010.479, 1929.322
4012.407, 1926.686
4014.335, 1927.456
4016.264, 1931.975
4018.192, 1928.068
4020.121, 1929.796
4022.049, 1939.105
4023.978, 1940.180
4025.906, 1929.584
4027.835, 1921.020
4029.763, 1922.113
4031.692, 1924.547
4033.620, 1912.591
4035.549, 1909.473
4037.477, 1921.708
4039.406, 1928.520
4041.334, 1935.453
4043.262, 1929.158
4045.191, 1913.053
4047.119, 1913.392
4049.048, 1923.968
4050.976, 1925.800
4052.905, 1909.277
4054.833, 1905.742
4056.762, 1915.654
4058.690, 1914.669
4060.619, 1910.604
4062.547, 1911.919
4064.476, 1912.284
4066.404, 1898.250
4068.333, 1904.875
4070.261, 1924.119
4072.189, 1912.343
4074.118, 1901.494
4076.046, 1909.248
4077.975, 1910.437
4079.903, 1902.837
4081.832, 1899.750
4083.760, 1904.631
4085.689, 1922.095
4087.617, 1921.469
4089.546, 1903.536
4091.474, 1895.576
4093.403, 1892.803
4095.331, 1890.244
4097.260, 1888.467
4099.188, 1888.753
4101.117, 1907.567
4103.045, 1924.023
4104.974, 1909.687
4106.902, 1901.909
4108.831, 1906.315
4110.759, 1896.897
4112.688, 1879.662
4114.616, 1870.774
4116.544, 1868.315
4118.473, 1872.114
4120.401, 1874.890
4122.330, 1873.305
4124.258, 1881.318
4126.187, 1890.136
4128.115, 1894.015
4130.043, 1888.805
4131.972, 1878.667
4133.900, 1883.306
4135.829, 1885.778
4137.757, 1871.922
4139.686, 1872.863
4141.614, 1885.417
4143.543, 1896.913
4145.471, 1903.817
4147.400, 1897.499
4149.328, 1902.470
4151.257, 1905.526
4153.185, 1885.953
4155.114, 1883.786
4157.042, 1911.207
4158.971, 1921.137
4160.899, 1910.596
4162.828, 1888.448
4164.756, 1876.710
4166.685, 1875.848
4168.613, 1875.095
4170.542, 1877.978
4172.470, 1888.687
4174.398, 1898.940
4176.327, 1889.630
4178.255, 1877.696
4180.184, 1878.498
4182.112, 1887.875
4184.041, 1897.164
4185.969, 1911.218
4187.897, 1911.649
4189.826, 1891.807
4191.754, 1884.310
4193.683, 1887.534
4195.611, 1900.269
4197.540, 1906.940
4199.468, 1902.465
4201.397, 1917.304
4203.325, 1928.498
4205.254, 1911.969
4207.182, 1905.445
4209.111, 1909.536
4211.039, 1922.441
4212.968, 1928.018
4214.896, 1903.719
4216.825, 1889.648
4218.753, 1892.974
4220.682, 1904.493
4222.610, 1910.147
4224.539, 1904.169
4226.467, 1897.402
4228.396, 1891.177
4230.324, 1910.155
4232.252, 1927.177
4234.181, 1922.842
4236.109, 1910.563
4238.038, 1896.171
4239.966, 1905.822
4241.895, 1916.560
4243.823, 1913.890
4245.751, 1919.875
4247.680, 1931.568
4249.608, 1939.888
4251.537, 1938.815
4253.465, 1920.577
4255.394, 1917.443
4257.322, 1924.468
4259.251, 1924.865
4261.179, 1938.800
4263.108, 1982.024
4265.036, 1976.745
4266.965, 1947.222
4268.893, 1925.244
4270.822, 1921.225
4272.750, 1942.049
4274.679, 1936.018
4276.607, 1919.481
4278.536, 1902.733
4280.464, 1908.358
4282.393, 1938.924
4284.321, 1977.443
4286.250, 1994.527
4288.178, 1949.150
4290.106, 1932.659
4292.035, 1948.219
4293.963, 1953.470
4295.892, 1956.085
4297.820, 1962.127
4299.749, 1948.580
4301.677, 1928.501
4303.605, 1954.738
4305.534, 1969.661
4307.462, 1948.298
4309.391, 1959.589
4311.319, 1976.820
4313.248, 1933.364
4315.176, 1937.529
4317.105, 2010.260
4319.033, 1996.319
4320.962, 1957.188
4322.890, 1952.870
4324.819, 1957.062
4326.747, 1965.075
4328.676, 1984.091
4330.604, 1997.509
4332.533, 1993.863
4334.461, 1997.811
4336.390, 2005.610
4338.318, 1999.202
4340.247, 1991.307
4342.175, 1985.975
4344.104, 1986.390
4346.032, 1987.576
4347.960, 1980.005
4349.889, 1981.439
4351.817, 1993.544
4353.746, 1992.829
4355.674, 1988.972
4357.603, 1992.276
4359.531, 1982.959
4361.459, 1968.508
4363.388, 1982.984
4365.316, 2002.757
4367.245, 2020.688
4369.173, 2021.673
4371.102, 2015.329
4373.030, 2017.849
4374.959, 2017.475
4376.887, 2012.017
4378.816, 2012.802
4380.744, 2009.424
4382.673, 1989.954
4384.601, 1983.827
4386.530, 1989.784
4388.458, 1997.145
4390.387, 2003.755
4392.315, 2008.692
4394.244, 2013.340
4396.172, 2015.675
4398.101, 2012.826
4400.029, 2006.706
4401.958, 1999.945
4403.886, 2005.037
4405.814, 2012.583
4407.743, 2015.423
4409.671, 2032.704
4411.600, 2047.065
4413.528, 2009.309
4415.457, 1987.627
4417.385, 2001.609
4419.313, 2000.919
4421.242, 1998.600
4423.170, 2008.927
4425.099, 2012.546
4427.027, 2010.876
4428.956, 2016.233
4430.884, 2017.788
4432.813, 2011.774
4434.741, 2013.028
4436.670, 2013.975
4438.598, 2002.135
4440.527, 2000.851
4442.455, 2009.041
4444.384, 2012.234
4446.312, 2010.454
4448.241, 2002.484
4450.169, 2016.315
4452.098, 2031.531
4454.026, 2009.307
4455.955, 2009.359
4457.883, 2032.319
4459.812, 2013.623
4461.740, 1991.015
4463.668, 1982.848
4465.597, 1987.496
4467.525, 2000.043
4469.454, 2020.541
4471.382, 2017.626
4473.311, 1996.099
4475.239, 2026.210
4477.167, 2043.289
4479.096, 2011.812
4481.024, 2007.820
4482.953, 2018.148
4484.881, 2022.548
4486.810, 2006.100
4488.738, 1975.648
4490.667, 2001.258
4492.595, 2020.942
4494.524, 1998.427
4496.452, 2005.486
4498.381, 2019.812
4500.309, 2007.349
4502.238, 2001.485
4504.166, 2002.330
4506.095, 1979.284
4508.023, 1977.417
4509.952, 2016.494
4511.880, 2001.443
4513.809, 1973.254
4515.737, 1984.852
4517.666, 1993.332
4519.594, 1994.056
4521.522, 1979.479
4523.451, 1976.917
4525.379, 1994.694
4527.308, 2010.838
4529.236, 2018.444
4531.165, 2012.937
4533.093, 1985.691
4535.021, 1962.126
4536.950, 2013.898
4538.878, 2017.905
4540.807, 1957.897
4542.735, 1966.776
4544.664, 1985.455
4546.592, 1978.319
4548.521, 1979.412
4550.449, 1985.611
4552.378, 1997.486
4554.306, 1981.380
4556.235, 1950.624
4558.163, 1970.670
4560.092, 1983.414
4562.020, 1968.997
4563.949, 1944.323
4565.877, 1935.729
4567.806, 1976.842
4569.734, 1987.041
4571.663, 1976.420
4573.591, 1964.349
4575.520, 1972.617
4577.448, 1993.512
4579.376, 1966.737
4581.305, 1943.735
4583.233, 1948.127
4585.162, 1934.927
4587.090, 1917.983
4589.019, 1906.001
4590.947, 1923.904
4592.875, 1953.795
4594.804, 1951.343
4596.732, 1965.512
4598.661, 1992.112
4600.589, 1947.564
4602.518, 1902.383
4604.446, 1887.897
4606.375, 1927.735
4608.303, 1963.243
4610.232, 1926.848
4612.160, 1924.914
4614.089, 1943.312
4616.017, 1940.313
4617.946, 1936.489
4619.874, 1936.817
4621.803, 1949.161
4623.731, 1954.521
4625.660, 1943.577
4627.588, 1950.134
4629.517, 1950.251
4631.445, 1921.246
4633.374, 1921.193
4635.302, 1935.290
4637.230, 1939.797
4639.159, 1939.747
4641.087, 1934.788
4643.016, 1915.847
4644.944, 1909.947
4646.873, 1923.283
4648.801, 1922.137
4650.729, 1919.897
4652.658, 1923.104
4654.586, 1929.273
4656.515, 1932.760
4658.443, 1926.266
4660.372, 1919.600
4662.300, 1917.920
4664.229, 1938.331
4666.157, 1935.053
4668.086, 1912.128
4670.014, 1912.466
4671.943, 1915.906
4673.871, 1917.202
4675.800, 1932.354
4677.728, 1932.399
4679.657, 1894.459
4681.585, 1874.631
4683.514, 1878.925
4685.442, 1918.934
4687.371, 1928.456
4689.299, 1918.520
4691.228, 1908.149
4693.156, 1916.068
4695.084, 1933.525
4697.013, 1922.343
4698.941, 1925.674
4700.870, 1944.414
4702.798, 1910.669
4704.727, 1888.594
4706.655, 1903.702
4708.583, 1889.758
4710.512, 1883.411
4712.440, 1912.340
4714.369, 1931.042
4716.297, 1930.761
4718.226, 1897.543
4720.154, 1888.552
4722.083, 1897.659
4724.011, 1912.538
4725.940, 1912.306
4727.868, 1902.945
4729.797, 1911.757
4731.725, 1914.658
4733.654, 1906.897
4735.582, 1890.866
4737.511, 1867.142
4739.439, 1837.045
4741.368, 1865.776
4743.296, 1893.268
4745.225, 1892.019
4747.153, 1890.594
4749.082, 1901.240
4751.010, 1946.667
4752.938, 1945.341
4754.867, 1919.760
4756.795, 1889.202
4758.724, 1897.784
4760.652, 1917.148
4762.581, 1890.356
4764.509, 1888.280
4766.438, 1904.446
4768.366, 1904.593
4770.294, 1892.277
4772.223, 1878.348
4774.151, 1908.383
4776.080, 1914.344
4778.008, 1888.758
4779.937, 1926.510
4781.865, 1939.203
4783.794, 1903.080
4785.722, 1898.682
4787.651, 1903.913
4789.579, 1907.216
4791.508, 1920.063
4793.436, 1920.019
4795.365, 1890.738
4797.293, 1914.646
4799.222, 1943.298
4801.150, 1934.599
4803.079, 1910.947
4805.007, 1895.186
4806.936, 1915.379
4808.864, 1907.058
4810.792, 1893.269
4812.721, 1921.732
4814.649, 1915.374
4816.578, 1892.583
4818.506, 1899.921
4820.435, 1900.431
4822.363, 1895.594
4824.292, 1901.825
4826.220, 1902.232
4828.148, 1895.390
4830.077, 1883.474
4832.005, 1870.455
4833.934, 1864.427
4835.862, 1900.431
4837.791, 1919.803
4839.719, 1914.781
4841.648, 1928.777
4843.576, 1928.768
4845.505, 1910.942
4847.433, 1900.591
4849.362, 1896.245
4851.290, 1897.269
4853.219, 1909.083
4855.147, 1916.616
4857.076, 1916.140
4859.004, 1925.032
4860.933, 1925.579
4862.861, 1909.599
4864.790, 1880.932
4866.718, 1867.790
4868.646, 1880.542
4870.575, 1889.734
4872.503, 1893.910
4874.432, 1892.648
4876.360, 1894.567
4878.289, 1894.078
4880.217, 1888.378
4882.146, 1898.984
4884.074, 1910.345
4886.002, 1913.219
4887.931, 1892.456
4889.859, 1875.139
4891.788, 1878.540
4893.716, 1868.630
4895.645, 1864.194
4897.573, 1877.703
4899.502, 1917.667
4901.430, 1932.829
4903.359, 1874.636
4905.287, 1877.203
4907.216, 1891.683
4909.144, 1886.301
4911.073, 1861.224
4913.001, 1849.690
4914.930, 1883.069
4916.858, 1878.150
4918.787, 1865.092
4920.715, 1862.630
4922.644, 1881.633
4924.572, 1885.078
4926.500, 1844.869
4928.429, 1877.167
4930.357, 1900.974
4932.286, 1866.817
4934.214, 1833.390
4936.143, 1839.434
4938.071, 1902.529
4940.000, 1885.149
4941.928, 1862.313
4943.856, 1879.677
4945.785, 1914.009
4947.713, 1927.393
4949.642, 1904.774
4951.570, 1873.029
4953.499, 1858.651
4955.427, 1872.766
4957.356, 1841.249
4959.284, 1829.732
4961.213, 1858.696
4963.141, 1873.102
4965.070, 1871.753
4966.998, 1858.351
4968.927, 1856.976
4970.855, 1858.698
4972.784, 1862.702
4974.712, 1892.031
4976.641, 1917.527
4978.569, 1926.683
4980.498, 1893.469
4982.426, 1870.358
4984.354, 1865.191
4986.283, 1860.197
4988.211, 1868.247
4990.140, 1879.628
4992.068, 1858.615
4993.997, 1853.981
4995.925, 1860.155
4997.854, 1850.695
4999.782, 1854.339
5001.710, 1860.075
5003.639, 1843.791
5005.567, 1828.798
5007.496, 1826.085
5009.424, 1850.067
5011.353, 1856.726
5013.281, 1858.482
5015.210, 1872.192
5017.138, 1873.925
5019.067, 1862.135
5020.995, 1836.959
5022.924, 1837.406
5024.852, 1844.832
5026.781, 1847.466
5028.709, 1851.898
5030.638, 1835.248
5032.566, 1795.463
5034.495, 1832.433
5036.423, 1866.887
5038.352, 1869.973
5040.280, 1810.256
5042.208, 1795.996
5044.137, 1834.979
5046.065, 1873.357
5047.994, 1883.587
5049.922, 1868.353
5051.851, 1833.758
5053.779, 1833.442
5055.708, 1844.271
5057.636, 1820.434
5059.564, 1818.154
5061.493, 1829.627
5063.421, 1845.207
5065.350, 1822.777
5067.278, 1806.715
5069.207, 1828.391
5071.135, 1831.985
5073.064, 1825.306
5074.992, 1814.191
5076.921, 1807.962
5078.849, 1823.517
5080.778, 1850.290
5082.706, 1813.453
5084.635, 1798.956
5086.563, 1808.630
5088.492, 1794.729
5090.420, 1800.316
5092.349, 1816.791
5094.277, 1823.184
5096.206, 1814.959
5098.134, 1807.291
5100.063, 1815.610
5101.991, 1818.389
5103.919, 1814.908
5105.848, 1805.524
5107.776, 1795.847
5109.705, 1791.572
5111.633, 1794.450
5113.562, 1806.802
5115.490, 1803.997
5117.418, 1789.656
5119.347, 1795.453
5121.275, 1800.656
5123.204, 1793.505
5125.132, 1754.741
5127.061, 1750.449
5128.989, 1763.039
5130.918, 1770.322
5132.846, 1775.144
5134.775, 1781.368
5136.703, 1791.093
5138.632, 1787.226
5140.560, 1764.818
5142.489, 1732.176
5144.417, 1733.486
5146.346, 1736.564
5148.274, 1737.490
5150.203, 1741.646
5152.131, 1745.961
5154.060, 1746.071
5155.988, 1736.187
5157.917, 1738.815
5159.845, 1740.265
5161.773, 1732.255
5163.702, 1719.678
5165.630, 1712.344
5167.559, 1714.831
5169.487, 1738.311
5171.416, 1754.705
5173.344, 1759.281
5175.272, 1755.732
5177.201, 1729.289
5179.129, 1708.260
5181.058, 1721.802
5182.986, 1730.395
5184.915, 1731.616
5186.843, 1726.128
5188.772, 1737.733
5190.700, 1729.706
5192.629, 1702.051
5194.557, 1681.977
5196.486, 1679.936
5198.414, 1690.305
5200.343, 1707.085
5202.271, 1708.539
5204.200, 1706.982
5206.128, 1711.260
5208.057, 1731.111
5209.985, 1728.934
5211.914, 1706.150
5213.842, 1721.937
5215.771, 1722.906
5217.699, 1711.883
5219.627, 1702.807
5221.556, 1727.313
5223.484, 1743.914
5225.413, 1721.005
5227.341, 1694.985
5229.270, 1711.083
5231.198, 1756.255
5233.126, 1703.547
5235.055, 1688.991
5236.983, 1704.421
5238.912, 1697.479
5240.840, 1687.150
5242.769, 1680.924
5244.697, 1682.714
5246.626, 1690.394
5248.554, 1689.013
5250.483, 1677.722
5252.411, 1666.326
5254.340, 1676.900
5256.268, 1696.219
5258.197, 1705.026
5260.125, 1688.175
5262.054, 1675.922
5263.982, 1682.819
5265.911, 1656.671
5267.839, 1666.670
5269.768, 1698.698
5271.696, 1653.437
5273.625, 1683.503
5275.553, 1724.356
5277.481, 1685.968
5279.410, 1683.642
5281.338, 1690.417
5283.267, 1694.843
5285.195, 1705.150
5287.124, 1696.735
5289.052, 1685.182
5290.980, 1706.919
5292.909, 1688.259
5294.837, 1671.764
5296.766, 1685.689
5298.694, 1694.681
5300.623, 1685.431
5302.551, 1664.806
5304.480, 1653.885
5306.408, 1659.826
5308.337, 1667.302
5310.265, 1662.789
5312.194, 1670.691
5314.122, 1670.761
5316.051, 1663.191
5317.979, 1682.826
5319.908, 1684.387
5321.836, 1672.385
5323.765, 1659.186
5325.693, 1655.907
5327.622, 1668.410
5329.550, 1690.215
5331.479, 1676.705
5333.407, 1686.187
5335.335, 1698.762
5337.264, 1670.713
5339.192, 1644.527
5341.121, 1640.845
5343.049, 1662.808
5344.978, 1687.527
5346.906, 1670.074
5348.834, 1646.047
5350.763, 1685.683
5352.691, 1651.108
5354.620, 1624.709
5356.548, 1644.410
5358.477, 1618.744
5360.405, 1643.908
5362.334, 1684.669
5364.262, 1661.465
5366.191, 1670.992
5368.119, 1681.057
5370.048, 1673.857
5371.976, 1662.730
5373.905, 1678.077
5375.833, 1691.065
5377.762, 1641.377
5379.690, 1635.262
5381.619, 1634.282
5383.547, 1628.328
5385.476, 1675.892
5387.404, 1674.508
5389.333, 1650.155
5391.261, 1651.742
5393.189, 1672.842
5395.118, 1684.210
5397.046, 1678.868
5398.975, 1679.708
5400.903, 1661.983
5402.832, 1646.725
5404.760, 1655.723
5406.688, 1660.493
5408.617, 1655.062
5410.545, 1648.013
5412.474, 1669.734
5414.402, 1652.333
5416.331, 1635.347
5418.259, 1650.339
5420.188, 1662.118
5422.116, 1669.322
5424.045, 1673.236
5425.973, 1677.109
5427.902, 1666.231
5429.830, 1655.444
5431.759, 1654.856
5433.687, 1680.819
5435.616, 1678.969
5437.544, 1669.933
5439.473, 1684.025
5441.401, 1700.673
5443.330, 1676.220
5445.258, 1627.822
5447.187, 1646.731
5449.115, 1631.672
5451.043, 1602.111
5452.972, 1580.573
5454.900, 1580.719
5456.829, 1611.659
5458.757, 1654.573
5460.686, 1685.900
5462.614, 1689.302
5464.542, 1661.788
5466.471, 1623.102
5468.399, 1640.259
5470.328, 1669.251
5472.256, 1679.468
5474.185, 1656.842
5476.113, 1653.838
5478.042, 1646.761
5479.970, 1655.750
5481.899, 1715.160
5483.827, 1704.093
5485.756, 1688.875
5487.684, 1689.643
5489.613, 1669.063
5491.541, 1669.383
5493.470, 1674.771
5495.398, 1671.786
5497.327, 1654.485
5499.255, 1657.850
5501.184, 1676.466
5503.112, 1695.460
5505.041, 1676.286
5506.969, 1676.222
5508.897, 1687.436
5510.826, 1643.885
5512.754, 1662.054
5514.683, 1676.788
5516.611, 1656.680
5518.540, 1628.942
5520.468, 1658.228
5522.396, 1697.378
5524.325, 1700.718
5526.253, 1681.546
5528.182, 1671.254
5530.110, 1680.351
5532.039, 1711.540
5533.967, 1688.918
5535.896, 1668.051
5537.824, 1665.685
5539.753, 1674.638
5541.681, 1653.636
5543.610, 1666.385
5545.538, 1720.331
5547.467, 1699.540
5549.395, 1686.154
5551.324, 1691.108
5553.252, 1706.798
5555.181, 1658.937
5557.109, 1666.566
5559.038, 1687.521
5560.966, 1660.983
5562.895, 1668.263
5564.823, 1670.480
5566.751, 1666.425
5568.680, 1670.546
5570.608, 1687.993
5572.537, 1691.313
5574.465, 1682.658
5576.394, 1692.080
5578.322, 1690.954
5580.250, 1685.013
5582.179, 1681.230
5584.107, 1689.845
5586.036, 1694.841
5587.964, 1689.320
5589.893, 1675.144
5591.821, 1665.544
5593.750, 1703.999
5595.678, 1725.375
5597.607, 1687.620
5599.535, 1667.608
5601.464, 1682.363
5603.392, 1694.228
5605.321, 1667.849
5607.249, 1643.544
5609.178, 1653.391
5611.106, 1684.502
5613.035, 1713.316
5614.963, 1702.735
5616.892, 1702.303
5618.820, 1704.201
5620.749, 1682.739
5622.677, 1659.544
5624.605, 1651.303
5626.534, 1663.179
5628.462, 1698.332
5630.391, 1697.232
5632.319, 1701.406
5634.248, 1713.081
5636.176, 1703.996
5638.104, 1712.778
5640.033, 1718.501
5641.961, 1713.944
5643.890, 1700.443
5645.818, 1682.005
5647.747, 1698.569
5649.675, 1727.930
5651.604, 1695.252
5653.532, 1687.221
5655.461, 1697.951
5657.389, 1714.946
5659.318, 1724.707
5661.246, 1740.822
5663.175, 1727.796
5665.103, 1694.357
5667.032, 1699.296
5668.960, 1722.990
5670.889, 1739.010
5672.817, 1743.049
5674.746, 1754.884
5676.674, 1720.603
5678.603, 1692.881
5680.531, 1689.776
5682.459, 1700.483
5684.388, 1706.827
5686.316, 1703.859
5688.245, 1697.710
5690.173, 1702.200
5692.102, 1704.520
5694.030, 1703.938
5695.958, 1706.601
5697.887, 1726.134
5699.815, 1706.516
5701.744, 1698.296
5703.672, 1707.523
5705.601, 1716.119
5707.529, 1689.821
5709.458, 1694.290
5711.386, 1710.140
5713.315, 1679.335
5715.243, 1704.847
5717.172, 1705.583
5719.100, 1697.234
5721.029, 1719.669
5722.957, 1688.035
5724.886, 1686.747
5726.814, 1710.502
5728.743, 1732.992
5730.671, 1748.937
5732.600, 1724.414
5734.528, 1713.423
5736.457, 1746.760
5738.385, 1717.353
5740.313, 1678.929
5742.242, 1674.805
5744.170, 1712.375
5746.099, 1726.240
5748.027, 1724.160
5749.956, 1714.379
5751.884, 1708.028
5753.813, 1731.494
5755.741, 1721.902
5757.669, 1721.151
5759.598, 1729.245
5761.526, 1710.990
5763.455, 1699.048
5765.383, 1711.060
5767.312, 1729.038
5769.240, 1726.964
5771.169, 1754.449
5773.097, 1738.525
5775.026, 1707.012
5776.954, 1698.919
5778.883, 1691.178
5780.811, 1702.576
5782.740, 1714.772
5784.668, 1712.891
5786.597, 1684.935
5788.525, 1701.891
5790.454, 1711.953
5792.382, 1708.298
5794.311, 1756.790
5796.239, 1739.190
5798.167, 1732.074
5800.096, 1744.523
5802.024, 1748.924
5803.953, 1724.887
5805.881, 1735.263
5807.810, 1756.422
5809.738, 1753.955
5811.667, 1731.661
5813.595, 1727.311
5815.523, 1733.771
5817.452, 1737.477
5819.380, 1723.533
5821.309, 1735.437
5823.237, 1724.541
5825.166, 1696.413
5827.094, 1690.047
5829.023, 1707.886
5830.951, 1712.116
5832.880, 1719.989
5834.808, 1744.757
5836.737, 1698.755
5838.665, 1702.516
5840.594, 1695.781
5842.522, 1668.834
5844.451, 1738.627
5846.379, 1737.040
5848.308, 1753.587
5850.236, 1770.365
5852.165, 1707.604
5854.093, 1711.241
5856.021, 1705.963
5857.950, 1707.967
5859.878, 1731.454
5861.807, 1731.598
5863.735, 1712.534
5865.664, 1705.260
5867.592, 1717.844
5869.521, 1741.151
5871.449, 1719.441
5873.377, 1717.164
5875.306, 1733.414
5877.234, 1747.963
5879.163, 1739.848
5881.091, 1738.205
5883.020, 1746.726
5884.948, 1745.638
5886.877, 1701.891
5888.805, 1727.288
5890.734, 1738.415
5892.662, 1737.533
5894.591, 1744.006
5896.519, 1720.658
5898.448, 1725.568
5900.376, 1726.082
5902.305, 1720.119
5904.233, 1744.739
5906.162, 1731.036
5908.090, 1719.768
5910.019, 1723.433
5911.947, 1738.664
5913.875, 1745.898
5915.804, 1741.155
5917.732, 1733.111
5919.661, 1719.150
5921.589, 1682.596
5923.518, 1688.676
5925.446, 1704.774
5927.375, 1733.666
5929.303, 1770.007
5931.231, 1761.819
5933.160, 1749.980
5935.088, 1747.254
5937.017, 1741.135
5938.945, 1713.900
5940.874, 1734.531
5942.802, 1736.733
5944.731, 1738.946
5946.659, 1750.050
5948.588, 1753.316
5950.516, 1750.577
5952.445, 1755.079
5954.373, 1737.881
5956.302, 1695.589
5958.230, 1737.187
5960.159, 1725.225
5962.087, 1733.827
5964.016, 1752.553
5965.944, 1733.088
5967.873, 1744.214
5969.801, 1758.846
5971.729, 1756.490
5973.658, 1740.184
5975.586, 1732.288
5977.515, 1766.791
5979.443, 1753.420
5981.372, 1737.927
5983.300, 1753.547
5985.229, 1748.830
5987.157, 1771.328
5989.085, 1773.539
5991.014, 1756.651
5992.942, 1742.424
5994.871, 1757.031
5996.799, 1763.163
5998.728, 1778.898
6000.656, 1776.046
6002.585, 1724.403
6004.513, 1761.218
6006.442, 1757.677
6008.370, 1738.508
6010.299, 1737.228
6012.227, 1765.691
6014.156, 1754.694
6016.084, 1760.068
6018.013, 1760.949
6019.941, 1753.798
6021.870, 1771.231
6023.798, 1762.091
6025.727, 1752.604
6027.655, 1760.503
6029.583, 1777.229
6031.512, 1755.432
6033.440, 1793.800
6035.369, 1791.829
6037.297, 1776.555
6039.226, 1781.897
6041.154, 1782.895
6043.083, 1767.892
6045.011, 1791.261
6046.939, 1805.673
6048.868, 1776.723
6050.796, 1761.709
6052.725, 1785.646
6054.653, 1822.260
6056.582, 1837.970
6058.510, 1824.275
6060.439, 1837.038
6062.367, 1816.142
6064.296, 1803.784
6066.224, 1791.607
6068.153, 1768.123
6070.081, 1769.272
6072.010, 1774.264
6073.938, 1786.836
6075.867, 1795.207
6077.795, 1787.940
6079.724, 1754.474
6081.652, 1752.332
6083.581, 1765.683
6085.509, 1780.115
6087.438, 1789.321
6089.366, 1793.493
6091.294, 1811.503
6093.223, 1786.192
6095.151, 1766.529
6097.080, 1780.413
6099.008, 1776.054
6100.937, 1807.732
6102.865, 1779.888
6104.793, 1762.082
6106.722, 1779.041
6108.650, 1756.974
6110.579, 1770.500
6112.507, 1804.958
6114.436, 1803.985
6116.364, 1769.499
6118.293, 1751.995
6120.221, 1749.929
6122.150, 1769.415
6124.078, 1773.743
6126.007, 1774.891
6127.935, 1800.210
6129.864, 1783.735
6131.792, 1764.828
6133.721, 1772.124
6135.649, 1770.896
6137.578, 1740.435
6139.506, 1770.842
6141.435, 1770.442
6143.363, 1774.437
6145.292, 1769.313
6147.220, 1765.815
6149.148, 1831.723
6151.077, 1767.734
6153.005, 1764.849
6154.934, 1764.786
6156.862, 1749.975
6158.791, 1771.530
6160.719, 1786.104
6162.647, 1765.584
6164.576, 1785.035
6166.504, 1794.683
6168.433, 1743.191
6170.361, 1752.140
6172.290, 1786.969
6174.218, 1789.453
6176.147, 1776.245
6178.075, 1765.678
6180.004, 1751.351
6181.932, 1782.515
6183.861, 1795.162
6185.789, 1797.039
6187.718, 1789.451
6189.646, 1773.683
6191.575, 1810.514
6193.503, 1802.339
6195.432, 1789.406
6197.360, 1791.519
6199.289, 1792.992
6201.217, 1755.180
6203.146, 1771.064
6205.074, 1812.507
6207.002, 1792.150
6208.931, 1748.807
6210.859, 1768.310
6212.788, 1774.712
6214.716, 1810.785
6216.645, 1817.474
6218.573, 1791.923
6220.501, 1776.684
6222.430, 1836.667
6224.358, 1806.350
6226.287, 1796.496
6228.215, 1790.112
6230.144, 1792.154
6232.072, 1816.874
6234.001, 1838.645
6235.929, 1790.438
6237.858, 1830.723
6239.786, 1838.272
6241.715, 1789.998
6243.643, 1789.780
6245.572, 1806.747
6247.500, 1791.040
6249.429, 1772.765
6251.357, 1781.127
6253.286, 1803.882
6255.214, 1789.064
6257.143, 1776.036
6259.071, 1800.245
6261.000, 1820.039
6262.928, 1822.622
6264.856, 1818.082
6266.785, 1817.083
6268.713, 1797.535
6270.642, 1797.677
6272.570, 1803.497
6274.499, 1795.881
6276.427, 1782.245
6278.355, 1819.017
6280.284, 1815.036
6282.212, 1822.150
6284.141, 1831.208
6286.069, 1833.667
6287.998, 1833.658
6289.926, 1829.511
6291.855, 1816.406
6293.783, 1792.482
6295.712, 1788.530
6297.640, 1804.298
6299.569, 1816.523
6301.497, 1834.586
6303.426, 1820.337
6305.354, 1811.267
6307.283, 1799.029
6309.211, 1804.867
6311.140, 1859.074
6313.068, 1799.989
6314.997, 1794.649
6316.925, 1792.480
6318.854, 1797.896
6320.782, 1817.339
6322.710, 1833.357
6324.639, 1784.915
6326.567, 1828.736
6328.496, 1828.786
6330.424, 1812.573
6332.353, 1801.913
6334.281, 1788.597
6336.209, 1800.233
6338.138, 1823.550
6340.066, 1808.261
6341.995, 1816.386
6343.923, 1828.170
6345.852, 1803.068
6347.780, 1803.810
6349.709, 1800.789
6351.637, 1810.182
6353.566, 1812.719
6355.494, 1824.100
6357.423, 1842.927
6359.351, 1805.267
6361.280, 1835.910
6363.208, 1812.750
6365.137, 1797.521
6367.065, 1791.366
6368.994, 1792.607
6370.922, 1821.590
6372.851, 1804.262
6374.779, 1834.177
6376.708, 1844.425
6378.636, 1824.521
6380.564, 1812.617
6382.493, 1830.024
6384.421, 1820.837
6386.350, 1812.369
6388.278, 1836.153
6390.207, 1850.282
6392.135, 1839.293
6394.063, 1819.276
6395.992, 1817.292
6397.920, 1832.980
6399.849, 1828.593
6401.777, 1803.904
6403.706, 1797.983
6405.634, 1811.228
6407.563, 1820.454
6409.491, 1848.299
6411.420, 1867.226
6413.348, 1842.359
6415.277, 1825.249
6417.205, 1846.291
6419.134, 1863.232
6421.062, 1812.466
6422.991, 1825.083
6424.919, 1800.620
6426.848, 1800.769
6428.776, 1809.008
6430.705, 1826.868
6432.633, 1853.736
6434.562, 1840.159
6436.490, 1816.582
6438.418, 1828.605
6440.347, 1848.218
6442.275, 1839.427
6444.204, 1812.269
6446.132, 1801.555
6448.061, 1830.500
6449.989, 1812.756
6451.917, 1841.971
6453.846, 1811.554
6455.774, 1816.060
6457.703, 1864.604
6459.631, 1849.350
6461.560, 1807.402
6463.488, 1800.031
6465.417, 1797.594
6467.345, 1830.622
6469.274, 1845.753
6471.202, 1823.779
6473.131, 1810.144
6475.059, 1811.573
6476.988, 1847.168
6478.916, 1833.737
6480.845, 1850.177
6482.773, 1846.451
6484.702, 1806.685
6486.630, 1799.341
6488.559, 1848.112
6490.487, 1850.327
6492.416, 1816.975
6494.344, 1798.119
6496.272, 1824.534
6498.201, 1838.675
6500.129, 1796.741
6502.058, 1834.241
6503.986, 1841.793
6505.915, 1812.727
6507.843, 1827.117
6509.771, 1814.108
6511.700, 1771.649
6513.628, 1761.975
6515.557, 1799.642
6517.485, 1788.508
6519.414, 1836.193
6521.342, 1826.254
6523.271, 1827.319
6525.199, 1831.942
6527.128, 1808.735
6529.056, 1791.076
6530.985, 1784.563
6532.913, 1753.389
6534.842, 1789.891
6536.770, 1811.097
6538.699, 1804.487
6540.627, 1800.749
6542.556, 1808.383
6544.484, 1791.934
6546.413, 1818.666
6548.341, 1801.871
6550.270, 1781.894
6552.198, 1792.684
6554.126, 1803.223
6556.055, 1791.094
##END=



