##NAMES=Scottyite
##RRUFFID=R120077
##IDEAL CHEMISTRY=BaCu_2_Si_2_O_7_
##LOCALITY=Wessels mine, Kalahari manganese field, Northern Cape Province, South Africa
##OWNER=RRUFF
##SOURCE=William W. Pinch and Marcus Origlieri
##DESCRIPTION=Blue massive, associated with R120019 wesselsite and R120057 lavinskyite
##STATUS=The identification of this mineral is confirmed by single-crystal X-ray diffraction and chemical analysis
##URL=https://www.rruff.net/odr/rruff_sample/R120077
##MEASURED CHEMISTRY=Ba_1.00_Sr_0.01_Na_0.01_Cu_2.04_Si_1.97_O_7_ ; (Scottyite is light grey material in image, associated with dark grey R120057 lavinskyite, and medium gray R120019 wesselsite
##DIFFRACTION SAMPLE DESCRIPTION=Single crystal, powder profile is calculated
##CELL PARAMETERS=a: 6.8556 b: 13.1725 c: 6.8901 alpha: 90 beta: 90 gamma: 90 volume: 622.21 crystal system: orthorhombic
##FILETYPE=Raman Processed
##RAMAN WAVELENGTH=780

83.17554, 798.9840
85.10400, 828.2166
87.03247, 991.4211
88.96094, 1155.141
90.88940, 1325.436
92.81787, 1485.364
94.74634, 1586.534
96.67480, 1555.559
98.60327, 1520.917
100.5317, 1494.131
102.4602, 1481.691
104.3887, 1479.099
106.3171, 1490.122
108.2456, 1510.027
110.1741, 1545.123
112.1025, 1596.842
114.0310, 1664.356
115.9595, 1781.806
117.8879, 1981.192
119.8164, 2142.967
121.7449, 2249.529
123.6733, 2280.351
125.6018, 2177.435
127.5303, 1942.059
129.4587, 1768.631
131.3872, 1654.745
133.3157, 1605.277
135.2441, 1639.470
137.1726, 1723.388
139.1011, 1847.919
141.0295, 2009.016
142.9580, 2161.554
144.8865, 2304.367
146.8149, 2442.653
148.7434, 2552.935
150.6719, 2683.208
152.6003, 2875.415
154.5288, 3115.589
156.4573, 3355.480
158.3857, 3607.096
160.3142, 3791.902
162.2427, 3882.589
164.1711, 3906.067
166.0996, 3885.224
168.0281, 3797.176
169.9565, 3589.349
171.8850, 3260.331
173.8135, 2894.484
175.7419, 2430.364
177.6704, 2026.010
179.5989, 1731.290
181.5273, 1527.118
183.4558, 1400.458
185.3843, 1343.496
187.3127, 1299.722
189.2412, 1271.047
191.1697, 1240.472
193.0981, 1200.149
195.0266, 1159.487
196.9551, 1125.255
198.8835, 1097.990
200.8120, 1082.843
202.7405, 1084.308
204.6689, 1089.057
206.5974, 1094.400
208.5259, 1102.817
210.4543, 1119.419
212.3828, 1138.852
214.3113, 1152.876
216.2397, 1161.798
218.1682, 1161.822
220.0967, 1148.473
222.0251, 1132.500
223.9536, 1114.301
225.8821, 1097.162
227.8105, 1083.498
229.7390, 1073.371
231.6675, 1067.441
233.5959, 1065.674
235.5244, 1068.552
237.4529, 1079.821
239.3813, 1092.074
241.3098, 1101.702
243.2383, 1108.876
245.1667, 1113.332
247.0952, 1113.535
249.0237, 1115.396
250.9521, 1118.272
252.8806, 1123.604
254.8091, 1130.033
256.7375, 1141.013
258.6660, 1159.041
260.5945, 1184.045
262.5229, 1216.068
264.4514, 1257.781
266.3799, 1300.198
268.3083, 1350.261
270.2368, 1389.248
272.1653, 1407.709
274.0938, 1409.804
276.0222, 1395.290
277.9507, 1361.346
279.8792, 1342.787
281.8076, 1336.135
283.7361, 1352.410
285.6646, 1398.573
287.5930, 1465.903
289.5215, 1546.535
291.4500, 1643.649
293.3784, 1769.527
295.3069, 1926.933
297.2354, 2086.663
299.1638, 2256.179
301.0923, 2405.779
303.0208, 2532.087
304.9492, 2626.624
306.8777, 2687.230
308.8062, 2709.962
310.7346, 2675.701
312.6631, 2586.907
314.5916, 2461.892
316.5200, 2284.258
318.4485, 2110.386
320.3770, 1949.709
322.3054, 1809.586
324.2339, 1697.726
326.1624, 1612.312
328.0908, 1544.908
330.0193, 1495.294
331.9477, 1459.921
333.8762, 1438.962
335.8047, 1432.263
337.7331, 1438.472
339.6616, 1458.579
341.5901, 1494.745
343.5185, 1546.048
345.4470, 1609.585
347.3755, 1685.800
349.3039, 1762.047
351.2324, 1852.968
353.1609, 1913.887
355.0893, 1941.788
357.0178, 1930.732
358.9463, 1863.987
360.8747, 1757.854
362.8032, 1639.592
364.7317, 1509.439
366.6601, 1397.984
368.5886, 1311.033
370.5171, 1241.341
372.4455, 1192.516
374.3740, 1154.702
376.3025, 1123.623
378.2309, 1099.760
380.1594, 1084.143
382.0879, 1076.261
384.0163, 1070.177
385.9448, 1066.387
387.8733, 1062.749
389.8017, 1060.419
391.7302, 1056.612
393.6587, 1048.907
395.5871, 1040.235
397.5156, 1033.126
399.4441, 1027.371
401.3725, 1022.170
403.3010, 1017.372
405.2295, 1013.477
407.1579, 1010.617
409.0864, 1008.285
411.0149, 1006.071
412.9433, 1004.677
414.8718, 1004.762
416.8003, 1005.850
418.7287, 1007.257
420.6572, 1008.995
422.5857, 1011.010
424.5141, 1012.633
426.4426, 1016.013
428.3711, 1018.625
430.2995, 1027.723
432.2280, 1048.707
434.1565, 1075.992
436.0849, 1101.777
438.0134, 1130.710
439.9419, 1176.543
441.8703, 1240.264
443.7988, 1320.502
445.7273, 1418.382
447.6557, 1529.633
449.5842, 1660.625
451.5127, 1793.451
453.4411, 1939.195
455.3696, 2065.208
457.2981, 2152.754
459.2265, 2192.417
461.1550, 2131.087
463.0835, 1966.672
465.0119, 1787.789
466.9404, 1588.485
468.8689, 1418.203
470.7973, 1295.090
472.7258, 1202.683
474.6543, 1140.833
476.5827, 1099.095
478.5112, 1070.717
480.4397, 1052.867
482.3681, 1035.902
484.2966, 1019.800
486.2251, 1005.509
488.1535, 992.3672
490.0820, 983.7567
492.0105, 984.1668
493.9389, 984.7581
495.8674, 981.5773
497.7959, 978.1006
499.7243, 977.4020
501.6528, 978.9016
503.5813, 981.0674
505.5097, 984.0659
507.4382, 989.4505
509.3667, 998.1755
511.2951, 1005.791
513.2236, 1009.209
515.1521, 1014.656
517.0806, 1024.342
519.0090, 1035.553
520.9375, 1045.876
522.8660, 1056.981
524.7944, 1071.635
526.7229, 1088.973
528.6514, 1105.694
530.5798, 1121.128
532.5083, 1141.539
534.4368, 1166.260
536.3652, 1198.924
538.2937, 1234.818
540.2222, 1285.490
542.1506, 1354.880
544.0791, 1441.546
546.0076, 1548.340
547.9360, 1669.923
549.8645, 1806.495
551.7930, 1954.848
553.7214, 2080.258
555.6499, 2191.109
557.5784, 2249.936
559.5068, 2251.931
561.4353, 2214.632
563.3638, 2120.547
565.2922, 2014.929
567.2207, 1908.584
569.1492, 1809.468
571.0776, 1723.194
573.0061, 1647.785
574.9345, 1580.224
576.8630, 1520.550
578.7914, 1467.388
580.7199, 1421.163
582.6484, 1380.985
584.5768, 1347.041
586.5053, 1318.735
588.4338, 1296.810
590.3622, 1278.961
592.2907, 1264.975
594.2192, 1253.872
596.1476, 1245.745
598.0761, 1239.449
600.0046, 1233.482
601.9330, 1228.047
603.8615, 1224.955
605.7900, 1224.530
607.7184, 1219.204
609.6469, 1208.499
611.5754, 1195.976
613.5038, 1181.926
615.4323, 1166.606
617.3608, 1147.085
619.2892, 1130.854
621.2177, 1122.016
623.1462, 1116.726
625.0746, 1112.551
627.0031, 1109.467
628.9316, 1106.632
630.8600, 1104.886
632.7885, 1108.119
634.7170, 1115.969
636.6454, 1123.441
638.5739, 1129.419
640.5024, 1141.270
642.4308, 1161.886
644.3593, 1184.809
646.2878, 1203.697
648.2162, 1230.926
650.1447, 1270.334
652.0732, 1320.775
654.0016, 1376.665
655.9301, 1446.480
657.8586, 1542.070
659.7870, 1660.882
661.7155, 1801.178
663.6440, 1959.085
665.5724, 2117.828
667.5009, 2279.921
669.4294, 2405.342
671.3578, 2508.466
673.2863, 2525.305
675.2148, 2424.131
677.1432, 2277.367
679.0717, 2064.026
681.0002, 1857.713
682.9286, 1684.782
684.8571, 1543.178
686.7856, 1435.469
688.7141, 1356.062
690.6425, 1302.855
692.5710, 1268.911
694.4995, 1238.384
696.4279, 1211.448
698.3564, 1193.158
700.2849, 1185.272
702.2133, 1178.531
704.1418, 1174.525
706.0703, 1168.459
707.9987, 1156.596
709.9272, 1149.474
711.8557, 1150.809
713.7841, 1154.356
715.7126, 1158.933
717.6411, 1163.173
719.5695, 1166.727
721.4980, 1168.961
723.4265, 1167.976
725.3549, 1166.272
727.2834, 1168.002
729.2119, 1172.191
731.1403, 1175.996
733.0688, 1179.374
734.9973, 1180.943
736.9257, 1180.124
738.8542, 1181.439
740.7827, 1185.195
742.7111, 1189.823
744.6396, 1196.513
746.5681, 1198.220
748.4965, 1189.833
750.4250, 1184.689
752.3535, 1189.836
754.2819, 1196.154
756.2104, 1199.672
758.1389, 1202.702
760.0673, 1206.925
761.9958, 1211.333
763.9243, 1215.028
765.8527, 1218.114
767.7812, 1220.109
769.7097, 1221.693
771.6381, 1225.290
773.5666, 1230.326
775.4951, 1233.166
777.4235, 1234.141
779.3520, 1239.441
781.2805, 1249.722
783.2089, 1254.838
785.1374, 1252.345
787.0659, 1251.739
788.9943, 1255.019
790.9228, 1259.661
792.8513, 1267.104
794.7797, 1272.751
796.7082, 1273.117
798.6367, 1274.961
800.5651, 1281.835
802.4936, 1290.076
804.4221, 1299.700
806.3505, 1307.212
808.2790, 1307.071
810.2075, 1305.294
812.1359, 1309.028
814.0644, 1316.064
815.9929, 1323.898
817.9213, 1331.759
819.8498, 1337.377
821.7783, 1341.416
823.7067, 1347.165
825.6352, 1354.474
827.5637, 1359.638
829.4921, 1361.926
831.4206, 1367.117
833.3491, 1376.709
835.2775, 1385.287
837.2060, 1391.397
839.1345, 1399.218
841.0629, 1410.451
842.9914, 1420.643
844.9199, 1428.842
846.8483, 1436.723
848.7768, 1441.608
850.7053, 1451.817
852.6337, 1473.493
854.5622, 1495.633
856.4907, 1511.432
858.4191, 1527.889
860.3476, 1551.658
862.2761, 1574.820
864.2045, 1590.107
866.1330, 1603.940
868.0615, 1618.924
869.9899, 1638.822
871.9184, 1667.731
873.8469, 1705.250
875.7753, 1751.363
877.7038, 1805.351
879.6323, 1864.587
881.5607, 1930.183
883.4892, 2007.972
885.4177, 2095.959
887.3461, 2188.104
889.2746, 2282.020
891.2031, 2344.008
893.1315, 2374.868
895.0600, 2389.235
896.9885, 2387.384
898.9169, 2376.063
900.8454, 2355.915
902.7739, 2317.233
904.7023, 2257.794
906.6308, 2193.494
908.5593, 2126.336
910.4877, 2054.492
912.4162, 1973.378
914.3447, 1906.407
916.2731, 1859.777
918.2016, 1823.774
920.1301, 1797.653
922.0585, 1779.154
923.9870, 1770.730
925.9155, 1764.768
927.8439, 1758.150
929.7724, 1755.406
931.7009, 1759.713
933.6293, 1765.023
935.5578, 1767.257
937.4863, 1772.471
939.4147, 1783.905
941.3432, 1798.743
943.2717, 1817.734
945.2001, 1836.967
947.1286, 1856.361
949.0571, 1872.417
950.9855, 1882.863
952.9140, 1888.677
954.8425, 1889.661
956.7709, 1887.331
958.6994, 1881.728
960.6279, 1874.619
962.5563, 1866.644
964.4848, 1858.967
966.4133, 1850.057
968.3417, 1844.721
970.2702, 1851.111
972.1987, 1861.828
974.1271, 1869.239
976.0556, 1873.588
977.9841, 1872.619
979.9125, 1870.863
981.8410, 1876.220
983.7695, 1885.740
985.6979, 1893.511
987.6264, 1901.566
989.5549, 1914.451
991.4833, 1930.641
993.4118, 1948.216
995.3403, 1965.585
997.2687, 1976.274
999.1972, 1984.484
1001.126, 2002.247
1003.054, 2027.263
1004.983, 2055.028
1006.911, 2083.375
1008.840, 2105.972
1010.768, 2122.617
1012.696, 2132.256
1014.625, 2135.195
1016.553, 2130.076
1018.482, 2119.730
1020.410, 2115.493
1022.339, 2115.617
1024.267, 2112.768
1026.196, 2108.706
1028.124, 2111.054
1030.053, 2118.228
1031.981, 2124.315
1033.910, 2129.523
1035.838, 2132.899
1037.767, 2135.985
1039.695, 2145.591
1041.624, 2159.447
1043.552, 2169.631
1045.480, 2177.179
1047.409, 2184.708
1049.337, 2193.076
1051.266, 2206.918
1053.194, 2223.325
1055.123, 2232.735
1057.051, 2238.031
1058.980, 2246.502
1060.908, 2257.651
1062.837, 2271.340
1064.765, 2285.735
1066.694, 2295.710
1068.622, 2303.252
1070.550, 2312.458
1072.479, 2323.113
1074.407, 2334.609
1076.336, 2347.170
1078.264, 2361.708
1080.193, 2377.337
1082.121, 2393.553
1084.050, 2408.884
1085.978, 2420.389
1087.907, 2429.626
1089.835, 2437.785
1091.764, 2446.454
1093.692, 2458.134
1095.620, 2471.680
1097.549, 2486.173
1099.477, 2500.990
1101.406, 2516.870
1103.334, 2531.044
1105.263, 2537.490
1107.191, 2543.901
1109.120, 2558.735
1111.048, 2575.859
1112.977, 2590.441
1114.905, 2604.560
1116.834, 2620.026
1118.762, 2635.457
1120.691, 2647.677
1122.619, 2662.773
1124.547, 2688.994
1126.476, 2711.676
1128.404, 2718.159
1130.333, 2727.033
1132.261, 2749.649
1134.190, 2771.726
1136.118, 2787.268
1138.047, 2801.460
1139.975, 2816.135
1141.904, 2830.127
1143.832, 2841.579
1145.761, 2857.342
1147.689, 2881.724
1149.618, 2901.719
1151.546, 2912.788
1153.474, 2925.838
1155.403, 2943.464
1157.331, 2960.436
1159.260, 2976.084
1161.188, 2990.586
1163.117, 3003.854
1165.045, 3019.599
1166.974, 3038.121
1168.902, 3054.813
1170.831, 3069.409
1172.759, 3087.411
1174.688, 3108.452
1176.616, 3128.956
1178.545, 3148.361
1180.473, 3163.499
1182.401, 3176.534
1184.330, 3196.008
1186.258, 3218.697
1188.187, 3234.674
1190.115, 3248.210
1192.044, 3269.216
1193.972, 3291.313
1195.901, 3302.942
1197.829, 3312.621
1199.758, 3329.971
1201.686, 3350.105
1203.615, 3370.157
1205.543, 3389.170
1207.472, 3403.357
1209.400, 3421.489
1211.328, 3453.414
1213.257, 3482.831
1215.185, 3500.514
1217.114, 3518.879
1219.042, 3543.699
1220.971, 3565.136
1222.899, 3577.548
1224.828, 3595.321
1226.756, 3622.695
1228.685, 3648.184
1230.613, 3670.489
1232.542, 3691.986
1234.470, 3713.038
1236.399, 3730.972
1238.327, 3745.877
1240.255, 3764.368
1242.184, 3786.083
1244.112, 3809.225
1246.041, 3833.225
1247.969, 3855.363
1249.898, 3877.539
1251.826, 3904.733
1253.755, 3933.323
1255.683, 3958.316
1257.612, 3981.553
1259.540, 4000.522
1261.469, 4023.834
1263.397, 4062.918
1265.326, 4099.181
1267.254, 4121.609
1269.182, 4144.729
1271.111, 4173.670
1273.039, 4201.891
1274.968, 4228.054
1276.896, 4253.404
1278.825, 4277.378
1280.753, 4308.065
1282.682, 4345.818
1284.610, 4376.994
1286.539, 4401.326
1288.467, 4422.438
1290.396, 4442.948
1292.324, 4473.438
1294.253, 4508.880
1296.181, 4539.072
1298.109, 4566.009
1300.038, 4588.629
1301.966, 4614.002
1303.895, 4652.667
1305.823, 4690.841
1307.752, 4717.469
1309.680, 4743.839
1311.609, 4773.257
1313.537, 4806.066
1315.466, 4845.557
1317.394, 4882.115
1319.323, 4913.794
1321.251, 4944.401
1323.180, 4972.624
1325.108, 5008.128
1327.036, 5050.298
1328.965, 5084.115
1330.893, 5112.611
1332.822, 5147.780
1334.750, 5186.147
1336.679, 5221.974
1338.607, 5256.149
1340.536, 5290.626
1342.464, 5321.980
1344.393, 5344.740
1346.321, 5370.122
1348.250, 5403.103
1350.178, 5439.858
1352.107, 5481.188
1354.035, 5518.342
1355.964, 5548.784
1357.892, 5590.393
1359.820, 5644.673
1361.749, 5680.156
1363.677, 5701.129
1365.606, 5729.930
1367.534, 5765.752
1369.463, 5812.167
1371.391, 5858.749
1373.320, 5887.751
1375.248, 5916.969
1377.177, 5962.410
1379.105, 6007.357
1381.034, 6043.106
1382.962, 6082.573
1384.891, 6131.225
1386.819, 6168.722
1388.747, 6192.219
1390.676, 6227.629
1392.604, 6274.483
1394.533, 6308.489
1396.461, 6336.757
1398.390, 6383.464
1400.318, 6437.604
1402.247, 6482.463
1404.175, 6525.126
1406.104, 6571.794
1408.032, 6617.889
1409.961, 6656.699
1411.889, 6701.937
1413.818, 6763.546
1415.746, 6818.727
1417.674, 6866.319
1419.603, 6906.928
1421.531, 6941.963
1423.460, 6991.442
1425.388, 7050.233
1427.317, 7104.444
1429.245, 7155.148
1431.174, 7204.120
1433.102, 7250.242
1435.031, 7288.399
1436.959, 7332.263
1438.888, 7390.912
1440.816, 7446.681
1442.745, 7493.374
1444.673, 7546.294
1446.601, 7606.637
1448.530, 7662.646
1450.458, 7714.837
1452.387, 7766.864
1454.315, 7816.219
1456.244, 7855.384
1458.172, 7893.873
1460.101, 7938.548
1462.029, 7987.624
1463.958, 8041.624
1465.886, 8096.884
1467.815, 8152.721
1469.743, 8211.296
1471.672, 8272.615
1473.600, 8324.366
1475.528, 8371.229
1477.457, 8435.693
1479.385, 8503.826
1481.314, 8551.791
1483.242, 8594.986
1485.171, 8642.264
1487.099, 8693.864
1489.028, 8751.473
1490.956, 8808.459
1492.885, 8864.416
1494.813, 8910.404
1496.742, 8950.607
1498.670, 9019.962
1500.599, 9103.483
1502.527, 9169.135
1504.455, 9226.233
1506.384, 9279.400
1508.312, 9336.979
1510.241, 9407.753
1512.169, 9475.942
1514.098, 9538.120
1516.026, 9597.523
1517.955, 9654.220
1519.883, 9724.686
1521.812, 9802.219
1523.740, 9867.174
1525.669, 9927.930
1527.597, 9997.254
1529.526, 10063.22
1531.454, 10112.27
1533.382, 10172.11
1535.311, 10257.87
1537.239, 10334.05
1539.168, 10399.04
1541.096, 10461.95
1543.025, 10525.05
1544.953, 10599.96
1546.882, 10676.37
1548.810, 10743.94
1550.739, 10807.24
1552.667, 10862.25
1554.596, 10936.02
1556.524, 11039.49
1558.453, 11130.69
1560.381, 11206.65
1562.309, 11274.07
1564.238, 11339.49
1566.166, 11423.21
1568.095, 11508.43
1570.023, 11574.74
1571.952, 11648.08
1573.880, 11740.10
1575.809, 11829.28
1577.737, 11912.56
1579.666, 11981.10
1581.594, 12039.07
1583.523, 12099.43
1585.451, 12167.66
1587.380, 12249.37
1589.308, 12345.24
1591.236, 12476.26
1593.165, 12572.94
1595.093, 12617.89
1597.022, 12668.64
1598.950, 12730.96
1600.879, 12814.04
1602.807, 12907.93
1604.736, 13003.14
1606.664, 13088.46
1608.593, 13142.81
1610.521, 13209.68
1612.450, 13307.45
1614.378, 13399.89
1616.307, 13485.03
1618.235, 13564.39
1620.163, 13640.17
1622.092, 13708.98
1624.020, 13788.41
1625.949, 13906.68
1627.877, 14015.11
1629.806, 14084.52
1631.734, 14166.57
1633.663, 14263.25
1635.591, 14376.74
1637.520, 14491.35
1639.448, 14554.29
1641.377, 14611.97
1643.305, 14704.34
1645.234, 14796.25
1647.162, 14872.00
1649.090, 14964.88
1651.019, 15076.84
1652.947, 15189.18
1654.876, 15294.83
1656.804, 15370.10
1658.733, 15443.39
1660.661, 15534.02
1662.590, 15630.03
1664.518, 15729.70
1666.447, 15836.44
1668.375, 15949.10
1670.304, 16040.88
1672.232, 16127.46
1674.161, 16233.59
1676.089, 16345.30
1678.017, 16452.55
1679.946, 16565.01
1681.874, 16683.87
1683.803, 16797.06
1685.731, 16901.08
1687.660, 16980.63
1689.588, 17058.18
1691.517, 17158.99
1693.445, 17271.03
1695.374, 17395.26
1697.302, 17505.71
1699.231, 17602.38
1701.159, 17722.87
1703.088, 17854.05
1705.016, 17971.32
1706.944, 18082.07
1708.873, 18192.16
1710.801, 18294.55
1712.730, 18388.14
1714.658, 18485.76
1716.587, 18588.83
1718.515, 18694.02
1720.444, 18808.51
1722.372, 18946.66
1724.301, 19081.54
1726.229, 19209.10
1728.158, 19303.54
1730.086, 19367.12
1732.015, 19476.42
1733.943, 19608.99
1735.871, 19737.29
1737.800, 19861.15
1739.728, 19980.00
1741.657, 20098.04
1743.585, 20217.13
1745.514, 20326.86
1747.442, 20430.14
1749.371, 20523.37
1751.299, 20627.17
1753.228, 20753.20
1755.156, 20894.25
1757.085, 21050.04
1759.013, 21172.48
1760.942, 21270.83
1762.870, 21364.35
1764.798, 21467.18
1766.727, 21592.91
1768.655, 21724.31
1770.584, 21858.61
1772.512, 21991.27
1774.441, 22125.89
1776.369, 22281.38
1778.298, 22431.83
1780.226, 22544.07
1782.155, 22663.84
1784.083, 22800.20
1786.012, 22931.70
1787.940, 23058.34
1789.869, 23185.72
1791.797, 23314.02
1793.725, 23436.63
1795.654, 23579.00
1797.582, 23751.54
1799.511, 23865.40
1801.439, 23947.02
1803.368, 24087.09
1805.296, 24246.57
1807.225, 24406.58
1809.153, 24549.31
1811.082, 24670.65
1813.010, 24787.43
1814.939, 24907.04
1816.867, 25052.27
1818.796, 25201.74
1820.724, 25339.94
1822.652, 25481.22
1824.581, 25628.99
1826.509, 25766.63
1828.438, 25895.74
1830.366, 26011.34
1832.295, 26134.62
1834.223, 26279.56
1836.152, 26415.61
1838.080, 26539.61
1840.009, 26699.41
1841.937, 26861.71
1843.866, 26967.91
1845.794, 27067.29
1847.723, 27174.37
1849.651, 27296.55
1851.579, 27434.46
1853.508, 27595.77
1855.436, 27759.30
1857.365, 27893.48
1859.293, 28044.20
1861.222, 28221.67
1863.150, 28378.27
1865.079, 28513.19
1867.007, 28614.13
1868.936, 28728.63
1870.864, 28894.33
1872.793, 29059.23
1874.721, 29216.05
1876.650, 29353.82
1878.578, 29490.43
1880.506, 29659.93
1882.435, 29817.70
1884.363, 29944.45
1886.292, 30085.40
1888.220, 30240.63
1890.149, 30416.44
1892.077, 30572.69
1894.006, 30654.49
1895.934, 30763.17
1897.863, 30910.80
1899.791, 31082.44
1901.720, 31256.81
1903.648, 31402.04
1905.577, 31540.01
1907.505, 31675.87
1909.433, 31819.17
1911.362, 31966.73
1913.290, 32093.87
1915.219, 32229.21
1917.147, 32399.80
1919.076, 32565.71
1921.004, 32720.38
1922.933, 32857.61
1924.861, 32997.32
1926.790, 33173.49
1928.718, 33334.34
1930.647, 33458.96
1932.575, 33621.52
1934.504, 33801.09
1936.432, 33926.89
1938.360, 34054.09
1940.289, 34211.05
1942.217, 34369.65
1944.146, 34523.93
1946.074, 34660.12
1948.003, 34791.54
1949.931, 34930.41
1951.860, 35069.95
1953.788, 35210.29
1955.717, 35357.33
1957.645, 35513.54
1959.574, 35679.80
1961.502, 35864.91
1963.431, 36072.18
1965.359, 36238.48
1967.287, 36376.57
1969.216, 36507.38
1971.144, 36660.51
1973.073, 36861.04
1975.001, 37035.36
1976.930, 37185.65
1978.858, 37333.22
1980.787, 37480.83
1982.715, 37630.91
1984.644, 37785.40
1986.572, 37945.17
1988.501, 38111.89
1990.429, 38277.83
1992.358, 38432.43
1994.286, 38597.24
1996.214, 38774.04
1998.143, 38872.35
2000.071, 38976.95
2002.000, 39189.37
2003.928, 39384.24
2005.857, 39526.91
2007.785, 39632.37
2009.714, 39745.99
2011.642, 39948.72
2013.571, 40141.14
2015.499, 40297.05
2017.428, 40418.59
2019.356, 40530.24
2021.285, 40666.90
2023.213, 40828.79
2025.141, 41017.55
2027.070, 41192.06
2028.998, 41357.27
2030.927, 41521.04
2032.855, 41695.89
2034.784, 41886.19
2036.712, 41999.01
2038.641, 42079.42
2040.569, 42237.55
2042.498, 42399.71
2044.426, 42540.74
2046.355, 42700.62
2048.283, 42864.49
2050.212, 42990.80
2052.140, 43112.69
2054.068, 43239.54
2055.997, 43389.51
2057.925, 43546.89
2059.854, 43685.70
2061.782, 43809.04
2063.711, 43911.51
2065.639, 44058.71
2067.568, 44237.74
2069.496, 44427.05
2071.425, 44601.23
2073.353, 44741.39
2075.281, 44880.79
2077.210, 45018.75
2079.138, 45163.08
2081.067, 45296.11
2082.995, 45411.22
2084.924, 45565.21
2086.852, 45726.49
2088.781, 45836.63
2090.709, 45960.36
2092.638, 46115.54
2094.566, 46286.41
2096.495, 46454.37
2098.423, 46594.21
2100.352, 46739.44
2102.280, 46895.01
2104.208, 47019.27
2106.137, 47132.29
2108.065, 47246.30
2109.994, 47386.78
2111.922, 47549.40
2113.851, 47672.93
2115.779, 47798.32
2117.708, 47960.90
2119.636, 48107.43
2121.565, 48237.77
2123.493, 48372.27
2125.422, 48509.17
2127.350, 48648.63
2129.279, 48770.65
2131.207, 48888.87
2133.135, 49052.64
2135.064, 49187.70
2136.992, 49268.23
2138.921, 49373.25
2140.849, 49495.61
2142.778, 49619.17
2144.706, 49752.01
2146.635, 49892.54
2148.563, 50000.97
2150.492, 50098.64
2152.420, 50202.03
2154.349, 50318.08
2156.277, 50451.54
2158.206, 50637.73
2160.134, 50820.16
2162.063, 50966.98
2163.991, 51079.94
2165.919, 51185.88
2167.848, 51360.81
2169.776, 51521.18
2171.705, 51637.82
2173.633, 51766.24
2175.562, 51892.99
2177.490, 52006.17
2179.419, 52087.32
2181.347, 52139.21
2183.276, 52208.84
2185.204, 52288.23
2187.133, 52372.67
2189.061, 52446.08
2190.990, 52531.56
2192.918, 52717.36
2194.846, 52874.94
2196.775, 52969.53
2198.703, 53052.26
2200.632, 53131.16
2202.560, 53201.09
2204.489, 53291.46
2206.417, 53408.84
2208.346, 53586.68
2210.274, 53746.16
2212.203, 53839.59
2214.131, 53936.91
2216.060, 54024.20
2217.988, 54067.52
2219.917, 54102.58
2221.845, 54142.72
2223.773, 54272.10
2225.702, 54425.09
2227.630, 54561.05
2229.559, 54652.43
2231.487, 54709.73
2233.416, 54752.51
2235.344, 54830.07
2237.273, 54971.74
2239.201, 55078.60
2241.130, 55162.56
2243.058, 55216.35
2244.987, 55327.35
2246.915, 55474.24
2248.844, 55567.08
2250.772, 55617.05
2252.700, 55627.59
2254.629, 55745.30
2256.557, 55873.96
2258.486, 55889.65
2260.414, 55962.57
2262.343, 56089.82
2264.271, 56132.58
2266.200, 56174.77
2268.128, 56242.68
2270.057, 56330.91
2271.985, 56436.99
2273.914, 56585.54
2275.842, 56670.13
2277.771, 56709.02
2279.699, 56825.95
2281.627, 56912.35
2283.556, 56931.09
2285.484, 56984.12
2287.413, 57074.24
2289.341, 57239.68
2291.270, 57295.05
2293.198, 57289.36
2295.127, 57422.71
2297.055, 57536.43
2298.984, 57582.82
2300.912, 57595.45
2302.841, 57596.42
2304.769, 57597.43
2306.698, 57607.00
2308.626, 57629.26
2310.554, 57678.93
2312.483, 57728.24
2314.411, 57772.61
2316.340, 57780.59
2318.268, 57824.82
2320.197, 57951.48
2322.125, 58050.34
2324.054, 58120.98
2325.982, 58167.66
2327.911, 58204.34
2329.839, 58232.82
2331.768, 58249.09
2333.696, 58273.82
2335.625, 58313.21
2337.553, 58397.55
2339.481, 58433.24
2341.410, 58345.28
2343.338, 58319.92
2345.267, 58337.55
2347.195, 58327.86
2349.124, 58343.57
2351.052, 58395.66
2352.981, 58474.81
2354.909, 58581.79
2356.838, 58708.89
2358.766, 58740.73
2360.695, 58747.56
2362.623, 58800.63
2364.552, 58840.51
2366.480, 58870.58
2368.408, 58909.51
2370.337, 58910.66
2372.265, 58895.89
2374.194, 59021.38
2376.122, 59118.95
2378.051, 59112.24
2379.979, 59173.91
2381.908, 59221.14
2383.836, 59166.71
2385.765, 59223.57
2387.693, 59315.02
2389.622, 59313.78
2391.550, 59340.76
2393.479, 59393.45
2395.407, 59401.42
2397.335, 59394.78
2399.264, 59379.76
2401.192, 59342.95
2403.121, 59320.94
2405.049, 59330.80
2406.978, 59346.98
2408.906, 59349.43
2410.835, 59322.39
2412.763, 59297.04
2414.692, 59261.16
2416.620, 59175.63
2418.549, 59098.42
2420.477, 59042.88
2422.406, 59016.12
2424.334, 59008.77
2426.262, 59008.69
2428.191, 58991.67
2430.119, 58930.07
2432.048, 58812.79
2433.976, 58735.69
2435.905, 58674.52
2437.833, 58616.93
2439.762, 58543.13
2441.690, 58465.39
2443.619, 58396.84
2445.547, 58323.73
2447.476, 58274.84
2449.404, 58333.51
2451.333, 58360.55
2453.261, 58342.17
2455.189, 58328.68
2457.118, 58289.35
2459.046, 58218.43
2460.975, 58243.83
2462.903, 58264.76
2464.832, 58228.82
2466.760, 58186.67
2468.689, 58119.32
2470.617, 58023.64
2472.546, 57896.93
2474.474, 57777.84
2476.403, 57696.66
2478.331, 57682.26
2480.260, 57669.79
2482.188, 57543.54
2484.116, 57446.13
2486.045, 57363.40
2487.973, 57225.30
2489.902, 57106.16
2491.830, 57004.22
2493.759, 56826.44
2495.687, 56760.32
2497.616, 56812.68
2499.544, 56805.82
2501.473, 56777.91
2503.401, 56742.17
2505.330, 56725.63
2507.258, 56720.14
2509.187, 56720.12
2511.115, 56679.63
2513.043, 56591.52
2514.972, 56450.56
2516.900, 56286.26
2518.829, 56149.10
2520.757, 56085.39
2522.686, 56047.91
2524.614, 56039.07
2526.543, 56052.75
2528.471, 56088.95
2530.400, 56118.32
2532.328, 56133.30
2534.257, 55982.55
2536.185, 55773.27
2538.114, 55667.78
2540.042, 55592.75
2541.970, 55531.98
2543.899, 55468.14
2545.827, 55416.45
2547.756, 55371.02
2549.684, 55313.74
2551.613, 55304.81
2553.541, 55306.74
2555.470, 55184.58
2557.398, 55080.28
2559.327, 54989.23
2561.255, 54803.48
2563.184, 54643.64
2565.112, 54528.05
2567.041, 54439.45
2568.969, 54354.18
2570.897, 54271.20
2572.826, 54222.32
2574.754, 54120.05
2576.683, 53965.02
2578.611, 53805.70
2580.540, 53707.91
2582.468, 53661.79
2584.397, 53555.56
2586.325, 53457.56
2588.254, 53370.66
2590.182, 53187.06
2592.111, 53036.86
2594.039, 52946.99
2595.968, 52854.51
2597.896, 52720.79
2599.824, 52547.22
2601.753, 52397.16
2603.681, 52275.70
2605.610, 52185.78
2607.538, 52143.04
2609.467, 52097.91
2611.395, 52027.48
2613.324, 51881.43
2615.252, 51730.43
2617.181, 51600.99
2619.109, 51549.45
2621.038, 51462.69
2622.966, 51321.62
2624.895, 51157.70
2626.823, 50996.25
2628.751, 50842.45
2630.680, 50689.01
2632.608, 50543.82
2634.537, 50406.11
2636.465, 50254.02
2638.394, 50142.50
2640.322, 50059.81
2642.251, 49967.04
2644.179, 49843.23
2646.108, 49696.10
2648.036, 49557.58
2649.965, 49384.93
2651.893, 49195.60
2653.822, 49032.44
2655.750, 48818.21
2657.678, 48626.92
2659.607, 48572.97
2661.535, 48461.58
2663.464, 48289.41
2665.392, 48069.36
2667.321, 47883.91
2669.249, 47735.53
2671.178, 47619.52
2673.106, 47449.44
2675.035, 47273.79
2676.963, 47126.62
2678.892, 46970.24
2680.820, 46811.30
2682.749, 46651.24
2684.677, 46438.61
2686.605, 46250.82
2688.534, 46109.95
2690.462, 45960.09
2692.391, 45803.61
2694.319, 45641.16
2696.248, 45438.63
2698.176, 45290.93
2700.105, 45191.26
2702.033, 45067.63
2703.962, 44940.76
2705.890, 44780.21
2707.819, 44518.29
2709.747, 44288.05
2711.676, 44088.03
2713.604, 43904.61
2715.532, 43692.03
2717.461, 43460.00
2719.389, 43204.36
2721.318, 43055.32
2723.246, 42930.04
2725.175, 42767.23
2727.103, 42642.60
2729.032, 42506.95
2730.960, 42340.70
2732.889, 42184.96
2734.817, 41991.94
2736.746, 41774.28
2738.674, 41628.38
2740.603, 41500.16
2742.531, 41369.43
2744.459, 41203.66
2746.388, 41082.98
2748.316, 40960.68
2750.245, 40762.15
2752.173, 40619.95
2754.102, 40448.38
2756.030, 40181.18
2757.959, 40036.90
2759.887, 39886.41
2761.816, 39680.51
2763.744, 39513.54
2765.673, 39362.85
2767.601, 39222.19
2769.530, 39126.44
2771.458, 38958.09
2773.386, 38743.41
2775.315, 38573.73
2777.243, 38419.57
2779.172, 38236.79
2781.100, 37977.42
2783.029, 37804.04
2784.957, 37651.71
2786.886, 37473.22
2788.814, 37349.98
2790.743, 37217.66
2792.671, 37054.24
2794.600, 36857.30
2796.528, 36701.73
2798.457, 36581.64
2800.385, 36474.34
2802.313, 36251.82
2804.242, 36033.36
2806.170, 35920.29
2808.099, 35729.72
2810.027, 35547.38
2811.956, 35400.41
2813.884, 35180.41
2815.813, 34990.17
2817.741, 34839.45
2819.670, 34678.53
2821.598, 34512.50
2823.527, 34336.13
2825.455, 34128.61
2827.384, 33995.49
2829.312, 33841.14
2831.240, 33609.97
2833.169, 33428.57
2835.097, 33263.87
2837.026, 33094.89
2838.954, 32889.63
2840.883, 32679.45
2842.811, 32480.84
2844.740, 32308.29
2846.668, 32117.23
2848.597, 31932.34
2850.525, 31766.67
2852.454, 31596.30
2854.382, 31414.04
2856.311, 31220.62
2858.239, 31017.18
2860.167, 30850.39
2862.096, 30707.54
2864.024, 30565.03
2865.953, 30391.64
2867.881, 30244.56
2869.810, 30126.29
2871.738, 29929.20
2873.667, 29705.76
2875.595, 29486.43
2877.524, 29299.10
2879.452, 29151.44
2881.381, 29018.56
2883.309, 28875.73
2885.238, 28733.70
2887.166, 28551.06
2889.094, 28340.30
2891.023, 28208.30
2892.951, 28021.05
2894.880, 27808.82
2896.808, 27627.00
2898.737, 27484.77
2900.665, 27297.57
2902.594, 27042.22
2904.522, 26847.30
2906.451, 26658.19
2908.379, 26488.50
2910.308, 26374.09
2912.236, 26270.29
2914.165, 26138.08
2916.093, 25962.52
2918.021, 25820.79
2919.950, 25679.69
2921.878, 25516.73
2923.807, 25303.92
2925.735, 25152.49
2927.664, 25006.27
2929.592, 24827.22
2931.521, 24630.19
2933.449, 24486.41
2935.378, 24388.72
2937.306, 24304.37
2939.235, 24155.98
2941.163, 23981.77
2943.092, 23813.93
2945.020, 23667.86
2946.948, 23532.41
2948.877, 23400.17
2950.805, 23271.41
2952.734, 23105.59
2954.662, 22929.96
2956.591, 22763.25
2958.519, 22643.91
2960.448, 22514.92
2962.376, 22370.21
2964.305, 22228.58
2966.233, 22031.96
2968.162, 21845.99
2970.090, 21707.58
2972.019, 21591.98
2973.947, 21458.97
2975.875, 21308.30
2977.804, 21149.56
2979.732, 21036.30
2981.661, 20931.42
2983.589, 20805.88
2985.518, 20612.89
2987.446, 20445.05
2989.375, 20288.96
2991.303, 20121.06
2993.232, 19920.29
2995.160, 19761.41
2997.089, 19647.43
2999.017, 19548.49
3000.946, 19394.62
3002.874, 19241.21
3004.802, 19124.45
3006.731, 19016.12
3008.659, 18889.74
3010.588, 18763.84
3012.516, 18667.21
3014.445, 18559.22
3016.373, 18429.82
3018.302, 18285.46
3020.230, 18157.91
3022.159, 18029.29
3024.087, 17894.91
3026.016, 17757.97
3027.944, 17629.30
3029.873, 17517.97
3031.801, 17419.77
3033.729, 17324.03
3035.658, 17243.63
3037.586, 17158.09
3039.515, 17047.97
3041.443, 16889.41
3043.372, 16689.62
3045.300, 16511.11
3047.229, 16378.08
3049.157, 16186.10
3051.086, 16037.62
3053.014, 15922.85
3054.943, 15805.29
3056.871, 15702.58
3058.800, 15597.26
3060.728, 15486.67
3062.656, 15374.02
3064.585, 15272.36
3066.513, 15182.73
3068.442, 15097.25
3070.370, 14987.52
3072.299, 14897.69
3074.227, 14808.54
3076.156, 14702.12
3078.084, 14579.29
3080.013, 14459.71
3081.941, 14355.42
3083.870, 14269.53
3085.798, 14113.51
3087.727, 13977.58
3089.655, 13866.40
3091.583, 13740.56
3093.512, 13625.54
3095.440, 13532.33
3097.369, 13453.72
3099.297, 13370.01
3101.226, 13279.03
3103.154, 13175.57
3105.083, 13060.60
3107.011, 12940.41
3108.940, 12843.88
3110.868, 12750.88
3112.797, 12645.86
3114.725, 12515.56
3116.654, 12441.60
3118.582, 12377.71
3120.510, 12272.61
3122.439, 12176.42
3124.367, 12070.35
3126.296, 11955.73
3128.224, 11839.49
3130.153, 11742.65
3132.081, 11658.36
3134.010, 11572.86
3135.938, 11473.52
3137.867, 11389.82
3139.795, 11278.79
3141.724, 11160.51
3143.652, 11083.36
3145.581, 10980.58
3147.509, 10899.32
3149.438, 10835.92
3151.366, 10757.46
3153.294, 10652.43
3155.223, 10538.88
3157.151, 10438.36
3159.080, 10380.46
3161.008, 10324.88
3162.937, 10253.15
3164.865, 10165.16
3166.794, 10071.09
3168.722, 9987.882
3170.651, 9900.155
3172.579, 9806.947
3174.508, 9721.646
3176.436, 9611.087
3178.365, 9512.349
3180.293, 9443.436
3182.221, 9405.058
3184.150, 9327.198
3186.078, 9265.400
3188.007, 9220.131
3189.935, 9149.539
3191.864, 9004.076
3193.792, 8869.660
3195.721, 8765.295
3197.649, 8663.057
3199.578, 8571.764
3201.506, 8512.848
3203.435, 8459.400
3205.363, 8360.251
3207.292, 8292.184
3209.220, 8202.637
3211.148, 8099.419
3213.077, 8013.905
3215.005, 7932.545
3216.934, 7863.788
3218.862, 7791.267
3220.791, 7695.776
3222.719, 7613.608
3224.648, 7532.677
3226.576, 7460.001
3228.505, 7399.783
3230.433, 7306.974
3232.362, 7239.271
3234.290, 7176.138
3236.219, 7100.093
3238.147, 7034.970
3240.075, 6941.595
3242.004, 6858.351
3243.932, 6797.324
3245.861, 6725.435
3247.789, 6638.398
3249.718, 6570.911
3251.646, 6520.383
3253.575, 6448.493
3255.503, 6394.756
3257.432, 6344.465
3259.360, 6295.571
3261.289, 6257.336
3263.217, 6142.478
3265.146, 6074.007
3267.074, 6031.286
3269.002, 5968.279
3270.931, 5904.262
3272.859, 5842.354
3274.788, 5787.234
3276.716, 5744.399
3278.645, 5724.392
3280.573, 5667.081
3282.502, 5607.352
3284.430, 5560.265
3286.359, 5518.260
3288.287, 5489.302
3290.216, 5447.610
3292.144, 5399.317
3294.073, 5357.986
3296.001, 5314.341
3297.929, 5273.140
3299.858, 5228.720
3301.786, 5179.240
3303.715, 5128.069
3305.643, 5098.060
3307.572, 5066.472
3309.500, 5023.068
3311.429, 4968.331
3313.357, 4923.066
3315.286, 4884.458
3317.214, 4846.677
3319.143, 4803.698
3321.071, 4738.802
3323.000, 4694.692
3324.928, 4649.161
3326.856, 4599.175
3328.785, 4576.895
3330.713, 4537.129
3332.642, 4469.781
3334.570, 4398.249
3336.499, 4346.938
3338.427, 4285.832
3340.356, 4244.114
3342.284, 4210.059
3344.213, 4171.573
3346.141, 4122.244
3348.070, 4090.059
3349.998, 4068.911
3351.927, 4049.626
3353.855, 4025.507
3355.783, 4003.036
3357.712, 3974.512
3359.640, 3949.115
3361.569, 3928.253
3363.497, 3897.607
3365.426, 3872.750
3367.354, 3856.497
3369.283, 3836.916
3371.211, 3805.881
3373.140, 3794.884
3375.068, 3753.260
3376.997, 3713.560
3378.925, 3690.796
3380.854, 3674.397
3382.782, 3630.830
3384.710, 3597.003
3386.639, 3575.582
3388.567, 3553.909
3390.496, 3503.154
3392.424, 3468.674
3394.353, 3441.077
3396.281, 3409.456
3398.210, 3371.929
3400.138, 3361.770
3402.067, 3338.014
3403.995, 3317.281
3405.924, 3303.225
3407.852, 3282.929
3409.781, 3252.879
3411.709, 3235.896
3413.637, 3219.362
3415.566, 3195.759
3417.494, 3180.751
3419.423, 3145.677
3421.351, 3117.464
3423.280, 3093.089
3425.208, 3067.436
3427.137, 3066.430
3429.065, 3029.978
3430.994, 2998.197
3432.922, 2970.905
3434.851, 2932.325
3436.779, 2906.935
3438.708, 2885.050
3440.636, 2865.138
3442.564, 2847.165
3444.493, 2830.609
3446.421, 2803.439
3448.350, 2791.215
3450.278, 2777.692
3452.207, 2755.827
3454.135, 2732.847
3456.064, 2698.719
##END=



