##NAMES=Scotlandite
##RRUFFID=R060764
##IDEAL CHEMISTRY=Pb(S^4+^O_3_)
##LOCALITY=Lady Anne Hopetoun shaft. Leadhills, Lanarkshire, Scotland
##OWNER=RRUFF
##SOURCE=Michael Scott
##DESCRIPTION=Radiating group of colorless spear-head shaped prismatic crystals
##STATUS=The identification of this mineral is confirmed by single-crystal X-ray diffraction and chemical analysis
##URL=https://www.rruff.net/odr/rruff_sample/R060764
##MEASURED CHEMISTRY=Pb_1.00_S^4+^_1.00_O_3_ ; trace amounts of Fe
##DIFFRACTION SAMPLE DESCRIPTION=Single crystal, powder profile is calculated
##CELL PARAMETERS=a: 4.499 b: 5.327 c: 6.397 alpha: 90 beta: 106.17 gamma: 90 volume: 147.2 crystal system: monoclinic
##FILETYPE=Raman RAW
##RAMAN WAVELENGTH=785

80.998, 42.692
82.926, 41.598
84.854, 40.728
86.783, 41.052
88.711, 41.825
90.640, 41.619
92.568, 39.546
94.497, 39.057
96.425, 40.029
98.354, 42.610
100.282, 47.366
102.211, 53.597
104.139, 59.036
106.068, 60.944
107.996, 75.885
109.925, 108.913
111.853, 145.363
113.782, 185.170
115.710, 222.521
117.638, 244.193
119.567, 246.066
121.495, 285.375
123.424, 351.330
125.352, 466.928
127.281, 667.246
129.209, 893.125
131.138, 1096.897
133.066, 1282.925
134.995, 1489.332
136.923, 1678.695
138.852, 1977.802
140.780, 2493.721
142.708, 3011.226
144.637, 3458.942
146.565, 3810.782
148.494, 3984.480
150.422, 3920.387
152.351, 3808.372
154.279, 3602.839
156.208, 3419.285
158.136, 3295.830
160.065, 3232.198
161.993, 3243.368
163.922, 3336.998
165.850, 3438.500
167.779, 3544.810
169.707, 3663.459
171.635, 3783.150
173.564, 3932.032
175.492, 4118.266
177.421, 4346.942
179.349, 4652.077
181.278, 5063.509
183.206, 5462.413
185.135, 5892.804
187.063, 6222.997
188.992, 6373.218
190.920, 6398.326
192.849, 6356.510
194.777, 6241.146
196.706, 6098.666
198.634, 5933.695
200.562, 5733.544
202.491, 5486.485
204.419, 5208.770
206.348, 4894.728
208.276, 4559.332
210.205, 4257.682
212.133, 3990.126
214.062, 3756.492
215.990, 3565.231
217.919, 3393.439
219.847, 3229.793
221.776, 3080.707
223.704, 2954.678
225.633, 2851.654
227.561, 2762.316
229.490, 2688.094
231.418, 2619.174
233.346, 2555.028
235.275, 2493.710
237.203, 2431.743
239.132, 2372.600
241.060, 2323.389
242.989, 2285.230
244.917, 2247.709
246.846, 2210.732
248.774, 2174.875
250.703, 2139.734
252.631, 2106.586
254.560, 2077.001
256.488, 2049.756
258.417, 2019.514
260.345, 1984.553
262.273, 1965.939
264.202, 1971.909
266.130, 1975.280
268.059, 1966.247
269.987, 1950.474
271.916, 1928.161
273.844, 1902.100
275.773, 1879.855
277.701, 1861.261
279.630, 1848.778
281.558, 1845.287
283.487, 1841.352
285.415, 1831.690
287.344, 1821.918
289.272, 1816.690
291.200, 1814.104
293.129, 1807.982
295.057, 1798.082
296.986, 1790.012
298.914, 1783.558
300.843, 1780.704
302.771, 1785.893
304.700, 1791.139
306.628, 1789.369
308.557, 1784.713
310.485, 1788.932
312.414, 1802.111
314.342, 1809.383
316.271, 1809.714
318.199, 1804.725
320.127, 1790.548
322.056, 1776.027
323.984, 1763.138
325.913, 1753.871
327.841, 1753.316
329.770, 1760.951
331.698, 1766.827
333.627, 1770.881
335.555, 1771.920
337.484, 1764.708
339.412, 1761.834
341.341, 1773.897
343.269, 1788.766
345.198, 1790.473
347.126, 1782.524
349.054, 1784.038
350.983, 1795.897
352.911, 1804.445
354.840, 1808.488
356.768, 1806.479
358.697, 1790.222
360.625, 1775.948
362.554, 1776.771
364.482, 1786.869
366.411, 1793.494
368.339, 1797.145
370.267, 1804.422
372.196, 1818.119
374.125, 1825.504
376.053, 1816.150
377.981, 1809.217
379.910, 1816.625
381.838, 1826.209
383.767, 1822.994
385.695, 1811.021
387.624, 1804.880
389.552, 1804.528
391.481, 1807.109
393.409, 1812.493
395.338, 1820.458
397.266, 1835.602
399.194, 1847.698
401.123, 1850.216
403.052, 1847.503
404.980, 1840.338
406.908, 1832.767
408.837, 1843.792
410.765, 1875.190
412.694, 1900.400
414.622, 1910.727
416.551, 1923.898
418.479, 1944.646
420.408, 1969.277
422.336, 1996.092
424.265, 2025.363
426.193, 2058.639
428.122, 2094.687
430.050, 2128.875
431.978, 2160.848
433.907, 2193.389
435.835, 2227.447
437.764, 2261.011
439.692, 2288.566
441.621, 2321.764
443.549, 2382.399
445.478, 2440.704
447.406, 2447.184
449.335, 2422.398
451.263, 2415.055
453.192, 2426.195
455.120, 2480.663
457.049, 2530.154
458.977, 2760.462
460.905, 2979.221
462.834, 3674.979
464.762, 4909.814
466.691, 6823.039
468.619, 10321.450
470.548, 14271.460
472.476, 16765.199
474.405, 17759.619
476.333, 16628.369
478.262, 12768.250
480.190, 9322.726
482.119, 6657.484
484.047, 4700.360
485.976, 3697.221
487.904, 3109.511
489.832, 2750.504
491.761, 2534.706
493.689, 2388.755
495.618, 2294.930
497.546, 2217.077
499.475, 2154.413
501.403, 2113.851
503.332, 2103.798
505.260, 2095.740
507.189, 2085.054
509.117, 2077.006
511.046, 2075.190
512.974, 2073.822
514.903, 2067.735
516.831, 2060.571
518.760, 2059.415
520.688, 2060.404
522.617, 2051.322
524.545, 2031.616
526.473, 2018.922
528.402, 2018.570
530.330, 2015.618
532.259, 2007.042
534.187, 1998.524
536.116, 1991.018
538.044, 1984.493
539.973, 1977.041
541.901, 1972.010
543.830, 1976.992
545.758, 1985.358
547.687, 1980.738
549.615, 1964.245
551.544, 1959.036
553.472, 1970.703
555.400, 1978.117
557.329, 1974.328
559.257, 1975.634
561.186, 1991.318
563.114, 2002.705
565.043, 1997.811
566.971, 1990.428
568.900, 1992.544
570.828, 1997.463
572.757, 1994.447
574.685, 1987.509
576.614, 1991.169
578.542, 2006.433
580.470, 2019.933
582.399, 2031.668
584.327, 2040.895
586.256, 2049.058
588.184, 2052.498
590.113, 2044.761
592.041, 2040.011
593.970, 2040.344
595.898, 2049.687
597.827, 2078.197
599.755, 2111.753
601.683, 2135.098
603.612, 2149.893
605.541, 2155.849
607.469, 2152.383
609.397, 2174.317
611.326, 2217.246
613.254, 2301.202
615.183, 2444.391
617.111, 2591.207
619.040, 2775.592
620.968, 2896.621
622.897, 2919.641
624.825, 2874.866
626.754, 2740.969
628.682, 2585.748
630.610, 2451.639
632.539, 2341.881
634.468, 2263.787
636.396, 2214.374
638.324, 2185.696
640.253, 2178.577
642.181, 2168.183
644.110, 2151.749
646.038, 2141.296
647.967, 2137.157
649.895, 2138.844
651.824, 2150.910
653.752, 2159.047
655.681, 2154.333
657.609, 2152.468
659.537, 2165.474
661.466, 2179.289
663.394, 2181.634
665.323, 2181.515
667.251, 2189.479
669.180, 2202.359
671.108, 2214.308
673.037, 2225.156
674.965, 2234.185
676.894, 2241.857
678.822, 2241.915
680.751, 2232.016
682.679, 2226.662
684.608, 2227.685
686.536, 2229.031
688.464, 2230.712
690.393, 2229.232
692.321, 2220.164
694.250, 2213.931
696.178, 2215.880
698.107, 2221.980
700.035, 2233.824
701.964, 2244.566
703.892, 2245.070
705.821, 2242.645
707.749, 2250.452
709.678, 2263.405
711.606, 2265.128
713.535, 2257.937
715.463, 2261.759
717.391, 2277.365
719.320, 2287.474
721.248, 2291.124
723.177, 2298.988
725.105, 2313.591
727.034, 2323.826
728.962, 2328.084
730.891, 2326.475
732.819, 2313.667
734.748, 2307.448
736.676, 2317.786
738.605, 2331.595
740.533, 2345.021
742.462, 2356.923
744.390, 2365.960
746.318, 2373.584
748.247, 2380.163
750.175, 2387.013
752.104, 2399.643
754.032, 2412.390
755.961, 2408.416
757.889, 2393.844
759.818, 2391.989
761.746, 2402.414
763.675, 2423.356
765.603, 2453.733
767.532, 2461.373
769.460, 2443.127
771.389, 2435.330
773.317, 2442.824
775.245, 2455.566
777.174, 2475.543
779.102, 2486.035
781.031, 2477.727
782.959, 2473.917
784.888, 2480.616
786.816, 2494.514
788.745, 2524.505
790.673, 2546.836
792.602, 2541.335
794.530, 2537.605
796.459, 2556.611
798.387, 2581.629
800.316, 2604.973
802.244, 2620.974
804.172, 2614.657
806.101, 2603.771
808.029, 2618.844
809.958, 2645.691
811.886, 2653.803
813.815, 2651.504
815.743, 2664.132
817.672, 2686.615
819.600, 2701.054
821.529, 2708.714
823.457, 2714.925
825.386, 2721.048
827.314, 2738.269
829.243, 2767.225
831.171, 2792.040
833.099, 2810.923
835.028, 2828.275
836.956, 2843.639
838.885, 2861.310
840.813, 2881.123
842.742, 2905.611
844.670, 2937.725
846.599, 2968.700
848.527, 2992.619
850.456, 3022.585
852.384, 3062.544
854.313, 3105.777
856.241, 3153.027
858.170, 3199.145
860.098, 3229.607
862.027, 3277.186
863.955, 3369.681
865.883, 3465.751
867.812, 3549.179
869.740, 3620.333
871.669, 3677.941
873.597, 3725.560
875.526, 3762.298
877.454, 3794.400
879.383, 3831.858
881.311, 3862.984
883.240, 3876.690
885.168, 3875.622
887.097, 3849.533
889.025, 3821.355
890.954, 3822.587
892.882, 3842.417
894.810, 3870.984
896.739, 3902.720
898.667, 3920.231
900.596, 3938.020
902.524, 3977.890
904.453, 4046.488
906.381, 4154.633
908.310, 4306.457
910.238, 4510.136
912.167, 4768.308
914.095, 5084.894
916.024, 5464.971
917.952, 5937.633
919.881, 6503.079
921.809, 7181.311
923.737, 7964.477
925.666, 8734.551
927.594, 9490.258
929.523, 10132.560
931.451, 10662.690
933.380, 11080.480
935.308, 11402.360
937.237, 11445.750
939.165, 11192.960
941.094, 10789.910
943.022, 10221.500
944.951, 9573.191
946.879, 8818.744
948.808, 8112.547
950.736, 7448.762
952.664, 6857.652
954.593, 6343.208
956.521, 5886.208
958.450, 5481.150
960.378, 5161.202
962.307, 4939.618
964.235, 4758.401
966.164, 4619.164
968.092, 4518.341
970.021, 4464.281
971.949, 4423.438
973.878, 4405.417
975.806, 4366.107
977.735, 4304.615
979.663, 4222.253
981.591, 4117.879
983.520, 3993.442
985.448, 3838.663
987.377, 3709.132
989.305, 3608.920
991.234, 3525.555
993.162, 3458.946
995.091, 3408.094
997.019, 3374.000
998.948, 3353.220
1000.876, 3350.287
1002.805, 3327.145
1004.733, 3275.461
1006.662, 3249.421
1008.590, 3255.335
1010.518, 3258.894
1012.447, 3259.207
1014.375, 3251.580
1016.304, 3234.977
1018.232, 3220.058
1020.161, 3206.332
1022.089, 3210.902
1024.018, 3235.828
1025.946, 3245.504
1027.875, 3238.013
1029.803, 3235.876
1031.732, 3239.502
1033.660, 3263.836
1035.589, 3308.662
1037.517, 3322.765
1039.446, 3307.402
1041.374, 3302.610
1043.302, 3309.265
1045.231, 3345.394
1047.159, 3405.930
1049.088, 3460.797
1051.016, 3501.695
1052.945, 3462.183
1054.873, 3364.747
1056.802, 3309.654
1058.730, 3289.491
1060.659, 3280.727
1062.587, 3281.318
1064.516, 3290.444
1066.444, 3300.744
1068.373, 3286.856
1070.301, 3264.062
1072.229, 3268.329
1074.158, 3284.354
1076.086, 3282.921
1078.015, 3276.185
1079.943, 3281.229
1081.872, 3294.411
1083.800, 3318.127
1085.729, 3339.423
1087.657, 3342.349
1089.586, 3336.619
1091.514, 3321.528
1093.443, 3315.008
1095.371, 3340.378
1097.299, 3368.980
1099.228, 3382.879
1101.156, 3390.290
1103.085, 3393.894
1105.013, 3396.054
1106.942, 3399.091
1108.870, 3399.193
1110.799, 3384.173
1112.727, 3383.493
1114.656, 3418.429
1116.584, 3446.058
1118.513, 3456.989
1120.441, 3459.712
1122.370, 3447.942
1124.298, 3449.223
1126.226, 3474.923
1128.155, 3484.587
1130.083, 3469.787
1132.012, 3465.545
1133.940, 3475.672
1135.869, 3488.599
1137.797, 3503.615
1139.726, 3522.896
1141.654, 3545.876
1143.583, 3568.084
1145.511, 3587.931
1147.440, 3595.344
1149.368, 3595.652
1151.297, 3609.586
1153.225, 3631.523
1155.153, 3645.960
1157.082, 3659.268
1159.010, 3688.615
1160.939, 3717.863
1162.867, 3714.250
1164.796, 3714.173
1166.724, 3767.515
1168.653, 3823.300
1170.581, 3833.171
1172.510, 3842.208
1174.438, 3882.892
1176.367, 3922.150
1178.295, 3936.195
1180.224, 3960.115
1182.152, 4010.497
1184.080, 4062.721
1186.009, 4114.591
1187.937, 4162.084
1189.866, 4195.446
1191.794, 4247.888
1193.723, 4336.695
1195.651, 4380.587
1197.580, 4370.078
1199.508, 4404.203
1201.437, 4479.942
1203.365, 4498.867
1205.294, 4476.974
1207.222, 4503.656
1209.151, 4550.451
1211.079, 4540.916
1213.007, 4502.156
1214.936, 4466.651
1216.864, 4438.559
1218.793, 4430.413
1220.721, 4420.190
1222.650, 4386.423
1224.578, 4356.250
1226.507, 4340.022
1228.435, 4340.283
1230.364, 4361.936
1232.292, 4389.751
1234.221, 4421.863
1236.149, 4450.796
1238.078, 4472.082
1240.006, 4509.339
1241.934, 4566.967
1243.863, 4623.618
1245.791, 4678.771
1247.720, 4722.917
1249.648, 4759.315
1251.577, 4804.175
1253.505, 4854.904
1255.434, 4919.373
1257.362, 4972.546
1259.291, 4963.220
1261.219, 4943.997
1263.148, 4969.879
1265.076, 4992.991
1267.005, 4990.548
1268.933, 4972.997
1270.861, 4936.512
1272.790, 4909.852
1274.718, 4903.984
1276.647, 4884.039
1278.575, 4842.818
1280.504, 4816.257
1282.432, 4807.161
1284.361, 4789.484
1286.289, 4767.149
1288.218, 4765.765
1290.146, 4781.193
1292.075, 4808.885
1294.003, 4839.602
1295.932, 4870.792
1297.860, 4883.415
1299.788, 4836.878
1301.717, 4800.863
1303.645, 4835.040
1305.574, 4848.677
1307.502, 4809.195
1309.431, 4775.888
1311.359, 4759.087
1313.288, 4752.026
1315.216, 4753.021
1317.145, 4725.613
1319.073, 4675.283
1321.002, 4642.262
1322.930, 4624.802
1324.859, 4626.776
1326.787, 4628.210
1328.715, 4590.228
1330.644, 4551.309
1332.572, 4552.762
1334.501, 4551.451
1336.429, 4518.467
1338.358, 4490.742
1340.286, 4479.674
1342.215, 4462.997
1344.143, 4437.159
1346.072, 4418.576
1348.000, 4407.517
1349.929, 4391.535
1351.857, 4375.531
1353.786, 4383.451
1355.714, 4395.835
1357.642, 4374.290
1359.571, 4352.826
1361.499, 4372.563
1363.428, 4387.281
1365.356, 4368.839
1367.285, 4346.745
1369.213, 4324.224
1371.142, 4310.959
1373.070, 4309.322
1374.999, 4305.362
1376.927, 4300.024
1378.856, 4314.208
1380.784, 4336.422
1382.713, 4328.582
1384.641, 4316.215
1386.569, 4336.337
1388.498, 4356.445
1390.426, 4352.555
1392.355, 4344.565
1394.283, 4335.557
1396.212, 4334.030
1398.140, 4349.463
1400.069, 4348.145
1401.997, 4329.355
1403.926, 4317.131
1405.854, 4312.665
1407.783, 4327.162
1409.711, 4345.759
1411.640, 4342.549
1413.568, 4341.261
1415.496, 4358.187
1417.425, 4382.442
1419.353, 4421.615
1421.282, 4429.428
1423.210, 4381.602
1425.139, 4374.120
1427.067, 4406.853
1428.996, 4419.389
1430.924, 4415.422
1432.853, 4393.057
1434.781, 4376.354
1436.710, 4411.643
1438.638, 4436.745
1440.567, 4410.020
1442.495, 4393.145
1444.423, 4404.805
1446.352, 4429.527
1448.280, 4467.762
1450.209, 4478.411
1452.137, 4468.014
1454.066, 4467.723
1455.994, 4474.050
1457.923, 4484.126
1459.851, 4493.278
1461.780, 4496.247
1463.708, 4499.856
1465.637, 4503.886
1467.565, 4522.256
1469.494, 4558.758
1471.422, 4562.037
1473.350, 4536.959
1475.279, 4526.195
1477.207, 4529.083
1479.136, 4555.137
1481.064, 4579.349
1482.993, 4567.676
1484.921, 4574.571
1486.850, 4626.771
1488.778, 4650.987
1490.707, 4635.572
1492.635, 4632.157
1494.564, 4641.212
1496.492, 4645.823
1498.421, 4651.386
1500.349, 4671.599
1502.277, 4690.378
1504.206, 4690.585
1506.134, 4697.201
1508.063, 4718.657
1509.991, 4738.476
1511.920, 4754.444
1513.848, 4760.786
1515.777, 4758.175
1517.705, 4744.310
1519.634, 4732.658
1521.562, 4743.851
1523.491, 4756.745
1525.419, 4756.191
1527.348, 4764.924
1529.276, 4788.768
1531.204, 4798.709
1533.133, 4794.191
1535.061, 4775.191
1536.990, 4757.253
1538.918, 4765.970
1540.847, 4787.709
1542.775, 4772.859
1544.704, 4800.148
1546.632, 4817.206
1548.561, 4824.588
1550.489, 4793.301
1552.418, 4811.946
1554.346, 4810.579
1556.275, 4808.394
1558.203, 4834.065
1560.131, 4808.402
1562.060, 4833.633
1563.988, 4838.546
1565.917, 4852.760
1567.845, 4846.838
1569.774, 4847.137
1571.702, 4867.573
1573.631, 4876.860
1575.559, 4868.620
1577.488, 4883.425
1579.416, 4857.058
1581.345, 4866.820
1583.273, 4892.167
1585.202, 4884.941
1587.130, 4900.112
1589.058, 4906.752
1590.987, 4889.798
1592.915, 4905.897
1594.844, 4900.829
1596.772, 4896.915
1598.701, 4905.920
1600.629, 4906.437
1602.558, 4896.244
1604.486, 4882.847
1606.415, 4868.483
1608.343, 4854.861
1610.272, 4851.133
1612.200, 4872.697
1614.129, 4878.061
1616.057, 4849.510
1617.985, 4836.895
1619.914, 4842.083
1621.842, 4845.044
1623.771, 4843.202
1625.699, 4825.167
1627.628, 4811.729
1629.556, 4815.100
1631.485, 4819.486
1633.413, 4821.757
1635.342, 4829.451
1637.270, 4838.257
1639.199, 4821.385
1641.127, 4806.299
1643.056, 4834.090
1644.984, 4853.313
1646.912, 4845.507
1648.841, 4843.502
1650.769, 4851.285
1652.698, 4866.186
1654.626, 4880.772
1656.555, 4879.074
1658.483, 4874.034
1660.412, 4872.958
1662.340, 4872.894
1664.269, 4873.121
1666.197, 4857.279
1668.126, 4832.310
1670.054, 4824.856
1671.983, 4819.773
1673.911, 4794.340
1675.839, 4787.598
1677.768, 4815.489
1679.696, 4801.884
1681.625, 4756.771
1683.553, 4772.972
1685.482, 4798.183
1687.410, 4752.423
1689.339, 4710.479
1691.267, 4699.543
1693.196, 4719.476
1695.124, 4762.695
1697.053, 4750.234
1698.981, 4715.739
1700.910, 4718.279
1702.838, 4719.708
1704.766, 4686.625
1706.695, 4680.635
1708.623, 4705.636
1710.552, 4698.811
1712.480, 4674.906
1714.409, 4667.146
1716.337, 4655.975
1718.266, 4626.020
1720.194, 4653.670
1722.123, 4667.335
1724.051, 4667.771
1725.980, 4615.344
1727.908, 4631.179
1729.837, 4619.655
1731.765, 4607.013
1733.693, 4632.454
1735.622, 4587.716
1737.550, 4612.553
1739.479, 4609.616
1741.407, 4619.391
1743.336, 4601.641
1745.264, 4592.394
1747.193, 4610.677
1749.121, 4613.718
1751.050, 4592.799
1752.978, 4603.382
1754.907, 4557.683
1756.835, 4561.373
1758.764, 4586.369
1760.692, 4566.835
1762.620, 4577.922
1764.549, 4577.346
1766.477, 4523.773
1768.406, 4562.367
1770.334, 4561.103
1772.263, 4518.909
1774.191, 4554.347
1776.120, 4517.795
1778.048, 4506.941
1779.977, 4514.501
1781.905, 4505.903
1783.834, 4509.492
1785.762, 4531.513
1787.691, 4537.320
1789.619, 4527.247
1791.547, 4512.942
1793.476, 4496.182
1795.404, 4471.484
1797.333, 4465.127
1799.261, 4482.729
1801.190, 4503.984
1803.118, 4520.260
1805.047, 4511.161
1806.975, 4498.262
1808.904, 4492.915
1810.832, 4487.226
1812.761, 4481.279
1814.689, 4477.611
1816.618, 4475.341
1818.546, 4471.433
1820.474, 4473.009
1822.403, 4481.873
1824.331, 4491.651
1826.260, 4500.277
1828.188, 4512.296
1830.117, 4512.854
1832.045, 4473.888
1833.974, 4459.416
1835.902, 4474.772
1837.831, 4459.932
1839.759, 4438.996
1841.688, 4457.999
1843.616, 4470.776
1845.545, 4454.582
1847.473, 4462.260
1849.401, 4484.653
1851.330, 4485.000
1853.258, 4475.840
1855.187, 4459.159
1857.115, 4458.871
1859.044, 4476.822
1860.972, 4478.047
1862.901, 4471.455
1864.829, 4465.141
1866.758, 4464.613
1868.686, 4476.916
1870.615, 4470.419
1872.543, 4453.508
1874.472, 4456.045
1876.400, 4460.224
1878.328, 4458.375
1880.257, 4447.016
1882.185, 4428.645
1884.114, 4445.900
1886.042, 4455.191
1887.971, 4396.506
1889.899, 4373.712
1891.828, 4417.427
1893.756, 4421.919
1895.685, 4411.657
1897.613, 4431.588
1899.542, 4447.232
1901.470, 4448.686
1903.399, 4411.862
1905.327, 4361.284
1907.255, 4380.045
1909.184, 4405.984
1911.112, 4409.569
1913.041, 4406.363
1914.969, 4396.542
1916.898, 4354.038
1918.826, 4325.409
1920.755, 4352.427
1922.683, 4365.126
1924.612, 4352.233
1926.540, 4360.064
1928.469, 4375.275
1930.397, 4389.231
1932.326, 4377.959
1934.254, 4338.766
1936.182, 4329.473
1938.111, 4340.193
1940.039, 4364.883
1941.968, 4376.005
1943.896, 4365.599
1945.825, 4357.407
1947.753, 4354.593
1949.682, 4368.145
1951.610, 4363.098
1953.539, 4325.590
1955.467, 4310.735
1957.396, 4316.354
1959.324, 4330.787
1961.253, 4327.784
1963.181, 4292.824
1965.109, 4282.863
1967.038, 4287.215
1968.966, 4273.790
1970.895, 4261.935
1972.823, 4258.128
1974.752, 4255.278
1976.680, 4256.622
1978.609, 4274.317
1980.537, 4284.642
1982.466, 4263.958
1984.394, 4251.259
1986.323, 4248.604
1988.251, 4235.582
1990.180, 4228.129
1992.108, 4244.861
1994.036, 4267.733
1995.965, 4285.142
1997.893, 4255.562
1999.822, 4217.911
2001.750, 4190.820
2003.679, 4188.017
2005.607, 4199.684
2007.536, 4203.278
2009.464, 4204.113
2011.393, 4201.140
2013.321, 4191.184
2015.250, 4177.525
2017.178, 4172.348
2019.107, 4166.422
2021.035, 4154.701
2022.964, 4149.353
2024.892, 4150.931
2026.820, 4139.042
2028.749, 4132.397
2030.677, 4146.188
2032.606, 4134.575
2034.534, 4107.899
2036.463, 4090.455
2038.391, 4085.829
2040.320, 4096.926
2042.248, 4132.304
2044.177, 4160.890
2046.105, 4132.691
2048.034, 4099.467
2049.962, 4064.696
2051.891, 4079.250
2053.819, 4107.614
2055.748, 4087.517
2057.676, 4064.705
2059.604, 4050.600
2061.533, 4045.779
2063.461, 4043.028
2065.390, 4046.009
2067.318, 4030.525
2069.247, 3999.358
2071.175, 4039.460
2073.104, 4078.713
2075.032, 4056.270
2076.960, 4030.497
2078.889, 4012.406
2080.817, 4018.072
2082.746, 4028.404
2084.674, 4033.862
2086.603, 4001.788
2088.531, 3960.552
2090.460, 3965.510
2092.388, 3970.968
2094.317, 3976.063
2096.245, 4005.710
2098.174, 4024.328
2100.102, 3991.148
2102.031, 3973.014
2103.959, 3975.471
2105.887, 3976.562
2107.816, 3969.272
2109.744, 3949.479
2111.673, 3931.233
2113.601, 3923.602
2115.530, 3935.489
2117.458, 3942.356
2119.387, 3924.754
2121.315, 3907.992
2123.244, 3899.434
2125.172, 3891.898
2127.101, 3888.727
2129.029, 3894.865
2130.958, 3863.048
2132.886, 3833.688
2134.814, 3843.895
2136.743, 3846.159
2138.671, 3833.343
2140.600, 3832.911
2142.528, 3835.441
2144.457, 3822.722
2146.385, 3794.334
2148.314, 3778.615
2150.242, 3789.497
2152.171, 3816.559
2154.099, 3839.068
2156.028, 3812.165
2157.956, 3787.015
2159.885, 3774.372
2161.813, 3763.362
2163.741, 3758.326
2165.670, 3748.454
2167.598, 3733.990
2169.527, 3723.421
2171.455, 3729.333
2173.384, 3739.239
2175.312, 3735.851
2177.241, 3729.518
2179.169, 3721.843
2181.098, 3716.147
2183.026, 3702.665
2184.955, 3687.366
2186.883, 3682.208
2188.812, 3684.201
2190.740, 3688.900
2192.668, 3685.652
2194.597, 3684.647
2196.525, 3686.899
2198.454, 3680.311
2200.382, 3650.231
2202.311, 3617.917
2204.239, 3605.210
2206.168, 3601.357
2208.096, 3588.986
2210.025, 3586.315
2211.953, 3580.896
2213.882, 3570.889
2215.810, 3569.822
2217.739, 3566.633
2219.667, 3560.437
2221.595, 3548.603
2223.524, 3542.936
2225.452, 3543.063
2227.381, 3537.167
2229.309, 3524.907
2231.238, 3501.765
2233.166, 3496.427
2235.095, 3496.819
2237.023, 3475.418
2238.952, 3463.913
2240.880, 3462.134
2242.809, 3470.317
2244.737, 3483.762
2246.666, 3482.178
2248.594, 3475.842
2250.522, 3470.457
2252.451, 3459.403
2254.379, 3439.742
2256.308, 3420.719
2258.236, 3422.466
2260.165, 3402.291
2262.093, 3378.253
2264.022, 3399.147
2265.950, 3402.711
2267.879, 3390.394
2269.807, 3380.641
2271.736, 3377.225
2273.664, 3375.915
2275.593, 3350.818
2277.521, 3328.539
2279.449, 3357.254
2281.378, 3354.007
2283.306, 3305.029
2285.235, 3285.188
2287.163, 3296.122
2289.092, 3313.480
2291.020, 3313.234
2292.949, 3297.702
2294.877, 3262.778
2296.806, 3255.109
2298.734, 3251.398
2300.663, 3250.875
2302.591, 3252.913
2304.520, 3244.449
2306.448, 3229.452
2308.376, 3222.286
2310.305, 3223.605
2312.233, 3227.337
2314.162, 3222.175
2316.090, 3199.036
2318.019, 3201.144
2319.947, 3204.290
2321.876, 3159.804
2323.804, 3139.295
2325.733, 3154.443
2327.661, 3178.102
2329.590, 3186.427
2331.518, 3174.960
2333.447, 3151.439
2335.375, 3126.291
2337.303, 3119.703
2339.232, 3108.078
2341.160, 3094.896
2343.089, 3089.464
2345.017, 3097.519
2346.946, 3106.027
2348.874, 3078.648
2350.803, 3055.303
2352.731, 3045.359
2354.660, 3035.643
2356.588, 3035.827
2358.517, 3046.418
2360.445, 3055.854
2362.374, 3053.081
2364.302, 3026.610
2366.230, 2998.663
2368.159, 2986.098
2370.087, 3011.583
2372.016, 3005.414
2373.944, 2976.474
2375.873, 2958.377
2377.801, 2949.157
2379.730, 2944.324
2381.658, 2929.315
2383.587, 2916.229
2385.515, 2909.690
2387.444, 2928.116
2389.372, 2937.226
2391.301, 2920.096
2393.229, 2911.347
2395.157, 2907.502
2397.086, 2907.243
2399.014, 2892.788
2400.943, 2872.554
2402.871, 2863.690
2404.800, 2853.545
2406.728, 2844.032
2408.657, 2841.404
2410.585, 2831.888
2412.514, 2816.650
2414.442, 2804.875
2416.371, 2799.130
2418.299, 2798.240
2420.228, 2793.635
2422.156, 2794.117
2424.084, 2801.892
2426.013, 2771.533
2427.941, 2748.260
2429.870, 2762.927
2431.798, 2739.549
2433.727, 2713.871
2435.655, 2717.963
2437.584, 2712.678
2439.512, 2708.679
2441.441, 2720.939
2443.369, 2732.178
2445.298, 2728.293
2447.226, 2693.734
2449.155, 2673.579
2451.083, 2664.601
2453.011, 2661.873
2454.940, 2657.721
2456.868, 2643.370
2458.797, 2626.460
2460.725, 2628.661
2462.654, 2638.157
2464.582, 2617.840
2466.511, 2594.078
2468.439, 2580.973
2470.368, 2563.801
2472.296, 2557.196
2474.225, 2574.318
2476.153, 2573.154
2478.082, 2558.981
2480.010, 2533.959
2481.938, 2544.688
2483.867, 2549.278
2485.795, 2529.126
2487.724, 2524.480
2489.652, 2511.355
2491.581, 2488.353
2493.509, 2493.567
2495.438, 2498.043
2497.366, 2487.316
2499.295, 2473.270
2501.223, 2457.383
2503.152, 2444.125
2505.080, 2433.544
2507.009, 2430.201
2508.937, 2419.531
2510.865, 2406.231
2512.794, 2402.833
2514.722, 2404.036
2516.651, 2380.890
2518.579, 2352.258
2520.508, 2343.361
2522.436, 2355.278
2524.365, 2368.422
2526.293, 2348.977
2528.222, 2347.850
2530.150, 2348.754
2532.079, 2324.357
2534.007, 2318.281
2535.936, 2323.286
2537.864, 2311.583
2539.792, 2297.404
2541.721, 2284.456
2543.649, 2285.967
2545.578, 2265.021
2547.506, 2252.696
2549.435, 2277.812
2551.363, 2273.572
2553.292, 2253.108
2555.220, 2239.371
2557.149, 2225.946
2559.077, 2212.703
2561.006, 2206.112
2562.934, 2199.043
2564.863, 2184.878
2566.791, 2180.696
2568.719, 2179.232
2570.648, 2178.778
2572.576, 2189.836
2574.505, 2185.395
2576.433, 2169.948
2578.362, 2127.665
2580.290, 2114.781
2582.219, 2137.196
2584.147, 2129.214
2586.076, 2097.551
2588.004, 2085.403
2589.933, 2086.762
2591.861, 2087.461
2593.790, 2079.984
2595.718, 2067.498
2597.646, 2061.701
2599.575, 2054.418
2601.503, 2032.109
2603.432, 2010.263
2605.360, 1998.237
2607.289, 2002.202
2609.217, 1997.924
2611.146, 1979.244
2613.074, 1968.382
2615.003, 1975.680
2616.931, 1964.815
2618.860, 1963.270
2620.788, 1959.604
2622.717, 1952.127
2624.645, 1944.637
2626.573, 1923.630
2628.502, 1920.100
2630.430, 1903.759
2632.359, 1891.965
2634.287, 1892.730
2636.216, 1901.572
2638.144, 1884.415
2640.073, 1855.213
2642.001, 1855.995
2643.930, 1845.818
2645.858, 1831.501
2647.787, 1821.231
2649.715, 1812.607
2651.644, 1810.084
2653.572, 1810.409
2655.500, 1805.414
2657.429, 1803.719
2659.357, 1794.170
2661.286, 1784.700
2663.214, 1771.286
2665.143, 1753.871
2667.071, 1735.241
2669.000, 1752.167
2670.928, 1754.281
2672.857, 1733.456
2674.785, 1723.577
2676.714, 1724.239
2678.642, 1712.267
2680.571, 1712.153
2682.499, 1707.891
2684.427, 1681.635
2686.356, 1678.155
2688.284, 1682.412
2690.213, 1686.088
2692.141, 1664.513
2694.070, 1646.044
2695.998, 1633.786
2697.927, 1626.008
2699.855, 1620.572
2701.784, 1608.530
2703.712, 1602.004
2705.641, 1599.925
2707.569, 1596.139
2709.498, 1586.142
2711.426, 1573.912
2713.354, 1557.851
2715.283, 1555.589
2717.211, 1553.201
2719.140, 1553.199
2721.068, 1544.285
2722.997, 1540.438
2724.925, 1527.035
2726.854, 1509.099
2728.782, 1497.489
2730.711, 1482.063
2732.639, 1481.623
2734.568, 1488.677
2736.496, 1492.242
2738.425, 1475.572
2740.353, 1470.591
2742.281, 1464.234
2744.210, 1456.416
2746.138, 1450.087
2748.067, 1444.785
2749.995, 1437.505
2751.924, 1415.386
2753.852, 1405.584
2755.781, 1394.348
2757.709, 1389.648
2759.638, 1385.748
2761.566, 1372.122
2763.495, 1368.448
2765.423, 1358.406
2767.352, 1349.593
2769.280, 1346.421
2771.208, 1329.761
2773.137, 1314.620
2775.065, 1315.381
2776.994, 1329.110
2778.922, 1317.244
2780.851, 1300.001
2782.779, 1301.347
2784.708, 1302.407
2786.636, 1289.843
2788.565, 1264.996
2790.493, 1262.527
2792.422, 1266.919
2794.350, 1262.682
2796.279, 1235.618
2798.207, 1223.204
2800.135, 1219.740
2802.064, 1223.355
2803.992, 1216.854
2805.921, 1200.876
2807.849, 1189.014
2809.778, 1172.542
2811.706, 1173.568
2813.635, 1181.349
2815.563, 1153.115
2817.492, 1147.502
2819.420, 1155.022
2821.349, 1134.353
2823.277, 1143.695
2825.206, 1145.587
2827.134, 1121.285
2829.063, 1128.031
2830.991, 1127.634
2832.919, 1117.707
2834.848, 1109.147
2836.776, 1105.428
2838.705, 1103.871
2840.633, 1097.012
2842.562, 1085.833
2844.490, 1071.688
2846.419, 1059.157
2848.347, 1060.553
2850.276, 1060.149
2852.204, 1057.419
2854.133, 1054.208
2856.061, 1032.181
2857.990, 1023.054
2859.918, 1033.192
2861.846, 1025.823
2863.775, 1009.227
2865.703, 990.757
2867.632, 975.231
2869.560, 973.388
2871.489, 971.361
2873.417, 964.624
2875.346, 961.009
2877.274, 955.551
2879.203, 948.996
2881.131, 947.383
2883.060, 936.772
2884.988, 924.242
2886.917, 914.709
2888.845, 904.894
2890.773, 908.309
2892.702, 918.957
2894.630, 925.414
2896.559, 910.805
2898.487, 890.750
2900.416, 876.347
2902.344, 878.943
2904.273, 879.945
2906.201, 874.311
2908.130, 859.854
2910.058, 850.924
2911.987, 841.155
2913.915, 827.154
2915.844, 810.104
2917.772, 812.893
2919.700, 820.745
2921.629, 806.026
2923.557, 797.126
2925.486, 789.253
2927.414, 781.804
2929.343, 789.871
2931.271, 784.570
2933.200, 773.756
2935.128, 771.883
2937.057, 768.338
2938.985, 758.439
2940.914, 748.541
2942.842, 753.389
2944.771, 744.523
2946.699, 733.635
2948.627, 728.733
2950.556, 727.621
2952.484, 726.786
2954.413, 721.079
2956.341, 699.792
2958.270, 689.659
2960.198, 686.176
2962.127, 684.292
2964.055, 695.858
2965.984, 691.753
2967.912, 677.142
2969.841, 672.154
2971.769, 671.881
2973.698, 663.427
2975.626, 648.365
2977.554, 645.674
2979.483, 635.323
2981.411, 622.105
2983.340, 619.917
2985.268, 620.270
2987.197, 614.432
2989.125, 612.943
2991.054, 623.263
2992.982, 601.989
2994.911, 592.124
2996.839, 594.866
2998.768, 584.988
3000.696, 579.346
3002.625, 585.211
3004.553, 585.644
3006.481, 571.583
3008.410, 552.385
3010.338, 545.431
3012.267, 550.973
3014.195, 535.275
3016.124, 531.473
3018.052, 538.297
3019.981, 539.256
3021.909, 527.517
3023.838, 521.642
3025.766, 524.498
3027.695, 519.454
3029.623, 503.919
3031.552, 494.978
3033.480, 500.608
3035.408, 498.098
3037.337, 491.449
3039.265, 484.892
3041.194, 479.850
3043.122, 471.210
3045.051, 468.663
3046.979, 467.544
3048.908, 466.206
3050.836, 464.418
3052.765, 461.946
3054.693, 461.121
3056.622, 449.203
3058.550, 447.788
3060.479, 448.519
3062.407, 442.751
3064.335, 428.575
3066.264, 416.509
3068.192, 409.457
3070.121, 413.031
3072.049, 416.497
3073.978, 408.186
3075.906, 395.217
3077.835, 403.271
3079.763, 399.931
3081.692, 393.958
3083.620, 396.017
3085.549, 400.929
3087.477, 388.844
3089.406, 382.091
3091.334, 378.698
3093.262, 373.019
3095.191, 369.828
3097.119, 368.534
3099.048, 362.842
3100.976, 351.296
3102.905, 350.496
3104.833, 344.813
3106.762, 337.962
3108.690, 337.963
3110.619, 331.546
3112.547, 326.613
3114.476, 318.044
3116.404, 315.558
3118.333, 312.408
3120.261, 315.661
3122.189, 323.194
3124.118, 318.385
3126.046, 320.695
3127.975, 316.605
3129.903, 301.914
3131.832, 297.740
3133.760, 301.497
3135.689, 295.988
3137.617, 286.901
3139.546, 295.837
3141.474, 288.685
3143.403, 281.740
3145.331, 292.600
3147.260, 284.181
3149.188, 275.165
3151.116, 269.638
3153.045, 266.730
3154.973, 266.744
3156.902, 264.400
3158.830, 258.503
3160.759, 252.160
3162.687, 258.708
3164.616, 244.277
3166.544, 239.121
3168.473, 249.498
3170.401, 245.871
3172.330, 247.734
3174.258, 243.399
3176.187, 232.906
3178.115, 241.518
3180.043, 238.701
3181.972, 236.459
3183.900, 239.372
3185.829, 229.678
3187.757, 232.894
3189.686, 230.534
3191.614, 220.661
3193.543, 214.344
3195.471, 219.873
3197.400, 221.168
3199.328, 215.852
3201.257, 213.938
3203.185, 218.710
3205.114, 210.529
3207.042, 206.063
3208.970, 221.573
3210.899, 214.201
3212.827, 209.049
3214.756, 205.106
3216.684, 198.457
3218.613, 209.816
3220.541, 213.437
3222.470, 208.699
3224.398, 201.467
3226.327, 195.976
3228.255, 201.628
3230.184, 206.734
3232.112, 206.434
3234.041, 202.459
3235.969, 201.208
3237.897, 200.131
3239.826, 199.315
3241.754, 198.675
3243.683, 204.587
3245.611, 205.579
3247.540, 200.236
3249.468, 194.940
3251.397, 204.121
3253.325, 196.284
3255.254, 190.291
3257.182, 192.803
3259.111, 197.444
3261.039, 200.388
3262.968, 198.010
3264.896, 191.594
3266.824, 183.120
3268.753, 180.979
3270.681, 182.658
3272.610, 177.156
3274.538, 168.834
3276.467, 182.691
3278.395, 173.737
3280.324, 168.922
3282.252, 169.125
3284.181, 162.331
3286.109, 165.242
3288.038, 162.732
3289.966, 163.622
3291.895, 169.524
3293.823, 156.788
3295.751, 165.609
3297.680, 166.415
3299.608, 158.927
3301.537, 163.235
3303.465, 144.130
3305.394, 145.546
3307.322, 157.874
3309.251, 163.126
3311.179, 154.203
3313.108, 144.087
3315.036, 142.532
3316.965, 145.702
3318.893, 143.220
3320.822, 151.158
3322.750, 145.068
3324.678, 142.540
3326.607, 151.434
3328.535, 146.035
3330.464, 134.745
3332.392, 136.389
3334.321, 141.345
3336.249, 132.935
3338.178, 141.834
3340.106, 136.621
3342.035, 131.430
3343.963, 135.007
3345.892, 144.993
3347.820, 129.602
3349.749, 126.984
3351.677, 129.010
3353.605, 122.246
3355.534, 115.983
3357.462, 119.534
3359.391, 126.492
3361.319, 128.484
3363.248, 119.470
3365.176, 111.354
3367.105, 110.128
3369.033, 114.361
3370.962, 118.237
3372.890, 113.334
3374.819, 105.691
3376.747, 111.724
3378.676, 122.246
3380.604, 125.785
3382.532, 115.680
3384.461, 111.908
3386.389, 110.072
3388.318, 108.522
3390.246, 106.978
3392.175, 104.311
3394.103, 109.095
3396.032, 107.303
3397.960, 104.318
3399.889, 109.176
3401.817, 101.921
3403.746, 101.902
3405.674, 109.200
3407.603, 116.597
3409.531, 115.968
3411.459, 102.598
3413.388, 97.892
3415.316, 97.515
3417.245, 95.585
3419.173, 89.605
3421.102, 87.084
3423.030, 93.992
3424.959, 93.803
3426.887, 89.028
3428.816, 96.363
3430.744, 94.716
3432.673, 89.196
3434.601, 86.359
3436.530, 85.951
3438.458, 83.002
3440.386, 80.279
3442.315, 82.072
3444.243, 84.801
3446.172, 85.195
3448.100, 81.615
3450.029, 86.445
3451.957, 80.495
3453.886, 77.471
3455.814, 79.933
3457.743, 79.671
3459.671, 80.383
3461.600, 81.759
3463.528, 73.837
3465.457, 68.620
3467.385, 82.132
3469.313, 80.142
3471.242, 77.685
3473.170, 72.679
3475.099, 71.334
3477.027, 77.101
3478.956, 69.336
3480.884, 73.662
3482.813, 73.160
3484.741, 71.651
3486.670, 73.179
3488.598, 66.850
3490.527, 71.726
3492.455, 70.229
3494.384, 65.759
3496.312, 64.613
3498.240, 67.973
3500.169, 66.169
3502.097, 68.197
3504.026, 66.146
3505.954, 62.066
3507.883, 63.779
3509.811, 71.332
3511.740, 58.274
3513.668, 49.704
3515.597, 53.800
3517.525, 62.376
3519.454, 54.145
3521.382, 58.383
3523.311, 56.623
3525.239, 51.592
3527.167, 49.289
3529.096, 51.450
3531.024, 53.015
3532.953, 52.841
3534.881, 50.464
3536.810, 50.965
3538.738, 56.265
3540.667, 52.923
3542.595, 55.908
3544.524, 55.354
3546.452, 55.393
3548.381, 57.245
3550.309, 56.194
3552.238, 55.000
3554.166, 53.496
3556.094, 52.240
3558.023, 53.672
3559.951, 55.933
3561.880, 48.990
3563.808, 40.312
3565.737, 46.448
3567.665, 51.221
3569.594, 50.288
3571.522, 49.896
3573.451, 47.573
3575.379, 45.077
3577.308, 42.664
3579.236, 44.013
3581.165, 50.307
3583.093, 57.885
3585.021, 52.753
3586.950, 52.439
3588.878, 45.315
3590.807, 40.519
3592.735, 41.290
3594.664, 34.999
3596.592, 36.715
3598.521, 34.777
3600.449, 37.878
3602.378, 40.168
3604.306, 38.422
3606.235, 44.772
3608.163, 41.727
3610.092, 40.564
3612.020, 35.695
3613.948, 34.670
3615.877, 40.632
3617.805, 35.480
3619.734, 40.305
3621.662, 42.861
3623.591, 43.694
3625.519, 41.498
3627.448, 37.124
3629.376, 38.927
3631.305, 42.606
3633.233, 45.049
3635.162, 40.893
3637.090, 38.258
3639.019, 42.020
3640.947, 43.432
3642.875, 42.305
3644.804, 41.853
3646.732, 35.051
3648.661, 31.708
3650.589, 34.050
3652.518, 31.723
3654.446, 38.163
3656.375, 40.966
3658.303, 38.131
3660.232, 32.474
3662.160, 29.899
3664.089, 34.481
3666.017, 38.808
3667.946, 34.556
3669.874, 28.940
3671.802, 25.785
3673.731, 23.724
3675.659, 23.920
3677.588, 33.309
3679.516, 26.560
3681.445, 27.634
3683.373, 31.435
3685.302, 25.908
3687.230, 18.337
3689.159, 25.481
3691.087, 24.030
3693.016, 29.566
3694.944, 27.340
3696.873, 23.582
3698.801, 25.522
3700.729, 30.932
3702.658, 25.937
3704.586, 32.653
3706.515, 20.020
3708.443, 28.807
3710.372, 32.055
3712.300, 24.057
3714.229, 27.335
3716.157, 28.013
3718.086, 21.381
3720.014, 29.769
3721.943, 27.974
3723.871, 22.087
3725.800, 22.565
3727.728, 24.472
3729.656, 20.961
3731.585, 25.695
3733.513, 20.754
3735.442, 21.463
3737.370, 24.286
3739.299, 23.002
3741.227, 22.582
3743.156, 21.550
3745.084, 17.882
3747.013, 19.907
3748.941, 21.054
3750.870, 19.641
3752.798, 20.263
3754.727, 24.451
3756.655, 14.194
3758.583, 14.282
3760.512, 18.374
3762.440, 17.093
3764.369, 12.082
3766.297, 13.392
3768.226, 24.865
3770.154, 25.483
3772.083, 23.122
3774.011, 16.010
3775.940, 16.432
3777.868, 20.338
3779.797, 21.492
3781.725, 20.342
3783.654, 21.351
3785.582, 15.995
3787.510, 10.912
3789.439, 21.254
3791.367, 26.182
3793.296, 19.470
3795.224, 11.878
3797.153, 14.134
3799.081, 20.970
3801.010, 18.942
3802.938, 19.408
3804.867, 19.269
3806.795, 18.557
3808.724, 15.555
3810.652, 15.470
3812.581, 20.128
3814.509, 16.080
3816.438, 15.174
3818.366, 15.995
3820.294, 18.141
3822.223, 15.260
3824.151, 10.425
3826.080, 11.538
3828.008, 12.790
3829.937, 7.361
3831.865, 16.471
3833.794, 14.138
3835.722, 10.677
3837.651, 7.941
3839.579, 9.701
3841.508, 18.306
3843.436, 10.593
3845.365, 14.377
3847.293, 21.278
3849.221, 3.138
3851.150, 2.864
3853.078, 8.162
3855.007, 5.396
3856.935, 7.458
3858.864, 24.266
3860.792, 15.691
3862.721, 11.045
3864.649, 8.423
3866.578, 12.044
3868.506, 16.402
3870.435, 14.306
3872.363, 9.067
3874.292, 9.914
3876.220, 9.577
3878.148, 19.314
3880.077, 17.368
3882.005, 17.707
3883.934, 17.490
3885.862, 16.750
3887.791, 13.913
3889.719, 13.783
3891.648, 12.568
3893.576, 11.309
3895.505, 11.559
3897.433, 10.034
3899.362, 11.180
3901.290, 13.055
3903.219, 10.586
3905.147, 9.773
3907.075, 15.517
3909.004, 13.198
3910.932, 9.534
3912.861, 8.050
3914.789, 7.472
3916.718, 2.440
3918.646, -1.008
3920.575, 3.514
3922.503, 9.532
3924.432, 8.921
3926.360, 5.602
3928.289, 6.687
3930.217, 5.625
3932.146, 5.556
3934.074, 4.677
3936.002, 3.312
3937.931, 1.967
3939.859, 5.206
3941.788, 8.491
3943.716, 6.079
3945.645, 10.699
3947.573, 11.121
3949.502, 9.555
3951.430, 14.531
3953.359, 2.638
3955.287, 5.100
3957.216, 13.320
3959.144, 10.688
3961.073, 4.394
3963.001, 7.625
3964.929, 13.844
3966.858, 6.328
3968.786, 7.357
3970.715, 1.000
3972.643, 5.102
3974.572, 3.599
3976.500, 7.364
3978.429, 8.141
3980.357, 5.769
3982.286, 9.350
3984.214, 4.314
3986.143, 0.349
3988.071, -1.576
3990.000, 2.098
3991.928, 0.831
3993.856, 7.623
3995.785, 6.732
3997.713, -0.283
3999.642, -1.687
4001.570, 5.006
4003.499, 10.535
4005.427, 4.320
4007.356, -1.127
4009.284, -0.505
4011.213, 3.305
4013.141, 5.308
4015.070, 5.503
4016.998, 6.633
4018.927, 6.271
4020.855, 6.349
4022.783, 7.546
4024.712, 3.461
4026.640, -3.397
4028.569, 9.598
4030.497, 7.449
4032.426, 8.014
4034.354, -2.021
4036.283, 5.991
4038.211, 12.203
4040.140, 11.821
4042.068, 7.753
4043.997, 7.111
4045.925, 7.768
4047.854, 6.170
4049.782, 6.640
4051.710, 3.296
4053.639, 9.579
4055.567, 7.856
4057.496, 4.081
4059.424, -1.018
4061.353, 3.539
4063.281, -1.606
4065.210, -2.653
4067.138, 6.924
4069.067, 12.576
4070.995, 8.863
4072.924, 4.214
4074.852, 0.743
4076.781, -4.167
4078.709, 2.362
4080.637, 4.196
4082.566, 4.494
4084.494, 2.768
4086.423, 6.813
4088.351, 2.013
4090.280, 3.212
4092.208, 0.809
4094.137, 1.287
4096.065, 2.828
4097.994, 3.060
4099.922, 6.674
4101.851, 4.532
4103.779, 7.224
4105.708, 8.740
4107.636, 9.192
4109.564, 2.505
4111.493, 1.314
4113.421, 1.741
4115.350, 8.968
4117.278, 3.826
4119.207, 6.744
4121.135, 2.592
4123.063, 3.130
4124.992, 4.415
4126.920, -1.530
4128.849, -4.235
4130.777, -6.250
4132.706, -0.402
4134.634, -1.597
4136.563, 5.642
4138.491, -0.476
4140.420, -4.195
4142.348, -2.608
4144.277, 3.117
4146.205, 4.190
4148.134, -2.582
4150.062, -0.907
4151.991, 1.134
4153.919, 3.972
4155.848, -0.900
4157.776, -1.878
4159.705, 2.430
4161.633, -0.173
4163.562, 3.975
4165.490, 1.573
4167.418, 3.008
4169.347, 5.725
4171.275, 5.953
4173.204, 4.564
4175.132, 4.395
4177.061, 3.973
4178.989, 8.440
4180.917, 3.689
4182.846, 8.197
4184.774, 8.865
4186.703, 4.717
4188.631, 2.580
4190.560, 5.282
4192.488, 2.009
4194.417, -2.819
4196.345, -0.100
4198.274, 3.237
4200.202, 1.993
4202.131, -1.118
4204.059, 1.392
4205.988, 1.821
4207.916, 5.344
4209.845, -3.720
4211.773, 6.743
4213.702, -2.275
4215.630, 2.241
4217.559, 2.000
4219.487, -1.602
4221.416, 4.172
4223.344, 6.615
4225.272, 2.530
4227.201, -4.714
4229.129, -0.876
4231.058, -2.494
4232.986, 4.792
4234.915, 2.752
4236.843, -2.101
4238.771, 1.776
4240.700, 4.720
4242.628, 3.650
4244.557, 0.651
4246.485, 0.857
4248.414, 7.666
4250.342, 12.322
4252.271, 4.466
4254.199, 6.590
4256.128, 10.880
4258.056, -7.774
4259.985, -0.525
4261.913, 0.047
4263.842, -2.933
4265.770, -1.038
4267.699, 9.776
4269.627, 4.402
4271.556, 0.522
4273.484, 0.000
4275.413, 0.315
4277.341, -3.116
4279.270, 3.171
4281.198, -0.094
4283.126, 0.207
4285.055, 2.084
4286.983, 14.521
4288.912, 4.560
4290.840, -2.454
4292.769, -6.767
4294.697, -2.090
4296.625, 3.597
4298.554, 5.565
4300.482, 4.496
4302.411, 3.826
4304.339, 3.910
4306.268, 3.316
4308.196, 2.099
4310.125, -1.251
4312.053, 2.250
4313.982, 2.414
4315.910, -0.236
4317.839, 10.310
4319.767, 0.620
4321.696, 2.675
4323.624, 1.600
4325.553, 4.038
4327.481, 4.736
4329.410, 1.512
4331.338, 1.211
4333.267, 0.338
4335.195, 0.682
4337.124, 1.323
4339.052, -4.539
4340.980, -4.581
4342.909, -4.597
4344.837, -0.128
4346.766, -0.131
4348.694, -7.187
4350.623, 5.342
4352.551, 1.920
4354.479, -5.525
4356.408, -3.126
4358.336, -12.055
4360.265, -1.178
4362.193, 4.607
4364.122, -1.647
4366.050, 8.912
4367.979, -0.569
4369.907, -0.354
4371.836, 2.445
4373.764, 7.432
4375.693, 3.173
4377.621, 8.656
4379.550, 7.363
##END=



