##NAMES=Segnitite
##RRUFFID=R060342
##IDEAL CHEMISTRY=PbFe^3+^_3_(AsO_4_)(AsO_3_OH)(OH)_6_
##LOCALITY=Kintore Opencut, Broken Hill, New South Wales, Australia
##OWNER=RRUFF
##SOURCE=Michael Scott
##DESCRIPTION=Yellowish-brown blebs
##STATUS=The identification of this mineral has been determined only by Raman spectroscopy
##URL=https://www.rruff.net/odr/rruff_sample/R060342
##FILETYPE=Raman Processed
##RAMAN WAVELENGTH=780

86.27148, 24.42420
88.19995, 29.01328
90.12842, 34.65045
92.05688, 40.30105
93.98535, 46.11224
95.91382, 48.50716
97.84229, 46.89960
99.77075, 45.01099
101.6992, 43.41033
103.6277, 42.07713
105.5562, 40.81773
107.4846, 39.45068
109.4131, 38.16261
111.3416, 37.01530
113.2700, 35.96921
115.1985, 35.02398
117.1270, 34.08189
119.0554, 33.34348
120.9839, 32.77549
122.9124, 32.44566
124.8408, 32.37898
126.7693, 32.59488
128.6978, 33.22858
130.6262, 34.41445
132.5547, 35.34733
134.4832, 35.59929
136.4116, 35.72765
138.3401, 35.94181
140.2686, 36.28625
142.1970, 36.86000
144.1255, 37.67292
146.0540, 38.63387
147.9824, 39.55946
149.9109, 40.81136
151.8394, 43.14764
153.7678, 45.74217
155.6963, 47.03226
157.6248, 47.01291
159.5532, 46.10492
161.4817, 43.71530
163.4102, 41.22393
165.3386, 38.78823
167.2671, 36.65388
169.1956, 35.10689
171.1240, 34.12452
173.0525, 33.66407
174.9810, 33.97777
176.9094, 34.52572
178.8379, 35.24232
180.7664, 36.14242
182.6948, 37.23025
184.6233, 38.49979
186.5518, 39.97498
188.4802, 41.54002
190.4087, 43.56858
192.3372, 46.19566
194.2656, 49.18019
196.1941, 52.71935
198.1226, 56.42281
200.0510, 59.54296
201.9795, 62.17254
203.9080, 63.79029
205.8364, 64.42341
207.7649, 64.12255
209.6934, 62.51666
211.6218, 60.17657
213.5503, 57.58488
215.4788, 54.65946
217.4072, 52.26262
219.3357, 50.51020
221.2642, 49.02685
223.1926, 47.70167
225.1211, 46.70319
227.0496, 46.27203
228.9780, 46.24001
230.9065, 45.90739
232.8350, 45.07574
234.7634, 44.45973
236.6919, 44.22158
238.6204, 43.97810
240.5488, 43.36885
242.4773, 42.76653
244.4058, 42.60946
246.3342, 42.91826
248.2627, 43.41809
250.1912, 44.05761
252.1196, 45.01514
254.0481, 46.72550
255.9766, 48.30736
257.9050, 49.26578
259.8335, 49.71461
261.7620, 49.96954
263.6904, 50.06241
265.6189, 49.55892
267.5474, 48.21560
269.4758, 46.73811
271.4043, 45.13871
273.3328, 43.75351
275.2612, 42.87005
277.1897, 42.46521
279.1182, 42.38514
281.0466, 42.63627
282.9751, 43.05200
284.9036, 43.71388
286.8320, 44.35712
288.7605, 45.06396
290.6890, 45.57782
292.6174, 45.54580
294.5459, 45.02370
296.4744, 44.31798
298.4028, 43.40324
300.3313, 42.46887
302.2598, 41.36863
304.1882, 40.49226
306.1167, 40.04316
308.0452, 39.87677
309.9736, 39.81945
311.9021, 39.86570
313.8306, 40.04414
315.7590, 40.38861
317.6875, 40.77365
319.6160, 41.06762
321.5445, 41.52334
323.4729, 42.36382
325.4014, 43.37500
327.3299, 44.40415
329.2583, 45.38609
331.1868, 45.84965
333.1153, 45.55472
335.0437, 45.17915
336.9722, 45.01493
338.9007, 44.54818
340.8291, 43.41504
342.7576, 41.93209
344.6861, 40.39454
346.6145, 38.83052
348.5430, 37.44406
350.4715, 36.32796
352.3999, 35.22969
354.3284, 34.06103
356.2569, 32.99728
358.1853, 32.14964
360.1138, 31.40344
362.0423, 30.63006
363.9707, 29.85196
365.8992, 29.20808
367.8277, 28.69100
369.7561, 28.35506
371.6846, 28.23691
373.6131, 28.23866
375.5415, 28.40970
377.4700, 28.61078
379.3985, 28.72997
381.3269, 28.79892
383.2554, 28.89580
385.1839, 29.01108
387.1123, 29.20035
389.0408, 29.44256
390.9693, 29.79886
392.8977, 30.29206
394.8262, 30.90020
396.7547, 31.60648
398.6831, 32.40852
400.6116, 33.35643
402.5401, 34.43771
404.4685, 35.39851
406.3970, 36.26988
408.3255, 36.87085
410.2539, 37.01669
412.1824, 37.20185
414.1109, 37.83795
416.0393, 38.40472
417.9678, 38.35649
419.8963, 37.95636
421.8247, 37.97415
423.7532, 38.39495
425.6817, 38.68670
427.6101, 38.83225
429.5386, 38.77605
431.4671, 38.33714
433.3955, 37.89954
435.3240, 37.70539
437.2525, 37.52323
439.1809, 37.07346
441.1094, 36.41766
443.0379, 35.76370
444.9663, 35.11320
446.8948, 34.54494
448.8233, 34.04427
450.7517, 33.69987
452.6802, 33.56713
454.6087, 33.53761
456.5371, 33.63408
458.4656, 33.75044
460.3941, 33.66803
462.3225, 33.50503
464.2510, 33.61626
466.1795, 34.02742
468.1079, 34.49648
470.0364, 35.10611
471.9649, 35.55779
473.8933, 35.80381
475.8218, 35.88637
477.7503, 35.79563
479.6787, 35.57433
481.6072, 35.24974
483.5357, 34.84169
485.4641, 34.35892
487.3926, 33.77992
489.3211, 33.33923
491.2495, 33.04358
493.1780, 32.91320
495.1065, 32.99301
497.0349, 33.18023
498.9634, 33.48818
500.8919, 33.83497
502.8203, 34.10013
504.7488, 34.37111
506.6773, 34.78971
508.6057, 35.34010
510.5342, 36.29625
512.4626, 37.82969
514.3911, 39.46300
516.3196, 41.26055
518.2480, 43.05465
520.1765, 45.14164
522.1050, 46.76064
524.0334, 47.60694
525.9619, 47.58369
527.8904, 46.36971
529.8188, 44.11954
531.7473, 41.57566
533.6758, 38.63375
535.6042, 35.97582
537.5327, 33.61338
539.4612, 31.49101
541.3896, 29.54190
543.3181, 27.94649
545.2466, 26.86290
547.1750, 26.09971
549.1035, 25.63102
551.0320, 25.35496
552.9604, 25.12578
554.8889, 24.94279
556.8174, 24.78364
558.7458, 24.63930
560.6743, 24.70487
562.6028, 25.08212
564.5313, 25.29378
566.4598, 25.04886
568.3882, 24.91355
570.3167, 25.16360
572.2452, 25.51475
574.1736, 25.77520
576.1021, 26.01192
578.0306, 26.35285
579.9590, 26.75738
581.8875, 27.07962
583.8160, 27.32141
585.7444, 27.45285
587.6729, 27.44664
589.6014, 27.46326
591.5298, 27.50919
593.4583, 27.63307
595.3868, 27.91340
597.3152, 28.18683
599.2437, 28.39518
601.1722, 28.52494
603.1006, 28.47143
605.0291, 28.36884
606.9576, 28.56092
608.8860, 28.94895
610.8145, 29.02821
612.7430, 28.74299
614.6714, 28.42254
616.5999, 28.04509
618.5284, 27.75862
620.4568, 27.67194
622.3853, 27.54171
624.3138, 27.19424
626.2422, 26.90282
628.1707, 26.85690
630.0992, 26.93946
632.0276, 27.08529
633.9561, 27.23977
635.8846, 27.29246
637.8130, 27.24912
639.7415, 27.19021
641.6700, 27.12400
643.5984, 27.01058
645.5269, 26.88704
647.4554, 26.64590
649.3839, 26.34073
651.3123, 25.80462
653.2408, 24.74695
655.1693, 23.80323
657.0977, 23.45916
659.0262, 23.22543
660.9547, 22.68455
662.8831, 22.02820
664.8116, 21.50809
666.7401, 21.12240
668.6685, 20.88894
670.5970, 20.81281
672.5255, 20.72688
674.4539, 20.62565
676.3824, 20.53443
678.3109, 20.44348
680.2393, 20.41302
682.1678, 20.49550
684.0963, 20.54434
686.0247, 20.43665
687.9532, 20.38415
689.8817, 20.61275
691.8101, 20.80173
693.7386, 20.62345
695.6671, 20.30493
697.5955, 20.16553
699.5240, 20.14914
701.4525, 20.07891
703.3809, 19.97415
705.3094, 20.01895
707.2379, 20.20972
709.1663, 20.26592
711.0948, 20.13135
713.0233, 20.13139
714.9517, 20.41996
716.8802, 20.56142
718.8087, 20.31216
720.7371, 20.09585
722.6656, 20.09134
724.5941, 20.08284
726.5225, 19.88282
728.4510, 19.71040
730.3795, 19.80880
732.3079, 20.00623
734.2364, 20.10718
736.1649, 20.11203
738.0933, 19.97643
740.0218, 19.75797
741.9503, 19.66879
743.8787, 19.70995
745.8072, 19.79154
747.7357, 19.92441
749.6641, 19.97725
751.5926, 19.82817
753.5211, 19.86898
755.4495, 20.30859
757.3780, 20.64861
759.3065, 20.79399
761.2349, 20.84869
763.1634, 20.76733
765.0919, 20.70667
767.0203, 20.77882
768.9488, 20.87407
770.8773, 20.87474
772.8057, 20.88233
774.7342, 21.02353
776.6627, 21.22775
778.5911, 21.40361
780.5196, 21.53708
782.4481, 21.54474
784.3765, 21.44483
786.3050, 21.45471
788.2335, 21.57809
790.1619, 21.78472
792.0904, 22.10443
794.0189, 22.39791
795.9473, 22.65378
797.8758, 22.91162
799.8043, 23.14595
801.7327, 23.47274
803.6612, 23.91514
805.5897, 24.46476
807.5181, 25.15729
809.4466, 25.88277
811.3751, 26.55599
813.3035, 27.29896
815.2320, 28.19540
817.1605, 29.15629
819.0889, 30.04981
821.0174, 31.04688
822.9459, 32.37846
824.8743, 33.88350
826.8028, 35.33001
828.7313, 36.77329
830.6597, 38.30782
832.5882, 39.93854
834.5167, 41.75343
836.4451, 43.69126
838.3736, 45.33288
840.3021, 46.72852
842.2305, 48.40075
844.1590, 50.35645
846.0875, 52.09684
848.0159, 53.56695
849.9444, 55.05356
851.8729, 56.61900
853.8013, 58.05317
855.7298, 59.31633
857.6583, 60.46898
859.5867, 61.43956
861.5152, 62.46212
863.4437, 63.55248
865.3721, 64.74512
867.3006, 66.33584
869.2291, 67.59826
871.1575, 68.31392
873.0860, 68.56177
875.0145, 68.55837
876.9429, 67.86740
878.8714, 66.11581
880.7999, 63.66237
882.7283, 60.43350
884.6568, 57.00426
886.5853, 53.83303
888.5137, 50.85746
890.4422, 48.07397
892.3707, 45.37496
894.2991, 42.51582
896.2276, 39.70400
898.1561, 37.32500
900.0845, 35.29869
902.0130, 33.42826
903.9415, 31.71568
905.8699, 30.13612
907.7984, 28.70981
909.7269, 27.60795
911.6553, 26.81517
913.5838, 25.95416
915.5123, 25.01752
917.4407, 24.27487
919.3692, 23.75677
921.2977, 23.13470
923.2261, 22.35507
925.1546, 21.77369
927.0831, 21.42937
929.0115, 21.06550
930.9400, 20.67089
932.8685, 20.25436
934.7969, 19.79880
936.7254, 19.45313
938.6539, 19.27194
940.5823, 19.00430
942.5108, 18.56904
944.4393, 18.22018
946.3677, 17.98581
948.2962, 17.96196
950.2247, 18.28333
952.1531, 18.43026
954.0816, 18.18039
956.0101, 17.97701
957.9385, 17.95657
959.8670, 17.97799
961.7955, 17.99166
963.7239, 18.05553
965.6524, 18.24932
967.5809, 18.39607
969.5093, 18.36799
971.4378, 18.39667
973.3663, 18.54403
975.2947, 18.79026
977.2232, 19.17312
979.1517, 19.58613
981.0801, 19.97718
983.0086, 20.39333
984.9371, 20.79777
986.8655, 21.31967
988.7940, 21.99380
990.7225, 22.85726
992.6509, 24.00041
994.5794, 25.24781
996.5079, 26.53139
998.4363, 27.83356
1000.365, 29.09820
1002.293, 30.44013
1004.222, 32.17417
1006.150, 33.69950
1008.079, 34.85566
1010.007, 35.29295
1011.936, 34.76525
1013.864, 33.40763
1015.793, 30.85863
1017.721, 28.10522
1019.649, 25.75012
1021.578, 23.65047
1023.506, 21.58472
1025.435, 19.87619
1027.363, 18.82448
1029.292, 18.15558
1031.220, 17.78672
1033.149, 17.54943
1035.077, 17.32493
1037.006, 17.17221
1038.934, 17.15942
1040.863, 17.20621
1042.791, 17.33581
1044.719, 17.40293
1046.648, 17.17753
1048.576, 17.01866
1050.505, 17.29688
1052.433, 17.56778
1054.362, 17.47763
1056.290, 17.34911
1058.219, 17.33873
1060.147, 17.43485
1062.076, 17.78909
1064.004, 18.03251
1065.933, 17.77884
1067.861, 17.56386
1069.790, 17.79364
1071.718, 18.02019
1073.647, 17.90402
1075.575, 17.84833
1077.504, 18.21941
1079.432, 18.47376
1081.360, 18.25716
1083.289, 18.00464
1085.217, 17.87757
1087.146, 17.80590
1089.074, 17.86304
1091.003, 17.80911
1092.931, 17.43446
1094.860, 17.12770
1096.788, 17.08669
1098.717, 17.01178
1100.645, 16.71099
1102.574, 16.54704
1104.502, 16.73285
1106.431, 16.84913
1108.359, 16.78727
1110.287, 16.69184
1112.216, 16.44051
1114.144, 16.42738
1116.073, 17.07763
1118.001, 17.23133
1119.930, 16.37864
1121.858, 15.90592
1123.787, 16.11505
1125.715, 16.19381
1127.644, 16.06082
1129.572, 15.91758
1131.501, 15.73074
1133.429, 15.67085
1135.358, 15.80055
1137.286, 15.80856
1139.214, 15.67670
1141.143, 15.53048
1143.071, 15.36328
1145.000, 15.30812
1146.928, 15.36140
1148.857, 15.24816
1150.785, 14.99989
1152.714, 14.99080
1154.642, 15.14725
1156.571, 15.05315
1158.499, 14.80184
1160.428, 14.67809
1162.356, 14.67357
1164.285, 14.83878
1166.213, 15.05317
1168.141, 15.11136
1170.070, 15.04692
1171.998, 14.80980
1173.927, 14.58285
1175.855, 14.62837
1177.784, 14.73166
1179.712, 14.68992
1181.641, 14.62651
1183.569, 14.64497
1185.498, 14.65783
1187.426, 14.55760
1189.355, 14.52665
1191.283, 14.80475
1193.212, 14.89403
1195.140, 14.49034
1197.068, 14.19496
1198.997, 14.16704
1200.925, 14.25278
1202.854, 14.50308
1204.782, 14.54776
1206.711, 14.27373
1208.639, 14.14415
1210.568, 14.22566
1212.496, 14.28629
1214.425, 14.30501
1216.353, 14.25732
1218.282, 14.15598
1220.210, 14.17782
1222.139, 14.29373
1224.067, 14.33676
1225.995, 14.31938
1227.924, 14.24854
1229.852, 14.18957
1231.781, 14.33510
1233.709, 14.52164
1235.638, 14.51530
1237.566, 14.42512
1239.495, 14.31764
1241.423, 14.24234
1243.352, 14.31140
1245.280, 14.31756
1247.209, 13.99529
1249.137, 13.82513
1251.066, 14.14826
1252.994, 14.38690
1254.922, 14.30802
1256.851, 14.26199
1258.779, 14.34485
1260.708, 14.38197
1262.636, 14.34122
1264.565, 14.31178
1266.493, 14.30506
1268.422, 14.26516
1270.350, 14.19258
1272.279, 14.06261
1274.207, 13.91427
1276.136, 13.99491
1278.064, 14.21213
1279.993, 14.39069
1281.921, 14.47773
1283.849, 14.31753
1285.778, 14.10485
1287.706, 14.00686
1289.635, 14.00484
1291.563, 14.15607
1293.492, 14.28948
1295.420, 14.30591
1297.349, 14.35335
1299.277, 14.51615
1301.206, 14.54923
1303.134, 14.35981
1305.063, 14.31832
1306.991, 14.48191
1308.920, 14.53828
1310.848, 14.47403
1312.776, 14.45848
1314.705, 14.47281
1316.633, 14.36086
1318.562, 14.19573
1320.490, 14.15926
1322.419, 14.18027
1324.347, 14.18992
1326.276, 14.15711
1328.204, 14.01347
1330.133, 13.87379
1332.061, 13.79434
1333.990, 13.76758
1335.918, 13.87744
1337.847, 13.87517
1339.775, 13.58564
1341.703, 13.46417
1343.632, 13.58566
1345.560, 13.61387
1347.489, 13.53746
1349.417, 13.53866
1351.346, 13.60534
1353.274, 13.73625
1355.203, 13.81360
1357.131, 13.43271
1359.060, 13.00051
1360.988, 13.00945
1362.917, 13.12984
1364.845, 13.19066
1366.774, 13.17984
1368.702, 13.05599
1370.630, 12.95490
1372.559, 12.91949
1374.487, 12.88047
1376.416, 12.81144
1378.344, 12.88630
1380.273, 13.10628
1382.201, 13.13368
1384.130, 13.03231
1386.058, 13.06624
1387.987, 13.17026
1389.915, 13.27695
1391.844, 13.31876
1393.772, 13.18913
1395.701, 13.02376
1397.629, 12.85964
1399.557, 12.75762
1401.486, 12.74932
1403.414, 12.74631
1405.343, 12.73078
1407.271, 12.77705
1409.200, 12.88700
1411.128, 13.03426
1413.057, 13.15943
1414.985, 12.96217
1416.914, 12.68419
1418.842, 12.80080
1420.771, 12.99344
1422.699, 12.97320
1424.628, 12.87663
1426.556, 12.71875
1428.484, 12.61436
1430.413, 12.59735
1432.341, 12.62514
1434.270, 12.70529
1436.198, 12.67763
1438.127, 12.56155
1440.055, 12.57641
1441.984, 12.65007
1443.912, 12.56509
1445.841, 12.46137
1447.769, 12.54062
1449.698, 12.59865
1451.626, 12.46048
1453.555, 12.33827
1455.483, 12.30101
1457.411, 12.29986
1459.340, 12.36348
1461.268, 12.31475
1463.197, 12.16338
1465.125, 12.16244
1467.054, 12.25823
1468.982, 12.35437
1470.911, 12.38494
1472.839, 12.19050
1474.768, 12.03360
1476.696, 12.08540
1478.625, 12.12640
1480.553, 12.07885
1482.482, 12.05272
1484.410, 12.06598
1486.339, 12.07903
1488.267, 12.09494
1490.195, 12.16397
1492.124, 12.23157
1494.052, 12.15792
1495.981, 12.06651
1497.909, 12.08849
1499.838, 12.10181
1501.766, 12.06623
1503.695, 11.98524
1505.623, 11.84840
1507.552, 11.85196
1509.480, 11.98343
1511.409, 11.94168
1513.337, 11.80948
1515.266, 11.80892
1517.194, 11.83211
1519.122, 11.70210
1521.051, 11.63971
1522.979, 11.87483
1524.908, 11.96503
1526.836, 11.79513
1528.765, 11.74833
1530.693, 11.83818
1532.622, 11.91092
1534.550, 11.93454
1536.479, 11.81888
1538.407, 11.66070
1540.336, 11.52659
1542.264, 11.44874
1544.193, 11.46868
1546.121, 11.49583
1548.049, 11.50125
1549.978, 11.54728
1551.906, 11.63463
1553.835, 11.80943
1555.763, 11.98860
1557.692, 11.98569
1559.620, 11.86226
1561.549, 11.56079
1563.477, 11.38787
1565.406, 11.54039
1567.334, 11.62690
1569.263, 11.55846
1571.191, 11.56182
1573.120, 11.61500
1575.048, 11.59164
1576.976, 11.53325
1578.905, 11.47210
1580.833, 11.46523
1582.762, 11.57918
1584.690, 11.64254
1586.619, 11.59673
1588.547, 11.62735
1590.476, 11.73736
1592.404, 11.59894
1594.333, 11.35245
1596.261, 11.32287
1598.190, 11.36064
1600.118, 11.33637
1602.047, 11.33676
1603.975, 11.40996
1605.903, 11.36492
1607.832, 11.18932
1609.760, 11.14527
1611.689, 11.18912
1613.617, 11.16066
1615.546, 11.13011
1617.474, 11.23048
1619.403, 11.24479
1621.331, 10.98808
1623.260, 10.94827
1625.188, 11.17336
1627.117, 11.14738
1629.045, 10.96387
1630.974, 10.98386
1632.902, 11.06556
1634.830, 11.07649
1636.759, 11.05632
1638.687, 11.03056
1640.616, 10.93968
1642.544, 10.76265
1644.473, 10.78658
1646.401, 10.93735
1648.330, 10.99165
1650.258, 10.97379
1652.187, 10.86600
1654.115, 10.77780
1656.044, 10.75792
1657.972, 10.75327
1659.901, 10.75847
1661.829, 10.85952
1663.757, 10.95071
1665.686, 10.62155
1667.614, 10.34086
1669.543, 10.49573
1671.471, 10.66551
1673.400, 10.72155
1675.328, 10.78135
1677.257, 10.85068
1679.185, 10.90563
1681.114, 10.90146
1683.042, 10.65202
1684.971, 10.50492
1686.899, 10.70687
1688.828, 10.74397
1690.756, 10.50955
1692.684, 10.42699
1694.613, 10.45756
1696.541, 10.41573
1698.470, 10.31441
1700.398, 10.02317
1702.327, 9.997333
1704.255, 10.45663
1706.184, 10.58430
1708.112, 10.35826
1710.041, 10.31174
1711.969, 10.35103
1713.898, 10.33900
1715.826, 10.26912
1717.755, 10.06538
1719.683, 9.984516
1721.611, 10.06019
1723.540, 10.00117
1725.468, 9.874328
1727.397, 9.905703
1729.325, 9.960250
1731.254, 9.886563
1733.182, 9.882356
1735.111, 10.05266
1737.039, 10.07828
1738.968, 9.967223
1740.896, 9.688563
1742.825, 9.488225
1744.753, 9.723730
1746.682, 9.921798
1748.610, 9.908238
1750.538, 9.745589
1752.467, 9.463283
1754.395, 9.399678
1756.324, 9.449223
1758.252, 9.470883
1760.181, 9.522584
1762.109, 9.657777
1764.038, 9.690765
1765.966, 9.602931
1767.895, 9.559946
1769.823, 9.521824
1771.752, 9.347076
1773.680, 9.293103
1775.609, 9.529716
1777.537, 9.600513
1779.465, 9.445450
1781.394, 9.359072
1783.322, 9.329051
1785.251, 9.371918
1787.179, 9.363138
1789.108, 9.212694
1791.036, 9.153256
1792.965, 9.204125
1794.893, 9.211627
1796.822, 9.181569
1798.750, 9.101541
1800.679, 9.051480
1802.607, 9.092854
1804.536, 9.088065
1806.464, 9.036670
1808.392, 9.089129
1810.321, 9.155791
1812.249, 9.041223
1814.178, 8.996823
1816.106, 9.272247
1818.035, 9.177754
1819.963, 8.762299
1821.892, 8.703790
1823.820, 8.785616
1825.749, 8.770579
1827.677, 8.717928
1829.606, 8.585546
1831.534, 8.648312
1833.463, 8.844903
1835.391, 8.767711
1837.319, 8.632334
1839.248, 8.651943
1841.176, 8.616000
1843.105, 8.427561
1845.033, 8.369720
1846.962, 8.412458
1848.890, 8.499474
1850.819, 8.584614
1852.747, 8.671747
1854.676, 8.600726
1856.604, 8.336758
1858.533, 8.238108
1860.461, 8.259292
1862.390, 8.421196
1864.318, 8.465187
1866.246, 8.277522
1868.175, 8.071667
1870.103, 7.905174
1872.032, 7.965971
1873.960, 8.110773
1875.889, 8.234748
1877.817, 8.279512
1879.746, 8.232820
1881.674, 8.294737
1883.603, 8.393618
1885.531, 8.355457
1887.460, 8.249378
1889.388, 8.073715
1891.317, 8.012842
1893.245, 8.055604
1895.173, 7.989227
1897.102, 7.929651
1899.030, 8.107999
1900.959, 8.095109
1902.887, 7.762847
1904.816, 7.843066
1906.744, 8.107237
1908.673, 7.994492
1910.601, 7.769722
1912.530, 7.482935
1914.458, 7.420640
1916.387, 7.568089
1918.315, 7.747279
1920.244, 7.873598
1922.172, 7.876754
1924.100, 7.768098
1926.029, 7.509170
1927.957, 7.581964
1929.886, 7.786626
1931.814, 7.756980
1933.743, 7.670887
1935.671, 7.585465
1937.600, 7.541008
1939.528, 7.517834
1941.457, 7.388304
1943.385, 7.318269
1945.314, 7.438504
1947.242, 7.501021
1949.171, 7.463987
1951.099, 7.305909
1953.027, 7.165116
1954.956, 7.223845
1956.884, 7.302577
1958.813, 7.363713
1960.741, 7.392965
1962.670, 7.373062
1964.598, 7.195522
1966.527, 7.134432
1968.455, 7.293488
1970.384, 7.247592
1972.312, 7.071866
1974.241, 7.029016
1976.169, 7.049636
1978.098, 7.119156
1980.026, 7.136245
1981.954, 7.105488
1983.883, 7.069767
1985.811, 7.038864
1987.740, 7.033731
1989.668, 6.985755
1991.597, 6.899405
1993.525, 6.870651
1995.454, 6.863444
1997.382, 6.830581
1999.311, 6.847392
2001.239, 6.923384
2003.168, 6.983573
2005.096, 6.986017
2007.025, 6.870007
2008.953, 6.715628
2010.881, 6.523770
2012.810, 6.531542
2014.738, 6.673120
2016.667, 6.950780
2018.595, 7.022273
2020.524, 6.733411
2022.452, 6.543576
2024.381, 6.470884
2026.309, 6.591767
2028.238, 6.734660
2030.166, 6.858732
2032.095, 6.708329
2034.023, 6.471047
2035.952, 6.608503
2037.880, 6.647191
2039.808, 6.427166
2041.737, 6.457039
2043.665, 6.613534
2045.594, 6.624560
2047.522, 6.572146
2049.451, 6.484723
2051.379, 6.311721
2053.308, 6.158630
2055.236, 6.278563
2057.165, 6.423596
2059.093, 6.519243
2061.022, 6.482430
2062.950, 6.366959
2064.879, 6.244967
2066.807, 6.184999
2068.736, 6.219901
2070.664, 6.015256
2072.593, 5.808868
2074.521, 6.118699
2076.449, 6.326349
2078.378, 6.232260
2080.306, 6.205423
2082.235, 6.218165
2084.163, 6.260497
2086.092, 6.198800
2088.020, 5.977115
2089.949, 5.943601
2091.877, 5.992452
2093.806, 6.030368
2095.734, 5.971426
2097.663, 5.801332
2099.591, 5.945330
2101.520, 6.098414
2103.448, 5.958470
2105.376, 5.839884
2107.305, 5.793475
2109.233, 5.723386
2111.162, 5.732814
2113.090, 5.917040
2115.019, 6.032327
2116.947, 6.033084
2118.876, 5.777565
2120.804, 5.604840
2122.733, 5.705908
2124.661, 5.618687
2126.590, 5.437625
2128.518, 5.570593
2130.447, 5.660080
2132.375, 5.583091
2134.303, 5.462206
2136.232, 5.364388
2138.160, 5.411962
2140.089, 5.451250
2142.017, 5.447608
2143.946, 5.367549
2145.874, 5.305876
2147.803, 5.424445
2149.731, 5.405071
2151.660, 5.258770
2153.588, 5.272769
2155.517, 5.325327
2157.445, 5.339097
2159.374, 5.356593
2161.302, 5.339129
2163.230, 5.068215
2165.159, 4.976666
2167.087, 5.367581
2169.016, 5.342021
2170.944, 5.131788
2172.873, 5.013567
2174.801, 5.021691
2176.730, 5.151963
2178.658, 5.203878
2180.587, 5.212821
2182.515, 5.209541
2184.444, 5.141249
2186.372, 5.047293
2188.301, 5.120606
2190.229, 5.126303
2192.157, 4.964002
2194.086, 4.991002
2196.014, 5.092337
2197.943, 5.089652
2199.871, 5.010097
2201.800, 4.888265
2203.728, 5.012044
2205.657, 5.141626
2207.585, 5.123204
2209.514, 4.955189
2211.442, 4.738917
2213.371, 4.706787
2215.299, 4.765143
2217.228, 4.876374
2219.156, 4.890179
2221.084, 4.852202
2223.013, 4.808339
2224.941, 4.716414
2226.870, 4.622077
2228.798, 4.769022
2230.727, 4.829818
2232.655, 4.618021
2234.584, 4.528046
2236.512, 4.523731
2238.441, 4.530297
2240.369, 4.621346
2242.298, 4.775263
2244.226, 4.729256
2246.155, 4.639617
2248.083, 4.576918
2250.011, 4.581975
2251.940, 4.638754
2253.868, 4.755389
2255.797, 4.777856
2257.725, 4.678805
2259.654, 4.432737
2261.582, 4.347846
2263.511, 4.653022
2265.439, 4.570506
2267.368, 4.327775
2269.296, 4.446595
2271.225, 4.501736
2273.153, 4.426181
2275.082, 4.471098
2277.010, 4.495546
2278.938, 4.420585
2280.867, 4.395705
2282.795, 4.396790
2284.724, 4.362402
2286.652, 4.353787
2288.581, 4.366387
2290.509, 4.299789
2292.438, 4.272138
2294.366, 4.345467
2296.295, 4.315301
2298.223, 4.264654
2300.152, 4.346540
2302.080, 4.360276
2304.009, 4.303211
2305.937, 4.272517
2307.865, 4.182816
2309.794, 3.995600
2311.722, 3.973167
2313.651, 3.988888
2315.579, 3.894176
2317.508, 3.865028
2319.436, 3.901966
2321.365, 3.979193
2323.293, 4.110564
2325.222, 4.282394
2327.150, 4.052831
2329.079, 3.892030
2331.007, 4.135171
2332.936, 4.059975
2334.864, 3.907620
2336.792, 4.057960
2338.721, 4.164192
2340.649, 4.148680
2342.578, 3.815208
2344.506, 3.627625
2346.435, 3.732840
2348.363, 3.887436
2350.292, 3.994266
2352.220, 3.997653
2354.149, 3.868715
2356.077, 3.751083
2358.006, 3.985833
2359.934, 3.983474
2361.863, 3.755791
2363.791, 3.662623
2365.719, 3.722434
2367.648, 3.904842
2369.576, 3.760819
2371.505, 3.629557
2373.433, 3.807928
2375.362, 3.792047
2377.290, 3.677489
2379.219, 3.644733
2381.147, 3.572497
2383.076, 3.492398
2385.004, 3.578713
2386.933, 3.610221
2388.861, 3.531858
2390.790, 3.409867
2392.718, 3.402601
2394.646, 3.728929
2396.575, 3.529866
2398.503, 3.244850
2400.432, 3.336315
2402.360, 3.385242
2404.289, 3.382567
2406.217, 3.408955
2408.146, 3.316844
2410.074, 3.152853
2412.003, 3.324599
2413.931, 3.487261
2415.860, 3.522236
2417.788, 3.471449
2419.717, 3.378003
2421.645, 3.264469
2423.573, 3.310647
2425.502, 3.387394
2427.430, 3.360732
2429.359, 3.318527
2431.287, 3.264147
2433.216, 3.111760
2435.144, 3.224758
2437.073, 3.505408
2439.001, 3.497928
2440.930, 3.325340
2442.858, 3.084118
2444.787, 3.094598
2446.715, 3.198184
2448.644, 3.320733
2450.572, 3.225180
2452.500, 3.118031
2454.429, 3.183519
2456.357, 3.035483
2458.286, 2.852751
2460.214, 2.808171
2462.143, 3.037292
2464.071, 3.288656
2466.000, 3.111196
2467.928, 3.011268
2469.857, 3.011255
2471.785, 2.982851
2473.714, 2.964287
2475.642, 2.963683
2477.571, 3.004687
2479.499, 2.993001
2481.427, 2.902847
2483.356, 2.803555
2485.284, 2.755978
2487.213, 2.786630
2489.141, 2.856365
2491.070, 2.854637
2492.998, 2.722086
2494.927, 2.806679
2496.855, 2.896881
2498.784, 2.792555
2500.712, 2.827821
2502.641, 2.923557
2504.569, 3.002683
2506.498, 2.774935
2508.426, 2.475248
2510.354, 2.566727
2512.283, 2.669110
2514.211, 2.732137
2516.140, 2.740245
2518.068, 2.762836
2519.997, 2.765469
2521.925, 2.572247
2523.854, 2.522087
2525.782, 2.613168
2527.711, 2.553208
2529.639, 2.605216
2531.568, 2.777975
2533.496, 2.622425
2535.425, 2.502669
2537.353, 2.526479
2539.281, 2.477881
2541.210, 2.491171
2543.138, 2.618722
2545.067, 2.706348
2546.995, 2.656500
2548.924, 2.411048
2550.852, 2.465285
2552.781, 2.565487
2554.709, 2.573920
2556.638, 2.556518
2558.566, 2.585959
2560.495, 2.694575
2562.423, 2.535260
2564.352, 2.324912
2566.280, 2.209407
2568.208, 2.303752
2570.137, 2.420478
2572.065, 2.430061
2573.994, 2.331441
2575.922, 2.276178
2577.851, 2.382507
2579.779, 2.552758
2581.708, 2.614491
2583.636, 2.394543
2585.565, 2.261867
2587.493, 2.234254
2589.422, 2.355023
2591.350, 2.343135
2593.279, 2.251869
2595.207, 2.072901
2597.135, 2.195215
2599.064, 2.371614
2600.992, 2.324843
2602.921, 2.384556
2604.849, 2.402689
2606.778, 2.219723
2608.706, 1.970702
2610.635, 1.903957
2612.563, 2.256985
2614.492, 2.392021
2616.420, 2.367456
2618.349, 2.257652
2620.277, 2.090758
2622.206, 2.037231
2624.134, 2.206482
2626.063, 2.083328
2627.991, 1.988118
2629.919, 2.132621
2631.848, 2.297496
2633.776, 2.282796
2635.705, 2.015813
2637.633, 2.039885
2639.562, 2.070788
2641.490, 1.968015
2643.419, 2.130883
2645.347, 2.152917
2647.276, 1.893382
2649.204, 1.845994
2651.133, 1.852968
2653.061, 1.848912
2654.990, 1.926315
2656.918, 1.948597
2658.846, 1.892484
2660.775, 1.876312
2662.703, 1.930953
2664.632, 2.003621
2666.560, 1.727259
2668.489, 1.675710
2670.417, 1.842856
2672.346, 1.764117
2674.274, 1.774312
2676.203, 1.850898
2678.131, 1.774274
2680.060, 1.806228
2681.988, 1.893427
2683.917, 1.892743
2685.845, 1.801043
2687.773, 1.727376
2689.702, 1.811657
2691.630, 1.780016
2693.559, 1.709239
2695.487, 1.689182
2697.416, 1.751927
2699.344, 1.807022
2701.273, 1.794869
2703.201, 1.675257
2705.130, 1.564824
2707.058, 1.520060
2708.987, 1.547307
2710.915, 1.568352
2712.844, 1.571349
2714.772, 1.609281
2716.700, 1.843220
2718.629, 2.096512
2720.557, 1.589775
2722.486, 1.456931
2724.414, 1.637743
2726.343, 1.525119
2728.271, 1.833663
2730.200, 2.154517
2732.128, 1.737658
2734.057, 1.597073
2735.985, 1.613561
2737.914, 1.631070
2739.842, 1.706839
2741.771, 1.722538
2743.699, 1.607977
2745.627, 1.562825
2747.556, 1.567383
2749.484, 1.591332
2751.413, 1.463967
2753.341, 1.400841
2755.270, 1.419253
2757.198, 1.432263
2759.127, 1.492675
2761.055, 1.513276
2762.984, 1.329527
2764.912, 1.412312
2766.841, 1.506974
2768.769, 1.384184
2770.698, 1.371683
2772.626, 1.352997
2774.554, 1.282968
2776.483, 1.322945
2778.411, 1.394380
2780.340, 1.454571
2782.268, 1.473480
2784.197, 1.377756
2786.125, 1.276904
2788.054, 1.405951
2789.982, 1.474641
2791.911, 1.471997
2793.839, 1.400108
2795.768, 1.271545
2797.696, 1.271849
2799.625, 1.480820
2801.553, 1.287947
2803.481, 1.312726
2805.410, 1.562975
2807.338, 1.476869
2809.267, 1.426566
2811.195, 1.426944
2813.124, 1.418969
2815.052, 1.327884
2816.981, 1.254993
2818.909, 1.269141
2820.838, 1.364090
2822.766, 1.378525
2824.695, 1.283189
2826.623, 1.207181
2828.552, 1.307610
2830.480, 1.449267
2832.408, 1.300744
2834.337, 1.188390
2836.265, 1.138093
2838.194, 1.146636
2840.122, 1.212004
2842.051, 1.213974
2843.979, 1.132365
2845.908, 1.086525
2847.836, 0.9818426
2849.765, 0.9190155
2851.693, 1.181125
2853.622, 1.117701
2855.550, 0.9687077
2857.479, 0.9758927
2859.407, 1.150541
2861.335, 1.175107
2863.264, 1.013051
2865.192, 1.066674
2867.121, 1.079065
2869.049, 1.062756
2870.978, 1.101157
2872.906, 1.074446
2874.835, 1.059926
2876.763, 1.109927
2878.692, 1.226640
2880.620, 1.218059
2882.549, 1.107992
2884.477, 1.105094
2886.406, 1.091165
2888.334, 1.116498
2890.262, 1.230277
2892.191, 1.156332
2894.119, 0.9627155
2896.048, 0.7960080
2897.976, 1.159644
2899.905, 1.162692
2901.833, 0.9589093
2903.762, 0.9929884
2905.690, 0.9742134
2907.619, 0.9062098
2909.547, 0.8314316
2911.476, 1.050369
2913.404, 1.107442
2915.333, 1.008772
2917.261, 0.9277400
2919.189, 0.8332216
2921.118, 0.7989110
2923.046, 0.8690625
2924.975, 0.8553051
2926.903, 0.8628811
2928.832, 0.9149252
2930.760, 1.015118
2932.689, 0.9960095
2934.617, 0.9552592
2936.546, 0.9671690
2938.474, 0.9760273
2940.403, 0.9164414
2942.331, 0.8153638
2944.260, 0.7619387
2946.188, 0.7060209
2948.116, 0.7504223
2950.045, 0.9238805
2951.973, 0.9359651
2953.902, 0.8395279
2955.830, 0.7328315
2957.759, 0.7813518
2959.687, 0.7977061
2961.616, 0.8632692
2963.544, 1.006962
2965.473, 1.019278
2967.401, 1.022583
2969.330, 1.005520
2971.258, 0.8858311
2973.187, 0.7845527
2975.115, 0.7995803
2977.043, 0.9366327
2978.972, 0.9225066
2980.900, 0.8154606
2982.829, 0.7456405
2984.757, 0.8466839
2986.686, 0.8907052
2988.614, 0.8598607
2990.543, 0.7686794
2992.471, 0.6466039
2994.400, 0.7336276
2996.328, 0.8572239
2998.257, 0.8640488
3000.185, 0.7698791
3002.114, 0.6800496
3004.042, 0.6476648
3005.970, 0.7258930
3007.899, 0.6334190
3009.827, 0.6383017
3011.756, 0.7951864
3013.684, 0.6658804
3015.613, 0.8478518
3017.541, 0.9742333
3019.470, 0.5715736
3021.398, 0.6562978
3023.327, 0.7283583
3025.255, 0.6848444
3027.184, 0.6770046
3029.112, 0.6331549
3031.041, 0.5953568
3032.969, 0.6005337
3034.897, 0.7556740
3036.826, 0.6719706
3038.754, 0.6032532
3040.683, 0.8912596
3042.611, 0.8269999
3044.540, 0.7323745
3046.468, 0.7178974
3048.397, 0.7984961
3050.325, 0.6925579
3052.254, 0.6601419
3054.182, 0.7643477
3056.111, 0.6173316
3058.039, 0.6134959
3059.968, 0.6522557
3061.896, 0.6339712
3063.824, 0.7165075
3065.753, 0.7477811
3067.681, 0.7426348
3069.610, 0.7686948
3071.538, 0.7902975
3073.467, 0.7250319
3075.395, 0.6205698
3077.324, 0.6445742
3079.252, 0.6689803
3081.181, 0.5568119
3083.109, 0.3454968
3085.038, 0.4136823
3086.966, 0.5466696
3088.895, 0.5909151
3090.823, 0.4790458
3092.751, 0.5529226
3094.680, 0.5700712
3096.608, 0.5688181
3098.537, 0.6346795
3100.465, 0.7097881
3102.394, 0.6966668
3104.322, 0.6428220
3106.251, 0.6460270
3108.179, 0.5739406
3110.108, 0.6054021
3112.036, 0.6865805
3113.965, 0.5787399
3115.893, 0.5468317
3117.822, 0.4881861
3119.750, 0.3968439
3121.678, 0.3924130
3123.607, 0.6341864
3125.535, 0.6535157
3127.464, 0.3943925
3129.392, 0.5446053
3131.321, 0.4358318
3133.249, 0.4448067
3135.178, 0.7263822
3137.106, 0.5541115
3139.035, 0.5077413
3140.963, 0.5280955
3142.892, 0.5079704
3144.820, 0.5705869
3146.749, 0.6773810
3148.677, 0.7093022
3150.605, 0.5870035
3152.534, 0.6254339
3154.462, 0.5430868
3156.391, 0.5272567
3158.319, 0.7603928
3160.248, 0.6725009
3162.176, 0.5378565
3164.105, 0.4917555
3166.033, 0.5776540
3167.962, 0.5467383
3169.890, 0.4368867
3171.819, 0.4162641
3173.747, 0.5860854
3175.676, 0.4216855
3177.604, 0.4798813
3179.532, 0.5865589
3181.461, 0.4633828
3183.389, 0.5240184
3185.318, 0.4684075
3187.246, 0.3842892
3189.175, 0.4182787
3191.103, 0.4058931
3193.032, 0.3782964
3194.960, 0.4207637
3196.889, 0.5852411
3198.817, 0.3576464
3200.746, 0.2327201
3202.674, 0.3333995
3204.603, 0.6271766
3206.531, 0.4902993
3208.459, 0.3212177
3210.388, 0.2749766
3212.316, 0.3655185
3214.245, 0.2714411
3216.173, 0.3726433
3218.102, 0.3816064
3220.030, 0.2051036
3221.959, 0.4345812
3223.887, 0.3721968
3225.816, 0.2977736
3227.744, 0.3572738
3229.673, 0.4136586
3231.601, 0.3706306
3233.530, 0.3640846
3235.458, 0.4171341
3237.386, 0.4434143
3239.315, 0.5133670
3241.243, 0.4527235
3243.172, 0.3380162
3245.100, 0.3945096
3247.029, 0.2972989
3248.957, 0.3441160
3250.886, 0.4295726
3252.814, 0.3417377
3254.743, 0.2773406
3256.671, 0.1828719
3258.600, 0.1397784
3260.528, 0.2041123
3262.457, 0.2458993
3264.385, 0.1516187
3266.313, 0.1965011
3268.242, 0.4064644
3270.170, 0.3166017
3272.099, 0.1911487
3274.027, 0.2172138
3275.956, 0.3178824
3277.884, 0.2380493
3279.813, 0.3303843
3281.741, 0.3867109
3283.670, 0.3180552
3285.598, 0.1591074
3287.527, 0.4052896
3289.455, 0.4187187
3291.384, 0.3192774
3293.312, 0.3109530
3295.240, 0.4970644
3297.169, 0.3931074
3299.097, 0.2977979
3301.026, 0.3259784
3302.954, 0.3514585
3304.883, 0.4265414
3306.811, 0.5767072
3308.740, 0.6353806
3310.668, 0.4244046
3312.597, 8.1044383E-02
3314.525, 0.2462434
3316.454, 0.3906837
3318.382, 0.2624653
3320.311, 0.4758844
3322.239, 0.3252121
3324.167, 0.2296336
3326.096, 0.2905586
3328.024, 0.3414665
3329.953, 0.2093392
3331.881, 0.2655221
3333.810, 0.2669476
3335.738, 7.2220281E-02
3337.667, 0.2093127
3339.595, 0.3012902
3341.524, 0.2221133
3343.452, 9.7498283E-02
3345.381, 0.2013587
3347.309, 0.1692994
3349.238, 0.2031008
3351.166, 0.2715077
3353.094, 0.3036415
3355.023, 0.3179626
3356.951, 0.2132813
3358.880, 0.1847573
3360.808, 0.2547260
3362.737, 0.2995149
3364.665, 0.2423160
3366.594, 0.3643122
3368.522, 0.3225824
3370.451, 1.0769070E-02
3372.379, 0.1753046
3374.308, 0.3962264
3376.236, 0.4034439
3378.165, 0.2479881
3380.093, 0.1287990
3382.021, 0.1619076
3383.950, 0.2245717
3385.878, 0.3338224
3387.807, 0.4305648
3389.735, 0.3110677
3391.664, 0.3567561
3393.592, 0.3190104
3395.521, 0.2681923
3397.449, 0.3126230
3399.378, 0.3284004
3401.306, 0.2519611
3403.235, 0.3499158
3405.163, 0.4915333
3407.092, 0.3511316
3409.020, 9.5471039E-02
3410.948, 0.2664025
3412.877, 0.3390412
3414.805, 0.1881030
3416.734, 0.3043260
3418.662, 0.2069513
3420.591, 6.0550909E-02
3422.519, 6.2504753E-02
3424.448, 0.1927378
3426.376, 4.0499650E-02
3428.305, 0.3565101
3430.233, 0.4752934
3432.162, 0.3554632
3434.090, 0.2174985
3436.019, 0.1126753
3437.947, 0.1642494
3439.875, 0.2378168
3441.804, 0.2433940
3443.732, 0.1723479
3445.661, 0.2865227
3447.589, 0.2907769
3449.518, 0.2032641
3451.446, 0.1218929
##END=



