##NAMES=Senarmontite
##RRUFFID=R060002
##IDEAL CHEMISTRY=Sb_2_O_3_
##LOCALITY=Chenlong, Xin Yi County, Guizhou Province, China
##OWNER=RRUFF
##SOURCE=Ken Roberts
##DESCRIPTION=Glassy coating over an altered stibnite crystal, mixed with cervantite
##STATUS=The identification of this mineral has been confirmed by X-ray diffraction and chemical analysis
##URL=https://www.rruff.net/odr/rruff_sample/R060002
##MEASURED CHEMISTRY=(Sb_1.99_As_0.01_)O_3_ ; core and light rim
##DIFFRACTION SAMPLE DESCRIPTION=Powder
##CELL PARAMETERS=a: 11.1481 b: 11.1481 c: 11.1481 alpha: 90 beta: 90 gamma: 90 volume: 1385.5 crystal system: cubic
##FILETYPE=Raman RAW
##RAMAN WAVELENGTH=532

133.8143, 527.9149
135.7428, 533.2305
137.6712, 536.8129
139.5997, 539.8297
141.5282, 543.3771
143.4566, 548.6234
145.3851, 553.1733
147.3136, 556.1656
149.2420, 557.4734
151.1705, 559.0132
153.0990, 561.0188
155.0274, 563.4490
156.9559, 566.1522
158.8844, 569.3763
160.8128, 572.6620
162.7413, 575.8724
164.6698, 579.3414
166.5982, 582.3120
168.5267, 584.2204
170.4552, 585.5990
172.3836, 587.4560
174.3121, 590.0789
176.2406, 592.9197
178.1690, 595.7084
180.0975, 598.1754
182.0260, 600.8005
183.9544, 603.2404
185.8829, 605.9054
187.8114, 609.7687
189.7398, 616.6089
191.6683, 623.1348
193.5968, 627.2681
195.5252, 628.7866
197.4537, 631.2168
199.3822, 636.3796
201.3106, 643.0348
203.2391, 647.6642
205.1676, 649.5106
207.0960, 650.2773
209.0245, 650.4334
210.9530, 649.5673
212.8814, 649.6337
214.8099, 651.1902
216.7384, 653.8200
218.6668, 656.3753
220.5953, 659.0687
222.5238, 661.4302
224.4522, 663.1570
226.3807, 663.5500
228.3092, 664.8696
230.2376, 668.0957
232.1661, 671.9350
234.0946, 674.6852
236.0230, 675.5335
237.9515, 676.0137
239.8800, 676.1386
241.8084, 675.3801
243.7369, 675.9271
245.6654, 679.2457
247.5938, 683.9481
249.5223, 687.8171
251.4508, 690.2455
253.3792, 692.6298
255.3077, 695.7260
257.2362, 699.4136
259.1646, 702.0505
261.0931, 701.7385
263.0216, 700.6910
264.9500, 701.9545
266.8785, 707.2477
268.8070, 712.1655
270.7354, 715.0153
272.6639, 715.7576
274.5924, 717.1516
276.5208, 719.7410
278.4493, 722.9601
280.3778, 726.1909
282.3062, 729.6262
284.2347, 732.6610
286.1632, 735.0573
288.0916, 736.8893
290.0201, 738.8068
291.9486, 740.9934
293.8770, 743.0424
295.8055, 744.6514
297.7340, 745.5605
299.6624, 746.9758
301.5909, 749.3485
303.5194, 752.2913
305.4478, 754.7811
307.3763, 756.2105
309.3048, 757.9661
311.2332, 760.7332
313.1617, 765.1536
315.0902, 769.0045
317.0186, 772.4229
318.9471, 775.1250
320.8756, 776.6465
322.8040, 775.7470
324.7325, 775.6672
326.6610, 777.5899
328.5894, 781.9719
330.5179, 786.2923
332.4464, 791.2103
334.3748, 795.5672
336.3033, 798.5941
338.2318, 799.6727
340.1602, 800.4555
342.0887, 800.8224
344.0172, 801.0369
345.9456, 802.5953
347.8741, 806.6918
349.8026, 811.0231
351.7310, 814.2979
353.6595, 815.8010
355.5880, 817.3622
357.5164, 818.9974
359.4449, 820.8234
361.3734, 822.8805
363.3018, 825.1573
365.2303, 827.7788
367.1588, 831.0540
369.0872, 835.3075
371.0157, 838.6727
372.9442, 840.4829
374.8727, 841.8090
376.8011, 843.3737
378.7296, 845.0802
380.6581, 847.1364
382.5865, 849.4252
384.5150, 852.1512
386.4435, 855.7085
388.3719, 860.9027
390.3004, 865.9205
392.2289, 870.0146
394.1573, 872.9514
396.0858, 875.7651
398.0143, 877.9048
399.9427, 879.7068
401.8712, 882.4727
403.7997, 887.1276
405.7281, 890.9406
407.6566, 892.3937
409.5851, 891.5900
411.5135, 892.4110
413.4420, 896.4957
415.3705, 900.7520
417.2989, 903.7886
419.2274, 905.6178
421.1559, 907.2345
423.0843, 908.0757
425.0128, 908.5083
426.9413, 911.0062
428.8697, 917.3815
430.7982, 922.9553
432.7267, 924.6461
434.6551, 922.1913
436.5836, 921.4920
438.5121, 924.7731
440.4405, 928.9214
442.3690, 930.4315
444.2975, 928.8073
446.2259, 928.4628
448.1544, 931.9813
450.0829, 937.1130
452.0113, 940.8281
453.9398, 942.2689
455.8683, 943.5601
457.7967, 944.8068
459.7252, 945.9496
461.6537, 947.6574
463.5821, 950.2861
465.5106, 953.2912
467.4391, 956.4308
469.3675, 959.9474
471.2960, 962.8795
473.2245, 964.8296
475.1529, 965.9829
477.0814, 966.8522
479.0099, 966.4158
480.9383, 967.3473
482.8668, 971.6797
484.7953, 978.5173
486.7237, 982.2003
488.6522, 980.1766
490.5807, 977.8600
492.5091, 978.0903
494.4376, 981.2623
496.3661, 984.2567
498.2945, 986.8719
500.2230, 990.2308
502.1515, 993.8561
504.0799, 997.9795
506.0084, 1000.896
507.9369, 1001.554
509.8653, 1001.239
511.7938, 1002.309
513.7223, 1005.266
515.6508, 1008.729
517.5792, 1012.997
519.5077, 1017.320
521.4362, 1020.232
523.3646, 1019.370
525.2931, 1019.470
527.2216, 1022.213
529.1500, 1027.255
531.0785, 1030.418
533.0070, 1030.397
534.9354, 1030.983
536.8639, 1033.213
538.7924, 1038.745
540.7208, 1042.057
542.6493, 1042.315
544.5778, 1041.793
546.5062, 1042.698
548.4347, 1045.106
550.3632, 1047.615
552.2916, 1050.690
554.2201, 1054.760
556.1486, 1058.113
558.0770, 1059.013
560.0055, 1059.359
561.9340, 1062.191
563.8624, 1067.212
565.7909, 1071.074
567.7194, 1071.295
569.6478, 1071.898
571.5763, 1074.824
573.5048, 1081.474
575.4332, 1086.301
577.3617, 1087.629
579.2902, 1087.575
581.2186, 1088.740
583.1471, 1092.249
585.0756, 1094.990
587.0040, 1095.785
588.9325, 1096.143
590.8610, 1098.365
592.7894, 1102.552
594.7179, 1106.424
596.6464, 1110.551
598.5748, 1114.760
600.5033, 1118.466
602.4318, 1122.049
604.3602, 1125.573
606.2887, 1127.595
608.2172, 1127.769
610.1456, 1128.313
612.0741, 1130.958
614.0026, 1134.207
615.9310, 1136.332
617.8595, 1135.876
619.7880, 1136.678
621.7164, 1140.253
623.6449, 1145.063
625.5734, 1148.741
627.5018, 1150.792
629.4303, 1152.597
631.3588, 1155.559
633.2872, 1158.966
635.2157, 1161.632
637.1442, 1162.971
639.0726, 1164.535
641.0011, 1165.355
642.9296, 1165.862
644.8580, 1168.242
646.7865, 1175.344
648.7150, 1182.076
650.6434, 1185.308
652.5719, 1185.599
654.5004, 1187.386
656.4288, 1190.685
658.3573, 1192.373
660.2858, 1193.303
662.2142, 1194.088
664.1427, 1194.894
666.0712, 1195.619
667.9996, 1197.848
669.9281, 1200.705
671.8566, 1203.318
673.7850, 1204.598
675.7135, 1205.053
677.6420, 1206.059
679.5704, 1208.613
681.4989, 1213.217
683.4274, 1219.432
685.3558, 1224.187
687.2843, 1226.741
689.2128, 1228.384
691.1412, 1230.654
693.0697, 1234.670
694.9982, 1239.539
696.9266, 1242.540
698.8551, 1242.883
700.7836, 1241.234
702.7120, 1243.346
704.6405, 1246.370
706.5690, 1248.922
708.4974, 1250.919
710.4259, 1253.799
712.3544, 1257.379
714.2828, 1261.343
716.2113, 1265.142
718.1398, 1267.913
720.0682, 1268.530
721.9967, 1268.877
723.9252, 1269.944
725.8536, 1272.730
727.7821, 1277.410
729.7106, 1283.070
731.6390, 1286.279
733.5675, 1287.185
735.4960, 1286.694
737.4244, 1286.483
739.3529, 1289.341
741.2814, 1295.141
743.2098, 1299.818
745.1383, 1301.404
747.0668, 1301.343
748.9952, 1301.731
750.9237, 1303.301
752.8522, 1306.719
754.7806, 1311.770
756.7091, 1315.213
758.6376, 1317.793
760.5660, 1322.072
762.4945, 1327.007
764.4230, 1330.514
766.3514, 1331.517
768.2799, 1331.126
770.2084, 1332.125
772.1368, 1335.266
774.0653, 1340.259
775.9938, 1346.448
777.9222, 1352.563
779.8507, 1355.698
781.7792, 1355.761
783.7076, 1355.696
785.6361, 1358.550
787.5646, 1361.720
789.4930, 1363.556
791.4215, 1365.119
793.3500, 1367.930
795.2784, 1369.885
797.2069, 1369.384
799.1354, 1370.364
801.0638, 1374.452
802.9923, 1379.702
804.9208, 1382.853
806.8492, 1384.009
808.7777, 1384.857
810.7062, 1385.563
812.6346, 1386.573
814.5631, 1389.975
816.4916, 1396.484
818.4200, 1402.492
820.3485, 1405.597
822.2770, 1405.752
824.2054, 1405.246
826.1339, 1407.232
828.0624, 1411.034
829.9908, 1416.204
831.9193, 1421.534
833.8478, 1425.836
835.7762, 1428.006
837.7047, 1430.875
839.6332, 1434.592
841.5616, 1438.163
843.4901, 1440.874
845.4186, 1446.825
847.3470, 1452.941
849.2755, 1455.905
851.2040, 1454.736
853.1324, 1452.704
855.0609, 1454.758
856.9894, 1458.185
858.9178, 1461.364
860.8463, 1462.943
862.7748, 1463.668
864.7032, 1464.718
866.6317, 1466.840
868.5602, 1470.535
870.4886, 1475.112
872.4171, 1479.483
874.3456, 1483.369
876.2740, 1486.547
878.2025, 1488.364
880.1310, 1490.356
882.0594, 1494.551
883.9879, 1499.658
885.9164, 1503.114
887.8448, 1504.842
889.7733, 1506.503
891.7018, 1508.738
893.6302, 1510.895
895.5587, 1513.767
897.4872, 1517.846
899.4156, 1521.688
901.3441, 1523.273
903.2726, 1525.295
905.2010, 1529.537
907.1295, 1535.417
909.0580, 1539.893
910.9865, 1541.527
912.9149, 1540.867
914.8434, 1541.211
916.7719, 1544.417
918.7003, 1548.625
920.6288, 1554.663
922.5573, 1558.282
924.4857, 1557.309
926.4142, 1553.550
928.3427, 1552.028
930.2711, 1553.719
932.1996, 1556.318
934.1281, 1558.993
936.0565, 1563.622
937.9850, 1568.568
939.9135, 1573.489
941.8419, 1577.765
943.7704, 1581.084
945.6989, 1583.773
947.6273, 1586.541
949.5558, 1588.697
951.4843, 1590.804
953.4127, 1594.705
955.3412, 1600.490
957.2697, 1602.975
959.1981, 1601.826
961.1266, 1601.254
963.0551, 1603.147
964.9835, 1606.894
966.9120, 1610.352
968.8405, 1612.736
970.7689, 1616.501
972.6974, 1625.757
974.6259, 1633.635
976.5543, 1634.830
978.4828, 1630.519
980.4113, 1629.908
982.3397, 1635.573
984.2682, 1643.215
986.1967, 1648.490
988.1251, 1651.284
990.0536, 1654.668
991.9821, 1660.091
993.9105, 1664.345
995.8390, 1664.896
997.7675, 1664.322
999.6959, 1666.472
1001.624, 1672.033
1003.553, 1676.811
1005.481, 1680.242
1007.410, 1682.366
1009.338, 1684.124
1011.267, 1686.151
1013.195, 1688.755
1015.124, 1691.515
1017.052, 1695.255
1018.981, 1699.796
1020.909, 1704.274
1022.838, 1708.915
1024.766, 1713.959
1026.694, 1718.658
1028.623, 1722.363
1030.551, 1725.209
1032.480, 1728.059
1034.408, 1731.489
1036.337, 1734.257
1038.265, 1734.997
1040.194, 1735.591
1042.122, 1738.263
1044.051, 1744.939
1045.979, 1749.904
1047.908, 1750.530
1049.836, 1750.491
1051.765, 1753.509
1053.693, 1760.581
1055.621, 1767.453
1057.550, 1774.330
1059.478, 1778.747
1061.407, 1779.563
1063.335, 1778.569
1065.264, 1779.110
1067.192, 1781.677
1069.121, 1784.474
1071.049, 1786.883
1072.978, 1789.926
1074.906, 1795.000
1076.835, 1805.558
1078.763, 1812.096
1080.692, 1809.792
1082.620, 1804.690
1084.548, 1804.407
1086.477, 1808.795
1088.405, 1812.328
1090.334, 1812.749
1092.262, 1814.071
1094.191, 1819.693
1096.119, 1828.928
1098.048, 1834.511
1099.976, 1831.718
1101.905, 1830.897
1103.833, 1835.265
1105.762, 1842.798
1107.690, 1849.524
1109.619, 1854.462
1111.547, 1860.217
1113.475, 1868.450
1115.404, 1876.002
1117.332, 1879.124
1119.261, 1877.699
1121.189, 1877.183
1123.118, 1879.475
1125.046, 1881.933
1126.975, 1884.684
1128.903, 1887.623
1130.832, 1888.724
1132.760, 1884.462
1134.689, 1884.061
1136.617, 1891.522
1138.546, 1901.796
1140.474, 1907.862
1142.402, 1909.017
1144.331, 1911.942
1146.259, 1919.278
1148.188, 1925.724
1150.116, 1926.875
1152.045, 1924.200
1153.973, 1925.242
1155.902, 1933.661
1157.830, 1940.993
1159.759, 1944.520
1161.687, 1946.109
1163.616, 1948.984
1165.544, 1954.300
1167.473, 1959.249
1169.401, 1963.779
1171.329, 1967.824
1173.258, 1971.052
1175.186, 1973.634
1177.115, 1976.707
1179.043, 1980.422
1180.972, 1984.451
1182.900, 1988.827
1184.829, 1993.530
1186.757, 1998.280
1188.686, 2002.696
1190.614, 2007.643
1192.543, 2013.857
1194.471, 2019.983
1196.400, 2025.020
1198.328, 2028.439
1200.256, 2031.095
1202.185, 2033.539
1204.113, 2036.100
1206.042, 2039.851
1207.970, 2042.965
1209.899, 2043.424
1211.827, 2040.916
1213.756, 2042.127
1215.684, 2050.270
1217.613, 2059.736
1219.541, 2067.587
1221.470, 2073.802
1223.398, 2078.527
1225.327, 2080.436
1227.255, 2081.981
1229.183, 2083.991
1231.112, 2086.649
1233.040, 2089.733
1234.969, 2094.663
1236.897, 2097.490
1238.826, 2095.101
1240.754, 2093.759
1242.683, 2098.337
1244.611, 2107.485
1246.540, 2113.757
1248.468, 2115.845
1250.397, 2117.755
1252.325, 2120.538
1254.254, 2123.358
1256.182, 2126.156
1258.110, 2129.406
1260.039, 2133.283
1261.967, 2138.247
1263.896, 2143.472
1265.824, 2148.540
1267.753, 2154.103
1269.681, 2160.727
1271.610, 2168.973
1273.538, 2174.897
1275.467, 2176.092
1277.395, 2177.338
1279.324, 2181.998
1281.252, 2188.349
1283.181, 2193.333
1285.109, 2197.062
1287.037, 2201.065
1288.966, 2206.890
1290.894, 2212.285
1292.823, 2214.738
1294.751, 2214.544
1296.680, 2215.922
1298.608, 2220.441
1300.537, 2225.097
1302.465, 2228.737
1304.394, 2231.164
1306.322, 2233.441
1308.251, 2233.995
1310.179, 2235.981
1312.108, 2241.731
1314.036, 2248.443
1315.964, 2253.158
1317.893, 2255.740
1319.821, 2260.533
1321.750, 2267.542
1323.678, 2274.476
1325.607, 2281.798
1327.535, 2289.871
1329.464, 2297.518
1331.392, 2303.496
1333.321, 2308.867
1335.249, 2313.271
1337.178, 2317.642
1339.106, 2321.813
1341.035, 2326.627
1342.963, 2332.070
1344.891, 2337.235
1346.820, 2340.816
1348.748, 2341.611
1350.677, 2342.599
1352.605, 2346.356
1354.534, 2351.816
1356.462, 2354.006
1358.391, 2349.657
1360.319, 2350.581
1362.248, 2360.117
1364.176, 2370.208
1366.105, 2375.766
1368.033, 2378.411
1369.962, 2383.853
1371.890, 2392.184
1373.818, 2397.268
1375.747, 2396.310
1377.675, 2395.550
1379.604, 2399.500
1381.532, 2406.231
1383.461, 2411.555
1385.389, 2414.930
1387.318, 2419.121
1389.246, 2425.540
1391.175, 2432.988
1393.103, 2439.962
1395.032, 2445.578
1396.960, 2451.387
1398.889, 2457.252
1400.817, 2461.974
1402.745, 2464.774
1404.674, 2468.122
1406.602, 2474.081
1408.531, 2483.180
1410.459, 2491.234
1412.388, 2495.531
1414.316, 2501.250
1416.245, 2510.639
1418.173, 2520.660
1420.102, 2527.366
1422.030, 2534.319
1423.959, 2540.621
1425.887, 2543.564
1427.816, 2548.877
1429.744, 2549.504
1431.672, 2548.488
1433.601, 2549.326
1435.529, 2552.483
1437.458, 2554.099
1439.386, 2551.102
1441.315, 2549.151
1443.243, 2551.073
1445.172, 2556.198
1447.100, 2563.591
1449.029, 2572.771
1450.957, 2578.646
1452.886, 2577.629
1454.814, 2579.648
1456.743, 2590.485
1458.671, 2602.863
1460.599, 2609.739
1462.528, 2611.533
1464.456, 2615.372
1466.385, 2622.743
1468.313, 2629.671
1470.242, 2637.765
1472.170, 2645.169
1474.099, 2648.319
1476.027, 2644.896
1477.956, 2642.711
1479.884, 2644.458
1481.813, 2649.987
1483.741, 2660.261
1485.670, 2670.472
1487.598, 2677.550
1489.526, 2681.535
1491.455, 2682.794
1493.383, 2679.064
1495.312, 2677.886
1497.240, 2683.219
1499.169, 2689.751
1501.097, 2693.414
1503.026, 2694.400
1504.954, 2695.642
1506.883, 2697.396
1508.811, 2703.153
1510.740, 2715.436
1512.668, 2729.291
1514.597, 2742.599
1516.525, 2754.105
1518.453, 2761.592
1520.382, 2764.224
1522.310, 2764.720
1524.239, 2762.315
1526.167, 2760.292
1528.096, 2761.167
1530.024, 2764.286
1531.953, 2768.441
1533.881, 2774.057
1535.810, 2780.971
1537.738, 2789.388
1539.667, 2796.644
1541.595, 2800.725
1543.524, 2804.901
1545.452, 2813.280
1547.380, 2825.310
1549.309, 2831.415
1551.237, 2825.850
1553.166, 2822.508
1555.094, 2827.367
1557.023, 2835.607
1558.951, 2843.522
1560.880, 2851.088
1562.808, 2860.088
1564.737, 2873.267
1566.665, 2881.570
1568.594, 2878.197
1570.522, 2875.944
1572.451, 2883.375
1574.379, 2895.916
1576.307, 2902.812
1578.236, 2901.093
1580.164, 2903.211
1582.093, 2912.387
1584.021, 2920.877
1585.950, 2926.548
1587.878, 2930.095
1589.807, 2931.604
1591.735, 2931.067
1593.664, 2933.025
1595.592, 2939.760
1597.521, 2945.519
1599.449, 2949.314
1601.378, 2953.618
1603.306, 2961.041
1605.234, 2970.436
1607.163, 2976.945
1609.091, 2978.313
1611.020, 2983.580
1612.948, 2996.865
1614.877, 3007.703
1616.805, 3010.294
1618.734, 3009.170
1620.662, 3010.476
1622.591, 3014.209
1624.519, 3016.627
1626.448, 3017.548
1628.376, 3018.009
1630.305, 3017.914
1632.233, 3018.392
1634.161, 3021.069
1636.090, 3025.285
1638.018, 3029.106
1639.947, 3032.990
1641.875, 3035.586
1643.804, 3034.138
1645.732, 3035.586
1647.661, 3042.103
1649.589, 3052.361
1651.518, 3066.954
1653.446, 3083.926
1655.375, 3094.795
1657.303, 3096.723
1659.232, 3100.342
1661.160, 3111.482
1663.089, 3121.319
1665.017, 3124.405
1666.945, 3124.004
1668.874, 3124.303
1670.802, 3125.552
1672.731, 3129.782
1674.659, 3138.908
1676.588, 3146.534
1678.516, 3147.748
1680.445, 3148.991
1682.373, 3156.526
1684.302, 3166.854
1686.230, 3172.021
1688.159, 3171.402
1690.087, 3171.500
1692.016, 3174.459
1693.944, 3176.317
1695.872, 3173.362
1697.801, 3170.747
1699.729, 3173.584
1701.658, 3180.741
1703.586, 3188.235
1705.515, 3195.894
1707.443, 3204.857
1709.372, 3216.780
1711.300, 3227.614
1713.229, 3235.385
1715.157, 3240.806
1717.086, 3242.445
1719.014, 3241.622
1720.943, 3247.098
1722.871, 3261.193
1724.799, 3270.997
1726.728, 3271.574
1728.656, 3270.675
1730.585, 3273.179
1732.513, 3276.424
1734.442, 3275.310
1736.370, 3271.747
1738.299, 3276.559
1740.227, 3292.473
1742.156, 3307.529
1744.084, 3319.331
1746.013, 3328.306
1747.941, 3333.525
1749.870, 3336.326
1751.798, 3337.520
1753.726, 3337.790
1755.655, 3341.548
1757.583, 3350.531
1759.512, 3358.400
1761.440, 3364.198
1763.369, 3368.302
1765.297, 3367.373
1767.226, 3366.897
1769.154, 3375.493
1771.083, 3391.286
1773.011, 3402.852
1774.940, 3409.081
1776.868, 3413.889
1778.797, 3416.052
1780.725, 3419.122
1782.653, 3424.853
1784.582, 3431.647
1786.510, 3438.680
1788.439, 3445.417
1790.367, 3448.734
1792.296, 3447.444
1794.224, 3448.097
1796.153, 3453.680
1798.081, 3458.700
1800.010, 3459.583
1801.938, 3460.981
1803.867, 3468.516
1805.795, 3479.749
1807.724, 3486.509
1809.652, 3487.439
1811.580, 3488.789
1813.509, 3490.811
1815.437, 3493.663
1817.366, 3497.536
1819.294, 3502.634
1821.223, 3509.715
1823.151, 3517.608
1825.080, 3523.125
1827.008, 3525.069
1828.937, 3530.646
1830.865, 3544.888
1832.794, 3553.626
1834.722, 3551.829
1836.651, 3549.615
1838.579, 3552.582
1840.507, 3557.433
1842.436, 3559.458
1844.364, 3564.948
1846.293, 3563.931
1848.221, 3574.816
1850.150, 3583.077
1852.078, 3587.332
1854.007, 3589.409
1855.935, 3585.814
1857.864, 3583.979
1859.792, 3591.472
1861.721, 3603.657
1863.649, 3609.138
1865.578, 3607.954
1867.506, 3610.833
1869.434, 3620.598
1871.363, 3628.488
1873.291, 3633.673
1875.220, 3635.559
1877.148, 3629.112
1879.077, 3623.169
1881.005, 3627.463
1882.934, 3639.021
1884.862, 3648.729
1886.791, 3655.708
1888.719, 3664.125
1890.648, 3676.086
1892.576, 3685.207
1894.505, 3689.206
1896.433, 3690.836
1898.361, 3691.534
1900.290, 3691.947
1902.218, 3692.195
1904.147, 3692.701
1906.075, 3695.509
1908.004, 3700.042
1909.932, 3707.582
1911.861, 3721.508
1913.789, 3732.279
1915.718, 3733.433
1917.646, 3733.812
1919.575, 3742.219
1921.503, 3752.761
1923.432, 3753.158
1925.360, 3743.638
1927.288, 3742.418
1929.217, 3757.541
1931.145, 3763.887
1933.074, 3749.412
1935.002, 3742.232
1936.931, 3755.878
1938.859, 3772.575
1940.788, 3780.028
1942.716, 3782.128
1944.645, 3785.406
1946.573, 3789.370
1948.502, 3792.019
1950.430, 3798.262
1952.359, 3796.450
1954.287, 3810.616
1956.216, 3822.447
1958.144, 3828.674
1960.073, 3830.420
1962.001, 3824.526
1963.929, 3817.918
1965.858, 3823.451
1967.786, 3838.266
1969.715, 3843.811
1971.643, 3837.015
1973.572, 3834.313
1975.500, 3836.723
1977.429, 3843.012
1979.357, 3856.703
1981.286, 3869.006
1983.214, 3875.789
1985.143, 3878.456
1987.071, 3877.536
1989.000, 3874.279
1990.928, 3873.192
1992.856, 3874.882
1994.785, 3876.960
1996.713, 3879.419
1998.642, 3881.997
2000.570, 3883.931
2002.499, 3886.800
2004.427, 3892.170
2006.356, 3897.889
2008.284, 3900.264
2010.213, 3902.493
2012.141, 3912.953
2014.070, 3929.867
2015.998, 3939.973
2017.927, 3941.429
2019.855, 3942.619
2021.783, 3944.749
2023.712, 3947.027
2025.640, 3949.125
2027.569, 3951.652
2029.497, 3956.302
2031.426, 3960.563
2033.354, 3960.186
2035.283, 3957.184
2037.211, 3958.766
2039.140, 3966.071
2041.068, 3971.318
2042.997, 3972.487
2044.925, 3976.539
2046.854, 3988.125
2048.782, 3996.384
2050.710, 3993.663
2052.639, 3991.464
2054.567, 3998.760
2056.496, 4008.191
2058.424, 4010.239
2060.353, 4006.825
2062.281, 4003.378
2064.210, 4000.290
2066.138, 4001.476
2068.067, 4009.459
2069.995, 4013.574
2071.924, 4008.638
2073.852, 4005.348
2075.781, 4006.749
2077.709, 4011.931
2079.637, 4023.262
2081.566, 4035.786
2083.494, 4042.472
2085.423, 4044.737
2087.351, 4047.952
2089.280, 4051.649
2091.208, 4056.233
2093.137, 4061.553
2095.065, 4066.749
2096.994, 4073.429
2098.922, 4076.649
2100.851, 4073.315
2102.779, 4069.716
2104.708, 4069.933
2106.636, 4071.706
2108.564, 4075.492
2110.493, 4078.584
2112.421, 4071.991
2114.350, 4057.921
2116.278, 4056.570
2118.207, 4071.400
2120.135, 4083.726
2122.064, 4091.139
2123.992, 4097.846
2125.921, 4103.514
2127.849, 4108.118
2129.778, 4109.312
2131.706, 4110.921
2133.635, 4116.437
2135.563, 4123.061
2137.491, 4128.237
2139.420, 4132.087
2141.348, 4134.545
2143.277, 4136.098
2145.205, 4135.651
2147.134, 4132.550
2149.062, 4133.761
2150.991, 4142.846
2152.919, 4148.826
2154.848, 4144.471
2156.776, 4141.940
2158.705, 4150.106
2160.633, 4157.181
2162.562, 4151.130
2164.490, 4142.163
2166.418, 4145.229
2168.347, 4156.577
2170.275, 4163.584
2172.204, 4166.409
2174.132, 4168.317
2176.061, 4168.673
2177.989, 4175.279
2179.918, 4191.741
2181.846, 4204.746
2183.775, 4211.884
2185.703, 4213.184
2187.632, 4203.370
2189.560, 4193.960
2191.489, 4193.405
2193.417, 4195.819
2195.345, 4194.002
2197.274, 4191.382
2199.202, 4196.208
2201.131, 4200.040
2203.059, 4214.438
2204.988, 4216.384
2206.916, 4222.803
2208.845, 4235.343
2210.773, 4242.165
2212.702, 4237.757
2214.630, 4235.768
2216.559, 4245.358
2218.487, 4251.323
2220.416, 4244.437
2222.344, 4236.377
2224.272, 4235.583
2226.201, 4238.614
2228.129, 4240.480
2230.058, 4242.866
2231.986, 4250.489
2233.915, 4262.329
2235.843, 4272.107
2237.772, 4279.576
2239.700, 4283.520
2241.629, 4283.173
2243.557, 4284.197
2245.486, 4287.694
2247.414, 4292.430
2249.343, 4299.681
2251.271, 4305.604
2253.199, 4309.839
2255.128, 4310.868
2257.056, 4305.333
2258.985, 4298.717
2260.913, 4294.913
2262.842, 4294.994
2264.770, 4303.921
2266.699, 4317.930
2268.627, 4322.031
2270.556, 4317.827
2272.484, 4319.337
2274.413, 4327.638
2276.341, 4332.275
2278.270, 4330.146
2280.198, 4329.580
2282.126, 4332.372
2284.055, 4335.105
2285.983, 4335.631
2287.912, 4338.040
2289.840, 4345.767
2291.769, 4353.433
2293.697, 4360.280
2295.626, 4363.583
2297.554, 4357.848
2299.483, 4349.520
2301.411, 4348.280
2303.340, 4351.453
2305.268, 4349.857
2307.197, 4345.095
2309.125, 4352.829
2311.053, 4376.483
2312.982, 4389.872
2314.910, 4389.588
2316.839, 4388.661
2318.767, 4385.606
2320.696, 4387.769
2322.624, 4399.863
2324.553, 4408.490
2326.481, 4406.349
2328.410, 4404.560
2330.338, 4409.360
2332.267, 4415.049
2334.195, 4418.417
2336.124, 4420.390
2338.052, 4422.896
2339.980, 4423.985
2341.909, 4418.254
2343.837, 4420.688
2345.766, 4420.188
2347.694, 4419.295
2349.623, 4422.431
2351.551, 4420.714
2353.480, 4422.516
2355.408, 4428.985
2357.337, 4433.259
2359.265, 4432.808
2361.194, 4433.877
2363.122, 4435.639
2365.051, 4441.038
2366.979, 4456.071
2368.907, 4464.598
2370.836, 4457.323
2372.764, 4451.196
2374.693, 4454.875
2376.621, 4461.134
2378.550, 4464.431
2380.478, 4468.184
2382.407, 4478.225
2384.335, 4488.050
2386.264, 4488.010
2388.192, 4482.851
2390.121, 4482.191
2392.049, 4485.163
2393.978, 4487.058
2395.906, 4488.306
2397.834, 4489.609
2399.763, 4490.594
2401.691, 4496.171
2403.620, 4495.727
2405.548, 4495.844
2407.477, 4500.193
2409.405, 4494.584
2411.334, 4501.667
2413.262, 4504.489
2415.191, 4499.905
2417.119, 4494.477
2419.048, 4485.699
2420.976, 4484.468
2422.905, 4498.962
2424.833, 4515.579
2426.761, 4530.678
2428.690, 4540.304
2430.618, 4539.105
2432.547, 4533.945
2434.475, 4530.271
2436.404, 4528.023
2438.332, 4529.270
2440.261, 4531.235
2442.189, 4527.561
2444.118, 4521.727
2446.046, 4520.851
2447.975, 4524.266
2449.903, 4530.790
2451.832, 4539.698
2453.760, 4543.710
2455.688, 4542.299
2457.617, 4545.425
2459.545, 4553.831
2461.474, 4560.094
2463.402, 4563.687
2465.331, 4566.445
2467.259, 4568.580
2469.188, 4570.292
2471.116, 4567.438
2473.045, 4571.100
2474.973, 4589.050
2476.902, 4599.094
2478.830, 4591.224
2480.759, 4585.118
2482.687, 4591.026
2484.615, 4595.702
2486.544, 4589.547
2488.472, 4585.535
2490.401, 4594.294
2492.329, 4604.472
2494.258, 4609.529
2496.186, 4610.297
2498.115, 4601.851
2500.043, 4594.421
2501.972, 4600.565
2503.900, 4612.075
2505.829, 4621.028
2507.757, 4626.024
2509.686, 4622.292
2511.614, 4613.829
2513.542, 4609.812
2515.471, 4610.073
2517.399, 4613.898
2519.328, 4620.891
2521.256, 4630.424
2523.185, 4641.560
2525.113, 4647.253
2527.042, 4646.897
2528.970, 4647.071
2530.899, 4647.482
2532.827, 4649.517
2534.756, 4653.479
2536.684, 4656.468
2538.613, 4658.525
2540.541, 4658.624
2542.469, 4656.328
2544.398, 4654.910
2546.326, 4654.781
2548.255, 4656.762
2550.183, 4661.917
2552.112, 4667.532
2554.040, 4672.827
2555.969, 4678.593
2557.897, 4684.713
2559.826, 4690.442
2561.754, 4693.473
2563.683, 4698.764
2565.611, 4712.850
2567.540, 4722.491
2569.468, 4720.458
2571.396, 4716.939
2573.325, 4715.913
2575.253, 4715.130
2577.182, 4712.513
2579.110, 4710.865
2581.039, 4709.675
2582.967, 4712.856
2584.896, 4728.720
2586.824, 4743.658
2588.753, 4745.206
2590.681, 4742.155
2592.610, 4739.582
2594.538, 4738.529
2596.467, 4740.956
2598.395, 4744.304
2600.323, 4744.648
2602.252, 4745.286
2604.180, 4752.993
2606.109, 4762.583
2608.037, 4765.190
2609.966, 4764.866
2611.894, 4767.933
2613.823, 4772.592
2615.751, 4775.085
2617.680, 4776.608
2619.608, 4781.586
2621.537, 4787.312
2623.465, 4782.801
2625.394, 4774.174
2627.322, 4783.292
2629.250, 4802.291
2631.179, 4804.563
2633.107, 4794.790
2635.036, 4793.374
2636.964, 4798.416
2638.893, 4797.677
2640.821, 4792.881
2642.750, 4795.253
2644.678, 4793.270
2646.607, 4793.784
2648.535, 4795.533
2650.464, 4795.755
2652.392, 4797.070
2654.321, 4799.255
2656.249, 4800.055
2658.177, 4805.131
2660.106, 4808.598
2662.034, 4814.234
2663.963, 4823.851
2665.891, 4830.041
2667.820, 4844.271
2669.748, 4851.204
2671.677, 4850.483
2673.605, 4850.623
2675.534, 4851.953
2677.462, 4847.386
2679.391, 4848.172
2681.319, 4849.223
2683.248, 4846.495
2685.176, 4852.779
2687.104, 4853.532
2689.033, 4855.218
2690.961, 4857.635
2692.890, 4864.298
2694.818, 4875.681
2696.747, 4880.972
2698.675, 4878.373
2700.604, 4877.156
2702.532, 4877.736
2704.461, 4876.512
2706.389, 4873.614
2708.318, 4869.060
2710.246, 4862.474
2712.175, 4861.596
2714.103, 4867.371
2716.031, 4876.009
2717.960, 4888.225
2719.888, 4890.729
2721.817, 4882.745
2723.745, 4880.832
2725.674, 4887.139
2727.602, 4887.631
2729.531, 4880.364
2731.459, 4880.682
2733.388, 4880.312
2735.316, 4878.814
2737.245, 4884.039
2739.173, 4883.532
2741.102, 4890.162
2743.030, 4900.780
2744.958, 4915.365
2746.887, 4927.429
2748.815, 4936.408
2750.744, 4951.092
2752.672, 4969.920
2754.601, 4968.203
2756.529, 4945.909
2758.458, 4938.641
2760.386, 4946.792
2762.315, 4947.005
2764.243, 4941.361
2766.172, 4948.728
2768.100, 4966.488
2770.029, 4970.991
2771.957, 4964.124
2773.885, 4963.296
2775.814, 4967.859
2777.742, 4970.926
2779.671, 4972.515
2781.599, 4968.139
2783.528, 4961.233
2785.456, 4967.780
2787.385, 4967.329
2789.313, 4984.140
2791.242, 4978.490
2793.170, 4984.001
2795.099, 4994.280
2797.027, 4994.094
2798.956, 4988.391
2800.884, 4985.796
2802.813, 4986.110
2804.741, 4991.079
2806.669, 4996.167
2808.598, 4989.460
2810.526, 4982.303
2812.455, 4996.875
2814.383, 4991.229
2816.312, 5009.842
2818.240, 4998.333
2820.169, 5000.791
2822.097, 5009.116
2824.026, 5020.099
2825.954, 5027.304
2827.883, 5021.323
2829.811, 5012.835
2831.740, 5010.929
2833.668, 5010.064
2835.596, 5005.000
2837.525, 5003.401
2839.453, 5015.718
2841.382, 5025.719
2843.310, 5016.952
2845.239, 5015.920
2847.167, 5038.886
2849.096, 5057.638
2851.024, 5056.453
2852.953, 5052.854
2854.881, 5051.380
2856.810, 5049.461
2858.738, 5046.737
2860.667, 5045.405
2862.595, 5046.902
2864.523, 5050.274
2866.452, 5054.961
2868.380, 5063.930
2870.309, 5063.440
2872.237, 5062.440
2874.166, 5066.152
2876.094, 5056.442
2878.023, 5058.931
2879.951, 5062.211
2881.880, 5066.487
2883.808, 5073.278
2885.737, 5082.761
2887.665, 5084.122
2889.594, 5088.124
2891.522, 5090.958
2893.450, 5090.226
2895.379, 5094.670
2897.307, 5095.346
2899.236, 5099.562
2901.164, 5104.777
2903.093, 5101.314
2905.021, 5096.843
2906.950, 5114.438
2908.878, 5110.915
2910.807, 5132.620
2912.735, 5120.919
2914.664, 5123.163
2916.592, 5130.431
2918.521, 5138.811
2920.449, 5141.525
2922.377, 5124.607
2924.306, 5112.387
2926.234, 5123.898
2928.163, 5136.729
2930.091, 5141.142
2932.020, 5141.940
2933.948, 5141.367
2935.877, 5136.223
2937.805, 5135.458
2939.734, 5132.026
2941.662, 5124.916
2943.591, 5126.284
2945.519, 5111.384
2947.448, 5108.571
2949.376, 5121.940
2951.304, 5136.840
2953.233, 5153.469
2955.161, 5157.320
2957.090, 5148.204
2959.018, 5147.545
2960.947, 5153.950
2962.875, 5161.388
2964.804, 5167.005
2966.732, 5158.036
2968.661, 5141.628
2970.589, 5135.106
2972.518, 5135.680
2974.446, 5145.549
2976.375, 5153.269
2978.303, 5141.441
2980.231, 5125.615
2982.160, 5117.248
2984.088, 5113.932
2986.017, 5113.954
2987.945, 5117.696
2989.874, 5127.261
2991.802, 5135.243
2993.731, 5138.871
2995.659, 5142.104
2997.588, 5149.518
2999.516, 5147.894
3001.445, 5126.494
3003.373, 5121.487
3005.302, 5135.941
3007.230, 5146.465
3009.158, 5150.661
3011.087, 5161.908
3013.015, 5179.017
3014.944, 5184.579
3016.872, 5180.872
3018.801, 5175.079
3020.729, 5169.819
3022.658, 5171.642
3024.586, 5176.603
3026.515, 5177.027
3028.443, 5178.826
3030.372, 5192.863
3032.300, 5203.604
3034.229, 5194.375
3036.157, 5185.967
3038.085, 5190.354
3040.014, 5194.111
3041.942, 5192.056
3043.871, 5189.224
3045.799, 5186.954
3047.728, 5183.529
3049.656, 5178.595
3051.585, 5180.185
3053.513, 5179.908
3055.442, 5179.507
3057.370, 5185.006
3059.299, 5183.880
3061.227, 5187.528
3063.156, 5195.749
3065.084, 5204.522
3067.012, 5204.165
3068.941, 5201.594
3070.869, 5211.574
3072.798, 5220.294
3074.726, 5210.297
3076.655, 5203.030
3078.583, 5214.962
3080.512, 5228.499
3082.440, 5239.302
3084.369, 5243.078
3086.297, 5248.805
3088.226, 5252.520
3090.154, 5249.459
3092.083, 5256.527
3094.011, 5251.971
3095.939, 5253.053
3097.868, 5259.437
3099.796, 5253.547
3101.725, 5239.132
3103.653, 5228.828
3105.582, 5224.143
3107.510, 5231.630
3109.439, 5241.104
3111.367, 5240.441
3113.296, 5237.627
3115.224, 5239.011
3117.153, 5238.884
3119.081, 5231.401
3121.010, 5226.581
3122.938, 5227.678
3124.866, 5226.718
3126.795, 5221.709
3128.723, 5219.001
3130.652, 5219.650
3132.580, 5223.040
3134.509, 5228.733
3136.437, 5230.353
3138.366, 5228.969
3140.294, 5223.686
3142.223, 5220.553
3144.151, 5236.183
3146.080, 5250.307
3148.008, 5239.923
3149.937, 5229.041
3151.865, 5231.970
3153.793, 5238.439
3155.722, 5247.620
3157.650, 5252.758
3159.579, 5251.458
3161.507, 5248.366
3163.436, 5242.816
3165.364, 5250.881
3167.293, 5269.996
3169.221, 5279.788
3171.150, 5281.745
3173.078, 5278.595
3175.007, 5273.747
3176.935, 5271.779
3178.864, 5271.821
3180.792, 5274.355
3182.720, 5277.453
3184.649, 5280.997
3186.577, 5282.981
3188.506, 5286.316
3190.434, 5289.335
3192.363, 5291.944
3194.291, 5298.041
3196.220, 5300.823
3198.148, 5310.377
3200.077, 5323.517
3202.005, 5324.605
3203.934, 5318.277
3205.862, 5308.925
3207.791, 5302.686
3209.719, 5308.593
3211.647, 5315.527
3213.576, 5317.722
3215.504, 5318.655
3217.433, 5319.587
3219.361, 5320.047
3221.290, 5318.692
3223.218, 5324.003
3225.147, 5322.284
3227.075, 5334.532
3229.004, 5326.473
3230.932, 5332.653
3232.861, 5343.811
3234.789, 5343.500
3236.718, 5340.503
3238.646, 5345.909
3240.574, 5346.965
3242.503, 5334.316
3244.431, 5325.776
3246.360, 5328.453
3248.288, 5328.016
3250.217, 5321.327
3252.145, 5322.689
3254.074, 5330.669
3256.002, 5334.015
3257.931, 5334.634
3259.859, 5340.313
3261.788, 5344.517
3263.716, 5335.250
3265.645, 5328.427
3267.573, 5339.058
3269.501, 5346.991
3271.430, 5346.209
3273.358, 5343.013
3275.287, 5337.875
3277.215, 5333.005
3279.144, 5328.948
3281.072, 5332.299
3283.001, 5340.123
3284.929, 5343.473
3286.858, 5344.926
3288.786, 5348.019
3290.715, 5349.874
3292.643, 5353.797
3294.572, 5343.861
3296.500, 5360.797
3298.428, 5371.348
3300.357, 5372.728
3302.285, 5366.280
3304.214, 5353.542
3306.142, 5366.333
3308.071, 5389.640
3309.999, 5383.670
3311.928, 5367.052
3313.856, 5357.643
3315.785, 5354.038
3317.713, 5356.569
3319.642, 5363.188
3321.570, 5381.538
3323.499, 5385.883
3325.427, 5374.880
3327.355, 5369.615
3329.284, 5371.496
3331.212, 5386.728
3333.141, 5405.693
3335.069, 5405.793
3336.998, 5405.222
3338.926, 5424.216
3340.855, 5437.479
3342.783, 5433.820
3344.712, 5428.750
3346.640, 5425.443
3348.569, 5424.322
3350.497, 5425.921
3352.426, 5422.558
3354.354, 5415.698
3356.282, 5402.153
3358.211, 5392.751
3360.139, 5401.208
3362.068, 5413.755
3363.996, 5426.603
3365.925, 5431.404
3367.853, 5424.535
3369.782, 5418.339
3371.710, 5414.884
3373.639, 5422.065
3375.567, 5420.453
3377.496, 5433.351
3379.424, 5430.641
3381.353, 5448.081
3383.281, 5461.289
3385.209, 5450.385
3387.138, 5445.349
3389.066, 5456.013
3390.995, 5460.333
3392.923, 5457.486
3394.852, 5456.180
3396.780, 5456.634
3398.709, 5457.899
3400.637, 5459.816
3402.566, 5459.333
3404.494, 5463.179
3406.423, 5481.482
3408.351, 5489.930
3410.280, 5482.696
3412.208, 5479.257
3414.136, 5480.684
3416.065, 5478.927
3417.993, 5477.494
3419.922, 5488.175
3421.850, 5500.541
3423.779, 5510.486
3425.707, 5508.294
3427.636, 5483.384
3429.564, 5473.555
3431.493, 5488.643
3433.421, 5500.024
3435.350, 5507.052
3437.278, 5508.646
3439.207, 5506.779
3441.135, 5505.019
3443.063, 5499.803
3444.992, 5483.116
3446.920, 5476.866
3448.849, 5493.728
3450.777, 5508.958
3452.706, 5521.380
3454.634, 5531.452
3456.563, 5537.241
3458.491, 5530.177
3460.420, 5521.601
3462.348, 5521.918
3464.277, 5526.438
3466.205, 5536.876
3468.134, 5543.659
3470.062, 5545.783
3471.990, 5546.538
3473.919, 5545.584
3475.847, 5535.887
3477.776, 5529.897
3479.704, 5549.402
3481.633, 5567.462
3483.561, 5570.807
3485.490, 5562.974
3487.418, 5541.747
3489.347, 5539.437
3491.275, 5554.952
3493.204, 5557.835
3495.132, 5554.647
3497.061, 5551.472
3498.989, 5552.120
3500.917, 5558.494
3502.846, 5568.356
3504.774, 5570.066
3506.703, 5576.146
3508.631, 5579.915
3510.560, 5582.038
3512.488, 5589.362
3514.417, 5589.158
3516.345, 5591.186
3518.274, 5604.429
3520.202, 5615.188
3522.131, 5619.507
3524.059, 5619.218
3525.988, 5615.582
3527.916, 5621.526
3529.844, 5630.554
3531.773, 5630.233
3533.701, 5625.618
3535.630, 5616.452
3537.558, 5612.923
3539.487, 5619.307
3541.415, 5619.101
3543.344, 5612.459
3545.272, 5602.713
3547.201, 5595.400
3549.129, 5597.743
3551.058, 5606.245
3552.986, 5623.552
3554.915, 5632.610
3556.843, 5628.872
3558.771, 5627.963
3560.700, 5629.311
3562.628, 5617.683
3564.557, 5607.950
3566.485, 5626.770
3568.414, 5641.151
3570.342, 5633.873
3572.271, 5628.922
3574.199, 5630.912
3576.128, 5630.245
3578.056, 5630.125
3579.985, 5645.946
3581.913, 5661.875
3583.842, 5663.188
3585.770, 5655.252
3587.698, 5633.079
3589.627, 5629.959
3591.555, 5646.901
3593.484, 5651.647
3595.412, 5647.983
3597.341, 5637.023
3599.269, 5632.718
3601.198, 5645.181
3603.126, 5660.438
3605.055, 5678.618
3606.983, 5679.440
3608.912, 5667.426
3610.840, 5660.734
3612.769, 5659.030
3614.697, 5663.842
3616.625, 5668.203
3618.554, 5664.032
3620.482, 5673.027
3622.411, 5674.102
3624.339, 5677.699
3626.268, 5684.316
3628.196, 5691.008
3630.125, 5702.085
3632.053, 5719.068
3633.982, 5712.685
3635.910, 5717.581
3637.839, 5720.432
3639.767, 5708.967
3641.696, 5715.333
3643.624, 5707.570
3645.552, 5691.660
3647.481, 5679.292
3649.409, 5672.386
3651.338, 5683.335
3653.266, 5708.775
3655.195, 5709.418
3657.123, 5697.984
3659.052, 5688.231
3660.980, 5686.096
3662.909, 5702.299
3664.837, 5710.411
3666.766, 5709.002
3668.694, 5709.302
3670.623, 5711.563
3672.551, 5715.185
3674.479, 5720.292
3676.408, 5729.933
3678.336, 5731.542
3680.265, 5735.914
3682.193, 5726.765
3684.122, 5737.975
3686.050, 5741.042
3687.979, 5736.947
3689.907, 5722.928
3691.836, 5709.949
3693.764, 5700.092
3695.693, 5699.000
3697.621, 5704.974
3699.550, 5710.640
3701.478, 5718.246
3703.406, 5718.535
3705.335, 5719.482
3707.263, 5722.161
3709.192, 5717.849
3711.120, 5726.069
3713.049, 5730.985
3714.977, 5731.579
3716.906, 5722.031
3718.834, 5719.919
3720.763, 5731.194
3722.691, 5742.563
3724.620, 5751.013
3726.548, 5739.428
3728.477, 5728.356
3730.405, 5745.045
3732.333, 5757.530
3734.262, 5756.755
3736.190, 5747.591
3738.119, 5733.259
3740.047, 5726.017
3741.976, 5726.173
3743.904, 5723.908
3745.833, 5727.612
3747.761, 5734.270
3749.690, 5735.964
3751.618, 5738.430
3753.547, 5740.093
3755.475, 5740.931
3757.404, 5741.145
3759.332, 5743.043
3761.260, 5744.712
3763.189, 5761.284
3765.117, 5783.172
3767.046, 5760.251
3768.974, 5732.969
3770.903, 5742.325
3772.831, 5742.194
3774.760, 5722.224
3776.688, 5731.250
3778.617, 5723.999
3780.545, 5740.867
3782.474, 5723.572
3784.402, 5729.792
3786.331, 5735.825
3788.259, 5738.527
3790.188, 5733.933
3792.116, 5728.790
3794.044, 5741.028
3795.973, 5752.757
3797.901, 5751.692
3799.830, 5753.088
3801.758, 5757.866
3803.687, 5766.092
3805.615, 5773.162
3807.544, 5772.243
3809.472, 5766.841
3811.401, 5771.409
3813.329, 5768.914
3815.258, 5770.356
3817.186, 5768.779
3819.115, 5761.760
3821.043, 5760.509
3822.971, 5759.128
3824.900, 5753.898
3826.828, 5757.412
3828.757, 5765.789
3830.685, 5768.187
3832.614, 5771.617
3834.542, 5783.414
3836.471, 5782.281
3838.399, 5787.675
3840.328, 5772.932
3842.256, 5789.079
3844.185, 5779.908
3846.113, 5771.532
3848.042, 5773.501
3849.970, 5778.336
3851.898, 5783.651
3853.827, 5780.038
3855.755, 5774.896
3857.684, 5777.117
3859.612, 5774.396
3861.541, 5764.669
3863.469, 5761.891
3865.398, 5763.931
3867.326, 5761.794
3869.255, 5768.004
3871.183, 5792.505
3873.112, 5801.327
3875.040, 5794.217
3876.969, 5787.296
3878.897, 5784.184
3880.825, 5794.648
3882.754, 5793.521
3884.682, 5798.780
3886.611, 5802.894
3888.539, 5804.769
3890.468, 5805.095
3892.396, 5799.814
3894.325, 5790.863
3896.253, 5791.493
3898.182, 5799.588
3900.110, 5787.240
3902.039, 5772.407
3903.967, 5779.554
3905.896, 5789.807
3907.824, 5799.319
3909.752, 5802.702
3911.681, 5796.792
3913.609, 5792.211
3915.538, 5790.917
3917.466, 5784.716
3919.395, 5781.458
3921.323, 5780.982
3923.252, 5781.556
3925.180, 5782.677
3927.109, 5784.413
3929.037, 5788.018
3930.966, 5786.322
3932.894, 5790.456
3934.823, 5793.293
3936.751, 5786.743
3938.679, 5788.418
3940.608, 5785.497
3942.536, 5781.030
3944.465, 5779.061
3946.393, 5773.504
3948.322, 5767.145
3950.250, 5765.079
3952.179, 5772.629
3954.107, 5779.555
3956.036, 5780.404
3957.964, 5776.525
3959.893, 5767.335
3961.821, 5768.681
3963.750, 5771.218
3965.678, 5774.541
3967.606, 5773.721
3969.535, 5774.835
3971.463, 5774.689
3973.392, 5772.343
3975.320, 5777.130
3977.249, 5772.840
3979.177, 5754.166
3981.106, 5748.724
3983.034, 5752.965
3984.963, 5759.741
3986.891, 5773.849
3988.820, 5782.485
3990.748, 5782.150
3992.677, 5774.859
3994.605, 5767.690
3996.533, 5765.232
3998.462, 5770.165
4000.390, 5771.619
4002.319, 5772.556
4004.247, 5770.675
4006.176, 5764.773
4008.104, 5780.616
4010.033, 5790.901
4011.961, 5780.972
4013.890, 5777.268
4015.818, 5773.248
4017.747, 5767.469
4019.675, 5764.204
4021.604, 5767.730
4023.532, 5775.112
4025.460, 5785.893
4027.389, 5784.612
4029.317, 5776.608
4031.246, 5776.209
4033.174, 5772.529
4035.103, 5766.616
4037.031, 5764.075
4038.960, 5761.715
4040.888, 5763.837
4042.817, 5759.889
4044.745, 5755.468
4046.674, 5769.023
4048.602, 5777.745
4050.531, 5759.822
4052.459, 5761.688
4054.387, 5781.236
4056.316, 5769.396
4058.244, 5759.845
4060.173, 5776.403
4062.101, 5780.784
4064.030, 5767.647
4065.958, 5766.601
4067.887, 5771.609
4069.815, 5771.459
4071.744, 5765.180
4073.672, 5755.454
4075.601, 5754.673
4077.529, 5754.392
4079.458, 5747.434
4081.386, 5742.947
4083.314, 5740.215
4085.243, 5744.843
4087.171, 5752.077
4089.100, 5757.219
4091.028, 5752.430
4092.957, 5755.479
4094.885, 5739.808
4096.814, 5752.755
4098.742, 5747.405
4100.671, 5746.692
4102.599, 5758.157
4104.528, 5749.787
4106.456, 5751.776
4108.385, 5739.960
4110.313, 5745.917
4112.242, 5741.493
4114.170, 5736.504
4116.099, 5732.477
4118.027, 5731.018
4119.956, 5730.269
4121.884, 5730.039
4123.813, 5727.951
4125.741, 5724.514
4127.669, 5722.540
4129.598, 5719.331
4131.526, 5712.651
4133.455, 5712.381
4135.383, 5715.417
4137.312, 5709.048
4139.240, 5710.403
4141.168, 5728.499
4143.097, 5729.630
4145.025, 5716.877
4146.954, 5709.071
4148.882, 5706.878
4150.811, 5710.215
4152.739, 5710.029
4154.668, 5707.782
4156.596, 5706.110
4158.525, 5704.211
4160.453, 5700.207
4162.382, 5706.749
4164.310, 5715.294
4166.239, 5698.554
4168.167, 5686.492
4170.096, 5695.831
4172.024, 5697.615
4173.953, 5694.462
4175.881, 5685.126
4177.810, 5676.755
4179.738, 5672.165
4181.667, 5674.323
4183.595, 5681.882
4185.523, 5686.562
4187.452, 5683.387
4189.380, 5684.093
4191.309, 5669.394
4193.237, 5675.494
4195.166, 5664.965
4197.094, 5657.348
4199.022, 5659.435
4200.951, 5664.318
4202.879, 5667.103
4204.808, 5648.600
4206.736, 5645.140
4208.665, 5637.602
4210.593, 5650.745
4212.522, 5626.502
4214.450, 5634.791
4216.379, 5639.693
4218.307, 5633.814
4220.236, 5632.542
4222.164, 5636.894
4224.093, 5653.559
4226.021, 5647.327
4227.950, 5650.001
4229.878, 5631.044
4231.807, 5642.500
4233.735, 5619.991
4235.664, 5613.408
4237.592, 5623.931
4239.521, 5625.586
4241.449, 5620.792
4243.377, 5609.824
4245.306, 5603.909
4247.234, 5601.126
4249.163, 5590.710
4251.091, 5584.324
4253.020, 5587.501
4254.948, 5585.237
4256.876, 5578.255
4258.805, 5581.391
4260.733, 5581.673
4262.662, 5580.472
4264.590, 5584.992
4266.519, 5581.797
4268.447, 5575.544
4270.376, 5576.918
4272.304, 5586.694
4274.233, 5566.912
4276.161, 5547.315
4278.090, 5552.022
4280.018, 5557.562
4281.947, 5559.490
4283.875, 5546.183
4285.804, 5537.288
4287.732, 5543.349
4289.661, 5555.518
4291.589, 5563.694
4293.518, 5561.370
4295.446, 5563.984
4297.375, 5552.151
4299.303, 5554.979
4301.231, 5546.576
4303.160, 5536.513
4305.088, 5536.710
4307.017, 5530.482
4308.945, 5536.097
4310.874, 5524.569
4312.802, 5525.886
4314.730, 5521.272
4316.659, 5511.989
4318.587, 5504.757
4320.516, 5495.802
4322.444, 5495.421
4324.373, 5486.142
4326.301, 5495.848
4328.230, 5500.503
4330.158, 5499.687
4332.087, 5494.735
4334.015, 5491.130
4335.944, 5490.464
4337.872, 5496.075
4339.801, 5486.765
4341.729, 5486.786
4343.658, 5474.917
4345.586, 5477.417
4347.515, 5469.840
4349.443, 5462.415
4351.372, 5461.005
4353.300, 5476.579
4355.229, 5484.935
4357.157, 5483.247
4359.085, 5475.896
4361.014, 5469.472
4362.942, 5468.919
4364.871, 5470.773
4366.799, 5471.625
4368.728, 5470.775
4370.656, 5470.110
4372.584, 5468.833
4374.513, 5469.996
4376.441, 5468.276
4378.370, 5475.769
4380.298, 5471.091
4382.227, 5458.846
4384.155, 5461.322
4386.084, 5466.233
4388.012, 5470.729
4389.941, 5448.126
4391.869, 5425.151
4393.798, 5441.872
4395.726, 5444.467
4397.655, 5428.697
4399.583, 5415.817
4401.512, 5409.331
4403.440, 5411.199
4405.369, 5407.213
4407.297, 5400.003
4409.226, 5394.035
4411.154, 5392.471
4413.083, 5394.711
4415.011, 5392.194
4416.939, 5388.266
4418.868, 5384.702
4420.796, 5381.527
4422.725, 5378.583
4424.653, 5376.238
4426.582, 5376.503
4428.510, 5371.926
4430.438, 5372.063
4432.367, 5369.526
4434.295, 5371.535
4436.224, 5372.554
4438.152, 5371.884
4440.081, 5367.872
4442.009, 5363.692
4443.938, 5359.913
4445.866, 5369.257
4447.795, 5367.536
4449.723, 5359.236
4451.652, 5332.792
4453.580, 5340.844
4455.509, 5319.849
4457.437, 5314.264
4459.366, 5328.282
4461.294, 5331.537
4463.223, 5329.014
4465.151, 5320.702
4467.080, 5322.236
4469.008, 5326.611
4470.937, 5323.662
4472.865, 5316.505
4474.793, 5307.216
4476.722, 5305.698
4478.650, 5297.263
4480.579, 5289.607
4482.507, 5271.461
4484.436, 5276.583
4486.364, 5264.345
4488.292, 5265.597
4490.221, 5276.842
4492.149, 5271.711
4494.078, 5266.831
4496.006, 5268.145
4497.935, 5258.155
4499.863, 5249.904
4501.792, 5262.523
4503.720, 5257.102
4505.649, 5239.805
4507.577, 5225.177
4509.506, 5224.238
4511.434, 5238.173
4513.363, 5251.726
4515.291, 5253.433
4517.220, 5236.607
4519.148, 5223.262
4521.077, 5214.822
4523.005, 5210.894
4524.934, 5207.849
4526.862, 5205.878
4528.791, 5212.624
4530.719, 5210.832
4532.647, 5210.279
4534.576, 5208.245
4536.504, 5203.356
4538.433, 5198.049
4540.361, 5186.868
4542.290, 5178.425
4544.218, 5188.645
4546.146, 5204.974
4548.075, 5218.987
4550.003, 5196.916
4551.932, 5182.675
4553.860, 5196.399
4555.789, 5203.956
4557.717, 5198.880
4559.646, 5167.179
4561.574, 5158.905
4563.503, 5168.309
4565.431, 5184.490
4567.360, 5177.130
4569.288, 5149.988
4571.217, 5161.531
4573.145, 5162.188
4575.074, 5132.036
4577.002, 5143.693
4578.931, 5164.574
4580.859, 5166.265
4582.788, 5143.062
4584.716, 5115.029
4586.645, 5121.772
4588.573, 5129.241
4590.501, 5129.880
4592.430, 5131.106
4594.358, 5129.070
4596.287, 5124.105
4598.215, 5120.147
4600.144, 5109.391
4602.072, 5104.266
4604.000, 5096.696
4605.929, 5090.343
4607.857, 5091.692
4609.786, 5097.905
4611.714, 5100.481
4613.643, 5087.871
4615.571, 5078.409
4617.500, 5057.463
4619.428, 5043.987
4621.357, 5026.791
4623.285, 5012.221
4625.214, 5021.145
4627.142, 5035.257
4629.071, 5040.229
4630.999, 5045.761
4632.928, 5045.245
4634.856, 5019.329
4636.785, 5008.571
4638.713, 5011.897
4640.642, 5011.612
4642.570, 5007.624
4644.499, 5001.010
4646.427, 5005.958
4648.355, 5011.212
4650.284, 5011.692
4652.212, 5001.341
4654.141, 4986.447
4656.069, 4968.354
4657.998, 4976.813
4659.926, 4990.622
4661.854, 4977.309
4663.783, 4958.498
4665.711, 4943.849
4667.640, 4954.745
4669.568, 4964.424
4671.497, 4964.397
4673.425, 4963.946
4675.354, 4958.926
4677.282, 4949.611
4679.211, 4942.473
4681.139, 4929.018
4683.068, 4923.911
4684.996, 4927.933
4686.925, 4931.287
4688.853, 4926.464
4690.782, 4913.415
4692.710, 4902.091
4694.639, 4910.952
4696.567, 4912.886
4698.496, 4907.452
4700.424, 4896.789
4702.353, 4887.940
4704.281, 4881.312
4706.209, 4871.655
4708.138, 4872.566
4710.066, 4860.482
4711.995, 4858.104
4713.923, 4839.500
4715.852, 4845.051
4717.780, 4831.538
4719.708, 4823.825
4721.637, 4837.475
4723.565, 4850.616
4725.494, 4854.234
4727.422, 4852.338
4729.351, 4834.029
4731.279, 4834.290
4733.208, 4821.568
4735.136, 4805.534
4737.065, 4794.872
4738.993, 4807.246
4740.922, 4811.302
4742.850, 4804.202
4744.779, 4787.290
4746.707, 4773.374
4748.636, 4767.558
4750.564, 4785.896
4752.493, 4797.829
4754.421, 4795.502
4756.350, 4789.279
4758.278, 4782.067
4760.207, 4775.093
4762.135, 4773.184
4764.063, 4768.549
4765.992, 4756.285
4767.920, 4763.710
4769.849, 4767.971
4771.777, 4752.702
4773.706, 4755.085
4775.634, 4756.779
4777.563, 4739.042
4779.491, 4736.195
4781.419, 4742.077
4783.348, 4750.353
4785.276, 4747.198
4787.205, 4740.713
4789.133, 4746.304
4791.062, 4727.979
4792.990, 4703.706
4794.919, 4716.917
4796.847, 4715.215
4798.776, 4704.433
4800.704, 4716.603
4802.633, 4711.779
4804.561, 4693.606
4806.490, 4685.570
4808.418, 4681.702
4810.347, 4680.552
4812.275, 4679.797
4814.204, 4687.292
4816.132, 4697.146
4818.061, 4676.964
4819.989, 4665.496
4821.917, 4671.496
4823.846, 4685.771
4825.774, 4694.540
4827.703, 4692.833
4829.631, 4669.732
4831.560, 4650.388
4833.488, 4643.245
4835.417, 4635.368
4837.345, 4637.720
4839.273, 4651.205
4841.202, 4648.687
4843.130, 4641.898
4845.059, 4635.847
4846.987, 4632.753
4848.916, 4627.803
4850.844, 4626.685
4852.773, 4622.966
4854.701, 4623.104
4856.630, 4625.483
4858.558, 4621.443
4860.487, 4618.784
4862.415, 4620.433
4864.344, 4616.556
4866.272, 4605.866
4868.201, 4604.928
4870.129, 4590.246
4872.058, 4592.832
4873.986, 4581.909
4875.915, 4570.556
4877.843, 4562.213
4879.771, 4558.294
4881.700, 4558.936
4883.628, 4555.599
4885.557, 4545.027
4887.485, 4562.151
4889.414, 4573.400
4891.342, 4559.079
4893.271, 4554.146
4895.199, 4551.621
4897.127, 4547.295
4899.056, 4548.446
4900.984, 4541.699
4902.913, 4521.813
4904.841, 4533.465
4906.770, 4537.936
4908.698, 4516.379
4910.627, 4517.251
4912.555, 4524.692
4914.484, 4529.718
4916.412, 4513.957
4918.341, 4500.777
4920.269, 4500.678
4922.198, 4510.729
4924.126, 4514.241
4926.055, 4506.148
4927.983, 4491.429
4929.912, 4480.565
4931.840, 4476.976
4933.769, 4483.508
4935.697, 4484.337
4937.625, 4477.590
4939.554, 4474.047
4941.482, 4468.029
4943.411, 4459.825
4945.339, 4457.412
4947.268, 4462.582
4949.196, 4469.362
4951.125, 4455.402
4953.053, 4445.729
4954.981, 4443.856
4956.910, 4448.452
4958.838, 4447.429
4960.767, 4443.855
4962.695, 4451.356
4964.624, 4436.972
4966.552, 4414.409
4968.481, 4414.843
4970.409, 4415.262
4972.338, 4414.315
4974.266, 4414.238
4976.195, 4407.554
4978.123, 4399.633
4980.052, 4397.375
4981.980, 4391.349
4983.909, 4395.508
4985.837, 4385.104
4987.766, 4379.956
4989.694, 4380.939
4991.623, 4387.829
4993.551, 4384.107
4995.479, 4375.730
4997.408, 4366.229
4999.336, 4352.908
5001.265, 4350.527
5003.193, 4343.981
5005.122, 4346.141
5007.050, 4341.777
5008.979, 4352.733
5010.907, 4360.556
5012.835, 4358.659
5014.764, 4347.699
5016.692, 4328.966
5018.621, 4321.772
5020.549, 4323.532
5022.478, 4325.905
5024.406, 4315.887
5026.335, 4307.080
5028.263, 4321.728
5030.192, 4320.903
5032.120, 4313.901
5034.049, 4314.323
5035.977, 4307.996
5037.906, 4300.481
5039.834, 4295.391
5041.763, 4296.247
5043.691, 4301.161
5045.620, 4306.696
5047.548, 4308.964
5049.477, 4306.668
5051.405, 4307.994
5053.333, 4294.739
5055.262, 4275.694
5057.190, 4261.302
5059.119, 4258.328
5061.047, 4245.891
5062.976, 4272.138
5064.904, 4239.886
5066.833, 4244.939
5068.761, 4257.510
5070.689, 4242.313
5072.618, 4246.513
5074.546, 4246.832
5076.475, 4226.049
5078.403, 4242.600
5080.332, 4251.579
5082.260, 4236.408
5084.189, 4222.041
5086.117, 4223.510
5088.046, 4215.074
5089.974, 4223.849
5091.903, 4214.146
5093.831, 4209.802
5095.760, 4213.781
5097.688, 4209.915
5099.617, 4205.443
5101.545, 4209.856
5103.474, 4204.095
5105.402, 4202.279
5107.331, 4198.532
5109.259, 4197.978
5111.188, 4195.624
5113.116, 4198.931
5115.044, 4194.167
5116.973, 4197.267
5118.901, 4205.404
5120.830, 4207.294
5122.758, 4189.292
5124.687, 4169.701
5126.615, 4174.055
5128.543, 4185.427
5130.472, 4188.255
5132.400, 4173.710
5134.329, 4162.672
5136.257, 4165.690
5138.186, 4182.511
5140.114, 4186.843
5142.043, 4177.272
5143.971, 4163.103
5145.900, 4170.872
5147.828, 4157.508
5149.757, 4141.043
5151.685, 4154.190
5153.614, 4153.156
5155.542, 4152.589
5157.471, 4161.272
5159.399, 4152.743
5161.328, 4149.173
5163.256, 4152.102
5165.185, 4129.767
5167.113, 4127.115
5169.042, 4138.696
5170.970, 4140.862
5172.898, 4127.977
5174.827, 4117.289
5176.755, 4123.480
5178.684, 4125.913
5180.612, 4126.966
5182.541, 4128.097
5184.469, 4122.477
5186.397, 4124.651
5188.326, 4121.239
5190.254, 4124.534
5192.183, 4117.801
5194.111, 4113.634
5196.040, 4115.103
5197.968, 4110.504
5199.897, 4107.441
5201.825, 4105.509
5203.754, 4100.074
5205.682, 4093.901
5207.611, 4091.391
5209.539, 4083.552
5211.468, 4091.950
5213.396, 4099.405
5215.325, 4081.407
5217.253, 4068.214
5219.182, 4066.706
5221.110, 4078.047
5223.039, 4091.272
5224.967, 4086.984
5226.896, 4070.684
5228.824, 4061.115
5230.752, 4055.416
5232.681, 4051.529
5234.609, 4047.415
5236.538, 4046.392
5238.466, 4059.638
5240.395, 4042.619
5242.323, 4047.322
5244.251, 4038.351
5246.180, 4026.937
5248.108, 4051.733
5250.037, 4039.974
5251.965, 4027.805
5253.894, 4039.725
5255.822, 4021.907
5257.751, 4017.828
5259.679, 4029.196
5261.608, 4022.191
5263.536, 4016.126
5265.465, 4010.863
5267.393, 4002.686
5269.322, 4003.387
5271.250, 4002.335
5273.179, 3995.253
5275.107, 3987.186
5277.036, 3971.569
5278.964, 3959.146
5280.893, 3972.736
5282.821, 3977.266
5284.750, 3979.515
5286.678, 3984.127
5288.606, 3983.527
5290.535, 3990.035
5292.463, 3996.236
5294.392, 3978.308
5296.320, 3961.258
5298.249, 3953.283
5300.177, 3943.609
5302.105, 3942.921
5304.034, 3934.898
5305.962, 3942.286
5307.891, 3942.120
5309.819, 3956.072
5311.748, 3956.931
5313.676, 3954.425
5315.605, 3952.978
5317.533, 3938.192
5319.462, 3942.286
5321.390, 3920.391
5323.319, 3922.387
5325.247, 3932.063
5327.176, 3924.966
5329.104, 3907.094
5331.033, 3892.318
5332.961, 3887.706
5334.890, 3882.003
5336.818, 3880.680
5338.747, 3886.740
5340.675, 3884.087
5342.604, 3895.329
5344.532, 3896.199
5346.460, 3885.285
5348.389, 3894.423
5350.317, 3900.543
5352.246, 3896.307
5354.174, 3874.347
5356.103, 3872.040
5358.031, 3872.609
5359.959, 3871.318
5361.888, 3877.396
5363.816, 3869.657
5365.745, 3852.027
5367.673, 3831.870
5369.602, 3823.766
5371.530, 3829.087
5373.459, 3840.074
5375.387, 3833.014
5377.316, 3831.370
5379.244, 3827.016
5381.173, 3813.916
5383.101, 3825.464
5385.030, 3830.759
5386.958, 3825.032
5388.887, 3812.688
5390.815, 3812.112
5392.744, 3814.007
5394.672, 3812.566
5396.601, 3811.627
5398.529, 3808.813
5400.458, 3806.021
5402.386, 3798.084
5404.314, 3790.054
5406.243, 3778.125
5408.171, 3766.325
5410.100, 3764.704
5412.028, 3773.263
5413.957, 3763.582
5415.885, 3773.581
5417.813, 3778.293
5419.742, 3774.869
5421.670, 3768.327
5423.599, 3772.157
5425.527, 3757.489
5427.456, 3743.402
5429.384, 3741.859
5431.313, 3745.083
5433.241, 3743.702
5435.170, 3738.514
5437.098, 3732.986
5439.027, 3723.514
5440.955, 3713.712
5442.884, 3706.956
5444.812, 3709.157
5446.741, 3708.048
5448.669, 3709.069
5450.598, 3714.435
5452.526, 3700.320
5454.455, 3682.473
5456.383, 3671.187
5458.312, 3676.441
5460.240, 3674.901
5462.168, 3675.182
5464.097, 3675.340
5466.025, 3659.875
5467.954, 3650.162
5469.882, 3654.234
5471.811, 3671.203
5473.739, 3674.417
5475.667, 3659.042
5477.596, 3637.269
5479.524, 3622.491
5481.453, 3629.616
5483.381, 3637.115
5485.310, 3637.332
5487.238, 3629.600
5489.167, 3618.132
5491.095, 3616.964
5493.024, 3611.347
5494.952, 3615.331
5496.881, 3606.252
5498.809, 3600.657
5500.738, 3596.811
5502.666, 3603.979
5504.595, 3592.382
5506.523, 3575.029
5508.452, 3580.336
5510.380, 3584.490
5512.309, 3587.048
5514.237, 3588.107
5516.166, 3588.941
5518.094, 3565.886
5520.022, 3551.044
5521.951, 3557.322
5523.879, 3548.647
5525.808, 3540.273
5527.736, 3541.165
5529.665, 3536.301
5531.593, 3545.438
5533.521, 3535.757
5535.450, 3531.547
5537.378, 3533.639
5539.307, 3524.948
5541.235, 3525.302
5543.164, 3516.925
5545.092, 3517.517
5547.021, 3518.646
5548.949, 3505.833
5550.878, 3484.727
5552.806, 3493.157
5554.735, 3482.745
5556.663, 3472.724
5558.592, 3475.219
5560.520, 3485.032
5562.449, 3480.608
5564.377, 3472.564
5566.306, 3469.840
5568.234, 3463.353
5570.163, 3465.012
5572.091, 3465.670
5574.020, 3454.686
5575.948, 3455.123
5577.876, 3444.258
5579.805, 3435.917
5581.733, 3428.488
5583.662, 3428.830
5585.590, 3413.133
5587.519, 3411.945
5589.447, 3414.200
5591.375, 3405.907
5593.304, 3409.492
5595.232, 3405.278
5597.161, 3401.211
5599.089, 3399.268
5601.018, 3400.118
5602.946, 3396.614
5604.875, 3386.588
5606.803, 3385.183
5608.732, 3370.212
5610.660, 3373.492
5612.589, 3365.621
5614.517, 3355.921
5616.446, 3352.309
5618.374, 3353.475
5620.303, 3340.986
5622.231, 3341.284
5624.160, 3339.846
5626.088, 3330.210
5628.017, 3327.243
5629.945, 3331.891
5631.874, 3325.864
5633.802, 3326.052
5635.730, 3310.407
5637.659, 3317.655
5639.587, 3314.135
5641.516, 3299.461
5643.444, 3306.636
5645.373, 3290.972
5647.301, 3279.236
5649.229, 3288.818
5651.158, 3300.670
5653.086, 3301.591
5655.015, 3285.008
5656.943, 3254.478
5658.872, 3247.639
5660.800, 3260.740
5662.729, 3269.500
5664.657, 3261.657
5666.586, 3250.555
5668.514, 3237.531
5670.443, 3234.016
5672.371, 3228.396
5674.300, 3229.286
5676.228, 3227.247
5678.157, 3232.792
5680.085, 3226.907
5682.014, 3221.610
5683.942, 3216.150
5685.871, 3210.391
5687.799, 3201.318
5689.728, 3198.611
5691.656, 3197.496
5693.584, 3189.833
5695.513, 3194.016
5697.441, 3187.100
5699.370, 3183.426
5701.298, 3179.881
5703.227, 3175.159
5705.155, 3170.827
5707.083, 3173.090
5709.012, 3160.999
5710.940, 3164.305
5712.869, 3155.085
5714.797, 3161.168
5716.726, 3154.751
5718.654, 3144.498
5720.583, 3147.485
5722.511, 3131.512
5724.440, 3134.271
5726.368, 3144.222
5728.297, 3137.205
5730.225, 3127.871
5732.154, 3114.762
5734.082, 3104.290
5736.011, 3101.431
5737.939, 3099.976
5739.868, 3097.933
5741.796, 3097.455
5743.725, 3097.725
5745.653, 3085.954
5747.582, 3098.231
5749.510, 3099.955
5751.438, 3080.558
5753.367, 3064.309
5755.295, 3067.081
5757.224, 3063.220
5759.152, 3052.533
5761.081, 3054.756
5763.009, 3062.911
5764.938, 3050.880
5766.866, 3054.486
5768.794, 3039.695
5770.723, 3046.281
5772.651, 3037.044
5774.580, 3025.334
5776.508, 3024.137
5778.437, 3030.829
5780.365, 3023.544
5782.294, 3009.059
5784.222, 2997.935
5786.151, 3004.387
5788.079, 3005.955
5790.008, 3010.292
5791.936, 3008.811
5793.865, 3001.757
5795.793, 2978.136
5797.722, 2981.151
5799.650, 2975.595
5801.579, 2963.168
5803.507, 2976.444
5805.436, 2971.346
5807.364, 2955.017
5809.292, 2944.553
5811.221, 2966.991
5813.149, 2955.427
5815.078, 2950.314
5817.006, 2957.795
5818.935, 2951.507
5820.863, 2929.967
5822.792, 2928.432
5824.720, 2933.636
5826.648, 2925.869
5828.577, 2935.022
5830.505, 2928.328
5832.434, 2917.182
5834.362, 2911.127
5836.291, 2908.383
5838.219, 2889.083
5840.148, 2879.949
5842.076, 2884.801
5844.005, 2871.308
5845.933, 2880.472
5847.862, 2865.690
5849.790, 2862.589
5851.719, 2871.414
5853.647, 2867.343
5855.576, 2861.496
5857.504, 2851.664
5859.433, 2848.045
5861.361, 2840.744
5863.290, 2860.974
5865.218, 2836.099
5867.146, 2825.375
5869.075, 2838.446
5871.003, 2817.118
5872.932, 2805.506
5874.860, 2799.373
5876.789, 2794.560
5878.717, 2793.507
5880.646, 2807.699
5882.574, 2809.607
5884.502, 2808.111
5886.431, 2815.496
5888.359, 2799.729
5890.288, 2793.774
5892.216, 2782.483
5894.145, 2775.856
5896.073, 2764.767
5898.002, 2765.051
5899.930, 2763.357
5901.859, 2758.324
5903.787, 2751.574
5905.716, 2762.359
5907.644, 2759.992
5909.573, 2750.974
5911.501, 2741.740
5913.430, 2734.925
5915.358, 2740.239
5917.287, 2737.973
5919.215, 2730.593
5921.144, 2722.080
5923.072, 2718.852
5925.000, 2710.197
5926.929, 2710.528
5928.857, 2705.623
5930.786, 2704.295
5932.714, 2696.119
5934.643, 2693.902
5936.571, 2695.798
5938.500, 2695.653
5940.428, 2686.310
5942.356, 2686.753
5944.285, 2677.893
5946.213, 2668.736
5948.142, 2667.905
5950.070, 2661.379
5951.999, 2661.800
5953.927, 2655.469
5955.856, 2641.010
5957.784, 2626.077
5959.713, 2644.874
5961.641, 2630.136
5963.570, 2626.010
5965.498, 2639.611
5967.427, 2624.363
5969.355, 2621.839
5971.284, 2602.824
5973.212, 2596.581
5975.141, 2614.188
5977.069, 2607.865
5978.998, 2592.354
5980.926, 2582.196
5982.854, 2585.877
5984.783, 2578.252
5986.711, 2576.964
5988.640, 2578.723
5990.568, 2573.938
5992.497, 2576.515
5994.425, 2575.238
5996.354, 2560.513
5998.282, 2560.439
6000.210, 2559.654
6002.139, 2545.499
6004.067, 2544.260
6005.996, 2538.909
6007.924, 2531.077
6009.853, 2533.166
6011.781, 2526.821
6013.710, 2528.197
6015.638, 2514.598
6017.567, 2505.080
6019.495, 2507.035
6021.424, 2499.123
6023.352, 2497.885
6025.281, 2496.087
6027.209, 2493.060
6029.138, 2493.961
6031.066, 2487.703
6032.995, 2474.653
6034.923, 2465.564
6036.852, 2471.071
6038.780, 2466.976
6040.708, 2449.369
6042.637, 2471.244
6044.565, 2452.684
6046.494, 2434.765
6048.422, 2428.120
6050.351, 2427.711
6052.279, 2426.973
6054.208, 2417.975
6056.136, 2426.929
6058.064, 2431.110
6059.993, 2415.496
6061.921, 2413.770
6063.850, 2408.763
6065.778, 2402.302
6067.707, 2392.427
6069.635, 2380.759
6071.564, 2379.301
6073.492, 2387.997
6075.421, 2375.771
6077.349, 2368.637
6079.278, 2378.944
6081.206, 2365.530
6083.135, 2359.709
6085.063, 2349.732
6086.992, 2343.529
6088.920, 2345.766
6090.849, 2348.434
6092.777, 2333.590
6094.706, 2339.014
6096.634, 2339.344
6098.563, 2324.942
6100.491, 2319.202
6102.419, 2307.993
6104.348, 2308.989
6106.276, 2305.375
6108.205, 2296.459
6110.133, 2297.004
6112.062, 2279.245
6113.990, 2284.828
6115.918, 2289.501
6117.847, 2280.673
6119.775, 2263.562
6121.704, 2257.787
6123.632, 2254.353
6125.561, 2255.933
6127.489, 2254.463
6129.418, 2245.915
6131.346, 2253.111
6133.275, 2244.740
6135.203, 2234.673
6137.132, 2232.221
6139.060, 2233.779
6140.989, 2222.255
6142.917, 2216.842
6144.846, 2198.210
6146.774, 2198.522
6148.703, 2192.873
6150.631, 2186.797
6152.560, 2182.086
6154.488, 2175.854
6156.417, 2169.299
6158.345, 2162.390
6160.273, 2157.122
6162.202, 2153.540
6164.130, 2144.307
6166.059, 2143.693
6167.987, 2142.432
6169.916, 2127.983
6171.844, 2146.464
6173.772, 2132.956
6175.701, 2141.355
6177.629, 2136.337
6179.558, 2122.545
6181.486, 2127.837
6183.415, 2105.751
6185.343, 2101.573
6187.272, 2098.472
6189.200, 2093.792
6191.129, 2091.104
6193.057, 2089.800
6194.986, 2073.501
6196.914, 2064.533
6198.843, 2075.270
6200.771, 2079.933
6202.700, 2053.623
6204.628, 2070.054
6206.557, 2053.506
6208.485, 2035.878
6210.414, 2031.167
6212.342, 2034.177
6214.271, 2031.386
6216.199, 2023.088
6218.127, 2019.544
6220.056, 2013.596
6221.984, 2007.115
6223.913, 2006.534
6225.841, 2000.561
6227.770, 2002.877
6229.698, 1992.941
6231.626, 1991.552
6233.555, 1988.348
6235.483, 1981.831
6237.412, 1978.236
6239.340, 1971.083
6241.269, 1967.260
6243.197, 1960.331
6245.126, 1954.659
6247.054, 1947.320
6248.983, 1937.606
6250.911, 1931.809
6252.840, 1923.757
6254.768, 1920.476
6256.697, 1927.763
6258.625, 1924.593
6260.554, 1914.638
6262.482, 1907.288
6264.411, 1893.326
6266.339, 1885.495
6268.268, 1901.387
6270.196, 1884.420
6272.125, 1890.762
6274.053, 1888.551
6275.981, 1877.221
6277.910, 1867.352
6279.838, 1865.664
6281.767, 1867.850
6283.695, 1862.229
6285.624, 1853.806
6287.552, 1848.981
6289.480, 1849.027
6291.409, 1849.920
6293.337, 1841.785
6295.266, 1839.708
6297.194, 1834.144
6299.123, 1829.070
6301.051, 1821.972
6302.980, 1817.339
6304.908, 1811.025
6306.837, 1807.073
6308.765, 1805.393
6310.694, 1802.254
6312.622, 1800.227
6314.551, 1803.333
6316.479, 1792.197
6318.408, 1785.161
6320.336, 1785.567
6322.265, 1783.084
6324.193, 1776.779
6326.122, 1775.382
6328.050, 1763.821
6329.979, 1762.229
6331.907, 1761.774
6333.835, 1751.800
6335.764, 1741.933
6337.692, 1749.201
6339.621, 1747.675
6341.549, 1733.219
6343.478, 1726.701
6345.406, 1715.817
6347.334, 1714.274
6349.263, 1708.914
6351.191, 1706.224
6353.120, 1704.989
6355.048, 1702.378
6356.977, 1703.401
6358.905, 1698.274
6360.834, 1687.774
6362.762, 1688.489
6364.691, 1678.372
6366.619, 1677.606
6368.548, 1674.052
6370.476, 1675.672
6372.405, 1681.970
6374.333, 1675.218
6376.262, 1660.904
6378.190, 1647.489
6380.119, 1654.148
6382.047, 1654.643
6383.976, 1645.945
6385.904, 1641.870
6387.833, 1638.352
6389.761, 1642.745
6391.689, 1631.727
6393.618, 1628.265
6395.546, 1628.880
6397.475, 1621.078
6399.403, 1618.961
6401.332, 1611.702
6403.260, 1610.041
6405.188, 1598.147
6407.117, 1603.129
6409.045, 1597.787
6410.974, 1586.116
6412.902, 1584.392
6414.831, 1576.081
6416.759, 1572.410
6418.688, 1581.271
6420.616, 1586.817
6422.545, 1578.422
6424.473, 1563.556
6426.402, 1556.871
6428.330, 1558.474
6430.259, 1556.715
6432.187, 1551.023
6434.116, 1546.075
6436.044, 1541.536
6437.973, 1539.838
6439.901, 1536.440
6441.830, 1539.385
6443.758, 1532.229
6445.687, 1534.301
6447.615, 1533.514
6449.543, 1528.872
6451.472, 1524.259
6453.400, 1520.612
6455.329, 1513.621
6457.257, 1506.382
6459.186, 1510.323
6461.114, 1508.702
6463.042, 1493.943
6464.971, 1506.764
6466.899, 1489.464
6468.828, 1479.193
6470.756, 1479.241
6472.685, 1484.508
6474.613, 1485.203
6476.542, 1475.864
6478.470, 1468.876
6480.399, 1475.557
6482.327, 1464.691
6484.256, 1467.790
6486.184, 1467.137
6488.113, 1459.853
6490.041, 1460.228
6491.970, 1457.146
6493.898, 1448.584
6495.827, 1445.570
6497.755, 1444.534
6499.684, 1436.649
6501.612, 1430.042
6503.541, 1433.127
6505.469, 1433.363
6507.397, 1420.633
6509.326, 1419.141
6511.254, 1417.460
6513.183, 1414.137
6515.111, 1406.818
6517.040, 1402.808
6518.968, 1414.826
6520.896, 1400.326
6522.825, 1404.130
6524.753, 1403.191
6526.682, 1390.411
6528.610, 1382.031
6530.539, 1381.299
6532.467, 1377.229
6534.396, 1375.138
6536.324, 1373.522
6538.253, 1371.149
6540.181, 1370.262
6542.110, 1370.603
6544.038, 1365.378
6545.967, 1358.892
6547.895, 1358.138
6549.824, 1355.009
6551.752, 1353.110
6553.681, 1352.325
6555.609, 1349.935
6557.538, 1347.019
6559.466, 1341.679
6561.395, 1332.375
6563.323, 1339.400
6565.251, 1336.827
6567.180, 1321.100
6569.108, 1329.280
6571.037, 1332.774
6572.965, 1326.624
6574.894, 1322.964
6576.822, 1323.490
6578.750, 1323.307
6580.679, 1326.431
6582.607, 1322.478
6584.536, 1316.099
6586.464, 1317.644
6588.393, 1306.918
6590.321, 1308.274
6592.250, 1308.988
6594.178, 1301.665
6596.107, 1294.411
6598.035, 1297.710
6599.964, 1297.397
6601.892, 1295.574
6603.821, 1284.567
6605.749, 1272.499
6607.678, 1281.650
6609.606, 1290.596
6611.535, 1283.105
6613.463, 1266.003
6615.392, 1274.692
6617.320, 1275.181
6619.249, 1269.853
6621.177, 1271.148
6623.105, 1269.483
6625.034, 1256.008
6626.962, 1259.346
6628.891, 1269.374
6630.819, 1260.607
##END=



