##NAMES=Senarmontite
##RRUFFID=R060002
##IDEAL CHEMISTRY=Sb_2_O_3_
##LOCALITY=Chenlong, Xin Yi County, Guizhou Province, China
##OWNER=RRUFF
##SOURCE=Ken Roberts
##DESCRIPTION=Glassy coating over an altered stibnite crystal, mixed with cervantite
##STATUS=The identification of this mineral has been confirmed by X-ray diffraction and chemical analysis
##URL=https://www.rruff.net/odr/rruff_sample/R060002
##MEASURED CHEMISTRY=(Sb_1.99_As_0.01_)O_3_ ; core and light rim
##DIFFRACTION SAMPLE DESCRIPTION=Powder
##CELL PARAMETERS=a: 11.1481 b: 11.1481 c: 11.1481 alpha: 90 beta: 90 gamma: 90 volume: 1385.5 crystal system: cubic
##FILETYPE=Raman RAW
##RAMAN WAVELENGTH=780

135.3465, 7552.294
137.2749, 7559.409
139.2034, 7567.065
141.1319, 7576.186
143.0603, 7583.068
144.9888, 7593.940
146.9173, 7616.684
148.8457, 7650.951
150.7742, 7685.829
152.7027, 7718.669
154.6311, 7753.329
156.5596, 7788.701
158.4881, 7827.349
160.4165, 7871.017
162.3450, 7919.397
164.2735, 7971.458
166.2019, 8036.528
168.1304, 8092.388
170.0589, 8130.020
171.9873, 8164.401
173.9158, 8203.336
175.8443, 8247.726
177.7727, 8301.405
179.7012, 8371.244
181.6297, 8440.248
183.5581, 8506.298
185.4866, 8573.998
187.4151, 8651.778
189.3435, 8730.044
191.2720, 8792.053
193.2005, 8839.332
195.1289, 8859.361
197.0574, 8852.593
198.9859, 8819.267
200.9143, 8752.864
202.8428, 8663.204
204.7713, 8553.121
206.6997, 8421.720
208.6282, 8291.958
210.5567, 8162.010
212.4851, 8038.302
214.4136, 7921.009
216.3421, 7813.252
218.2705, 7716.974
220.1990, 7631.609
222.1275, 7555.078
224.0559, 7486.701
225.9844, 7427.980
227.9129, 7381.206
229.8413, 7341.357
231.7698, 7309.288
233.6983, 7279.797
235.6267, 7244.832
237.5552, 7205.320
239.4837, 7173.763
241.4121, 7152.001
243.3406, 7133.745
245.2691, 7117.357
247.1975, 7103.399
249.1260, 7094.543
251.0545, 7088.417
252.9829, 7077.656
254.9114, 7062.087
256.8399, 7044.973
258.7683, 7023.976
260.6968, 7006.324
262.6253, 6997.507
264.5537, 6990.450
266.4822, 6978.199
268.4107, 6961.579
270.3391, 6943.384
272.2676, 6923.569
274.1961, 6904.070
276.1245, 6886.718
278.0530, 6867.849
279.9815, 6841.823
281.9099, 6815.980
283.8384, 6802.777
285.7669, 6799.530
287.6953, 6788.773
289.6238, 6763.828
291.5523, 6741.285
293.4807, 6725.143
295.4092, 6710.590
297.3377, 6695.216
299.2661, 6679.959
301.1946, 6665.978
303.1231, 6653.379
305.0515, 6641.669
306.9800, 6629.542
308.9085, 6619.724
310.8369, 6612.906
312.7654, 6607.333
314.6939, 6602.920
316.6223, 6598.052
318.5508, 6589.607
320.4793, 6576.442
322.4077, 6565.263
324.3362, 6558.784
326.2647, 6550.270
328.1931, 6537.700
330.1216, 6525.315
332.0501, 6514.993
333.9785, 6506.764
335.9070, 6500.993
337.8355, 6498.242
339.7639, 6493.833
341.6924, 6485.870
343.6209, 6480.657
345.5493, 6480.502
347.4778, 6482.117
349.4063, 6484.530
351.3347, 6486.649
353.2632, 6485.802
355.1917, 6481.473
357.1201, 6480.024
359.0486, 6481.595
360.9771, 6485.021
362.9055, 6490.508
364.8340, 6497.866
366.7625, 6510.128
368.6909, 6521.789
370.6194, 6522.777
372.5479, 6514.727
374.4763, 6519.125
376.4048, 6538.819
378.3333, 6552.157
380.2617, 6547.196
382.1902, 6547.305
384.1187, 6565.577
386.0471, 6589.390
387.9756, 6606.521
389.9041, 6617.968
391.8326, 6628.876
393.7610, 6639.168
395.6895, 6645.307
397.6180, 6648.720
399.5464, 6643.752
401.4749, 6624.005
403.4034, 6601.184
405.3318, 6584.569
407.2603, 6570.299
409.1888, 6550.951
411.1172, 6527.021
413.0457, 6498.504
414.9742, 6462.713
416.9026, 6432.022
418.8311, 6410.381
420.7596, 6392.572
422.6880, 6378.534
424.6165, 6365.427
426.5450, 6350.235
428.4734, 6333.915
430.4019, 6318.350
432.3304, 6303.696
434.2588, 6293.221
436.1873, 6292.246
438.1158, 6286.938
440.0442, 6273.642
441.9727, 6258.642
443.9012, 6244.772
445.8296, 6230.823
447.7581, 6214.248
449.6866, 6197.026
451.6150, 6186.979
453.5435, 6188.535
455.4720, 6180.498
457.4004, 6156.888
459.3289, 6132.527
461.2574, 6109.190
463.1858, 6086.447
465.1143, 6065.247
467.0428, 6043.216
468.9712, 6016.462
470.8997, 5986.187
472.8282, 5960.300
474.7566, 5939.475
476.6851, 5921.711
478.6136, 5908.343
480.5420, 5894.832
482.4705, 5881.472
484.3990, 5865.601
486.3274, 5841.704
488.2559, 5818.263
490.1844, 5804.527
492.1128, 5797.624
494.0413, 5789.224
495.9698, 5779.894
497.8982, 5765.589
499.8267, 5743.792
501.7552, 5727.057
503.6836, 5723.230
505.6121, 5716.964
507.5406, 5696.711
509.4690, 5675.755
511.3975, 5666.882
513.3260, 5652.876
515.2545, 5642.512
517.1829, 5637.606
519.1114, 5627.738
521.0399, 5625.376
522.9683, 5622.930
524.8968, 5619.564
526.8253, 5614.438
528.7537, 5607.937
530.6822, 5599.464
532.6107, 5587.196
534.5391, 5573.180
536.4676, 5560.293
538.3961, 5549.487
540.3245, 5540.670
542.2530, 5533.211
544.1815, 5524.917
546.1099, 5515.615
548.0384, 5506.900
549.9669, 5499.872
551.8953, 5492.078
553.8238, 5483.117
555.7523, 5473.565
557.6807, 5462.091
559.6092, 5451.213
561.5377, 5444.991
563.4661, 5441.228
565.3946, 5435.575
567.3231, 5428.194
569.2515, 5419.880
571.1800, 5408.883
573.1085, 5400.786
575.0369, 5399.796
576.9654, 5397.622
578.8939, 5389.614
580.8223, 5380.719
582.7508, 5374.875
584.6793, 5367.675
586.6077, 5363.747
588.5362, 5356.204
590.4647, 5350.443
592.3931, 5346.521
594.3216, 5340.484
596.2501, 5330.818
598.1785, 5323.606
600.1070, 5322.304
602.0355, 5316.703
603.9639, 5302.256
605.8924, 5288.258
607.8209, 5278.504
609.7493, 5271.803
611.6778, 5267.733
613.6063, 5264.700
615.5347, 5261.526
617.4632, 5257.292
619.3917, 5248.504
621.3201, 5234.622
623.2486, 5222.855
625.1771, 5213.104
627.1055, 5205.480
629.0340, 5201.611
630.9625, 5196.017
632.8909, 5185.572
634.8194, 5175.028
636.7479, 5167.892
638.6763, 5161.635
640.6048, 5155.007
642.5333, 5146.589
644.4617, 5133.119
646.3902, 5116.687
648.3187, 5105.101
650.2471, 5098.188
652.1756, 5091.897
654.1041, 5086.326
656.0325, 5077.933
657.9610, 5065.105
659.8895, 5053.137
661.8179, 5043.612
663.7464, 5034.776
665.6749, 5025.696
667.6033, 5018.004
669.5318, 5014.650
671.4603, 5010.041
673.3887, 4997.219
675.3172, 4982.151
677.2457, 4973.240
679.1741, 4966.885
681.1026, 4958.294
683.0311, 4948.745
684.9595, 4941.705
686.8880, 4938.144
688.8165, 4929.678
690.7449, 4911.323
692.6734, 4896.880
694.6019, 4891.355
696.5303, 4886.534
698.4588, 4878.415
700.3873, 4871.474
702.3157, 4870.621
704.2442, 4870.685
706.1727, 4865.642
708.1011, 4858.026
710.0296, 4851.830
711.9581, 4847.222
713.8865, 4844.079
715.8150, 4841.622
717.7435, 4835.179
719.6719, 4823.881
721.6004, 4814.752
723.5289, 4807.298
725.4573, 4803.634
727.3858, 4808.218
729.3143, 4807.896
731.2427, 4797.568
733.1712, 4787.802
735.0997, 4784.308
737.0281, 4778.409
738.9566, 4761.049
740.8851, 4745.392
742.8135, 4742.805
744.7420, 4743.973
746.6705, 4738.900
748.5989, 4730.103
750.5274, 4723.233
752.4559, 4718.259
754.3843, 4711.593
756.3128, 4702.914
758.2413, 4694.193
760.1697, 4685.537
762.0982, 4679.118
764.0267, 4675.400
765.9551, 4669.411
767.8836, 4659.773
769.8121, 4651.253
771.7405, 4645.482
773.6690, 4639.531
775.5975, 4630.970
777.5259, 4623.408
779.4544, 4619.194
781.3829, 4615.418
783.3113, 4610.420
785.2398, 4605.369
787.1683, 4600.772
789.0967, 4596.901
791.0252, 4597.563
792.9537, 4597.894
794.8821, 4585.381
796.8106, 4565.519
798.7391, 4550.962
800.6675, 4540.586
802.5960, 4537.848
804.5245, 4543.005
806.4529, 4543.810
808.3814, 4538.122
810.3099, 4532.925
812.2383, 4530.261
814.1668, 4525.347
816.0953, 4516.210
818.0237, 4506.572
819.9522, 4495.383
821.8807, 4487.104
823.8091, 4486.573
825.7376, 4483.687
827.6661, 4468.892
829.5945, 4457.634
831.5230, 4465.783
833.4515, 4472.825
835.3799, 4459.374
837.3084, 4441.463
839.2369, 4434.456
841.1653, 4431.690
843.0938, 4427.582
845.0223, 4421.111
846.9507, 4408.558
848.8792, 4393.666
850.8077, 4385.979
852.7361, 4384.167
854.6646, 4382.289
856.5931, 4379.747
858.5215, 4373.318
860.4500, 4362.740
862.3785, 4355.506
864.3069, 4351.673
866.2354, 4348.038
868.1639, 4345.588
870.0923, 4341.517
872.0208, 4334.710
873.9493, 4329.062
875.8777, 4326.844
877.8062, 4322.816
879.7347, 4315.343
881.6631, 4305.667
883.5916, 4292.068
885.5201, 4282.533
887.4485, 4282.087
889.3770, 4281.652
891.3055, 4277.441
893.2339, 4270.486
895.1624, 4258.954
897.0909, 4249.641
899.0193, 4246.123
900.9478, 4242.878
902.8763, 4238.991
904.8047, 4234.019
906.7332, 4224.720
908.6617, 4215.884
910.5901, 4214.603
912.5186, 4214.960
914.4471, 4208.700
916.3755, 4199.196
918.3040, 4191.829
920.2325, 4186.263
922.1609, 4181.267
924.0894, 4177.339
926.0179, 4175.294
927.9464, 4173.109
929.8748, 4168.365
931.8033, 4162.521
933.7318, 4155.578
935.6602, 4147.695
937.5887, 4143.794
939.5172, 4143.499
941.4456, 4140.165
943.3741, 4133.290
945.3026, 4126.284
947.2310, 4119.785
949.1595, 4114.769
951.0880, 4110.995
953.0164, 4104.019
954.9449, 4100.747
956.8734, 4098.421
958.8018, 4093.205
960.7303, 4093.369
962.6588, 4090.841
964.5872, 4083.529
966.5157, 4067.024
968.4442, 4056.185
970.3726, 4053.229
972.3011, 4051.183
974.2296, 4051.492
976.1580, 4048.052
978.0865, 4045.318
980.0150, 4042.612
981.9434, 4036.417
983.8719, 4033.648
985.8004, 4026.144
987.7288, 4017.553
989.6573, 4006.529
991.5858, 4000.542
993.5142, 4002.018
995.4427, 4001.792
997.3712, 3999.196
999.2996, 3993.464
1001.228, 3989.320
1003.157, 3984.139
1005.085, 3975.441
1007.013, 3972.180
1008.942, 3962.708
1010.870, 3954.636
1012.799, 3950.405
1014.727, 3943.502
1016.656, 3930.311
1018.584, 3919.681
1020.513, 3915.165
1022.441, 3913.417
1024.370, 3914.831
1026.298, 3912.409
1028.227, 3903.886
1030.155, 3896.376
1032.084, 3889.353
1034.012, 3885.183
1035.941, 3888.686
1037.869, 3887.519
1039.797, 3874.877
1041.726, 3865.366
1043.654, 3864.361
1045.583, 3861.133
1047.511, 3850.731
1049.440, 3843.825
1051.368, 3846.516
1053.297, 3846.505
1055.225, 3837.637
1057.154, 3832.352
1059.082, 3836.541
1061.011, 3836.363
1062.939, 3828.298
1064.868, 3820.235
1066.796, 3812.778
1068.724, 3805.549
1070.653, 3797.370
1072.581, 3791.639
1074.510, 3790.781
1076.438, 3790.355
1078.367, 3790.526
1080.295, 3787.125
1082.224, 3777.239
1084.152, 3770.244
1086.081, 3769.089
1088.009, 3766.390
1089.938, 3760.171
1091.866, 3755.198
1093.795, 3752.734
1095.723, 3748.271
1097.651, 3740.180
1099.580, 3731.587
1101.508, 3723.397
1103.437, 3716.878
1105.365, 3711.687
1107.294, 3707.533
1109.222, 3705.250
1111.151, 3703.066
1113.079, 3701.061
1115.008, 3695.137
1116.936, 3684.799
1118.865, 3679.314
1120.793, 3678.714
1122.722, 3676.457
1124.650, 3671.510
1126.578, 3662.974
1128.507, 3653.518
1130.435, 3653.351
1132.364, 3658.883
1134.292, 3655.524
1136.221, 3645.937
1138.149, 3638.269
1140.078, 3632.770
1142.006, 3631.929
1143.935, 3632.224
1145.863, 3627.230
1147.792, 3623.910
1149.720, 3615.916
1151.649, 3612.040
1153.577, 3604.302
1155.505, 3595.677
1157.434, 3595.048
1159.362, 3597.187
1161.291, 3592.526
1163.219, 3585.680
1165.148, 3580.440
1167.076, 3576.359
1169.005, 3576.198
1170.933, 3575.587
1172.862, 3571.794
1174.790, 3566.752
1176.719, 3558.446
1178.647, 3550.557
1180.576, 3546.217
1182.504, 3542.661
1184.432, 3539.518
1186.361, 3536.561
1188.289, 3532.803
1190.218, 3528.539
1192.146, 3524.075
1194.075, 3519.848
1196.003, 3516.510
1197.932, 3512.888
1199.860, 3509.635
1201.789, 3503.806
1203.717, 3493.404
1205.646, 3485.819
1207.574, 3481.878
1209.503, 3475.875
1211.431, 3468.849
1213.359, 3468.460
1215.288, 3471.380
1217.216, 3466.005
1219.145, 3455.335
1221.073, 3444.785
1223.002, 3436.998
1224.930, 3437.666
1226.859, 3440.548
1228.787, 3437.108
1230.716, 3430.495
1232.644, 3425.212
1234.573, 3420.793
1236.501, 3414.908
1238.430, 3409.132
1240.358, 3402.831
1242.286, 3398.600
1244.215, 3393.151
1246.143, 3390.615
1248.072, 3388.353
1250.000, 3385.374
1251.929, 3381.320
1253.857, 3375.648
1255.786, 3366.708
1257.714, 3359.432
1259.643, 3356.203
1261.571, 3353.314
1263.500, 3349.213
1265.428, 3343.807
1267.357, 3337.541
1269.285, 3332.426
1271.214, 3329.323
1273.142, 3326.384
1275.070, 3323.003
1276.999, 3322.236
1278.927, 3321.992
1280.856, 3316.802
1282.784, 3311.015
1284.713, 3309.311
1286.641, 3307.566
1288.570, 3304.025
1290.498, 3300.925
1292.427, 3296.659
1294.355, 3294.248
1296.284, 3297.631
1298.212, 3297.835
1300.141, 3293.510
1302.069, 3290.931
1303.997, 3289.311
1305.926, 3281.399
1307.854, 3268.842
1309.783, 3261.875
1311.711, 3259.233
1313.640, 3257.301
1315.568, 3256.055
1317.497, 3253.901
1319.425, 3250.234
1321.354, 3245.942
1323.282, 3241.928
1325.211, 3236.687
1327.139, 3233.204
1329.068, 3228.723
1330.996, 3224.030
1332.924, 3221.422
1334.853, 3215.023
1336.781, 3213.287
1338.710, 3209.560
1340.638, 3204.394
1342.567, 3198.146
1344.495, 3192.065
1346.424, 3189.667
1348.352, 3187.235
1350.281, 3179.093
1352.209, 3171.388
1354.138, 3170.000
1356.066, 3167.181
1357.995, 3161.291
1359.923, 3156.248
1361.851, 3148.455
1363.780, 3142.384
1365.708, 3137.370
1367.637, 3138.217
1369.565, 3129.080
1371.494, 3124.068
1373.422, 3123.322
1375.351, 3116.814
1377.279, 3113.685
1379.208, 3104.526
1381.136, 3103.658
1383.065, 3096.320
1384.993, 3087.287
1386.922, 3081.497
1388.850, 3078.937
1390.778, 3078.872
1392.707, 3076.374
1394.635, 3073.656
1396.564, 3070.787
1398.492, 3065.996
1400.421, 3063.116
1402.349, 3058.365
1404.278, 3052.061
1406.206, 3048.913
1408.135, 3044.044
1410.063, 3039.096
1411.992, 3035.253
1413.920, 3032.180
1415.849, 3029.479
1417.777, 3025.523
1419.705, 3020.953
1421.634, 3016.311
1423.562, 3010.300
1425.491, 3004.362
1427.419, 2999.913
1429.348, 2994.627
1431.276, 2991.487
1433.205, 2986.164
1435.133, 2982.064
1437.062, 2979.572
1438.990, 2978.192
1440.919, 2977.207
1442.847, 2973.887
1444.776, 2964.021
1446.704, 2956.817
1448.632, 2957.614
1450.561, 2955.977
1452.489, 2952.417
1454.418, 2948.542
1456.346, 2941.728
1458.275, 2933.523
1460.203, 2926.426
1462.132, 2926.314
1464.060, 2928.140
1465.989, 2922.571
1467.917, 2913.574
1469.846, 2902.958
1471.774, 2894.951
1473.703, 2895.017
1475.631, 2894.621
1477.559, 2889.099
1479.488, 2883.659
1481.416, 2879.791
1483.345, 2874.767
1485.273, 2867.686
1487.202, 2864.244
1489.130, 2863.195
1491.059, 2857.417
1492.987, 2850.291
1494.916, 2842.394
1496.844, 2835.322
1498.773, 2835.142
1500.701, 2834.976
1502.630, 2828.711
1504.558, 2822.821
1506.486, 2820.552
1508.415, 2816.691
1510.343, 2810.851
1512.272, 2806.450
1514.200, 2802.346
1516.129, 2797.643
1518.057, 2791.837
1519.986, 2786.749
1521.914, 2781.555
1523.843, 2777.030
1525.771, 2773.358
1527.700, 2768.822
1529.628, 2766.960
1531.557, 2763.693
1533.485, 2760.782
1535.413, 2758.402
1537.342, 2754.317
1539.270, 2749.812
1541.199, 2745.441
1543.127, 2739.432
1545.056, 2734.944
1546.984, 2736.337
1548.913, 2738.688
1550.841, 2731.959
1552.770, 2721.539
1554.698, 2718.755
1556.627, 2719.569
1558.555, 2715.979
1560.484, 2709.465
1562.412, 2705.697
1564.340, 2701.681
1566.269, 2696.469
1568.197, 2691.275
1570.126, 2684.874
1572.054, 2677.985
1573.983, 2673.506
1575.911, 2674.322
1577.840, 2674.126
1579.768, 2665.696
1581.697, 2657.889
1583.625, 2658.548
1585.554, 2657.514
1587.482, 2652.369
1589.411, 2647.507
1591.339, 2643.635
1593.267, 2638.773
1595.196, 2634.349
1597.124, 2629.927
1599.053, 2625.421
1600.981, 2620.861
1602.910, 2616.671
1604.838, 2612.169
1606.767, 2607.740
1608.695, 2602.155
1610.624, 2597.706
1612.552, 2591.357
1614.481, 2583.749
1616.409, 2578.269
1618.338, 2578.597
1620.266, 2574.948
1622.194, 2566.088
1624.123, 2559.996
1626.051, 2553.897
1627.980, 2547.494
1629.908, 2543.359
1631.837, 2540.491
1633.765, 2535.993
1635.694, 2526.767
1637.622, 2520.637
1639.551, 2519.832
1641.479, 2518.622
1643.408, 2517.694
1645.336, 2518.337
1647.265, 2517.297
1649.193, 2509.070
1651.121, 2499.445
1653.050, 2494.314
1654.978, 2491.130
1656.907, 2486.636
1658.835, 2479.973
1660.764, 2474.999
1662.692, 2474.065
1664.621, 2472.158
1666.549, 2465.620
1668.478, 2458.428
1670.406, 2454.117
1672.335, 2448.898
1674.263, 2443.482
1676.192, 2441.256
1678.120, 2437.510
1680.048, 2433.165
1681.977, 2431.521
1683.905, 2428.651
1685.834, 2424.151
1687.762, 2422.012
1689.691, 2418.920
1691.619, 2415.835
1693.548, 2414.151
1695.476, 2411.049
1697.405, 2409.461
1699.333, 2405.782
1701.262, 2395.757
1703.190, 2387.913
1705.119, 2388.252
1707.047, 2385.021
1708.975, 2375.106
1710.904, 2369.658
1712.832, 2368.666
1714.761, 2363.694
1716.689, 2358.229
1718.618, 2355.035
1720.546, 2351.197
1722.475, 2346.322
1724.403, 2342.279
1726.332, 2337.508
1728.260, 2330.892
1730.189, 2326.399
1732.117, 2325.417
1734.046, 2323.149
1735.974, 2317.714
1737.902, 2309.290
1739.831, 2300.511
1741.759, 2296.084
1743.688, 2293.570
1745.616, 2293.443
1747.545, 2288.484
1749.473, 2285.093
1751.402, 2274.468
1753.330, 2274.624
1755.259, 2267.812
1757.187, 2260.530
1759.116, 2259.061
1761.044, 2255.385
1762.973, 2248.227
1764.901, 2243.054
1766.829, 2240.448
1768.758, 2239.901
1770.686, 2235.992
1772.615, 2231.813
1774.543, 2227.648
1776.472, 2220.442
1778.400, 2217.313
1780.329, 2209.698
1782.257, 2205.413
1784.186, 2201.482
1786.114, 2196.476
1788.043, 2194.820
1789.971, 2190.462
1791.900, 2188.851
1793.828, 2183.675
1795.756, 2180.661
1797.685, 2177.302
1799.613, 2170.331
1801.542, 2163.827
1803.470, 2158.047
1805.399, 2153.189
1807.327, 2149.769
1809.256, 2146.244
1811.184, 2140.849
1813.113, 2135.216
1815.041, 2131.814
1816.970, 2129.290
1818.898, 2126.475
1820.827, 2123.955
1822.755, 2118.564
1824.683, 2109.873
1826.612, 2102.152
1828.540, 2099.664
1830.469, 2100.530
1832.397, 2096.269
1834.326, 2089.198
1836.254, 2084.025
1838.183, 2079.772
1840.111, 2074.831
1842.040, 2067.456
1843.968, 2060.462
1845.897, 2052.412
1847.825, 2043.653
1849.754, 2043.132
1851.682, 2041.917
1853.610, 2034.861
1855.539, 2029.733
1857.467, 2026.200
1859.396, 2018.775
1861.324, 2010.594
1863.253, 2006.981
1865.181, 2003.979
1867.110, 2000.519
1869.038, 1993.267
1870.967, 1983.903
1872.895, 1980.737
1874.824, 1977.693
1876.752, 1970.548
1878.681, 1966.967
1880.609, 1961.120
1882.537, 1959.220
1884.466, 1950.501
1886.394, 1946.728
1888.323, 1943.384
1890.251, 1936.645
1892.180, 1930.644
1894.108, 1929.036
1896.037, 1924.588
1897.965, 1916.873
1899.894, 1912.905
1901.822, 1911.474
1903.751, 1907.579
1905.679, 1902.649
1907.608, 1898.035
1909.536, 1890.943
1911.464, 1884.209
1913.393, 1878.920
1915.321, 1872.250
1917.250, 1866.148
1919.178, 1862.595
1921.107, 1858.895
1923.035, 1851.643
1924.964, 1845.620
1926.892, 1842.227
1928.821, 1839.319
1930.749, 1835.840
1932.678, 1829.893
1934.606, 1824.266
1936.535, 1819.766
1938.463, 1814.154
1940.391, 1807.575
1942.320, 1801.548
1944.248, 1796.771
1946.177, 1795.208
1948.105, 1793.088
1950.034, 1788.243
1951.962, 1784.768
1953.891, 1778.891
1955.819, 1772.876
1957.748, 1766.783
1959.676, 1755.995
1961.605, 1751.089
1963.533, 1745.561
1965.462, 1740.252
1967.390, 1736.128
1969.318, 1731.056
1971.247, 1726.288
1973.175, 1720.817
1975.104, 1710.610
1977.032, 1700.992
1978.961, 1698.639
1980.889, 1698.435
1982.818, 1695.862
1984.746, 1687.204
1986.675, 1678.360
1988.603, 1674.258
1990.532, 1670.588
1992.460, 1666.599
1994.389, 1658.614
1996.317, 1650.371
1998.245, 1645.740
2000.174, 1640.690
2002.102, 1636.398
2004.031, 1630.827
2005.959, 1624.331
2007.888, 1616.816
2009.816, 1610.667
2011.745, 1605.656
2013.673, 1599.935
2015.602, 1594.796
2017.530, 1590.213
2019.459, 1584.844
2021.387, 1579.631
2023.316, 1574.906
2025.244, 1568.548
2027.172, 1561.249
2029.101, 1556.927
2031.029, 1554.468
2032.958, 1550.761
2034.886, 1548.099
2036.815, 1542.580
2038.743, 1535.591
2040.672, 1530.512
2042.600, 1528.934
2044.529, 1526.665
2046.457, 1519.862
2048.386, 1512.990
2050.314, 1504.309
2052.243, 1498.630
2054.171, 1495.814
2056.100, 1494.191
2058.028, 1490.108
2059.957, 1479.220
2061.885, 1470.255
2063.813, 1463.647
2065.742, 1460.802
2067.670, 1458.100
2069.599, 1452.260
2071.527, 1447.275
2073.456, 1442.549
2075.384, 1435.371
2077.313, 1429.770
2079.241, 1426.679
2081.170, 1422.892
2083.098, 1419.270
2085.027, 1411.157
2086.955, 1403.186
2088.884, 1398.679
2090.812, 1394.395
2092.740, 1389.316
2094.669, 1384.002
2096.597, 1379.717
2098.526, 1375.446
2100.454, 1371.120
2102.383, 1365.447
2104.311, 1360.208
2106.240, 1353.332
2108.168, 1347.045
2110.097, 1340.129
2112.025, 1334.670
2113.954, 1330.346
2115.882, 1330.417
2117.811, 1322.615
2119.739, 1318.212
2121.667, 1313.433
2123.596, 1306.842
2125.524, 1301.566
2127.453, 1296.998
2129.381, 1289.737
2131.310, 1283.719
2133.238, 1279.256
2135.167, 1274.019
2137.095, 1270.106
2139.024, 1264.885
2140.952, 1260.128
2142.881, 1253.714
2144.809, 1249.337
2146.738, 1243.812
2148.666, 1240.326
2150.594, 1233.590
2152.523, 1229.355
2154.451, 1224.754
2156.380, 1219.872
2158.308, 1215.556
2160.237, 1210.961
2162.165, 1206.856
2164.094, 1201.277
2166.022, 1198.815
2167.951, 1195.680
2169.879, 1191.612
2171.808, 1186.844
2173.736, 1179.182
2175.665, 1173.802
2177.593, 1167.506
2179.521, 1162.014
2181.450, 1156.196
2183.378, 1152.404
2185.307, 1149.471
2187.235, 1146.039
2189.164, 1141.735
2191.092, 1136.837
2193.021, 1132.089
2194.949, 1126.369
2196.878, 1119.501
2198.806, 1115.293
2200.735, 1110.721
2202.663, 1101.905
2204.592, 1098.884
2206.520, 1098.287
2208.448, 1089.656
2210.377, 1083.839
2212.305, 1083.895
2214.234, 1079.710
2216.162, 1073.267
2218.091, 1067.600
2220.019, 1063.760
2221.948, 1060.283
2223.876, 1054.736
2225.805, 1050.208
2227.733, 1047.995
2229.662, 1043.573
2231.590, 1038.013
2233.519, 1037.216
2235.447, 1035.255
2237.375, 1027.261
2239.304, 1021.078
2241.232, 1017.534
2243.161, 1013.320
2245.089, 1008.311
2247.018, 1004.498
2248.946, 999.9596
2250.875, 996.0797
2252.803, 992.2904
2254.732, 990.1084
2256.660, 984.3536
2258.589, 979.3384
2260.517, 974.0755
2262.446, 967.6650
2264.374, 964.1935
2266.302, 961.2427
2268.231, 955.9665
2270.159, 951.5773
2272.088, 947.4220
2274.016, 942.8923
2275.945, 941.5895
2277.873, 935.1293
2279.802, 933.8470
2281.730, 931.4227
2283.659, 924.7515
2285.587, 919.6880
2287.516, 915.9168
2289.444, 911.5306
2291.373, 909.9928
2293.301, 905.2007
2295.229, 903.3434
2297.158, 896.5985
2299.086, 892.4914
2301.015, 886.8657
2302.943, 882.1221
2304.872, 880.3281
2306.800, 877.3154
2308.729, 872.9277
2310.657, 867.3039
2312.586, 862.6219
2314.514, 860.7936
2316.443, 857.4501
2318.371, 852.5426
2320.300, 848.9584
2322.228, 847.2211
2324.156, 844.8129
2326.085, 841.1028
2328.013, 833.1157
2329.942, 833.3306
2331.870, 827.9318
2333.799, 822.6353
2335.727, 821.3060
2337.656, 816.9285
2339.584, 812.2433
2341.513, 807.6425
2343.441, 802.6526
2345.370, 799.4977
2347.298, 795.4746
2349.227, 791.8199
2351.155, 789.2822
2353.083, 786.1040
2355.012, 783.0446
2356.940, 780.0203
2358.869, 777.3165
2360.797, 774.0591
2362.726, 771.3923
2364.654, 767.5869
2366.583, 765.3365
2368.511, 761.8347
2370.440, 757.5970
2372.368, 752.0306
2374.297, 749.5406
2376.225, 746.5319
2378.154, 740.2845
2380.082, 737.2612
2382.010, 735.0349
2383.939, 734.5008
2385.867, 732.7528
2387.796, 729.6476
2389.724, 728.2332
2391.653, 725.3897
2393.581, 720.9536
2395.510, 718.1287
2397.438, 714.1599
2399.367, 707.6577
2401.295, 703.8471
2403.224, 702.5504
2405.152, 701.2651
2407.081, 698.8461
2409.009, 696.1114
2410.938, 689.8008
2412.866, 684.0308
2414.794, 680.4791
2416.723, 676.6049
2418.651, 673.0099
2420.580, 671.6855
2422.508, 667.6176
2424.437, 665.7779
2426.365, 664.3941
2428.294, 661.3145
2430.222, 658.1716
2432.151, 655.9080
2434.079, 654.5204
2436.008, 654.6571
2437.936, 648.0856
2439.865, 643.1221
2441.793, 641.1438
2443.721, 635.0883
2445.650, 631.5101
2447.578, 628.4763
2449.507, 624.9414
2451.435, 622.4750
2453.364, 619.9965
2455.292, 617.4453
2457.221, 615.0963
2459.149, 612.5273
2461.078, 612.5878
2463.006, 607.3202
2464.935, 606.0295
2466.863, 603.1733
2468.792, 598.4349
2470.720, 595.2965
2472.648, 592.2567
2474.577, 589.8107
2476.505, 589.5471
2478.434, 587.3223
2480.362, 581.0549
2482.291, 581.3055
2484.219, 581.1746
2486.148, 573.1696
2488.076, 571.3347
2490.005, 571.4877
2491.933, 567.8483
2493.862, 564.2931
2495.790, 562.8880
2497.719, 561.1803
2499.647, 558.3943
2501.575, 555.9529
2503.504, 552.1623
2505.432, 548.6295
2507.361, 545.4227
2509.289, 540.7950
2511.218, 537.2314
2513.146, 536.9137
2515.075, 532.8816
2517.003, 529.7902
2518.932, 529.8037
2520.860, 527.3297
2522.789, 525.3026
2524.717, 523.6334
2526.646, 521.2094
2528.574, 519.1914
2530.502, 516.7777
2532.431, 514.5836
2534.359, 512.2679
2536.288, 510.5345
2538.216, 506.8069
2540.145, 504.2614
2542.073, 504.3692
2544.002, 501.7416
2545.930, 498.3829
2547.859, 494.5249
2549.787, 492.0241
2551.716, 491.4766
2553.644, 488.4589
2555.573, 487.6895
2557.501, 487.5345
2559.429, 485.5031
2561.358, 483.9508
2563.286, 480.6343
2565.215, 475.5067
2567.143, 472.7579
2569.072, 470.9550
2571.000, 468.0574
2572.929, 465.5905
2574.857, 463.3761
2576.786, 462.2523
2578.714, 460.4352
2580.643, 458.6508
2582.571, 456.3343
2584.500, 452.7185
2586.428, 448.3269
2588.356, 445.5187
2590.285, 445.2008
2592.213, 444.5261
2594.142, 440.3707
2596.070, 437.9129
2597.999, 437.8266
2599.927, 436.2147
2601.856, 434.3705
2603.784, 432.1677
2605.713, 430.4020
2607.641, 427.4958
2609.570, 423.6330
2611.498, 421.4850
2613.427, 419.9115
2615.355, 416.6866
2617.283, 415.8115
2619.212, 414.3160
2621.140, 410.4230
2623.069, 406.7914
2624.997, 404.6801
2626.926, 404.7978
2628.854, 404.3151
2630.783, 404.1298
2632.711, 402.6225
2634.640, 399.5661
2636.568, 396.6077
2638.497, 393.1545
2640.425, 389.2348
2642.354, 386.3267
2644.282, 384.0717
2646.210, 381.9928
2648.139, 380.6246
2650.067, 379.4594
2651.996, 378.3904
2653.924, 377.7003
2655.853, 375.9892
2657.781, 374.8300
2659.710, 372.2079
2661.638, 368.9720
2663.567, 368.5997
2665.495, 366.4767
2667.424, 362.9026
2669.352, 361.2399
2671.281, 358.4018
2673.209, 355.1190
2675.137, 355.1518
2677.066, 351.9995
2678.994, 348.4775
2680.923, 350.6353
2682.851, 349.7665
2684.780, 346.6260
2686.708, 341.0381
2688.637, 339.3183
2690.565, 339.7209
2692.494, 337.7295
2694.422, 336.2020
2696.351, 334.0029
2698.279, 332.2961
2700.208, 330.1659
2702.136, 328.7903
2704.064, 326.0302
2705.993, 324.4991
2707.921, 322.8919
2709.850, 321.5544
2711.778, 319.1812
2713.707, 316.1514
2715.635, 313.2645
2717.564, 312.4233
2719.492, 312.5762
2721.421, 312.6214
2723.349, 310.8159
2725.278, 307.8101
2727.206, 304.2676
2729.135, 298.8902
2731.063, 297.7050
2732.991, 299.4207
2734.920, 302.8090
2736.848, 303.9069
2738.777, 300.4576
2740.705, 294.1957
2742.634, 291.7521
2744.562, 291.2427
2746.491, 289.1400
2748.419, 287.7946
2750.348, 287.3338
2752.276, 286.5064
2754.205, 282.2853
2756.133, 278.4109
2758.062, 276.8995
2759.990, 277.8582
2761.918, 275.6933
2763.847, 272.9716
2765.775, 273.6232
2767.704, 271.8213
2769.632, 267.6788
2771.561, 266.2453
2773.489, 264.9003
2775.418, 261.8244
2777.346, 260.3033
2779.275, 259.9310
2781.203, 259.0327
2783.132, 257.3638
2785.060, 256.2457
2786.989, 255.6176
2788.917, 255.2960
2790.845, 253.4615
2792.774, 250.1214
2794.702, 246.0696
2796.631, 246.3104
2798.559, 245.8666
2800.488, 245.2575
2802.416, 244.1014
2804.345, 243.5088
2806.273, 240.9833
2808.202, 239.1715
2810.130, 237.4886
2812.059, 237.3270
2813.987, 236.6251
2815.916, 233.8860
2817.844, 231.6697
2819.772, 230.6270
2821.701, 229.3480
2823.629, 227.3605
2825.558, 225.9196
2827.486, 224.5688
2829.415, 223.6775
2831.343, 221.9491
2833.272, 220.5346
2835.200, 219.1900
2837.129, 217.7690
2839.057, 217.1130
2840.986, 215.7717
2842.914, 215.1027
2844.843, 213.6367
2846.771, 212.9029
2848.699, 210.3845
2850.628, 208.3856
2852.556, 206.0090
2854.485, 204.2816
2856.413, 204.1323
2858.342, 203.6228
2860.270, 199.6822
2862.199, 199.8139
2864.127, 200.0352
2866.056, 195.2404
2867.984, 194.5002
2869.913, 194.5009
2871.841, 193.3025
2873.770, 191.0265
2875.698, 190.3074
2877.626, 188.8807
2879.555, 187.3466
2881.483, 186.3914
2883.412, 185.9083
2885.340, 184.1064
2887.269, 183.1001
2889.197, 182.7353
2891.126, 182.6318
2893.054, 179.6553
2894.983, 178.4257
2896.911, 178.7517
2898.840, 179.2301
2900.768, 177.7528
2902.697, 175.0025
2904.625, 174.2585
2906.553, 172.9373
2908.482, 171.6729
2910.410, 171.8684
2912.339, 170.2642
2914.267, 166.6219
2916.196, 163.7894
2918.124, 164.7610
2920.053, 163.8162
2921.981, 162.2395
2923.910, 160.8607
2925.838, 161.7009
2927.767, 161.0934
2929.695, 158.8025
2931.624, 159.9738
2933.552, 157.6588
2935.480, 155.3634
2937.409, 156.4124
2939.337, 153.2221
2941.266, 149.1261
2943.194, 147.3145
2945.123, 150.4339
2947.051, 150.2896
2948.980, 148.5145
2950.908, 148.2276
2952.837, 146.5934
2954.765, 145.1636
2956.694, 144.6731
2958.622, 143.7007
2960.551, 143.8278
2962.479, 144.1491
2964.407, 143.2163
2966.336, 140.3280
2968.264, 139.3365
2970.193, 138.9932
2972.121, 136.3036
2974.050, 135.3379
2975.978, 133.9014
2977.907, 133.2667
2979.835, 132.0762
2981.764, 131.3541
2983.692, 130.0569
2985.621, 129.1185
2987.549, 128.1581
2989.478, 126.7904
2991.406, 126.7354
2993.334, 125.5850
2995.263, 124.9383
2997.191, 125.3016
2999.120, 126.1373
3001.048, 125.2348
3002.977, 123.1109
3004.905, 121.0813
3006.834, 118.9370
3008.762, 119.8174
3010.691, 120.2321
3012.619, 115.4454
3014.548, 117.4229
3016.476, 118.3484
3018.405, 115.6359
3020.333, 115.9142
3022.261, 114.0671
3024.190, 111.9514
3026.118, 111.9940
3028.047, 112.4518
3029.975, 111.5443
3031.904, 110.7063
3033.832, 109.9700
3035.761, 109.3618
3037.689, 108.3834
3039.618, 107.7656
3041.546, 106.4749
3043.475, 105.7775
3045.403, 104.7288
3047.332, 104.0613
3049.260, 103.1525
3051.188, 102.8190
3053.117, 101.8696
3055.045, 100.5969
3056.974, 98.18261
3058.902, 97.69633
3060.831, 95.94727
3062.759, 94.37319
3064.688, 95.93651
3066.616, 96.46931
3068.545, 93.91010
3070.473, 94.56590
3072.402, 94.25848
3074.330, 93.10178
3076.259, 92.70680
3078.187, 91.67004
3080.115, 90.96685
3082.044, 89.85138
3083.972, 89.66100
3085.901, 89.30761
3087.829, 88.99812
3089.758, 88.82642
3091.686, 87.98593
3093.615, 87.59821
3095.543, 86.70833
3097.472, 86.31362
3099.400, 85.03677
3101.329, 84.22855
3103.257, 83.90049
3105.186, 85.16417
3107.114, 83.42600
3109.042, 83.63058
3110.971, 84.48596
3112.899, 81.36652
3114.828, 81.03030
3116.756, 80.93905
3118.685, 80.23837
3120.613, 78.99849
3122.542, 77.38696
3124.470, 76.70662
3126.399, 76.75478
3128.327, 74.73400
3130.256, 74.61401
3132.184, 75.97559
3134.113, 77.35059
3136.041, 74.18245
3137.969, 73.23309
3139.898, 73.13512
3141.826, 72.81636
3143.755, 71.74956
3145.683, 71.16203
3147.612, 71.24957
3149.540, 71.40130
3151.469, 70.14272
3153.397, 70.38639
3155.326, 70.88557
3157.254, 67.84663
3159.183, 69.17644
3161.111, 69.44609
3163.040, 68.10381
3164.968, 67.99884
3166.896, 67.53412
3168.825, 66.89585
3170.753, 66.52177
3172.682, 65.99231
3174.610, 65.38906
3176.539, 65.20003
3178.467, 64.28080
3180.396, 64.18806
3182.324, 63.88035
3184.253, 62.95202
3186.181, 61.52590
3188.110, 61.50695
3190.038, 59.99088
3191.967, 61.02964
3193.895, 60.40953
3195.823, 60.38426
3197.752, 59.50470
3199.680, 58.49335
3201.609, 58.87321
3203.537, 57.41818
3205.466, 59.16204
3207.394, 55.90711
3209.323, 55.71791
3211.251, 56.25370
3213.180, 53.93861
3215.108, 53.10819
3217.037, 55.01539
3218.965, 55.69033
3220.894, 51.75513
3222.822, 50.48032
3224.750, 51.69557
3226.679, 52.87153
3228.607, 54.39322
3230.536, 53.72334
3232.464, 53.46542
3234.393, 50.36192
3236.321, 50.85650
3238.250, 49.35463
3240.178, 47.48499
3242.107, 48.96476
3244.035, 48.39185
3245.964, 49.13482
3247.892, 49.58965
3249.821, 46.84486
3251.749, 46.38099
3253.677, 46.91838
3255.606, 46.18790
3257.534, 46.68616
3259.463, 45.10480
3261.391, 46.53947
3263.320, 45.73719
3265.248, 43.71897
3267.177, 44.82206
3269.105, 44.08180
3271.034, 44.78897
3272.962, 43.75262
3274.891, 44.60297
3276.819, 42.22013
3278.748, 41.47501
3280.676, 42.39796
3282.604, 43.69570
3284.533, 42.57099
3286.461, 41.42701
3288.390, 41.22531
3290.318, 41.03682
3292.247, 40.46119
3294.175, 39.55428
3296.104, 39.39409
3298.032, 40.80037
3299.961, 39.61769
3301.889, 39.40434
3303.818, 39.02757
3305.746, 38.02542
3307.675, 38.47868
3309.603, 40.75907
3311.531, 40.60594
3313.460, 39.44959
3315.388, 39.76956
3317.317, 38.91333
3319.245, 38.45477
3321.174, 37.92961
3323.102, 37.91730
3325.031, 37.96575
3326.959, 38.86917
3328.888, 38.54903
3330.816, 36.11221
3332.745, 33.87911
3334.673, 33.39344
3336.602, 34.10543
3338.530, 34.73000
3340.458, 34.42636
3342.387, 34.11535
3344.315, 33.30783
3346.244, 32.48767
3348.172, 32.33382
3350.101, 32.54490
3352.029, 33.55038
3353.958, 34.12959
3355.886, 33.79183
3357.815, 33.59713
3359.743, 32.71441
3361.672, 32.25489
3363.600, 32.62492
3365.529, 33.39033
3367.457, 33.16521
3369.385, 32.83346
3371.314, 32.57194
3373.242, 32.98163
3375.171, 34.48639
3377.099, 31.51171
3379.028, 30.42513
3380.956, 31.00089
3382.885, 31.39760
3384.813, 30.83729
3386.742, 30.95662
3388.670, 31.30201
3390.599, 31.50134
3392.527, 31.63456
3394.456, 30.15913
3396.384, 30.20860
3398.313, 30.92723
3400.241, 30.65798
3402.169, 28.54650
3404.098, 28.65718
3406.026, 29.26735
3407.955, 29.84754
3409.883, 30.34407
3411.812, 29.73013
3413.740, 29.62787
3415.669, 27.94994
3417.597, 27.97978
3419.526, 26.80014
3421.454, 27.31372
3423.383, 30.23935
3425.311, 28.96265
3427.240, 29.22197
3429.168, 30.55755
3431.096, 29.37944
3433.025, 28.54316
3434.953, 28.07671
3436.882, 27.03635
3438.810, 26.75093
3440.739, 26.23435
3442.667, 27.16414
3444.596, 29.01236
3446.524, 29.80041
3448.453, 28.12798
3450.381, 26.87683
3452.310, 25.90336
3454.238, 25.16490
3456.167, 25.75633
3458.095, 24.94816
3460.023, 26.29188
3461.952, 26.62459
3463.880, 25.08496
3465.809, 28.29042
3467.737, 26.30467
3469.666, 25.66040
3471.594, 25.74844
3473.523, 24.85946
3475.451, 24.55430
3477.380, 24.09874
3479.308, 23.45864
3481.237, 24.16413
3483.165, 23.99654
3485.094, 23.63977
3487.022, 24.35123
3488.950, 25.71213
3490.879, 25.32861
3492.807, 23.18365
3494.736, 24.55293
3496.664, 22.33628
3498.593, 22.33037
3500.521, 23.97790
3502.450, 24.42867
3504.378, 24.58081
3506.307, 22.89732
3508.235, 22.50929
3510.164, 22.78117
3512.092, 22.20397
3514.021, 22.00856
3515.949, 20.86919
3517.877, 23.01848
3519.806, 24.18719
3521.734, 21.23270
3523.663, 23.36354
3525.591, 22.61041
3527.520, 21.50142
3529.448, 21.63035
3531.377, 20.77724
3533.305, 20.19071
3535.234, 20.26283
3537.162, 20.19636
3539.091, 20.16243
3541.019, 21.09776
3542.948, 22.37016
3544.876, 23.40879
3546.804, 21.57387
3548.733, 19.88596
3550.661, 19.66852
3552.590, 19.84812
3554.518, 19.36444
3556.447, 20.04703
3558.375, 19.59832
3560.304, 20.83287
3562.232, 21.03206
3564.161, 21.62809
3566.089, 19.89736
3568.018, 17.70510
3569.946, 18.05220
3571.875, 17.30388
3573.803, 19.17074
3575.731, 17.93906
3577.660, 19.06951
3579.588, 19.88060
3581.517, 18.93771
3583.445, 19.53633
3585.374, 19.39827
3587.302, 19.27874
3589.231, 18.85886
3591.159, 18.94561
3593.088, 19.02825
3595.016, 19.04165
3596.945, 19.08743
3598.873, 19.15822
3600.802, 19.00437
3602.730, 19.57775
3604.658, 19.34508
3606.587, 20.14111
3608.515, 19.27062
3610.444, 18.79252
3612.372, 18.26917
3614.301, 16.85600
3616.229, 19.25921
3618.158, 17.46379
3620.086, 18.46832
3622.015, 18.54520
3623.943, 16.33050
3625.872, 16.08254
3627.800, 17.37004
3629.729, 17.76930
3631.657, 17.58734
3633.585, 17.81080
3635.514, 18.65580
3637.442, 18.85312
3639.371, 16.96732
3641.299, 16.02468
3643.228, 17.81256
3645.156, 19.20872
3647.085, 16.94312
3649.013, 17.31124
3650.942, 16.95736
3652.870, 18.16875
3654.799, 16.74927
3656.727, 17.84501
3658.656, 18.64875
3660.584, 18.40329
3662.512, 18.30061
3664.441, 17.01830
3666.369, 16.72342
3668.298, 18.30472
3670.226, 19.50734
3672.155, 17.65957
3674.083, 17.18746
3676.012, 18.58932
3677.940, 19.47391
3679.869, 18.79614
3681.797, 18.04627
3683.726, 18.70254
3685.654, 17.10502
3687.583, 16.91044
3689.511, 16.46906
3691.439, 15.18509
3693.368, 16.33656
3695.296, 16.37862
3697.225, 15.85124
3699.153, 16.21345
3701.082, 17.01740
3703.010, 17.63598
3704.939, 17.99198
3706.867, 17.89621
3708.796, 15.94432
3710.724, 17.13989
3712.653, 16.63692
3714.581, 16.10401
3716.510, 16.33088
3718.438, 16.81383
3720.366, 17.86416
3722.295, 17.60522
3724.223, 15.75831
3726.152, 14.76387
3728.080, 16.71453
3730.009, 17.44193
3731.937, 15.79240
3733.866, 15.12706
3735.794, 14.03472
3737.723, 13.31202
3739.651, 13.88975
3741.580, 13.77268
3743.508, 13.12141
3745.437, 14.07210
3747.365, 14.39116
3749.293, 14.81322
3751.222, 15.30295
3753.150, 14.42901
3755.079, 14.11369
3757.007, 15.38745
3758.936, 14.14250
3760.864, 13.76716
3762.793, 14.08517
3764.721, 13.34864
3766.650, 13.21912
3768.578, 13.64908
3770.507, 13.30986
3772.435, 15.82831
3774.364, 16.14670
3776.292, 14.97692
3778.220, 21.21048
3780.149, 19.10945
3782.077, 23.58949
3784.006, 18.52016
3785.934, 15.81795
3787.863, 13.92579
3789.791, 17.55944
3791.720, 18.57363
3793.648, 16.96551
3795.577, 16.45889
3797.505, 15.86108
3799.434, 14.87482
3801.362, 14.05898
3803.291, 15.15171
3805.219, 14.74390
3807.147, 16.33431
3809.076, 15.52565
3811.004, 14.95949
3812.933, 15.19959
3814.861, 14.87482
3816.790, 13.79140
3818.718, 14.87973
3820.647, 14.08072
3822.575, 11.24766
3824.504, 10.63684
3826.432, 11.07844
3828.361, 12.40856
3830.289, 14.03265
3832.218, 13.29346
3834.146, 11.78742
3836.074, 14.00292
3838.003, 13.58941
3839.931, 13.28101
3841.860, 13.19188
3843.788, 12.79524
3845.717, 13.68019
3847.645, 16.09997
3849.574, 12.26065
3851.502, 10.74955
3853.431, 13.06901
3855.359, 15.08824
3857.288, 13.95250
3859.216, 12.01018
3861.145, 15.85712
3863.073, 15.60233
3865.001, 16.75507
3866.930, 18.35756
3868.858, 19.29885
3870.787, 17.99609
3872.715, 15.34782
3874.644, 14.70121
3876.572, 15.50171
3878.501, 15.22911
3880.429, 14.88366
3882.358, 13.74541
3884.286, 13.52007
3886.215, 15.27595
3888.143, 16.78285
3890.072, 13.69320
3892.000, 17.34084
3893.928, 14.19943
3895.857, 14.53064
3897.785, 14.84306
3899.714, 15.95562
3901.642, 16.67764
3903.571, 14.99339
3905.499, 14.59192
3907.428, 13.28333
3909.356, 14.99229
3911.285, 16.35296
3913.213, 18.01815
3915.142, 16.53233
3917.070, 17.75226
3918.999, 16.95893
3920.927, 17.75385
3922.855, 17.06680
3924.784, 16.58043
3926.712, 16.38442
3928.641, 15.18355
3930.569, 15.60227
3932.498, 14.09405
3934.426, 14.31838
3936.355, 16.37342
3938.283, 14.76636
3940.212, 17.41545
3942.140, 16.25721
3944.069, 18.23413
3945.997, 18.23995
3947.926, 17.38677
3949.854, 16.66720
3951.782, 14.72221
3953.711, 16.50684
3955.639, 16.30922
3957.568, 14.89698
3959.496, 13.89384
3961.425, 14.81890
3963.353, 15.69770
3965.282, 15.06827
3967.210, 15.22898
3969.139, 18.08893
3971.067, 17.78308
3972.996, 16.42093
3974.924, 14.42030
3976.853, 17.71312
3978.781, 17.71248
3980.709, 17.11635
3982.638, 17.26429
3984.566, 17.25335
3986.495, 17.49574
3988.423, 17.47906
3990.352, 15.75356
3992.280, 16.63416
3994.209, 15.53708
3996.137, 15.85377
3998.066, 17.28512
3999.994, 16.00785
4001.923, 15.34250
4003.851, 15.57740
4005.780, 16.25720
4007.708, 17.28719
4009.636, 17.26318
4011.565, 15.84271
4013.493, 13.65216
4015.422, 14.60730
4017.350, 12.18379
4019.279, 12.82454
4021.207, 15.37607
4023.136, 15.35275
4025.064, 13.77667
4026.993, 14.35415
4028.921, 14.85064
4030.850, 15.33450
4032.778, 15.17776
4034.707, 14.27069
4036.635, 14.74006
4038.563, 13.80777
4040.492, 13.75683
4042.420, 15.29581
4044.349, 16.43641
4046.277, 15.77252
4048.206, 14.50413
4050.134, 14.29000
4052.063, 14.50761
4053.991, 14.72882
4055.920, 13.76629
4057.848, 12.27307
4059.777, 14.19115
4061.705, 15.38834
4063.634, 13.74822
4065.562, 13.93459
4067.490, 14.05984
4069.419, 14.82897
4071.347, 14.24584
4073.276, 16.28996
4075.204, 14.87508
4077.133, 15.78655
4079.061, 15.16101
4080.990, 14.81068
4082.918, 16.49548
4084.847, 16.30374
4086.775, 16.62706
4088.704, 14.11939
4090.632, 17.32814
4092.561, 15.79373
4094.489, 16.92662
4096.417, 17.28346
4098.346, 16.59035
4100.274, 15.95748
4102.203, 13.09343
4104.131, 12.01098
4106.060, 14.80032
4107.988, 14.41675
4109.917, 11.10920
4111.845, 12.91094
4113.774, 17.03353
4115.702, 13.74217
4117.631, 14.42369
4119.559, 16.94525
4121.488, 16.61106
4123.416, 12.39119
4125.345, 11.13528
4127.273, 13.90202
4129.202, 14.98649
4131.130, 14.10052
4133.059, 14.52044
4134.987, 14.71542
4136.916, 16.48443
4138.844, 14.74938
4140.772, 15.96691
4142.701, 12.46190
4144.629, 12.06066
4146.558, 12.86624
4148.486, 13.70875
4150.415, 14.57670
4152.343, 13.73507
4154.271, 12.29681
4156.200, 13.51383
4158.128, 16.46566
4160.057, 13.36297
4161.985, 17.77926
4163.914, 15.09017
4165.842, 11.28984
4167.771, 12.37566
4169.699, 11.91132
4171.628, 15.50108
4173.556, 14.18720
4175.485, 12.39685
4177.413, 15.83503
4179.342, 16.84481
4181.270, 16.08315
4183.199, 16.93481
4185.127, 16.71308
4187.056, 15.72223
4188.984, 15.68394
4190.913, 15.24370
4192.841, 13.12956
4194.770, 14.58911
4196.698, 16.44631
4198.626, 14.50547
4200.555, 14.35914
4202.483, 13.47457
4204.412, 12.19549
4206.340, 14.06186
4208.269, 14.10741
4210.197, 13.30995
4212.125, 15.68846
4214.054, 16.38665
4215.982, 14.64371
4217.911, 14.55287
4219.839, 14.74075
4221.768, 14.43036
4223.696, 14.10162
4225.625, 14.04918
4227.553, 14.57670
4229.482, 13.84605
4231.410, 13.99667
4233.339, 14.31427
4235.267, 15.24805
4237.196, 15.07342
4239.124, 15.06439
4241.053, 17.18937
4242.981, 14.58735
4244.910, 13.07862
4246.838, 14.35763
4248.767, 13.07707
4250.695, 16.66682
4252.624, 13.59688
4254.552, 13.86684
4256.480, 16.29625
4258.409, 12.14152
4260.337, 14.41665
4262.266, 13.36658
4264.194, 9.708098
4266.123, 11.58785
4268.051, 13.09658
4269.979, 11.03145
4271.908, 12.12018
4273.836, 15.35004
4275.765, 13.98747
4277.693, 12.64582
4279.622, 14.69336
4281.550, 15.58342
4283.479, 16.35755
4285.407, 14.58243
4287.336, 16.60585
4289.264, 16.43186
4291.193, 12.99213
4293.121, 14.42526
4295.050, 15.20500
4296.978, 15.39127
4298.907, 15.45889
4300.835, 14.30528
4302.764, 12.79825
4304.692, 11.06019
4306.621, 11.80549
4308.549, 15.26663
4310.478, 16.97163
4312.406, 14.88653
4314.334, 13.92392
4316.263, 15.47047
4318.191, 13.04367
4320.120, 16.66116
4322.048, 13.60085
4323.977, 13.64178
4325.905, 16.06147
4327.833, 12.59832
4329.762, 13.52924
4331.690, 12.29928
4333.619, 14.57012
4335.547, 15.09779
4337.476, 12.95590
4339.404, 14.09119
4341.333, 13.47777
4343.261, 15.40403
4345.190, 14.77744
4347.118, 14.95424
4349.047, 16.08821
4350.975, 14.25445
4352.904, 15.43190
4354.832, 13.63079
4356.761, 12.66035
4358.689, 13.51609
4360.618, 13.14613
4362.546, 13.70290
4364.475, 13.72071
4366.403, 13.29783
4368.332, 12.88937
4370.260, 13.69978
4372.188, 14.95420
4374.117, 16.46743
4376.045, 13.50667
4377.974, 13.08971
##END=



