##NAMES=Senandorite
##RRUFFID=R100212
##IDEAL CHEMISTRY=AgPbSb_3_S_6_
##LOCALITY=Felsobanya, Romania
##OWNER=RRUFF
##SOURCE=Mark N. Feinglos
##DESCRIPTION=Elogated crystals with striations, associated with wurtzite
##STATUS=The identification of this mineral is confirmed by single-crystal X-ray diffraction and chemical analysis
##URL=https://www.rruff.net/odr/rruff_sample/R100212
##MEASURED CHEMISTRY=Ag_0.94_Pb_0.87_Cu_0.11_Fe_0.06_Mn_0.05_Bi_0.01_Sb_3.14_S_6_
##DIFFRACTION SAMPLE DESCRIPTION=Single crystal, powder profile is calculated
##CELL PARAMETERS=a: 12.9655 b: 19.148 c: 25.484 alpha: 90 beta: 90 gamma: 90 volume: 6326.7 crystal system: orthorhombic
##FILETYPE=Raman RAW
##RAMAN WAVELENGTH=780

170.6860, 390.6277
172.6145, 388.7666
174.5430, 387.8929
176.4714, 388.6229
178.3999, 389.7053
180.3284, 391.6056
182.2568, 393.3099
184.1853, 393.4456
186.1138, 392.8329
188.0422, 394.0000
189.9707, 397.4915
191.8992, 402.0201
193.8276, 408.0499
195.7561, 414.4978
197.6846, 421.2504
199.6130, 427.9380
201.5415, 433.6918
203.4700, 437.8574
205.3984, 443.9819
207.3269, 453.1744
209.2554, 462.2641
211.1838, 470.7955
213.1123, 478.3041
215.0408, 484.0214
216.9692, 488.0607
218.8977, 492.9161
220.8262, 498.9737
222.7546, 504.6550
224.6831, 509.3221
226.6116, 514.0934
228.5400, 520.4330
230.4685, 527.0703
232.3970, 530.8223
234.3254, 530.9172
236.2539, 532.4745
238.1824, 536.3279
240.1108, 540.0886
242.0393, 543.4158
243.9678, 545.6750
245.8962, 546.2593
247.8247, 545.1720
249.7532, 542.9307
251.6816, 539.7012
253.6101, 534.7806
255.5386, 527.6448
257.4670, 519.1545
259.3955, 509.1464
261.3240, 498.4019
263.2524, 488.1044
265.1809, 478.2354
267.1094, 468.6334
269.0378, 459.6465
270.9663, 449.9123
272.8948, 437.8599
274.8232, 426.1638
276.7517, 415.8885
278.6802, 407.4225
280.6086, 401.6595
282.5371, 398.5201
284.4656, 397.0333
286.3940, 398.1375
288.3225, 399.0041
290.2510, 398.7532
292.1794, 398.0314
294.1079, 397.4503
296.0364, 396.8339
297.9648, 395.7249
299.8933, 394.0856
301.8218, 392.1801
303.7502, 391.1648
305.6787, 388.4059
307.6072, 382.5649
309.5356, 375.0804
311.4641, 367.7585
313.3926, 359.9731
315.3210, 349.5628
317.2495, 335.9314
319.1780, 321.3563
321.1064, 305.4022
323.0349, 289.5885
324.9634, 274.4789
326.8918, 259.7120
328.8203, 244.7567
330.7488, 229.8332
332.6772, 215.7661
334.6057, 202.3591
336.5342, 190.5448
338.4626, 180.9131
340.3911, 171.9942
342.3196, 163.5052
344.2480, 155.4086
346.1765, 147.3860
348.1050, 139.6395
350.0334, 133.2275
351.9619, 128.6570
353.8904, 124.2627
355.8188, 119.4794
357.7473, 115.7483
359.6758, 113.6948
361.6042, 112.7527
363.5327, 113.5113
365.4612, 114.8458
367.3896, 112.7939
369.3181, 105.8154
371.2466, 102.1069
373.1750, 102.9983
375.1035, 103.9150
377.0320, 103.4322
378.9604, 102.7321
380.8889, 102.7113
382.8174, 102.8806
384.7458, 102.3416
386.6743, 101.0586
388.6028, 99.54003
390.5313, 97.50394
392.4597, 96.47813
394.3882, 97.85409
396.3167, 98.52531
398.2451, 96.07009
400.1736, 93.07214
402.1021, 92.58235
404.0305, 94.04461
405.9590, 94.44174
407.8875, 93.74649
409.8159, 93.07747
411.7444, 92.64243
413.6729, 92.09554
415.6013, 90.93535
417.5298, 90.03770
419.4583, 90.13679
421.3867, 90.75921
423.3152, 91.17627
425.2437, 91.35769
427.1721, 91.03262
429.1006, 90.11192
431.0291, 89.10811
432.9575, 87.95931
434.8860, 87.02177
436.8145, 86.33051
438.7429, 85.96867
440.6714, 86.19326
442.5999, 86.75321
444.5283, 87.15685
446.4568, 87.39328
448.3853, 87.25716
450.3137, 86.63302
452.2422, 85.88322
454.1707, 84.91071
456.0991, 84.04066
458.0276, 83.61103
459.9561, 83.15250
461.8845, 81.63621
463.8130, 79.95425
465.7415, 80.27239
467.6699, 82.67070
469.5984, 84.06957
471.5269, 83.82497
473.4553, 83.25964
475.3838, 82.16676
477.3123, 81.23141
479.2407, 80.45681
481.1692, 80.19575
483.0977, 81.20196
485.0261, 82.76229
486.9546, 83.48233
488.8831, 83.29873
490.8115, 82.90792
492.7400, 82.06418
494.6685, 81.44978
496.5969, 81.45208
498.5254, 81.12051
500.4539, 79.68215
502.3823, 78.30961
504.3108, 78.13241
506.2393, 78.38209
508.1677, 77.50875
510.0962, 77.81159
512.0247, 78.43386
513.9531, 78.06939
515.8816, 79.65675
517.8101, 80.31290
519.7385, 79.78803
521.6670, 76.94202
523.5955, 74.51725
525.5239, 74.69797
527.4524, 75.46245
529.3809, 74.44460
531.3093, 72.46725
533.2378, 72.47059
535.1663, 74.67764
537.0947, 74.89314
539.0232, 72.63491
540.9517, 70.92582
542.8801, 70.26353
544.8086, 70.28062
546.7371, 71.80152
548.6655, 72.83590
550.5940, 71.47446
552.5225, 69.65673
554.4509, 70.40246
556.3794, 72.78817
558.3079, 73.12619
560.2363, 71.58267
562.1648, 70.08404
564.0933, 68.69870
566.0217, 67.70316
567.9502, 67.08966
569.8787, 67.03055
571.8071, 68.57500
573.7356, 69.43245
575.6641, 67.54041
577.5925, 64.88390
579.5210, 63.94448
581.4495, 64.07380
583.3779, 63.49422
585.3064, 62.33862
587.2349, 61.61980
589.1633, 61.46798
591.0918, 61.37789
593.0203, 61.23498
594.9487, 61.22047
596.8772, 61.47913
598.8057, 61.72500
600.7341, 62.07092
602.6626, 62.11937
604.5911, 61.36615
606.5195, 60.17332
608.4480, 59.04053
610.3765, 57.96544
612.3049, 56.77891
614.2334, 55.39408
616.1619, 55.14573
618.0903, 57.10268
620.0188, 58.04340
621.9473, 56.67886
623.8757, 56.00281
625.8042, 57.71296
627.7327, 58.99582
629.6611, 57.79954
631.5896, 56.09195
633.5181, 55.51852
635.4465, 55.60639
637.3750, 55.82963
639.3035, 56.08208
641.2319, 55.49405
643.1604, 53.74171
645.0889, 53.22749
647.0173, 54.65076
648.9458, 55.54265
650.8743, 55.88876
652.8027, 55.46207
654.7312, 53.88012
656.6597, 52.05275
658.5881, 49.91691
660.5166, 48.32105
662.4451, 48.13083
664.3735, 48.53424
666.3020, 48.72020
668.2305, 48.64434
670.1589, 48.06098
672.0874, 47.01198
674.0159, 46.30817
675.9443, 45.98436
677.8728, 45.46376
679.8013, 44.52365
681.7297, 44.45441
683.6582, 45.72939
685.5867, 47.27790
687.5151, 49.56188
689.4436, 50.67424
691.3721, 49.00678
693.3005, 46.91832
695.2290, 45.69353
697.1575, 45.19036
699.0859, 45.57209
701.0144, 46.40667
702.9429, 46.63673
704.8713, 46.44653
706.7998, 47.00204
708.7283, 46.53701
710.6567, 45.95692
712.5852, 45.89656
714.5137, 44.52702
716.4421, 44.30914
718.3706, 44.23854
720.2991, 44.23688
722.2275, 44.12481
724.1560, 44.04134
726.0845, 43.59526
728.0129, 41.90697
729.9414, 40.59143
731.8699, 41.40734
733.7983, 42.77911
735.7268, 42.94020
737.6553, 42.32389
739.5837, 41.47677
741.5122, 40.55835
743.4407, 39.97445
745.3691, 39.75051
747.2976, 40.04719
749.2261, 40.92900
751.1545, 41.96925
753.0830, 43.78683
755.0115, 44.10904
756.9399, 41.06354
758.8684, 39.55429
760.7969, 41.26717
762.7253, 42.87797
764.6538, 44.16380
766.5823, 44.13426
768.5107, 40.73074
770.4392, 37.73181
772.3677, 38.12252
774.2961, 39.83003
776.2246, 41.44051
778.1531, 42.75788
780.0815, 43.49108
782.0100, 43.70574
783.9385, 43.39174
785.8669, 42.67570
787.7954, 42.55939
789.7239, 43.09460
791.6523, 42.71155
793.5808, 41.00593
795.5093, 40.50593
797.4377, 41.56136
799.3662, 42.27212
801.2947, 42.50029
803.2231, 42.17898
805.1516, 41.08404
807.0801, 40.00938
809.0085, 38.82590
810.9370, 38.54111
812.8655, 40.49341
814.7939, 42.03637
816.7224, 41.32845
818.6509, 40.52977
820.5793, 41.22600
822.5078, 42.21880
824.4363, 42.56810
826.3647, 42.43208
828.2932, 41.70869
830.2217, 40.83374
832.1501, 40.83044
834.0786, 41.27494
836.0071, 40.66800
837.9355, 41.13153
839.8640, 39.77570
841.7925, 41.35186
843.7209, 41.98079
845.6494, 41.62823
847.5779, 41.14822
849.5063, 40.60910
851.4348, 39.60664
853.3633, 37.83529
855.2917, 37.44491
857.2202, 39.58290
859.1487, 40.35246
861.0771, 37.95220
863.0056, 36.47662
864.9341, 37.11158
866.8625, 37.86074
868.7910, 38.85944
870.7195, 39.03595
872.6479, 37.19592
874.5764, 35.65823
876.5049, 35.80273
878.4333, 36.14550
880.3618, 35.91473
882.2903, 35.42616
884.2188, 34.43845
886.1472, 33.81180
888.0757, 34.73886
890.0042, 36.02450
891.9326, 36.84646
893.8611, 36.89265
895.7896, 34.76196
897.7180, 35.68845
899.6465, 32.99115
901.5750, 35.49393
903.5034, 36.36545
905.4319, 36.03971
907.3604, 35.95664
909.2888, 36.04375
911.2173, 35.90596
913.1458, 35.54760
915.0742, 34.87754
917.0027, 33.89476
918.9312, 33.93067
920.8596, 33.14364
922.7881, 32.48869
924.7166, 32.45999
926.6450, 31.29897
928.5735, 31.53296
930.5020, 31.49929
932.4304, 31.01803
934.3589, 31.17587
936.2874, 32.20563
938.2158, 32.98834
940.1443, 33.48670
942.0728, 32.93008
944.0012, 30.77909
945.9297, 29.83512
947.8582, 31.05823
949.7866, 31.67506
951.7151, 30.75393
953.6436, 30.32162
955.5720, 31.24308
957.5005, 31.63532
959.4290, 30.54874
961.3574, 29.89226
963.2859, 30.40828
965.2144, 31.06008
967.1428, 32.05221
969.0713, 32.29581
970.9998, 30.70037
972.9282, 29.52494
974.8567, 29.69737
976.7852, 30.13619
978.7136, 30.97041
980.6421, 31.17682
982.5706, 29.66385
984.4990, 28.37035
986.4275, 28.02107
988.3560, 28.41957
990.2844, 30.69007
992.2129, 31.95660
994.1414, 29.18134
996.0698, 26.87512
997.9983, 28.67514
999.9268, 30.56487
1001.855, 29.61517
1003.784, 28.39119
1005.712, 28.70648
1007.641, 29.21335
1009.569, 29.21507
1011.498, 28.76145
1013.426, 26.97349
1015.354, 25.91392
1017.283, 28.34148
1019.211, 30.47743
1021.140, 28.69143
1023.068, 26.64330
1024.997, 27.48779
1026.925, 28.55882
1028.854, 27.52767
1030.782, 26.35362
1032.711, 26.49525
1034.639, 27.09900
1036.568, 27.75451
1038.496, 28.32908
1040.425, 29.10360
1042.353, 29.27609
1044.281, 27.35032
1046.210, 25.76396
1048.138, 26.72802
1050.067, 27.98805
1051.995, 28.41980
1053.924, 28.04394
1055.852, 25.78480
1057.781, 24.14180
1059.709, 25.23688
1061.638, 26.87572
1063.566, 28.37147
1065.495, 28.99167
1067.423, 27.71759
1069.352, 26.21312
1071.280, 25.01935
1073.208, 24.49048
1075.137, 25.63892
1077.065, 26.33869
1078.994, 24.24412
1080.922, 23.19976
1082.851, 26.68295
1084.779, 29.28510
1086.708, 27.80554
1088.636, 26.05086
1090.565, 25.30909
1092.493, 25.07122
1094.422, 25.41240
1096.350, 25.79792
1098.279, 25.92647
1100.207, 26.27030
1102.135, 27.63067
1104.064, 28.10467
1105.992, 26.35612
1107.921, 25.14262
1109.849, 25.64581
1111.778, 25.68866
1113.706, 24.41788
1115.635, 23.53225
1117.563, 23.14218
1119.492, 23.38379
1121.420, 24.87475
1123.349, 25.73022
1125.277, 25.86377
1127.206, 25.17086
1129.134, 25.33692
1131.063, 24.71783
1132.991, 23.77302
1134.919, 24.01953
1136.848, 21.55278
1138.776, 21.97784
1140.705, 26.36364
1142.633, 27.76881
1144.562, 25.81256
1146.490, 24.73820
1148.419, 24.55956
1150.347, 24.47912
1152.276, 24.46727
1154.204, 23.99321
1156.133, 23.16227
1158.061, 22.49171
1159.990, 22.08644
1161.918, 22.39985
1163.846, 23.29312
1165.775, 24.97082
1167.703, 26.53314
1169.632, 25.46532
1171.560, 23.63480
1173.489, 24.25733
1175.417, 25.62004
1177.346, 26.08550
1179.274, 25.58635
1181.203, 23.00757
1183.131, 20.77461
1185.060, 21.02442
1186.988, 22.03433
1188.917, 23.03348
1190.845, 24.02939
1192.773, 25.31590
1194.702, 26.12823
1196.630, 26.30151
1198.559, 25.72426
1200.487, 23.87926
1202.416, 22.55267
1204.344, 22.23612
1206.273, 22.07706
1208.201, 21.82045
1210.130, 22.49983
1212.058, 22.68655
1213.987, 23.09857
1215.915, 23.92152
1217.844, 23.75856
1219.772, 24.57574
1221.700, 24.17005
1223.629, 22.74369
1225.557, 21.86836
1227.486, 21.67199
1229.414, 23.19350
1231.343, 21.82969
1233.271, 23.61990
1235.200, 20.94600
1237.128, 20.49882
1239.057, 20.96355
1240.985, 20.86570
1242.914, 20.83379
1244.842, 21.69709
1246.771, 22.46512
1248.699, 22.16564
1250.627, 22.05603
1252.556, 23.28227
1254.484, 23.88425
1256.413, 22.65341
1258.341, 21.86155
1260.270, 22.16301
1262.198, 22.55112
1264.127, 22.78002
1266.055, 23.62644
1267.984, 23.23425
1269.912, 25.39313
1271.841, 22.60874
1273.769, 20.98046
1275.698, 20.48065
1277.626, 21.28842
1279.554, 22.85665
1281.483, 23.75497
1283.411, 23.79094
1285.340, 21.44194
1287.268, 19.27759
1289.197, 21.47187
1291.125, 24.00969
1293.054, 23.13038
1294.982, 22.24303
1296.911, 23.51468
1298.839, 24.16637
1300.768, 23.00481
1302.696, 21.81360
1304.625, 20.91623
1306.553, 20.67020
1308.481, 20.14293
1310.410, 19.94050
1312.338, 20.20913
1314.267, 20.19231
1316.195, 20.98346
1318.124, 22.08158
1320.052, 22.90537
1321.981, 20.71976
1323.909, 17.98848
1325.838, 20.02464
1327.766, 18.47958
1329.695, 21.22100
1331.623, 19.59424
1333.552, 22.16776
1335.480, 24.51083
1337.408, 24.87526
1339.337, 24.00432
1341.265, 20.50574
1343.194, 19.28820
1345.122, 21.56038
1347.051, 22.85880
1348.979, 22.94460
1350.908, 22.01357
1352.836, 20.34975
1354.765, 19.95902
1356.693, 20.41667
1358.622, 20.78637
1360.550, 20.89377
1362.479, 20.36492
1364.407, 19.66369
1366.335, 18.90384
1368.264, 18.57171
1370.192, 19.08989
1372.121, 19.74036
1374.049, 20.18106
1375.978, 21.13061
1377.906, 21.32614
1379.835, 21.35916
1381.763, 21.90967
1383.692, 21.25247
1385.620, 21.50300
1387.549, 22.08250
1389.477, 22.48595
1391.406, 20.61530
1393.334, 21.91794
1395.262, 20.61188
1397.191, 22.72219
1399.119, 22.87772
1401.048, 22.76065
1402.976, 23.14157
1404.905, 22.51453
1406.833, 23.36092
1408.762, 20.39780
1410.690, 23.83097
1412.619, 24.59385
1414.547, 22.85023
1416.476, 21.54973
1418.404, 20.79101
1420.333, 21.13731
1422.261, 21.77038
1424.189, 22.10430
1426.118, 21.66414
1428.046, 19.14632
1429.975, 17.51607
1431.903, 17.90074
1433.832, 18.79854
1435.760, 20.16194
1437.689, 20.76575
1439.617, 20.53071
1441.546, 19.21441
1443.474, 19.63220
1445.403, 18.00194
1447.331, 19.30914
1449.260, 19.52426
1451.188, 19.47218
1453.116, 19.69381
1455.045, 20.12108
1456.973, 20.80132
1458.902, 21.56184
1460.830, 23.03376
1462.759, 22.16670
1464.687, 23.38042
1466.616, 23.34570
1468.544, 23.47285
1470.473, 23.13047
1472.401, 20.93233
1474.330, 19.91204
1476.258, 20.05368
1478.187, 22.45081
1480.115, 23.65192
1482.043, 21.33980
1483.972, 20.45544
1485.900, 22.70574
1487.829, 22.50918
1489.757, 19.83248
1491.686, 19.37202
1493.614, 20.26028
1495.543, 20.15407
1497.471, 19.57807
1499.400, 18.60047
1501.328, 18.41332
1503.257, 18.36066
1505.185, 18.13834
1507.114, 19.16991
1509.042, 18.59155
1510.970, 19.70606
1512.899, 20.61951
1514.827, 20.93872
1516.756, 18.40837
1518.684, 15.42116
1520.613, 15.94324
1522.541, 17.28368
1524.470, 17.61612
1526.398, 18.03072
1528.327, 18.86570
1530.255, 19.54672
1532.184, 19.99820
1534.112, 20.00999
1536.041, 19.71832
1537.969, 19.38586
1539.897, 19.47575
1541.826, 21.46464
1543.754, 22.98344
1545.683, 21.97302
1547.611, 20.61930
1549.540, 19.03144
1551.468, 18.95727
1553.397, 20.53095
1555.325, 21.28580
1557.254, 21.13481
1559.182, 19.45585
1561.111, 17.68998
1563.039, 17.20023
1564.968, 17.86048
1566.896, 20.99027
1568.824, 22.46457
1570.753, 20.42222
1572.681, 18.62850
1574.610, 17.10883
1576.538, 17.67568
1578.467, 19.24083
1580.395, 18.99954
1582.324, 18.69997
1584.252, 20.21406
1586.181, 21.02015
1588.109, 20.01243
1590.038, 18.42334
1591.966, 16.15179
1593.895, 16.45927
1595.823, 18.49328
1597.751, 19.02743
1599.680, 18.64182
1601.608, 17.43252
1603.537, 16.75134
1605.465, 17.44452
1607.394, 17.75315
1609.322, 17.25063
1611.251, 17.54761
1613.179, 17.35143
1615.108, 18.01364
1617.036, 17.16664
1618.965, 17.75952
1620.893, 17.89758
1622.822, 15.90432
1624.750, 14.57203
1626.678, 14.40987
1628.607, 15.35784
1630.535, 17.19225
1632.464, 19.61547
1634.392, 21.03000
1636.321, 17.37575
1638.249, 13.95423
1640.178, 14.67899
1642.106, 15.90050
1644.035, 17.11446
1645.963, 17.35776
1647.892, 17.02823
1649.820, 19.57866
1651.749, 22.10089
1653.677, 19.39833
1655.605, 16.50358
1657.534, 16.42473
1659.462, 17.09459
1661.391, 18.33182
1663.319, 19.43885
1665.248, 20.21408
1667.176, 19.19352
1669.105, 17.96598
1671.033, 18.76878
1672.962, 19.24682
1674.890, 17.86387
1676.819, 17.17327
1678.747, 17.65216
1680.676, 16.22062
1682.604, 14.21740
1684.532, 17.00188
1686.461, 19.60223
1688.389, 17.36395
1690.318, 15.77034
1692.246, 16.77124
1694.175, 17.85345
1696.103, 18.72826
1698.032, 18.16675
1699.960, 17.36172
1701.889, 19.22002
1703.817, 20.13225
1705.746, 17.86840
1707.674, 16.31738
1709.603, 16.22255
1711.531, 16.27121
1713.459, 16.44510
1715.388, 17.18718
1717.316, 17.77490
1719.245, 17.51064
1721.173, 16.75354
1723.102, 16.93101
1725.030, 15.31517
1726.959, 16.08719
1728.887, 15.05859
1730.816, 13.76045
1732.744, 14.43888
1734.673, 15.43896
1736.601, 15.88539
1738.530, 17.42355
1740.458, 17.02863
1742.386, 19.05297
1744.315, 16.83433
1746.243, 17.03097
1748.172, 17.76573
1750.100, 18.36991
1752.029, 17.74733
1753.957, 17.93974
1755.886, 15.76196
1757.814, 16.98199
1759.743, 15.77729
1761.671, 14.70574
1763.600, 16.29215
1765.528, 17.12163
1767.457, 16.10232
1769.385, 16.57495
1771.313, 17.55255
1773.242, 14.09360
1775.170, 11.28809
1777.099, 13.57397
1779.027, 16.26827
1780.956, 18.33350
1782.884, 18.99038
1784.813, 18.55990
1786.741, 18.45941
1788.670, 17.66702
1790.598, 17.45208
1792.527, 16.94095
1794.455, 16.23828
1796.384, 16.42387
1798.312, 16.33398
1800.240, 15.52714
1802.169, 16.64772
1804.097, 16.94157
1806.026, 16.69220
1807.954, 15.91892
1809.883, 16.09600
1811.811, 15.37153
1813.740, 15.69675
1815.668, 14.52533
1817.597, 14.10783
1819.525, 14.20111
1821.454, 14.78287
1823.382, 17.54833
1825.311, 20.60704
1827.239, 18.74030
1829.167, 16.68422
1831.096, 18.30514
1833.024, 18.91136
1834.953, 18.11559
1836.881, 16.69984
1838.810, 15.44997
1840.738, 15.46660
1842.667, 16.24870
1844.595, 18.57761
1846.524, 18.54762
1848.452, 16.41759
1850.381, 15.25893
1852.309, 15.09963
1854.238, 14.35470
1856.166, 14.11933
1858.094, 14.79521
1860.023, 14.24047
1861.951, 15.35260
1863.880, 16.32797
1865.808, 16.79490
1867.737, 16.04553
1869.665, 16.18717
1871.594, 15.60626
1873.522, 16.70994
1875.451, 14.54614
1877.379, 15.38978
1879.308, 15.43520
1881.236, 12.46697
1883.165, 12.49221
1885.093, 15.24225
1887.021, 14.53233
1888.950, 13.73155
1890.878, 17.10722
1892.807, 18.61612
1894.735, 16.78275
1896.664, 14.24446
1898.592, 12.23130
1900.521, 14.36079
1902.449, 15.72723
1904.378, 13.66415
1906.306, 13.42847
1908.235, 15.06946
1910.163, 14.41545
1912.092, 13.66345
1914.020, 16.14472
1915.948, 16.88119
1917.877, 14.99445
1919.805, 15.68278
1921.734, 17.19297
1923.662, 15.25218
1925.591, 13.35397
1927.519, 13.02053
1929.448, 14.09514
1931.376, 15.78950
1933.305, 14.49656
1935.233, 12.90934
1937.162, 13.67406
1939.090, 13.52295
1941.019, 12.12125
1942.947, 12.90233
1944.875, 14.85692
1946.804, 17.58850
1948.732, 18.61901
1950.661, 18.96382
1952.589, 16.45148
1954.518, 17.63400
1956.446, 14.79274
1958.375, 12.47176
1960.303, 13.30803
1962.232, 12.98700
1964.160, 11.79868
1966.089, 13.06112
1968.017, 14.63776
1969.946, 15.16389
1971.874, 15.21726
1973.802, 14.90663
1975.731, 14.31732
1977.659, 13.62792
1979.588, 12.91504
1981.516, 12.40916
1983.445, 12.21017
1985.373, 14.28682
1987.302, 16.70735
1989.230, 16.57612
1991.159, 14.48842
1993.087, 10.47056
1995.016, 10.71000
1996.944, 13.25226
1998.873, 14.00595
2000.801, 13.99814
2002.729, 13.61537
2004.658, 12.69335
2006.586, 11.98246
2008.515, 12.13934
2010.443, 11.66203
2012.372, 11.96604
2014.300, 11.94775
2016.229, 12.92539
2018.157, 14.00821
2020.086, 14.98623
2022.014, 15.93649
2023.943, 16.13616
2025.871, 15.57407
2027.800, 15.84246
2029.728, 16.03669
2031.656, 15.09706
2033.585, 16.17869
2035.513, 15.41464
2037.442, 14.22575
2039.370, 13.42791
2041.299, 12.98525
2043.227, 12.70113
2045.156, 12.49387
2047.084, 12.53466
2049.013, 12.67797
2050.941, 13.02005
2052.870, 13.39866
2054.798, 13.99995
2056.727, 14.62190
2058.655, 15.18102
2060.583, 15.16037
2062.512, 14.95988
2064.440, 14.78845
2066.369, 13.78912
2068.297, 13.23919
2070.226, 12.42422
2072.154, 12.86758
2074.083, 14.28637
2076.011, 13.57377
2077.940, 13.07214
2079.868, 14.99849
2081.797, 13.18033
2083.725, 8.547967
2085.654, 8.258327
2087.582, 9.122877
2089.510, 9.266851
2091.439, 9.941801
2093.367, 10.67305
2095.296, 11.05858
2097.224, 12.24897
2099.153, 11.80447
2101.081, 13.43555
2103.010, 13.15571
2104.938, 11.29068
2106.867, 10.51001
2108.795, 12.24037
2110.724, 13.02039
2112.652, 12.77917
2114.581, 11.34602
2116.509, 9.890044
2118.438, 8.481518
2120.366, 11.83053
2122.294, 15.17971
2124.223, 11.34292
2126.151, 9.237476
2128.080, 10.64484
2130.008, 10.92788
2131.937, 11.41255
2133.865, 13.57570
2135.794, 14.98024
2137.722, 15.29756
2139.651, 13.95685
2141.579, 12.96517
2143.508, 13.76336
2145.436, 13.03954
2147.365, 11.39824
2149.293, 11.36089
2151.221, 11.94732
2153.150, 12.87498
2155.078, 11.40501
2157.007, 9.562448
2158.935, 12.14989
2160.864, 12.61297
2162.792, 9.919551
2164.721, 8.862830
2166.649, 9.692474
2168.578, 8.865705
2170.506, 8.884395
2172.435, 9.917133
2174.363, 9.247996
2176.292, 10.02120
2178.220, 11.34431
2180.148, 11.48452
2182.077, 11.05051
2184.005, 11.87452
2185.934, 11.66827
2187.862, 11.99170
2189.791, 10.68805
2191.719, 12.18430
2193.648, 12.81613
2195.576, 12.07603
2197.505, 10.35117
2199.433, 9.934588
2201.362, 9.402167
2203.290, 9.287642
2205.219, 9.825326
2207.147, 10.21004
2209.075, 11.55468
2211.004, 12.72044
2212.932, 13.94030
2214.861, 12.27208
2216.789, 9.403781
2218.718, 5.834699
2220.646, 7.208077
2222.575, 5.879920
2224.503, 8.953051
2226.432, 7.464456
2228.360, 9.868608
2230.289, 11.85125
2232.217, 12.60888
2234.146, 10.79394
2236.074, 10.16192
2238.002, 11.01873
2239.931, 11.61832
2241.859, 12.09373
2243.788, 12.54036
2245.716, 12.53971
2247.645, 12.01995
2249.573, 10.10061
2251.502, 9.782187
2253.430, 11.26550
2255.359, 13.33508
2257.287, 13.84495
2259.216, 11.14322
2261.144, 10.21163
2263.073, 10.67593
2265.001, 11.87397
2266.929, 12.27931
2268.858, 11.73533
2270.786, 10.69451
2272.715, 10.03021
2274.643, 10.59030
2276.572, 10.42385
2278.500, 10.27548
2280.429, 12.00077
2282.357, 12.43905
2284.286, 11.24112
2286.214, 10.08055
2288.143, 9.328510
2290.071, 9.255194
2292.000, 10.05785
2293.928, 10.46025
2295.856, 10.67833
2297.785, 11.57522
2299.713, 11.24066
2301.642, 12.65072
2303.570, 12.99743
2305.499, 12.55782
2307.427, 10.22753
2309.356, 7.967588
2311.284, 7.928766
2313.213, 8.430843
2315.141, 9.246053
2317.070, 10.60009
2318.998, 12.34955
2320.927, 14.26298
2322.855, 13.89288
2324.783, 12.10964
2326.712, 9.100104
2328.640, 10.59970
2330.569, 8.685625
2332.497, 9.459408
2334.426, 7.893715
2336.354, 9.528386
2338.283, 9.826214
2340.211, 10.19012
2342.140, 11.32549
2344.068, 11.95094
2345.997, 11.34306
2347.925, 11.80355
2349.854, 10.99528
2351.782, 10.89305
2353.710, 9.362005
2355.639, 7.643381
2357.567, 6.893678
2359.496, 6.800311
2361.424, 9.681986
2363.353, 8.086257
2365.281, 9.930481
2367.210, 11.69936
2369.138, 9.100554
2371.067, 7.344624
2372.995, 7.475453
2374.924, 12.28476
2376.852, 13.58662
2378.781, 10.11621
2380.709, 9.691120
2382.637, 9.824438
2384.566, 9.358036
2386.494, 9.667964
2388.423, 9.500998
2390.351, 9.795051
2392.280, 10.17892
2394.208, 9.252164
2396.137, 11.14663
2398.065, 11.24585
2399.994, 9.376904
2401.922, 7.850288
2403.851, 7.543714
2405.779, 8.548652
2407.708, 9.532100
2409.636, 9.911405
2411.564, 9.323380
2413.493, 8.691845
2415.421, 8.783823
2417.350, 11.15051
2419.278, 12.82608
2421.207, 12.90165
2423.135, 13.14284
2425.064, 12.86065
2426.992, 11.50555
2428.921, 11.26058
2430.849, 10.24648
2432.778, 9.426126
2434.706, 8.036211
2436.635, 7.371185
2438.563, 8.765857
2440.491, 8.612967
2442.420, 7.674879
2444.348, 6.243837
2446.277, 7.126173
2448.205, 8.654173
2450.134, 8.199072
2452.062, 6.702522
2453.991, 5.428807
2455.919, 7.939562
2457.848, 9.783329
2459.776, 10.17541
2461.705, 10.75264
2463.633, 10.26721
2465.562, 8.400344
2467.490, 7.231949
2469.418, 6.534769
2471.347, 6.138743
2473.275, 6.299574
2475.204, 6.744619
2477.132, 7.145776
2479.061, 8.220051
2480.989, 8.196569
2482.918, 8.344974
2484.846, 5.961980
2486.775, 3.751302
2488.703, 8.072451
2490.632, 10.02211
2492.560, 9.862303
2494.489, 11.85819
2496.417, 10.97161
2498.345, 7.860698
2500.274, 8.147562
2502.202, 8.954187
2504.131, 9.329013
2506.059, 8.068865
2507.988, 7.318020
2509.916, 7.869328
2511.845, 7.349710
2513.773, 11.43845
2515.702, 7.800150
2517.630, 9.531742
2519.559, 10.16332
2521.487, 4.333732
2523.416, 5.422591
2525.344, 7.626450
2527.272, 5.809640
2529.201, 6.613072
2531.129, 8.397094
2533.058, 9.246905
2534.986, 9.565721
2536.915, 8.840201
2538.843, 9.121254
2540.772, 6.667522
2542.700, 8.945494
2544.629, 7.300932
2546.557, 7.952019
2548.486, 9.747608
2550.414, 8.528134
2552.343, 7.797112
2554.271, 7.608365
2556.199, 6.745048
2558.128, 6.901674
2560.056, 7.980000
2561.985, 9.725247
2563.913, 8.525258
2565.842, 9.653660
2567.770, 7.571621
2569.699, 10.12296
2571.627, 11.80968
2573.556, 12.39349
2575.484, 9.224641
2577.413, 12.36382
2579.341, 10.26425
2581.270, 8.802397
2583.198, 9.158195
2585.126, 7.297662
2587.055, 9.734239
2588.983, 5.900177
2590.912, 6.998071
2592.840, 7.879232
2594.769, 7.297696
2596.697, 5.577003
2598.626, 6.352676
2600.554, 9.381374
2602.483, 6.273155
2604.411, 2.882646
2606.340, 1.280710
2608.268, 4.698667
2610.197, 6.497153
2612.125, 5.810875
2614.053, 8.668865
2615.982, 10.15748
2617.910, 9.035940
2619.839, 4.890752
2621.767, 3.977084
2623.696, 6.764272
2625.624, 9.458419
2627.553, 8.918737
2629.481, 5.779584
2631.410, 3.895528
2633.338, 4.776617
2635.267, 7.263766
2637.195, 7.124019
2639.124, 7.450678
2641.052, 8.212736
2642.980, 7.767426
2644.909, 6.929002
2646.837, 6.163361
2648.766, 6.294496
2650.694, 5.906105
2652.623, 5.108948
2654.551, 4.071503
2656.480, 4.941962
2658.408, 6.480326
2660.337, 6.833381
2662.265, 4.087384
2664.194, 1.942104
2666.122, 5.414622
2668.051, 6.627063
2669.979, 6.369845
2671.907, 6.077568
2673.836, 7.465372
2675.764, 8.126556
2677.693, 6.143600
2679.621, 8.351585
2681.550, 10.67843
2683.478, 10.44779
2685.407, 8.068507
2687.335, 6.680917
2689.264, 7.367019
2691.192, 5.722232
2693.121, 5.571307
2695.049, 7.919573
2696.978, 10.42311
2698.906, 11.85374
2700.834, 11.35272
2702.763, 10.96593
2704.691, 10.78066
2706.620, 9.928415
2708.548, 9.069722
2710.477, 8.467049
2712.405, 7.158820
2714.334, 6.675598
2716.262, 6.196907
2718.191, 5.964750
2720.119, 6.428733
2722.048, 7.347582
2723.976, 8.074921
2725.905, 7.902369
2727.833, 7.997664
2729.761, 8.529574
2731.690, 9.678534
2733.618, 8.565015
2735.547, 4.081725
2737.475, 7.001225
2739.404, 4.869581
2741.332, 4.698733
2743.261, 7.127903
2745.189, 7.639648
2747.118, 9.144278
2749.046, 10.18939
2750.975, 9.564295
2752.903, 6.546456
2754.832, 7.898634
2756.760, 6.514513
2758.688, 5.202406
2760.617, 4.838945
2762.545, 4.201492
2764.474, 4.571448
2766.402, 3.755034
2768.331, 3.914654
2770.259, 3.521892
2772.188, 3.374902
2774.116, 3.983029
2776.045, 4.149508
2777.973, 6.684004
2779.902, 5.215711
2781.830, 7.412471
2783.759, 7.935700
2785.687, 7.512007
2787.615, 6.933624
2789.544, 8.252477
2791.472, 8.375722
2793.401, 5.792427
2795.329, 1.674944
2797.258, 2.383639
2799.186, 6.694392
2801.115, 3.582544
2803.043, 4.910372
2804.972, 7.505523
2806.900, 3.761324
2808.829, 3.821490
2810.757, 5.680507
2812.686, 6.976346
2814.614, 4.554303
2816.542, 4.804717
2818.471, 4.754529
2820.399, 5.262456
2822.328, 4.307671
2824.256, 6.179288
2826.185, 5.158391
2828.113, 6.885333
2830.042, 8.587469
2831.970, 6.882129
2833.899, 8.155819
2835.827, 3.367581
2837.756, 7.108666
2839.684, 3.768048
2841.613, 0.9374573
2843.541, 0.7193152
2845.469, 4.059268
2847.398, 3.041650
2849.326, 1.066329
2851.255, 4.210669
2853.183, 3.238114
2855.112, 2.221924
2857.040, 3.192497
2858.969, 2.936228
2860.897, 2.854738
2862.826, 2.945983
2864.754, 2.278670
2866.683, 3.020647
2868.611, 2.854257
2870.540, 4.158323
2872.468, 3.522366
2874.396, 4.368696
2876.325, 5.655701
2878.253, 5.396963
2880.182, 5.425226
2882.110, 5.695235
2884.039, 6.365103
2885.967, 6.020393
2887.896, 4.042855
2889.824, 0.9088995
2891.753, 3.762265
2893.681, 6.712974
2895.610, 7.422949
2897.538, 4.168653
2899.467, 3.509862
2901.395, 3.011583
2903.323, -0.4519761
2905.252, -2.621581
2907.180, -1.156366
2909.109, 2.878031
2911.037, 2.608927
2912.966, 1.976189
2914.894, 2.119254
2916.823, 3.923107
2918.751, 4.637606
2920.680, 4.831164
2922.608, 4.731538
2924.537, 4.628269
2926.465, 4.591862
2928.394, 4.443828
2930.322, 4.224657
2932.250, 4.046331
2934.179, 3.618084
2936.107, 3.100484
2938.036, 2.281388
2939.964, 1.108405
2941.893, 0.7163297
2943.821, 3.039230
2945.750, 2.367551
2947.678, 3.437128
2949.607, 7.772825
2951.535, 7.013809
2953.464, 6.649755
2955.392, 6.037988
2957.321, 1.444920
2959.249, 1.741117
2961.177, 4.874684
2963.106, 8.144290
2965.034, 4.348254
2966.963, 2.934797
2968.891, 3.882722
2970.820, 4.516932
2972.748, 4.666778
2974.677, 3.840417
2976.605, 2.493906
2978.534, 3.744876
2980.462, 5.642774
2982.391, 6.600758
2984.319, 5.254791
2986.248, 5.643658
2988.176, 5.362610
2990.104, 3.276266
2992.033, 4.174224
2993.961, 1.704725
2995.890, -0.4535820
2997.818, 0.4823305
2999.747, 2.166899
3001.675, 2.888753
3003.604, 2.212883
3005.532, -4.2872690E-02
3007.461, 4.330002
3009.389, 6.526921
3011.318, 3.143401
3013.246, 0.5714692
3015.175, 1.980023
3017.103, 3.736900
3019.031, 1.929068
3020.960, 4.042677
3022.888, 5.590520
3024.817, 5.150929
3026.745, 2.369751
3028.674, 4.061401
3030.602, 4.759648
3032.531, 2.128882
3034.459, 3.967693
3036.388, 5.058135
3038.316, 4.418867
3040.245, 1.951462
3042.173, -1.126123
3044.102, -1.883752
3046.030, -0.4764371
3047.958, 0.9348478
3049.887, 1.530955
3051.815, 2.631867
3053.744, 3.419351
3055.672, 4.078621
3057.601, 3.828009
3059.529, 4.303588
3061.458, 2.249206
3063.386, 4.081149
3065.315, 2.630242
3067.243, -0.1673482
3069.172, 1.485573
3071.100, 1.703491
3073.029, 3.209447
3074.957, 5.003111
3076.885, 4.063396
3078.814, 4.239756
3080.742, 2.253248
3082.671, 3.169185
3084.599, 1.580953
3086.528, 2.741361
3088.456, 4.131067
3090.385, 2.880596
3092.313, 0.9285237
3094.242, -5.5090349E-02
3096.170, 0.1421220
3098.099, -8.2970172E-02
3100.027, 1.507590
3101.956, 1.711703
3103.884, 2.718276
3105.813, 4.789268
3107.741, 3.335901
3109.669, 1.478659
3111.598, 1.027269
3113.526, 2.734041
3115.455, 3.704566
3117.383, 3.065243
3119.312, 1.403805
3121.240, 3.451205
3123.169, 0.2932505
3125.097, -2.502222
3127.026, -1.005058
3128.954, 1.093044
3130.883, 1.793988
3132.811, 2.982611
3134.740, 5.643714
3136.668, 1.585880
3138.596, 2.539611
3140.525, 4.658887
3142.453, 1.570463
3144.382, 0.9976413
3146.310, 0.8930896
3148.239, 1.936747
3150.167, 2.185274
3152.096, 2.284916
3154.024, 3.170059
3155.953, 2.327992
3157.881, 1.040382
3159.810, 0.7456672
3161.738, -1.602512
3163.667, -2.986656
3165.595, 3.380484
3167.523, -2.070692
3169.452, -1.566642
3171.380, 3.520648
3173.309, 1.085922
3175.237, 2.024485
3177.166, 4.276200
3179.094, 4.673967
3181.023, -2.6689760E-02
3182.951, -2.2566380E-02
3184.880, 1.940350
3186.808, 3.266413
3188.737, 1.963462
3190.665, 0.9948906
3192.594, 1.805426
3194.522, 3.111729
3196.450, 2.378080
3198.379, 2.913709
3200.307, 1.008756
3202.236, -1.019451
3204.164, 1.972919
3206.093, 2.075124
3208.021, 9.4605677E-02
3209.950, -0.8987006
3211.878, 2.963005
3213.807, -0.6410776
3215.735, -0.8769229
3217.664, 0.4081613
3219.592, -2.063210
3221.521, 3.528653
3223.449, 3.186249
3225.377, 1.387396
3227.306, 4.383578
3229.234, 0.1655841
3231.163, -0.5942744
3233.091, 2.231674
3235.020, 6.283673
3236.948, 5.140378
3238.877, 3.524069
3240.805, 2.697242
3242.734, 2.660994
3244.662, 2.481673
3246.591, 2.643365
3248.519, 2.483017
3250.448, 2.490551
3252.376, 2.104091
3254.304, -6.7329191E-02
3256.233, -0.9044992
3258.161, -0.8603536
3260.090, -2.644359
3262.018, -1.641091
3263.947, -2.291407
3265.875, 2.421123
3267.804, -2.110259
3269.732, 0.4803277
3271.661, 1.547674
3273.589, 0.8020979
3275.518, -2.5414120E-02
3277.446, 2.599056
3279.375, 0.9805244
3281.303, 0.7682215
3283.231, 4.121095
3285.160, 6.118307
3287.088, 4.542783
3289.017, -0.7845518
3290.945, -4.452111
3292.874, 1.026142
3294.802, -2.5723141E-02
3296.731, -0.3255909
3298.659, -0.8141453
3300.588, -3.207276
3302.516, 1.743065
3304.445, 3.665874
3306.373, 3.592120
3308.302, 3.341012
3310.230, 3.236652
3312.158, 3.229920
3314.087, 0.8526108
3316.015, -1.217057
3317.944, 2.338517
3319.872, 0.1813415
3321.801, 0.7348768
3323.729, 1.605241
3325.658, -0.3284083
3327.586, -0.6049125
3329.515, 1.956514
3331.443, 3.007697
3333.372, 1.089699
3335.300, -2.242455
3337.229, -1.403098
3339.157, 0.5195596
3341.085, 1.986263
3343.014, 2.546184
3344.942, 2.882447
3346.871, 0.4370036
3348.799, 0.2640454
3350.728, 3.495860
3352.656, 5.924445
3354.585, 1.793003
3356.513, 0.5411085
3358.442, 0.9684722
3360.370, -0.5720957
3362.299, 1.631568
3364.227, 1.607991
3366.156, 0.5446097
3368.084, -0.7554858
3370.012, 0.3931544
3371.941, -0.8891824
3373.869, 2.585800
3375.798, 2.500948
3377.726, 3.942613
3379.655, 3.935440
3381.583, 4.232089
3383.512, 3.402981
3385.440, 3.403924
3387.369, 2.731535
3389.297, 2.296155
3391.226, 2.912831
3393.154, 1.356160
3395.083, 3.117754
3397.011, 2.805891
3398.939, 0.5123930
3400.868, 1.720411
3402.796, -0.4440269
3404.725, -1.314426
3406.653, -1.840845
3408.582, -1.063380
3410.510, -1.750917
3412.439, -1.497053
3414.367, -1.541299
3416.296, -0.8952498
3418.224, 0.1966829
3420.153, 1.528610
3422.081, 2.441040
3424.010, 0.2555505
3425.938, -1.414314
3427.866, -1.148520
3429.795, -0.3304637
3431.723, -4.4710219E-02
3433.652, 1.785980
3435.580, 2.779724
3437.509, 1.394629
3439.437, -0.7696154
3441.366, -1.519204
3443.294, -8.4008448E-02
3445.223, 2.002570
3447.151, 0.3024062
3449.080, 1.693092
3451.008, -7.7442132E-02
3452.937, 1.212517
3454.865, -1.664011
3456.793, -3.693428
3458.722, -3.560459
##END=



