##NAMES=Senegalite
##RRUFFID=R050239
##IDEAL CHEMISTRY=Al_2_(PO_4_)(OH)_3_·H_2_O
##LOCALITY=Kourondicko iron ore (magnetite) deposit, Faleme River Basin, Senegal
##OWNER=RRUFF
##SOURCE=Marcus Origlieri
##DESCRIPTION=Colorless prismatic crystals
##STATUS=The identification of this mineral has been confirmed by X-ray diffraction and chemical analysis
##URL=https://www.rruff.net/odr/rruff_sample/R050239
##MEASURED CHEMISTRY=Al_2.00_P_1.00_O_4_(OH)_3_·H_2_O
##DIFFRACTION SAMPLE DESCRIPTION=Powder
##CELL PARAMETERS=a: 7.659 b: 9.6893 c: 7.5957 alpha: 90 beta: 90 gamma: 90 volume: 563.68 crystal system: orthorhombic
##FILETYPE=Raman RAW
##RAMAN WAVELENGTH=532

86.05151, 95.29864
87.97998, 103.3102
89.90845, 121.0062
91.83691, 141.6653
93.76538, 164.9380
95.69385, 191.1642
97.62231, 220.6575
99.55078, 253.0350
101.4792, 288.8908
103.4077, 326.6983
105.3362, 367.3210
107.2646, 413.6819
109.1931, 463.7477
111.1216, 521.3770
113.0500, 588.2166
114.9785, 666.0662
116.9070, 752.6238
118.8354, 852.8206
120.7639, 965.3973
122.6924, 1075.304
124.6208, 1173.798
126.5493, 1270.066
128.4778, 1360.238
130.4063, 1412.663
132.3347, 1458.564
134.2632, 1510.269
136.1917, 1575.729
138.1201, 1611.669
140.0486, 1613.515
141.9771, 1590.284
143.9055, 1562.855
145.8340, 1525.285
147.7625, 1490.067
149.6909, 1462.053
151.6194, 1444.280
153.5479, 1428.766
155.4763, 1413.177
157.4048, 1399.186
159.3333, 1391.472
161.2617, 1392.898
163.1902, 1399.060
165.1187, 1408.773
167.0471, 1423.943
168.9756, 1438.221
170.9041, 1449.966
172.8325, 1459.410
174.7610, 1467.582
176.6895, 1471.610
178.6179, 1475.747
180.5464, 1484.092
182.4749, 1497.248
184.4033, 1512.406
186.3318, 1527.950
188.2603, 1543.364
190.1887, 1562.739
192.1172, 1590.257
194.0457, 1619.755
195.9741, 1645.633
197.9026, 1668.013
199.8311, 1685.477
201.7595, 1696.775
203.6880, 1700.694
205.6165, 1702.819
207.5449, 1705.462
209.4734, 1705.479
211.4019, 1698.350
213.3303, 1671.196
215.2588, 1648.219
217.1873, 1636.428
219.1157, 1635.063
221.0442, 1642.690
222.9727, 1660.069
224.9011, 1686.046
226.8296, 1721.348
228.7581, 1770.717
230.6865, 1823.777
232.6150, 1881.831
234.5435, 1947.549
236.4719, 1997.348
238.4004, 2030.874
240.3289, 2046.994
242.2573, 2043.360
244.1858, 2012.069
246.1143, 1973.457
248.0427, 1934.977
249.9712, 1895.143
251.8997, 1860.826
253.8281, 1830.681
255.7566, 1807.096
257.6851, 1791.601
259.6135, 1785.881
261.5420, 1787.039
263.4705, 1793.273
265.3989, 1805.037
267.3274, 1822.573
269.2559, 1845.383
271.1843, 1874.564
273.1128, 1910.883
275.0413, 1965.295
276.9697, 2015.522
278.8982, 2055.014
280.8267, 2082.626
282.7551, 2103.794
284.6836, 2108.983
286.6121, 2110.984
288.5405, 2125.120
290.4690, 2160.227
292.3975, 2199.927
294.3259, 2245.905
296.2544, 2297.216
298.1829, 2340.193
300.1113, 2372.100
302.0398, 2394.458
303.9683, 2406.568
305.8967, 2404.944
307.8252, 2397.192
309.7537, 2379.502
311.6821, 2354.130
313.6106, 2333.570
315.5391, 2319.935
317.4675, 2311.017
319.3960, 2306.233
321.3245, 2305.963
323.2529, 2308.155
325.1814, 2313.334
327.1099, 2321.036
329.0383, 2329.241
330.9668, 2348.530
332.8953, 2361.275
334.8238, 2353.396
336.7522, 2324.379
338.6807, 2291.106
340.6092, 2253.225
342.5376, 2213.729
344.4661, 2182.148
346.3946, 2159.726
348.3230, 2143.007
350.2515, 2130.578
352.1800, 2121.537
354.1084, 2119.191
356.0369, 2123.554
357.9654, 2134.132
359.8938, 2151.904
361.8223, 2177.728
363.7508, 2207.709
365.6792, 2245.163
367.6077, 2289.826
369.5362, 2323.872
371.4646, 2345.754
373.3931, 2358.134
375.3216, 2360.536
377.2500, 2351.659
379.1785, 2340.836
381.1070, 2329.814
383.0354, 2318.623
384.9639, 2307.562
386.8924, 2293.523
388.8208, 2281.578
390.7493, 2275.467
392.6778, 2275.141
394.6062, 2274.829
396.5347, 2271.269
398.4632, 2267.481
400.3916, 2268.818
402.3201, 2278.151
404.2486, 2289.516
406.1770, 2301.131
408.1055, 2313.218
410.0340, 2329.206
411.9624, 2350.072
413.8909, 2374.559
415.8194, 2402.356
417.7478, 2433.592
419.6763, 2467.112
421.6048, 2502.372
423.5332, 2539.610
425.4617, 2580.539
427.3902, 2627.802
429.3186, 2676.321
431.2471, 2722.627
433.1756, 2766.294
435.1040, 2815.735
437.0325, 2877.360
438.9610, 2943.122
440.8894, 3005.141
442.8179, 3069.230
444.7464, 3123.951
446.6748, 3173.030
448.6033, 3212.520
450.5318, 3231.326
452.4602, 3217.834
454.3887, 3193.042
456.3172, 3164.033
458.2456, 3121.251
460.1741, 3095.457
462.1026, 3087.492
464.0310, 3096.513
465.9595, 3117.706
467.8880, 3150.968
469.8164, 3197.927
471.7449, 3259.833
473.6734, 3336.905
475.6018, 3419.449
477.5303, 3535.855
479.4588, 3632.036
481.3872, 3688.099
483.3157, 3707.705
485.2442, 3675.573
487.1726, 3571.599
489.1011, 3428.602
491.0296, 3284.570
492.9580, 3128.132
494.8865, 2994.157
496.8150, 2898.221
498.7434, 2835.029
500.6719, 2781.391
502.6004, 2738.793
504.5288, 2703.514
506.4573, 2675.619
508.3858, 2654.965
510.3142, 2638.723
512.2427, 2629.006
514.1711, 2622.615
516.0996, 2616.857
518.0281, 2609.082
519.9565, 2604.846
521.8850, 2603.761
523.8135, 2606.449
525.7419, 2613.769
527.6704, 2627.762
529.5989, 2643.298
531.5273, 2657.745
533.4558, 2670.276
535.3843, 2686.308
537.3127, 2709.483
539.2412, 2734.003
541.1697, 2756.195
543.0981, 2776.475
545.0266, 2795.483
546.9551, 2815.080
548.8835, 2833.894
550.8120, 2848.667
552.7405, 2858.707
554.6689, 2866.220
556.5974, 2869.273
558.5259, 2869.205
560.4543, 2871.247
562.3828, 2880.167
564.3113, 2887.160
566.2397, 2887.088
568.1682, 2877.558
570.0967, 2873.213
572.0251, 2878.747
573.9536, 2887.585
575.8821, 2894.599
577.8105, 2899.203
579.7390, 2903.046
581.6675, 2903.744
583.5960, 2904.139
585.5245, 2910.390
587.4529, 2924.347
589.3814, 2939.796
591.3099, 2954.306
593.2383, 2968.301
595.1668, 2984.675
597.0953, 3008.214
599.0237, 3030.130
600.9522, 3044.778
602.8807, 3052.180
604.8091, 3063.286
606.7376, 3083.104
608.6661, 3104.094
610.5945, 3120.642
612.5230, 3128.885
614.4515, 3139.674
616.3799, 3156.011
618.3084, 3174.367
620.2369, 3189.906
622.1653, 3202.601
624.0938, 3213.729
626.0223, 3226.762
627.9507, 3239.446
629.8792, 3242.556
631.8077, 3230.202
633.7361, 3214.799
635.6646, 3198.440
637.5931, 3181.096
639.5215, 3163.124
641.4500, 3144.027
643.3785, 3124.659
645.3069, 3105.448
647.2354, 3086.564
649.1639, 3067.540
651.0923, 3048.886
653.0208, 3029.909
654.9493, 3009.045
656.8777, 2985.394
658.8062, 2965.333
660.7347, 2949.274
662.6631, 2937.430
664.5916, 2930.724
666.5201, 2931.212
668.4485, 2933.909
670.3770, 2939.482
672.3055, 2947.075
674.2339, 2955.830
676.1624, 2969.033
678.0909, 2977.465
680.0193, 2977.714
681.9478, 2971.172
683.8763, 2965.322
685.8047, 2959.033
687.7332, 2954.544
689.6617, 2952.160
691.5901, 2951.900
693.5186, 2955.149
695.4471, 2962.663
697.3755, 2973.352
699.3040, 2987.038
701.2325, 3004.099
703.1609, 3022.181
705.0894, 3044.703
707.0179, 3065.208
708.9464, 3080.280
710.8748, 3090.175
712.8033, 3094.305
714.7318, 3091.086
716.6602, 3083.089
718.5887, 3071.240
720.5172, 3051.844
722.4456, 3036.505
724.3741, 3027.024
726.3026, 3021.608
728.2310, 3018.345
730.1595, 3017.949
732.0880, 3017.342
734.0164, 3014.053
735.9449, 3010.555
737.8734, 3011.181
739.8018, 3019.947
741.7303, 3026.433
743.6588, 3027.560
745.5872, 3025.835
747.5157, 3025.291
749.4442, 3026.686
751.3726, 3028.251
753.3011, 3029.179
755.2296, 3029.714
757.1580, 3030.899
759.0865, 3032.228
761.0150, 3034.200
762.9434, 3036.802
764.8719, 3040.083
766.8004, 3044.361
768.7288, 3050.552
770.6573, 3057.008
772.5858, 3064.252
774.5142, 3072.145
776.4427, 3077.423
778.3712, 3076.671
780.2996, 3077.122
782.2281, 3081.218
784.1566, 3088.081
786.0850, 3095.931
788.0135, 3105.583
789.9420, 3114.210
791.8704, 3120.585
793.7989, 3124.677
795.7274, 3128.649
797.6558, 3134.132
799.5843, 3138.670
801.5128, 3139.955
803.4412, 3139.179
805.3697, 3141.818
807.2982, 3151.215
809.2266, 3161.200
811.1551, 3169.046
813.0836, 3174.492
815.0120, 3180.134
816.9405, 3184.382
818.8690, 3190.336
820.7974, 3200.988
822.7259, 3215.449
824.6544, 3228.059
826.5828, 3237.200
828.5113, 3245.089
830.4398, 3253.038
832.3682, 3261.126
834.2967, 3265.922
836.2252, 3263.332
838.1536, 3261.470
840.0821, 3265.787
842.0106, 3275.179
843.9390, 3281.473
845.8675, 3282.453
847.7960, 3282.409
849.7244, 3282.880
851.6529, 3283.829
853.5814, 3286.653
855.5098, 3292.427
857.4383, 3298.642
859.3668, 3304.900
861.2952, 3310.930
863.2237, 3315.262
865.1522, 3317.238
867.0806, 3318.372
869.0091, 3318.285
870.9376, 3317.218
872.8660, 3319.784
874.7945, 3330.225
876.7230, 3339.537
878.6514, 3343.407
880.5799, 3342.942
882.5084, 3345.931
884.4368, 3354.690
886.3653, 3363.141
888.2938, 3369.061
890.2222, 3373.100
892.1507, 3376.704
894.0792, 3380.998
896.0076, 3384.113
897.9361, 3383.869
899.8646, 3382.169
901.7930, 3385.126
903.7215, 3394.210
905.6500, 3404.181
907.5784, 3414.469
909.5069, 3424.241
911.4354, 3432.124
913.3638, 3437.269
915.2923, 3442.001
917.2208, 3446.633
919.1492, 3451.211
921.0777, 3455.719
923.0062, 3459.460
924.9346, 3463.983
926.8631, 3468.396
928.7916, 3473.912
930.7200, 3483.214
932.6485, 3497.867
934.5770, 3507.196
936.5054, 3505.419
938.4339, 3500.249
940.3624, 3497.047
942.2908, 3496.753
944.2193, 3497.130
946.1478, 3495.982
948.0762, 3497.154
950.0047, 3505.154
951.9332, 3518.945
953.8616, 3528.477
955.7901, 3528.087
957.7186, 3527.857
959.6470, 3533.707
961.5755, 3546.057
963.5040, 3555.441
965.4324, 3559.540
967.3609, 3564.604
969.2894, 3573.577
971.2178, 3585.850
973.1463, 3596.625
975.0748, 3602.173
977.0032, 3612.882
978.9317, 3635.443
980.8602, 3664.222
982.7886, 3689.928
984.7171, 3710.318
986.6456, 3730.693
988.5740, 3750.610
990.5025, 3771.557
992.4310, 3796.254
994.3594, 3827.014
996.2879, 3856.194
998.2164, 3880.640
1000.145, 3905.531
1002.073, 3933.154
1004.002, 3963.328
1005.930, 4001.947
1007.859, 4052.569
1009.787, 4110.162
1011.716, 4173.677
1013.644, 4243.530
1015.573, 4314.422
1017.501, 4383.207
1019.430, 4456.307
1021.358, 4539.118
1023.286, 4627.736
1025.215, 4712.210
1027.143, 4796.406
1029.072, 4865.563
1031.000, 4917.635
1032.929, 4949.815
1034.857, 4956.134
1036.786, 4934.239
1038.714, 4889.718
1040.643, 4817.405
1042.571, 4729.823
1044.500, 4633.187
1046.428, 4524.279
1048.356, 4428.720
1050.285, 4343.200
1052.213, 4276.416
1054.142, 4236.195
1056.070, 4218.892
1057.999, 4214.016
1059.927, 4225.707
1061.856, 4242.237
1063.784, 4263.619
1065.713, 4286.519
1067.641, 4302.575
1069.570, 4321.254
1071.498, 4319.963
1073.427, 4287.582
1075.355, 4239.907
1077.284, 4192.190
1079.212, 4144.085
1081.141, 4098.813
1083.069, 4053.266
1084.997, 4015.104
1086.926, 3990.071
1088.854, 3977.885
1090.783, 3965.259
1092.711, 3948.554
1094.640, 3935.139
1096.568, 3927.764
1098.497, 3925.029
1100.425, 3923.619
1102.354, 3924.665
1104.282, 3924.618
1106.211, 3920.207
1108.139, 3916.273
1110.068, 3917.933
1111.996, 3925.321
1113.924, 3930.940
1115.853, 3931.702
1117.781, 3932.053
1119.710, 3932.816
1121.638, 3934.300
1123.567, 3940.722
1125.495, 3959.863
1127.424, 3974.599
1129.352, 3977.713
1131.281, 3976.186
1133.209, 3981.813
1135.138, 3995.208
1137.066, 4010.847
1138.995, 4027.364
1140.923, 4045.934
1142.851, 4067.188
1144.780, 4090.947
1146.708, 4115.922
1148.637, 4143.647
1150.565, 4170.100
1152.494, 4197.437
1154.422, 4222.475
1156.351, 4236.952
1158.279, 4240.487
1160.208, 4234.418
1162.136, 4213.586
1164.065, 4187.085
1165.993, 4160.988
1167.922, 4135.360
1169.850, 4114.907
1171.778, 4102.358
1173.707, 4091.943
1175.635, 4079.007
1177.564, 4066.005
1179.492, 4061.143
1181.421, 4068.875
1183.349, 4075.630
1185.278, 4078.242
1187.206, 4079.149
1189.135, 4080.464
1191.063, 4082.124
1192.992, 4082.953
1194.920, 4080.107
1196.849, 4079.691
1198.777, 4086.751
1200.705, 4098.507
1202.634, 4107.614
1204.562, 4113.575
1206.491, 4119.757
1208.419, 4126.520
1210.348, 4133.961
1212.276, 4142.089
1214.205, 4150.507
1216.133, 4157.670
1218.062, 4161.423
1219.990, 4165.268
1221.919, 4172.544
1223.847, 4180.796
1225.776, 4183.144
1227.704, 4176.210
1229.632, 4172.817
1231.561, 4176.793
1233.489, 4182.892
1235.418, 4186.937
1237.346, 4189.141
1239.275, 4192.144
1241.203, 4196.528
1243.132, 4199.943
1245.060, 4200.077
1246.989, 4199.492
1248.917, 4201.910
1250.846, 4208.270
1252.774, 4215.635
1254.703, 4225.298
1256.631, 4234.377
1258.559, 4241.507
1260.488, 4246.499
1262.416, 4249.188
1264.345, 4244.232
1266.273, 4244.264
1268.202, 4255.841
1270.130, 4269.604
1272.059, 4275.784
1273.987, 4275.359
1275.916, 4277.754
1277.844, 4286.770
1279.773, 4294.208
1281.701, 4295.521
1283.630, 4293.430
1285.558, 4291.218
1287.486, 4288.101
1289.415, 4288.608
1291.343, 4295.971
1293.272, 4304.935
1295.200, 4315.138
1297.129, 4325.788
1299.057, 4331.400
1300.986, 4323.040
1302.914, 4322.366
1304.843, 4336.375
1306.771, 4354.394
1308.700, 4366.952
1310.628, 4373.875
1312.557, 4381.263
1314.485, 4389.656
1316.413, 4396.315
1318.342, 4397.689
1320.270, 4397.816
1322.199, 4402.915
1324.127, 4413.703
1326.056, 4420.271
1327.984, 4418.579
1329.913, 4417.535
1331.841, 4422.055
1333.770, 4430.103
1335.698, 4436.254
1337.627, 4438.141
1339.555, 4443.434
1341.484, 4454.653
1343.412, 4466.458
1345.340, 4476.901
1347.269, 4485.638
1349.197, 4490.813
1351.126, 4488.628
1353.054, 4490.313
1354.983, 4501.326
1356.911, 4513.116
1358.840, 4518.212
1360.768, 4517.873
1362.697, 4519.333
1364.625, 4523.823
1366.554, 4527.984
1368.482, 4528.557
1370.411, 4530.762
1372.339, 4541.053
1374.267, 4558.645
1376.196, 4570.544
1378.124, 4573.285
1380.053, 4574.214
1381.981, 4572.255
1383.910, 4571.229
1385.838, 4576.183
1387.767, 4588.774
1389.695, 4598.297
1391.624, 4604.558
1393.552, 4608.466
1395.481, 4608.474
1397.409, 4607.550
1399.338, 4609.995
1401.266, 4616.983
1403.194, 4623.385
1405.123, 4628.272
1407.051, 4633.838
1408.980, 4639.414
1410.908, 4646.541
1412.837, 4659.079
1414.765, 4677.232
1416.694, 4690.265
1418.622, 4694.757
1420.551, 4696.385
1422.479, 4695.027
1424.408, 4693.335
1426.336, 4695.183
1428.265, 4700.743
1430.193, 4707.970
1432.121, 4718.629
1434.050, 4728.205
1435.978, 4735.887
1437.907, 4741.606
1439.835, 4744.509
1441.764, 4743.665
1443.692, 4745.271
1445.621, 4753.122
1447.549, 4759.386
1449.478, 4758.524
1451.406, 4755.700
1453.335, 4759.924
1455.263, 4774.333
1457.192, 4783.004
1459.120, 4781.419
1461.048, 4780.040
1462.977, 4781.909
1464.905, 4786.429
1466.834, 4793.563
1468.762, 4804.103
1470.691, 4813.293
1472.619, 4820.387
1474.548, 4827.060
1476.476, 4832.750
1478.405, 4838.151
1480.333, 4843.964
1482.262, 4849.836
1484.190, 4855.275
1486.119, 4859.421
1488.047, 4865.182
1489.975, 4877.650
1491.904, 4889.773
1493.832, 4893.948
1495.761, 4891.835
1497.689, 4894.264
1499.618, 4903.347
1501.546, 4912.575
1503.475, 4918.891
1505.403, 4924.996
1507.332, 4933.451
1509.260, 4943.419
1511.189, 4949.685
1513.117, 4951.201
1515.046, 4951.499
1516.974, 4948.972
1518.902, 4948.009
1520.831, 4953.034
1522.759, 4961.678
1524.688, 4966.177
1526.616, 4963.975
1528.545, 4964.419
1530.473, 4970.250
1532.402, 4975.856
1534.330, 4977.368
1536.259, 4977.804
1538.187, 4982.097
1540.116, 4990.481
1542.044, 5001.618
1543.973, 5020.987
1545.901, 5035.819
1547.829, 5039.792
1549.758, 5039.845
1551.686, 5042.865
1553.615, 5048.650
1555.543, 5054.196
1557.472, 5058.005
1559.400, 5064.250
1561.329, 5077.215
1563.257, 5089.781
1565.186, 5095.975
1567.114, 5098.052
1569.043, 5103.508
1570.971, 5113.771
1572.900, 5118.967
1574.828, 5110.153
1576.756, 5105.402
1578.685, 5119.833
1580.613, 5140.140
1582.542, 5145.438
1584.470, 5136.749
1586.399, 5139.231
1588.327, 5162.925
1590.256, 5182.238
1592.184, 5184.303
1594.113, 5181.920
1596.041, 5183.970
1597.970, 5189.705
1599.898, 5196.644
1601.827, 5203.914
1603.755, 5213.190
1605.683, 5228.183
1607.612, 5239.938
1609.540, 5241.386
1611.469, 5238.228
1613.397, 5241.050
1615.326, 5250.579
1617.254, 5256.463
1619.183, 5254.902
1621.111, 5255.960
1623.040, 5267.029
1624.968, 5278.246
1626.897, 5279.930
1628.825, 5274.188
1630.754, 5275.605
1632.682, 5286.756
1634.610, 5296.545
1636.539, 5304.321
1638.467, 5309.177
1640.396, 5306.876
1642.324, 5303.686
1644.253, 5310.286
1646.181, 5328.242
1648.110, 5339.031
1650.038, 5336.573
1651.967, 5336.839
1653.895, 5340.669
1655.824, 5349.259
1657.752, 5368.288
1659.681, 5391.845
1661.609, 5402.526
1663.537, 5395.750
1665.466, 5392.264
1667.394, 5395.884
1669.323, 5399.841
1671.251, 5403.620
1673.180, 5406.748
1675.108, 5407.147
1677.037, 5405.924
1678.965, 5411.489
1680.894, 5429.897
1682.822, 5441.835
1684.751, 5438.985
1686.679, 5438.468
1688.608, 5447.577
1690.536, 5461.489
1692.464, 5475.165
1694.393, 5488.301
1696.321, 5497.546
1698.250, 5500.313
1700.178, 5502.471
1702.107, 5503.538
1704.035, 5505.072
1705.964, 5508.788
1707.892, 5513.421
1709.821, 5516.857
1711.749, 5519.477
1713.678, 5523.623
1715.606, 5532.067
1717.535, 5539.197
1719.463, 5540.776
1721.391, 5544.659
1723.320, 5557.405
1725.248, 5573.429
1727.177, 5582.031
1729.105, 5580.936
1731.034, 5581.221
1732.962, 5583.637
1734.891, 5586.065
1736.819, 5587.718
1738.748, 5591.400
1740.676, 5603.115
1742.605, 5617.489
1744.533, 5621.568
1746.462, 5612.646
1748.390, 5611.827
1750.318, 5624.789
1752.247, 5636.182
1754.175, 5642.159
1756.104, 5646.821
1758.032, 5649.999
1759.961, 5653.657
1761.889, 5663.107
1763.818, 5679.541
1765.746, 5688.567
1767.675, 5685.039
1769.603, 5683.763
1771.532, 5690.164
1773.460, 5696.945
1775.389, 5701.929
1777.317, 5705.673
1779.245, 5708.457
1781.174, 5710.527
1783.102, 5712.180
1785.031, 5710.997
1786.959, 5714.591
1788.888, 5727.831
1790.816, 5739.973
1792.745, 5746.786
1794.673, 5749.569
1796.602, 5747.940
1798.530, 5743.289
1800.459, 5746.041
1802.387, 5758.809
1804.316, 5769.609
1806.244, 5776.615
1808.172, 5781.296
1810.101, 5781.782
1812.029, 5781.808
1813.958, 5785.097
1815.886, 5790.303
1817.815, 5793.637
1819.743, 5795.305
1821.672, 5797.179
1823.600, 5799.901
1825.529, 5803.369
1827.457, 5805.747
1829.386, 5811.158
1831.314, 5823.515
1833.243, 5839.540
1835.171, 5855.041
1837.099, 5869.224
1839.028, 5878.821
1840.956, 5881.932
1842.885, 5884.634
1844.813, 5888.431
1846.742, 5891.667
1848.670, 5894.168
1850.599, 5896.023
1852.527, 5897.748
1854.456, 5899.678
1856.384, 5900.610
1858.313, 5900.034
1860.241, 5905.658
1862.170, 5924.257
1864.098, 5938.997
1866.026, 5941.087
1867.955, 5942.214
1869.883, 5949.847
1871.812, 5960.548
1873.740, 5968.575
1875.669, 5973.530
1877.597, 5979.552
1879.526, 5992.282
1881.454, 5995.484
1883.383, 5979.608
1885.311, 5968.401
1887.240, 5972.016
1889.168, 5982.729
1891.097, 5997.782
1893.025, 6014.470
1894.953, 6023.355
1896.882, 6021.429
1898.810, 6026.027
1900.739, 6039.028
1902.667, 6049.752
1904.596, 6054.784
1906.524, 6057.519
1908.453, 6060.301
1910.381, 6061.419
1912.310, 6060.264
1914.238, 6057.449
1916.167, 6051.580
1918.095, 6043.056
1920.024, 6039.354
1921.952, 6041.150
1923.880, 6047.086
1925.809, 6060.066
1927.737, 6071.017
1929.666, 6073.145
1931.594, 6072.582
1933.523, 6076.786
1935.451, 6083.577
1937.380, 6086.020
1939.308, 6083.991
1941.237, 6081.347
1943.165, 6073.407
1945.094, 6075.577
1947.022, 6100.491
1948.951, 6122.533
1950.879, 6129.042
1952.807, 6127.817
1954.736, 6125.349
1956.664, 6122.339
1958.593, 6121.255
1960.521, 6123.848
1962.450, 6122.737
1964.378, 6113.963
1966.307, 6110.966
1968.235, 6116.729
1970.164, 6126.051
1972.092, 6138.219
1974.021, 6151.144
1975.949, 6162.665
1977.878, 6172.843
1979.806, 6182.251
1981.734, 6190.616
1983.663, 6200.189
1985.591, 6211.989
1987.520, 6220.337
1989.448, 6225.470
1991.377, 6225.392
1993.305, 6212.975
1995.234, 6203.317
1997.162, 6210.049
1999.091, 6222.372
2001.019, 6226.055
2002.948, 6223.285
2004.876, 6222.742
2006.805, 6224.659
2008.733, 6229.685
2010.661, 6241.420
2012.590, 6250.179
2014.518, 6251.774
2016.447, 6253.646
2018.375, 6262.142
2020.304, 6268.250
2022.232, 6256.563
2024.161, 6239.799
2026.089, 6249.897
2028.018, 6286.614
2029.946, 6302.099
2031.875, 6290.386
2033.803, 6285.085
2035.732, 6293.678
2037.660, 6297.601
2039.589, 6285.155
2041.517, 6275.546
2043.445, 6283.065
2045.374, 6295.089
2047.302, 6300.724
2049.231, 6302.851
2051.159, 6306.718
2053.088, 6312.700
2055.016, 6317.912
2056.945, 6321.187
2058.873, 6326.654
2060.802, 6333.956
2062.730, 6342.263
2064.659, 6352.981
2066.587, 6360.714
2068.516, 6359.377
2070.444, 6356.573
2072.373, 6364.011
2074.301, 6375.653
2076.229, 6373.649
2078.158, 6358.938
2080.086, 6353.684
2082.015, 6360.120
2083.943, 6366.222
2085.872, 6369.681
2087.800, 6374.718
2089.729, 6380.491
2091.657, 6390.136
2093.586, 6410.313
2095.514, 6429.210
2097.443, 6435.348
2099.371, 6434.135
2101.300, 6433.741
2103.228, 6434.300
2105.156, 6437.731
2107.085, 6445.525
2109.013, 6450.485
2110.942, 6451.163
2112.870, 6452.399
2114.799, 6455.749
2116.727, 6458.829
2118.656, 6459.426
2120.584, 6461.470
2122.513, 6470.024
2124.441, 6477.953
2126.370, 6475.363
2128.298, 6466.280
2130.227, 6460.265
2132.155, 6457.353
2134.083, 6455.860
2136.012, 6456.245
2137.940, 6459.861
2139.869, 6469.581
2141.797, 6478.235
2143.726, 6484.965
2145.654, 6488.710
2147.583, 6483.962
2149.511, 6480.090
2151.440, 6486.560
2153.368, 6494.904
2155.297, 6492.593
2157.225, 6484.407
2159.154, 6486.055
2161.082, 6496.999
2163.010, 6503.368
2164.939, 6504.258
2166.867, 6506.266
2168.796, 6510.099
2170.724, 6513.893
2172.653, 6515.498
2174.581, 6519.042
2176.510, 6530.820
2178.438, 6539.905
2180.367, 6535.872
2182.295, 6529.681
2184.224, 6533.145
2186.152, 6543.366
2188.081, 6554.103
2190.009, 6564.704
2191.938, 6574.631
2193.866, 6583.269
2195.794, 6586.479
2197.723, 6581.717
2199.651, 6582.129
2201.580, 6594.694
2203.508, 6602.918
2205.437, 6600.642
2207.365, 6596.218
2209.294, 6591.508
2211.222, 6589.288
2213.151, 6592.662
2215.079, 6598.847
2217.008, 6603.388
2218.936, 6607.399
2220.865, 6614.584
2222.793, 6624.448
2224.721, 6636.465
2226.650, 6650.918
2228.578, 6656.393
2230.507, 6649.990
2232.435, 6643.952
2234.364, 6639.045
2236.292, 6639.438
2238.221, 6653.942
2240.149, 6664.503
2242.078, 6659.087
2244.006, 6652.440
2245.935, 6653.243
2247.863, 6659.933
2249.792, 6673.798
2251.720, 6690.854
2253.648, 6703.098
2255.577, 6710.680
2257.505, 6712.290
2259.434, 6708.259
2261.362, 6714.369
2263.291, 6733.428
2265.219, 6742.542
2267.148, 6733.574
2269.076, 6727.405
2271.005, 6731.900
2272.933, 6735.042
2274.862, 6733.698
2276.790, 6731.529
2278.719, 6728.613
2280.647, 6727.683
2282.575, 6731.569
2284.504, 6737.678
2286.432, 6744.098
2288.361, 6749.677
2290.289, 6751.532
2292.218, 6750.833
2294.146, 6751.792
2296.075, 6754.646
2298.003, 6760.548
2299.932, 6770.288
2301.860, 6780.813
2303.789, 6795.402
2305.717, 6803.162
2307.646, 6798.527
2309.574, 6795.323
2311.502, 6797.135
2313.431, 6799.111
2315.359, 6799.745
2317.288, 6800.297
2319.216, 6802.059
2321.145, 6804.977
2323.073, 6808.980
2325.002, 6814.452
2326.930, 6822.018
2328.859, 6830.388
2330.787, 6836.723
2332.716, 6840.310
2334.644, 6840.958
2336.573, 6838.311
2338.501, 6839.740
2340.429, 6846.306
2342.358, 6845.933
2344.286, 6836.168
2346.215, 6829.958
2348.143, 6833.114
2350.072, 6834.521
2352.000, 6830.116
2353.929, 6827.167
2355.857, 6827.443
2357.786, 6829.622
2359.714, 6835.081
2361.643, 6839.756
2363.571, 6840.119
2365.500, 6839.271
2367.428, 6838.404
2369.356, 6838.676
2371.285, 6843.296
2373.213, 6849.382
2375.142, 6849.016
2377.070, 6844.522
2378.999, 6848.968
2380.927, 6862.685
2382.856, 6870.228
2384.784, 6871.779
2386.713, 6870.907
2388.641, 6867.315
2390.570, 6866.344
2392.498, 6868.651
2394.427, 6872.435
2396.355, 6879.652
2398.283, 6883.042
2400.212, 6876.266
2402.140, 6872.430
2404.069, 6882.579
2405.997, 6886.794
2407.926, 6869.854
2409.854, 6856.120
2411.783, 6862.672
2413.711, 6876.819
2415.640, 6891.185
2417.568, 6904.655
2419.497, 6913.562
2421.425, 6920.724
2423.354, 6932.749
2425.282, 6945.449
2427.210, 6949.005
2429.139, 6944.433
2431.067, 6938.243
2432.996, 6931.194
2434.924, 6924.026
2436.853, 6917.831
2438.781, 6918.491
2440.710, 6928.660
2442.638, 6937.344
2444.567, 6940.236
2446.495, 6949.173
2448.424, 6968.897
2450.352, 6977.537
2452.281, 6966.870
2454.209, 6959.038
2456.137, 6960.419
2458.066, 6965.794
2459.994, 6978.660
2461.923, 6988.630
2463.851, 6990.597
2465.780, 6989.904
2467.708, 6986.139
2469.637, 6983.698
2471.565, 6986.767
2473.494, 6990.938
2475.422, 6990.480
2477.351, 6991.737
2479.279, 7003.878
2481.208, 7020.057
2483.136, 7032.984
2485.064, 7040.857
2486.993, 7037.219
2488.921, 7026.241
2490.850, 7020.482
2492.778, 7019.257
2494.707, 7021.174
2496.635, 7025.439
2498.564, 7027.115
2500.492, 7026.079
2502.421, 7022.030
2504.349, 7013.714
2506.278, 7010.969
2508.206, 7015.234
2510.135, 7018.255
2512.063, 7020.515
2513.991, 7015.991
2515.920, 7000.998
2517.848, 6996.374
2519.777, 7011.363
2521.705, 7023.494
2523.634, 7029.201
2525.562, 7031.194
2527.491, 7026.017
2529.419, 7024.280
2531.348, 7029.912
2533.276, 7035.898
2535.205, 7035.908
2537.133, 7042.014
2539.062, 7066.172
2540.990, 7087.419
2542.918, 7094.626
2544.847, 7095.710
2546.775, 7092.545
2548.704, 7088.547
2550.632, 7085.036
2552.561, 7084.201
2554.489, 7090.340
2556.418, 7098.220
2558.346, 7103.754
2560.275, 7107.073
2562.203, 7105.881
2564.132, 7103.792
2566.060, 7106.187
2567.989, 7110.620
2569.917, 7112.464
2571.845, 7114.748
2573.774, 7125.033
2575.702, 7138.931
2577.631, 7144.619
2579.559, 7145.296
2581.488, 7151.391
2583.416, 7160.891
2585.345, 7166.708
2587.273, 7169.003
2589.202, 7170.315
2591.130, 7170.589
2593.059, 7168.954
2594.987, 7166.073
2596.916, 7160.700
2598.844, 7153.058
2600.772, 7155.839
2602.701, 7168.832
2604.629, 7181.043
2606.558, 7191.493
2608.486, 7194.755
2610.415, 7188.523
2612.343, 7187.395
2614.272, 7195.270
2616.200, 7193.271
2618.129, 7178.884
2620.057, 7173.263
2621.986, 7179.073
2623.914, 7183.941
2625.843, 7185.698
2627.771, 7189.323
2629.699, 7200.615
2631.628, 7202.502
2633.556, 7188.962
2635.485, 7187.107
2637.413, 7203.006
2639.342, 7215.740
2641.270, 7220.182
2643.199, 7226.068
2645.127, 7236.747
2647.056, 7244.880
2648.984, 7248.487
2650.913, 7250.350
2652.841, 7248.036
2654.770, 7252.737
2656.698, 7271.150
2658.626, 7284.076
2660.555, 7287.500
2662.483, 7283.001
2664.412, 7258.849
2666.340, 7249.263
2668.269, 7268.370
2670.197, 7281.846
2672.126, 7278.214
2674.054, 7276.058
2675.983, 7285.681
2677.911, 7289.698
2679.840, 7274.690
2681.768, 7268.298
2683.697, 7282.272
2685.625, 7291.931
2687.553, 7287.779
2689.482, 7285.344
2691.410, 7294.623
2693.339, 7300.121
2695.267, 7290.397
2697.196, 7286.959
2699.124, 7296.692
2701.053, 7307.773
2702.981, 7319.798
2704.910, 7324.456
2706.838, 7313.511
2708.767, 7303.623
2710.695, 7296.650
2712.624, 7299.356
2714.552, 7322.480
2716.480, 7337.006
2718.409, 7330.594
2720.337, 7322.193
2722.266, 7313.173
2724.194, 7311.456
2726.123, 7324.374
2728.051, 7335.212
2729.980, 7339.507
2731.908, 7342.045
2733.837, 7341.694
2735.765, 7345.737
2737.694, 7362.862
2739.622, 7374.456
2741.551, 7370.987
2743.479, 7370.716
2745.407, 7379.097
2747.336, 7384.216
2749.264, 7380.026
2751.193, 7378.509
2753.121, 7390.179
2755.050, 7391.424
2756.978, 7370.157
2758.907, 7359.142
2760.835, 7367.471
2762.764, 7376.890
2764.692, 7384.916
2766.621, 7390.940
2768.549, 7394.097
2770.478, 7395.033
2772.406, 7388.777
2774.334, 7394.095
2776.263, 7416.928
2778.191, 7430.148
2780.120, 7425.004
2782.048, 7420.411
2783.977, 7417.616
2785.905, 7420.910
2787.834, 7433.389
2789.762, 7436.678
2791.691, 7426.656
2793.619, 7424.156
2795.548, 7434.590
2797.476, 7441.244
2799.405, 7444.056
2801.333, 7442.832
2803.261, 7437.939
2805.190, 7436.951
2807.118, 7441.099
2809.047, 7443.066
2810.975, 7441.798
2812.904, 7448.775
2814.832, 7462.816
2816.761, 7466.125
2818.689, 7459.526
2820.618, 7456.138
2822.546, 7456.163
2824.475, 7462.233
2826.403, 7472.413
2828.332, 7470.315
2830.260, 7461.706
2832.188, 7470.712
2834.117, 7489.417
2836.045, 7493.772
2837.974, 7489.302
2839.902, 7485.223
2841.831, 7484.797
2843.759, 7499.173
2845.688, 7517.259
2847.616, 7522.130
2849.545, 7518.956
2851.473, 7513.005
2853.402, 7506.104
2855.330, 7500.244
2857.259, 7496.544
2859.187, 7500.952
2861.115, 7503.575
2863.044, 7488.134
2864.972, 7478.142
2866.901, 7496.048
2868.829, 7519.139
2870.758, 7538.292
2872.686, 7550.966
2874.615, 7549.565
2876.543, 7548.934
2878.472, 7559.244
2880.400, 7563.605
2882.329, 7551.897
2884.257, 7547.455
2886.186, 7563.211
2888.114, 7577.644
2890.042, 7587.698
2891.971, 7592.634
2893.899, 7590.772
2895.828, 7589.766
2897.756, 7590.310
2899.685, 7592.348
2901.613, 7597.072
2903.542, 7598.696
2905.470, 7597.128
2907.399, 7596.765
2909.327, 7598.112
2911.256, 7597.496
2913.184, 7595.626
2915.113, 7610.620
2917.041, 7638.649
2918.969, 7644.558
2920.898, 7635.566
2922.826, 7633.787
2924.755, 7638.468
2926.683, 7653.386
2928.612, 7670.146
2930.540, 7672.817
2932.469, 7668.583
2934.397, 7663.602
2936.326, 7662.238
2938.254, 7670.767
2940.183, 7683.013
2942.111, 7693.940
2944.040, 7704.953
2945.968, 7718.316
2947.896, 7727.333
2949.825, 7721.424
2951.753, 7720.901
2953.682, 7739.261
2955.610, 7751.714
2957.539, 7751.659
2959.467, 7748.735
2961.396, 7741.460
2963.324, 7742.534
2965.253, 7755.926
2967.181, 7765.788
2969.110, 7770.818
2971.038, 7780.337
2972.967, 7795.784
2974.895, 7802.022
2976.823, 7798.803
2978.752, 7798.347
2980.680, 7800.413
2982.609, 7804.476
2984.537, 7811.260
2986.466, 7825.331
2988.394, 7841.438
2990.323, 7849.470
2992.251, 7852.271
2994.180, 7846.645
2996.108, 7845.333
2998.037, 7867.188
2999.965, 7889.079
3001.894, 7892.136
3003.822, 7895.967
3005.750, 7910.041
3007.679, 7927.044
3009.607, 7947.913
3011.536, 7962.959
3013.464, 7966.393
3015.393, 7978.206
3017.321, 8004.933
3019.250, 8025.342
3021.178, 8037.091
3023.107, 8043.534
3025.035, 8045.371
3026.964, 8053.599
3028.892, 8067.962
3030.821, 8079.145
3032.749, 8089.927
3034.677, 8113.277
3036.606, 8142.241
3038.534, 8164.866
3040.463, 8182.893
3042.391, 8193.276
3044.320, 8206.334
3046.248, 8232.634
3048.177, 8263.835
3050.105, 8296.103
3052.034, 8329.710
3053.962, 8365.021
3055.891, 8402.418
3057.819, 8445.705
3059.748, 8477.893
3061.676, 8489.155
3063.604, 8519.479
3065.533, 8579.057
3067.461, 8625.487
3069.390, 8659.923
3071.318, 8715.390
3073.247, 8786.373
3075.175, 8834.028
3077.104, 8868.439
3079.032, 8920.691
3080.961, 8975.936
3082.889, 9007.931
3084.818, 9037.687
3086.746, 9092.873
3088.675, 9146.158
3090.603, 9180.045
3092.531, 9207.017
3094.460, 9229.924
3096.388, 9250.186
3098.317, 9267.236
3100.245, 9281.458
3102.174, 9293.945
3104.102, 9292.072
3106.031, 9272.623
3107.959, 9251.705
3109.888, 9230.399
3111.816, 9218.508
3113.745, 9208.271
3115.673, 9168.877
3117.602, 9117.994
3119.530, 9088.254
3121.458, 9065.495
3123.387, 9036.701
3125.315, 9005.068
3127.244, 8972.339
3129.172, 8940.256
3131.101, 8912.508
3133.029, 8881.678
3134.958, 8842.439
3136.886, 8814.646
3138.815, 8808.179
3140.743, 8787.333
3142.672, 8751.897
3144.600, 8730.021
3146.529, 8721.197
3148.457, 8719.477
3150.385, 8720.124
3152.314, 8710.041
3154.242, 8695.338
3156.171, 8676.865
3158.099, 8666.402
3160.028, 8682.248
3161.956, 8695.679
3163.885, 8693.107
3165.813, 8689.412
3167.742, 8689.646
3169.670, 8689.256
3171.599, 8686.166
3173.527, 8699.979
3175.456, 8731.481
3177.384, 8749.257
3179.313, 8756.091
3181.241, 8772.958
3183.169, 8796.161
3185.098, 8821.079
3187.026, 8844.252
3188.955, 8862.482
3190.883, 8876.471
3192.812, 8885.945
3194.740, 8894.514
3196.669, 8901.857
3198.597, 8913.903
3200.526, 8934.215
3202.454, 8947.010
3204.383, 8950.470
3206.311, 8955.156
3208.240, 8961.192
3210.168, 8970.808
3212.096, 8978.316
3214.025, 8962.318
3215.953, 8943.042
3217.882, 8948.691
3219.810, 8958.990
3221.739, 8959.718
3223.667, 8960.957
3225.596, 8964.775
3227.524, 8977.012
3229.453, 9001.572
3231.381, 9022.853
3233.310, 9039.817
3235.238, 9069.648
3237.167, 9111.643
3239.095, 9160.626
3241.023, 9216.747
3242.952, 9282.765
3244.880, 9352.893
3246.809, 9418.907
3248.737, 9492.175
3250.666, 9581.729
3252.594, 9674.155
3254.523, 9760.143
3256.451, 9859.279
3258.380, 9975.229
3260.308, 10078.55
3262.237, 10167.52
3264.165, 10266.91
3266.094, 10367.47
3268.022, 10436.35
3269.950, 10482.06
3271.879, 10516.75
3273.807, 10535.12
3275.736, 10532.98
3277.664, 10508.49
3279.593, 10456.35
3281.521, 10389.14
3283.450, 10306.18
3285.378, 10212.94
3287.307, 10110.49
3289.235, 10007.80
3291.164, 9908.967
3293.092, 9826.117
3295.021, 9750.592
3296.949, 9664.612
3298.877, 9584.515
3300.806, 9519.605
3302.734, 9467.442
3304.663, 9426.911
3306.591, 9392.571
3308.520, 9361.785
3310.448, 9349.077
3312.377, 9354.257
3314.305, 9349.447
3316.234, 9339.803
3318.162, 9337.486
3320.091, 9341.433
3322.019, 9350.850
3323.948, 9365.521
3325.876, 9389.350
3327.804, 9411.653
3329.733, 9426.257
3331.661, 9451.870
3333.590, 9490.924
3335.518, 9533.446
3337.447, 9576.943
3339.375, 9605.621
3341.304, 9626.022
3343.232, 9649.365
3345.161, 9671.654
3347.089, 9691.658
3349.018, 9704.138
3350.946, 9707.281
3352.875, 9701.877
3354.803, 9683.864
3356.731, 9675.623
3358.660, 9674.447
3360.588, 9648.442
3362.517, 9607.029
3364.445, 9569.738
3366.374, 9535.898
3368.302, 9508.130
3370.231, 9477.736
3372.159, 9439.111
3374.088, 9397.450
3376.016, 9352.811
3377.945, 9309.752
3379.873, 9268.644
3381.802, 9227.016
3383.730, 9183.954
3385.658, 9134.400
3387.587, 9084.587
3389.515, 9039.944
3391.444, 8999.613
3393.372, 8964.090
3395.301, 8929.615
3397.229, 8898.533
3399.158, 8860.222
3401.086, 8816.197
3403.015, 8776.596
3404.943, 8743.222
3406.872, 8723.754
3408.800, 8706.554
3410.729, 8674.881
3412.657, 8648.798
3414.585, 8644.729
3416.514, 8633.154
3418.442, 8609.053
3420.371, 8586.123
3422.299, 8565.957
3424.228, 8558.437
3426.156, 8552.789
3428.085, 8524.635
3430.013, 8493.543
3431.942, 8476.744
3433.870, 8462.423
3435.799, 8448.004
3437.727, 8429.591
3439.656, 8404.474
3441.584, 8390.765
3443.512, 8384.033
3445.441, 8365.021
3447.369, 8345.271
3449.298, 8350.981
3451.226, 8348.053
3453.155, 8309.023
3455.083, 8273.928
3457.012, 8250.646
3458.940, 8232.018
3460.869, 8217.575
3462.797, 8204.797
3464.726, 8194.525
3466.654, 8186.344
3468.583, 8185.053
3470.511, 8195.525
3472.439, 8210.813
3474.368, 8222.790
3476.296, 8263.915
3478.225, 8340.265
3480.153, 8466.883
3482.082, 8623.894
3484.010, 8754.438
3485.939, 8857.102
3487.867, 8895.617
3489.796, 8960.536
3491.724, 9071.663
3493.653, 9263.330
3495.581, 9538.982
3497.510, 9902.381
3499.438, 10352.95
3501.366, 10947.09
3503.295, 11539.02
3505.223, 11996.59
3507.152, 12261.48
3509.080, 12294.68
3511.009, 12133.38
3512.937, 11781.81
3514.866, 11345.40
3516.794, 10860.41
3518.723, 10459.27
3520.651, 10145.52
3522.580, 9979.761
3524.508, 9806.575
3526.437, 9543.603
3528.365, 9228.752
3530.293, 8860.428
3532.222, 8561.689
3534.150, 8336.182
3536.079, 8180.819
3538.007, 8076.645
3539.936, 8004.820
3541.864, 7949.112
3543.793, 7902.287
3545.721, 7865.551
3547.650, 7841.063
3549.578, 7820.178
3551.507, 7803.289
3553.435, 7790.017
3555.364, 7779.210
3557.292, 7766.405
3559.220, 7758.952
3561.149, 7759.709
3563.077, 7757.750
3565.006, 7747.732
3566.934, 7761.289
3568.863, 7785.438
3570.791, 7776.388
3572.720, 7768.830
3574.648, 7807.723
3576.577, 7839.421
3578.505, 7830.479
3580.434, 7850.676
3582.362, 7902.626
3584.291, 7968.627
3586.219, 8067.690
3588.147, 8279.560
3590.076, 8488.817
3592.004, 8628.137
3593.933, 8710.329
3595.861, 8710.400
3597.790, 8792.863
3599.718, 9002.247
3601.647, 9423.063
3603.575, 10105.71
3605.504, 11202.36
3607.432, 12413.19
3609.361, 13884.67
3611.289, 14755.12
3613.218, 14953.01
3615.146, 14535.57
3617.074, 13702.01
3619.003, 12776.75
3620.931, 11869.22
3622.860, 10991.83
3624.788, 10324.28
3626.717, 9895.034
3628.645, 9740.032
3630.574, 9781.019
3632.502, 9522.210
3634.431, 9088.779
3636.359, 8542.439
3638.288, 8100.360
3640.216, 7866.927
3642.145, 7723.850
3644.073, 7662.501
3646.001, 7621.124
3647.930, 7595.336
3649.858, 7578.081
3651.787, 7565.819
3653.715, 7559.719
3655.644, 7550.313
3657.572, 7535.706
3659.501, 7527.919
3661.429, 7524.188
3663.358, 7507.168
3665.286, 7490.955
3667.215, 7489.392
3669.143, 7491.392
3671.072, 7494.323
3673.000, 7496.003
3674.928, 7496.813
3676.857, 7501.768
3678.785, 7504.615
3680.714, 7493.917
3682.642, 7483.924
3684.571, 7477.896
3686.499, 7483.474
3688.428, 7499.902
3690.356, 7492.628
3692.285, 7473.608
3694.213, 7458.789
3696.142, 7448.389
3698.070, 7443.526
3699.999, 7439.638
3701.927, 7436.288
3703.855, 7426.780
3705.784, 7417.426
3707.712, 7423.238
3709.641, 7427.214
3711.569, 7417.635
3713.498, 7412.491
3715.426, 7416.112
3717.355, 7414.002
3719.283, 7408.327
3721.212, 7401.917
3723.140, 7398.004
3725.069, 7402.552
3726.997, 7393.882
3728.926, 7363.202
3730.854, 7359.601
3732.782, 7372.432
3734.711, 7381.285
3736.639, 7384.487
3738.568, 7380.834
3740.496, 7371.353
3742.425, 7353.956
3744.353, 7352.935
3746.282, 7361.783
3748.210, 7366.835
3750.139, 7370.655
3752.067, 7375.780
3753.996, 7375.869
3755.924, 7368.339
3757.853, 7361.617
3759.781, 7356.556
3761.709, 7357.983
3763.638, 7357.762
3765.566, 7352.315
3767.495, 7343.318
3769.423, 7331.602
3771.352, 7329.914
3773.280, 7332.168
3775.209, 7326.224
3777.137, 7319.631
3779.066, 7314.287
3780.994, 7315.063
3782.923, 7321.893
3784.851, 7316.237
3786.780, 7308.103
3788.708, 7317.533
3790.636, 7317.105
3792.565, 7294.077
3794.493, 7281.909
3796.422, 7282.025
3798.350, 7283.149
3800.279, 7284.669
3802.207, 7288.247
3804.136, 7287.110
3806.064, 7279.005
3807.993, 7282.060
3809.921, 7292.362
3811.850, 7287.014
3813.778, 7281.729
3815.707, 7293.503
3817.635, 7297.112
3819.563, 7287.991
3821.492, 7278.614
3823.420, 7273.363
3825.349, 7289.569
3827.277, 7300.286
3829.206, 7282.741
3831.134, 7274.585
3833.063, 7278.395
3834.991, 7283.259
3836.920, 7285.167
3838.848, 7275.666
3840.777, 7266.798
3842.705, 7260.778
3844.634, 7264.976
3846.562, 7274.108
3848.490, 7268.423
3850.419, 7255.160
3852.347, 7234.406
3854.276, 7228.216
3856.204, 7240.348
3858.133, 7240.667
3860.061, 7234.916
3861.990, 7233.922
3863.918, 7234.690
3865.847, 7234.478
3867.775, 7239.290
3869.704, 7246.446
3871.632, 7235.678
3873.561, 7224.851
3875.489, 7235.246
3877.417, 7244.995
3879.346, 7246.995
3881.274, 7248.236
3883.203, 7251.030
3885.131, 7257.494
3887.060, 7259.298
3888.988, 7252.011
3890.917, 7239.455
3892.845, 7226.141
3894.774, 7229.619
3896.702, 7233.966
3898.631, 7217.615
3900.559, 7211.095
3902.488, 7221.802
3904.416, 7226.863
3906.344, 7228.537
3908.273, 7228.140
3910.201, 7227.861
3912.130, 7227.240
3914.058, 7234.892
3915.987, 7247.702
3917.915, 7239.740
3919.844, 7227.071
3921.772, 7221.023
3923.701, 7213.205
3925.629, 7204.916
3927.558, 7202.922
3929.486, 7203.641
3931.415, 7208.073
3933.343, 7203.260
3935.271, 7184.123
3937.200, 7186.738
3939.128, 7200.323
3941.057, 7199.272
3942.985, 7196.095
3944.914, 7196.210
3946.842, 7195.313
3948.771, 7191.565
3950.699, 7191.254
3952.628, 7190.755
3954.556, 7192.487
3956.485, 7190.396
3958.413, 7176.786
3960.342, 7172.747
3962.270, 7174.827
3964.198, 7181.138
3966.127, 7186.671
3968.055, 7187.290
3969.984, 7181.596
3971.912, 7175.637
3973.841, 7187.979
3975.769, 7193.563
3977.698, 7175.930
3979.626, 7164.628
3981.555, 7165.028
3983.483, 7174.863
3985.412, 7177.707
3987.340, 7153.434
3989.269, 7144.522
3991.197, 7156.023
3993.125, 7159.205
3995.054, 7156.137
3996.982, 7146.786
3998.911, 7146.693
4000.839, 7162.544
4002.768, 7163.068
4004.696, 7154.295
4006.625, 7153.462
4008.553, 7156.557
4010.482, 7166.329
4012.410, 7167.644
4014.339, 7154.750
4016.267, 7161.022
4018.196, 7173.888
4020.124, 7166.591
4022.052, 7157.439
4023.981, 7160.195
4025.909, 7159.440
4027.838, 7157.140
4029.766, 7162.794
4031.695, 7163.340
4033.623, 7164.652
4035.552, 7167.251
4037.480, 7162.896
4039.409, 7154.235
4041.337, 7147.832
4043.266, 7150.130
4045.194, 7153.802
4047.123, 7146.956
4049.051, 7144.447
4050.979, 7152.648
4052.908, 7152.002
4054.836, 7147.544
4056.765, 7148.938
4058.693, 7148.721
4060.622, 7146.971
4062.550, 7142.723
4064.479, 7141.663
4066.407, 7131.339
4068.336, 7115.965
4070.264, 7113.216
4072.193, 7115.874
4074.121, 7128.100
4076.050, 7135.391
4077.978, 7125.486
4079.906, 7111.395
4081.835, 7116.188
4083.763, 7130.047
4085.692, 7122.952
4087.620, 7107.300
4089.549, 7108.478
4091.477, 7115.038
4093.406, 7117.312
4095.334, 7105.569
4097.263, 7087.452
4099.191, 7088.312
4101.120, 7100.047
4103.048, 7108.306
4104.977, 7107.119
4106.905, 7100.834
4108.833, 7102.582
4110.762, 7103.433
4112.690, 7094.104
4114.619, 7088.603
4116.547, 7088.377
4118.476, 7093.648
4120.404, 7096.816
4122.333, 7085.185
4124.261, 7078.203
4126.190, 7073.216
4128.118, 7068.518
4130.047, 7064.759
4131.975, 7042.614
4133.904, 7042.459
4135.832, 7063.059
4137.761, 7055.645
4139.689, 7046.005
4141.618, 7049.771
4143.546, 7051.959
4145.475, 7053.625
4147.403, 7055.841
4149.332, 7055.851
4151.260, 7051.697
4153.188, 7044.163
4155.117, 7036.475
4157.045, 7032.814
4158.974, 7035.528
4160.902, 7045.405
4162.831, 7040.159
4164.759, 7029.267
4166.688, 7035.341
4168.616, 7039.380
4170.544, 7032.552
4172.473, 7031.252
4174.401, 7032.598
4176.330, 7028.430
4178.258, 7024.166
4180.187, 7025.798
4182.115, 7020.119
4184.044, 7013.205
4185.972, 7005.651
4187.901, 7006.060
4189.829, 7021.518
4191.758, 7019.939
4193.686, 7008.815
4195.615, 7007.851
4197.543, 7003.294
4199.472, 6989.031
4201.400, 6995.524
4203.329, 7010.112
4205.257, 7010.290
4207.186, 7004.910
4209.114, 6995.190
4211.042, 6984.634
4212.971, 6975.580
4214.899, 6970.896
4216.828, 6969.315
4218.756, 6970.388
4220.685, 6953.724
4222.613, 6937.661
4224.542, 6944.901
4226.470, 6950.124
4228.398, 6949.641
4230.327, 6952.972
4232.255, 6953.751
4234.184, 6945.794
4236.112, 6937.226
4238.041, 6929.601
4239.969, 6930.337
4241.898, 6928.341
4243.826, 6914.827
4245.755, 6915.874
4247.683, 6925.659
4249.612, 6923.337
4251.540, 6910.944
4253.469, 6888.005
4255.397, 6872.353
4257.326, 6865.380
4259.254, 6869.540
4261.183, 6880.218
4263.111, 6895.968
4265.040, 6897.594
4266.968, 6893.075
4268.896, 6891.601
4270.825, 6888.352
4272.753, 6882.884
4274.682, 6875.205
4276.610, 6870.378
4278.539, 6874.512
4280.467, 6872.913
4282.396, 6865.866
4284.324, 6858.229
4286.252, 6851.579
4288.181, 6845.751
4290.109, 6851.013
4292.038, 6859.823
4293.966, 6852.108
4295.895, 6853.935
4297.823, 6872.495
4299.752, 6878.222
4301.680, 6872.603
4303.609, 6851.530
4305.537, 6845.876
4307.466, 6856.070
4309.394, 6837.991
4311.323, 6821.402
4313.251, 6824.667
4315.180, 6829.949
4317.108, 6833.194
4319.037, 6825.531
4320.965, 6819.802
4322.894, 6819.583
4324.822, 6818.411
4326.750, 6815.937
4328.679, 6812.124
4330.607, 6810.840
4332.536, 6811.979
4334.464, 6805.802
4336.393, 6798.292
4338.321, 6792.228
4340.250, 6788.431
4342.178, 6787.890
4344.106, 6794.265
4346.035, 6804.194
4347.963, 6815.845
4349.892, 6806.466
4351.820, 6793.399
4353.749, 6798.711
4355.677, 6802.533
4357.606, 6801.124
4359.534, 6784.374
4361.463, 6774.590
4363.391, 6787.295
4365.320, 6790.949
4367.248, 6790.055
4369.177, 6795.604
4371.105, 6798.400
4373.034, 6795.846
4374.962, 6796.449
4376.891, 6793.417
4378.819, 6778.871
4380.748, 6764.987
4382.676, 6753.943
4384.604, 6751.556
4386.533, 6747.147
4388.461, 6735.546
4390.390, 6736.599
4392.318, 6737.786
4394.247, 6724.948
4396.175, 6711.062
4398.104, 6699.743
4400.032, 6702.418
4401.960, 6701.367
4403.889, 6689.184
4405.817, 6678.667
4407.746, 6671.984
4409.674, 6672.883
4411.603, 6671.556
4413.531, 6666.350
4415.460, 6653.500
4417.388, 6647.141
4419.317, 6655.227
4421.245, 6655.901
4423.174, 6650.180
4425.102, 6638.267
4427.031, 6635.742
4428.959, 6642.081
4430.888, 6627.592
4432.816, 6614.077
4434.745, 6618.032
4436.673, 6610.389
4438.602, 6596.702
4440.530, 6585.716
4442.458, 6575.189
4444.387, 6565.650
4446.315, 6568.494
4448.244, 6570.534
4450.172, 6564.924
4452.101, 6563.631
4454.029, 6562.186
4455.958, 6548.456
4457.886, 6548.011
4459.814, 6558.314
4461.743, 6550.158
4463.671, 6538.959
4465.600, 6532.970
4467.528, 6518.477
4469.457, 6505.944
4471.385, 6514.885
4473.314, 6512.359
4475.242, 6499.304
4477.171, 6497.146
4479.099, 6499.215
4481.028, 6503.421
4482.956, 6503.363
4484.885, 6501.149
4486.813, 6500.047
4488.742, 6491.019
4490.670, 6478.969
4492.599, 6478.560
4494.527, 6478.644
4496.456, 6475.370
4498.384, 6466.765
4500.313, 6459.596
4502.241, 6462.640
4504.169, 6459.278
4506.098, 6452.762
4508.026, 6448.023
4509.955, 6443.714
4511.883, 6440.126
4513.812, 6450.511
4515.740, 6450.506
4517.668, 6429.933
4519.597, 6429.754
4521.525, 6432.612
4523.454, 6416.179
4525.382, 6406.095
4527.311, 6401.348
4529.239, 6390.937
4531.168, 6385.643
4533.096, 6388.074
4535.025, 6388.542
4536.953, 6384.264
4538.882, 6372.632
4540.810, 6366.432
4542.739, 6360.825
4544.667, 6343.480
4546.596, 6349.442
4548.524, 6368.878
4550.453, 6353.126
4552.381, 6338.626
4554.310, 6336.957
4556.238, 6340.980
4558.167, 6340.675
4560.095, 6324.214
4562.023, 6319.041
4563.952, 6319.534
4565.880, 6320.033
4567.809, 6307.074
4569.737, 6287.992
4571.666, 6298.165
4573.594, 6304.019
4575.522, 6296.532
4577.451, 6291.986
4579.379, 6287.436
4581.308, 6277.405
4583.236, 6280.550
4585.165, 6283.201
4587.093, 6263.007
4589.022, 6257.294
4590.950, 6262.706
4592.879, 6260.869
4594.807, 6244.569
4596.736, 6218.502
4598.664, 6221.333
4600.593, 6230.497
4602.521, 6233.360
4604.450, 6230.308
4606.378, 6227.007
4608.307, 6229.714
4610.235, 6235.258
4612.164, 6235.513
4614.092, 6210.501
4616.021, 6191.290
4617.949, 6182.944
4619.877, 6188.640
4621.806, 6188.024
4623.734, 6174.300
4625.663, 6168.889
4627.591, 6163.499
4629.520, 6152.622
4631.448, 6149.911
4633.376, 6148.710
4635.305, 6138.829
4637.233, 6145.368
4639.162, 6157.691
4641.090, 6147.053
4643.019, 6148.046
4644.947, 6158.704
4646.876, 6136.954
4648.804, 6117.870
4650.733, 6112.731
4652.661, 6136.306
4654.590, 6144.136
4656.518, 6111.945
4658.447, 6109.715
4660.375, 6110.938
4662.304, 6078.909
4664.232, 6074.254
4666.161, 6085.509
4668.089, 6094.110
4670.018, 6093.202
4671.946, 6086.733
4673.875, 6088.042
4675.803, 6081.429
4677.731, 6067.593
4679.660, 6080.108
4681.588, 6085.336
4683.517, 6071.434
4685.445, 6068.097
4687.374, 6065.219
4689.302, 6057.250
4691.230, 6039.593
4693.159, 6026.205
4695.087, 6036.237
4697.016, 6035.346
4698.944, 6026.651
4700.873, 6017.011
4702.801, 5994.907
4704.730, 5973.549
4706.658, 5988.626
4708.587, 6000.093
4710.515, 5997.758
4712.444, 5962.178
4714.372, 5950.339
4716.301, 5971.826
4718.229, 5962.985
4720.158, 5954.676
4722.086, 5958.108
4724.015, 5955.334
4725.943, 5951.083
4727.872, 5950.610
4729.800, 5934.952
4731.729, 5918.013
4733.657, 5910.315
4735.585, 5900.765
4737.514, 5893.921
4739.442, 5900.284
4741.371, 5896.403
4743.299, 5886.044
4745.228, 5876.669
4747.156, 5872.391
4749.084, 5873.404
4751.013, 5883.538
4752.941, 5880.682
4754.870, 5866.177
4756.798, 5860.249
4758.727, 5856.403
4760.655, 5853.122
4762.584, 5848.647
4764.512, 5850.448
4766.441, 5858.606
4768.369, 5852.031
4770.298, 5840.880
4772.226, 5829.635
4774.155, 5824.127
4776.083, 5813.938
4778.012, 5794.176
4779.940, 5793.509
4781.869, 5799.504
4783.797, 5804.300
4785.726, 5796.933
4787.654, 5787.703
4789.583, 5785.174
4791.511, 5775.208
4793.439, 5765.714
4795.368, 5770.629
4797.296, 5765.293
4799.225, 5753.630
4801.153, 5739.979
4803.082, 5740.558
4805.010, 5743.474
4806.938, 5720.863
4808.867, 5723.609
4810.795, 5737.574
4812.724, 5728.375
4814.652, 5703.881
4816.581, 5680.323
4818.509, 5693.863
4820.438, 5699.448
4822.366, 5693.233
4824.295, 5681.972
4826.223, 5674.670
4828.152, 5672.955
4830.080, 5683.555
4832.009, 5678.276
4833.937, 5659.010
4835.866, 5655.549
4837.794, 5659.399
4839.723, 5664.603
4841.651, 5656.524
4843.580, 5641.225
4845.508, 5623.952
4847.437, 5627.352
4849.365, 5622.483
4851.293, 5606.893
4853.222, 5606.208
4855.150, 5610.419
4857.079, 5613.818
4859.007, 5590.918
4860.936, 5583.462
4862.864, 5597.253
4864.792, 5596.799
4866.721, 5594.030
4868.649, 5592.909
4870.578, 5589.556
4872.506, 5585.456
4874.435, 5580.940
4876.363, 5575.806
4878.292, 5564.805
4880.220, 5548.185
4882.149, 5550.352
4884.077, 5542.037
4886.006, 5519.910
4887.934, 5521.708
4889.863, 5521.443
4891.791, 5511.970
4893.720, 5512.385
4895.648, 5510.233
4897.577, 5503.960
4899.505, 5507.979
4901.434, 5501.607
4903.362, 5483.458
4905.291, 5499.509
4907.219, 5500.324
4909.147, 5478.773
4911.076, 5469.825
4913.004, 5463.063
4914.933, 5455.459
4916.861, 5443.654
4918.790, 5442.313
4920.718, 5448.128
4922.646, 5429.505
4924.575, 5416.463
4926.503, 5414.874
4928.432, 5426.431
4930.360, 5431.029
4932.289, 5425.903
4934.217, 5413.631
4936.146, 5404.127
4938.074, 5395.991
4940.003, 5377.122
4941.931, 5377.210
4943.860, 5387.643
4945.788, 5381.440
4947.717, 5374.355
4949.645, 5370.105
4951.574, 5376.521
4953.502, 5361.233
4955.431, 5339.106
4957.359, 5335.479
4959.288, 5332.385
4961.216, 5330.559
4963.145, 5332.866
4965.073, 5333.087
4967.001, 5331.234
4968.930, 5327.575
4970.858, 5314.032
4972.787, 5306.838
4974.715, 5319.225
4976.644, 5300.733
4978.572, 5279.517
4980.500, 5274.911
4982.429, 5285.526
4984.357, 5288.425
4986.286, 5275.793
4988.214, 5283.302
4990.143, 5275.426
4992.071, 5243.022
4994.000, 5244.931
4995.928, 5243.253
4997.857, 5231.777
4999.785, 5243.077
5001.714, 5237.810
5003.642, 5219.668
5005.571, 5225.673
5007.499, 5233.639
5009.428, 5230.821
5011.356, 5193.579
5013.285, 5178.024
5015.213, 5179.380
5017.142, 5182.715
5019.070, 5177.944
5020.999, 5175.065
5022.927, 5187.378
5024.855, 5172.173
5026.784, 5156.118
5028.712, 5159.910
5030.641, 5159.661
5032.569, 5153.245
5034.498, 5140.396
5036.426, 5140.023
5038.354, 5146.116
5040.283, 5152.867
5042.211, 5143.922
5044.140, 5125.800
5046.068, 5105.839
5047.997, 5104.323
5049.925, 5101.329
5051.854, 5095.146
5053.782, 5090.118
5055.711, 5075.896
5057.639, 5064.226
5059.568, 5075.529
5061.496, 5079.562
5063.425, 5073.889
5065.353, 5057.245
5067.282, 5043.314
5069.210, 5037.336
5071.139, 5040.491
5073.067, 5031.946
5074.996, 5028.658
5076.924, 5033.262
5078.853, 5019.654
5080.781, 5008.680
5082.709, 5002.657
5084.638, 4994.918
5086.566, 4987.558
5088.495, 4983.013
5090.423, 4986.509
5092.352, 4984.731
5094.280, 4981.025
5096.208, 4979.233
5098.137, 4981.315
5100.065, 4975.991
5101.994, 4957.885
5103.922, 4951.041
5105.851, 4955.340
5107.779, 4965.171
5109.708, 4957.122
5111.636, 4940.651
5113.565, 4924.784
5115.493, 4926.125
5117.422, 4919.330
5119.350, 4911.961
5121.279, 4916.442
5123.207, 4915.114
5125.136, 4910.224
5127.064, 4903.834
5128.993, 4896.322
5130.921, 4884.274
5132.850, 4870.239
5134.778, 4881.343
5136.707, 4881.804
5138.635, 4872.836
5140.563, 4877.112
5142.492, 4877.220
5144.420, 4870.939
5146.349, 4859.441
5148.277, 4832.143
5150.206, 4818.092
5152.134, 4834.585
5154.063, 4827.063
5155.991, 4826.280
5157.919, 4835.239
5159.848, 4824.366
5161.776, 4810.322
5163.705, 4801.841
5165.633, 4814.465
5167.562, 4813.244
5169.490, 4800.719
5171.419, 4782.177
5173.347, 4786.081
5175.276, 4790.677
5177.204, 4785.244
5179.133, 4777.403
5181.061, 4765.073
5182.990, 4755.554
5184.918, 4771.753
5186.847, 4770.892
5188.775, 4755.934
5190.704, 4735.214
5192.632, 4724.843
5194.561, 4723.387
5196.489, 4728.774
5198.417, 4726.675
5200.346, 4729.357
5202.274, 4734.660
5204.203, 4727.302
5206.131, 4719.344
5208.060, 4716.618
5209.988, 4729.649
5211.917, 4711.180
5213.845, 4690.889
5215.773, 4683.396
5217.702, 4664.912
5219.630, 4661.120
5221.559, 4669.842
5223.487, 4673.493
5225.416, 4667.593
5227.344, 4654.714
5229.273, 4634.556
5231.201, 4632.472
5233.130, 4641.962
5235.058, 4653.392
5236.987, 4623.966
5238.915, 4619.685
5240.844, 4634.232
5242.772, 4626.283
5244.701, 4621.761
5246.629, 4618.565
5248.558, 4613.221
5250.486, 4624.966
5252.415, 4630.956
5254.343, 4622.750
5256.271, 4594.167
5258.200, 4582.524
5260.128, 4578.475
5262.057, 4558.225
5263.985, 4562.114
5265.914, 4559.150
5267.842, 4538.483
5269.771, 4548.790
5271.699, 4547.324
5273.627, 4535.696
5275.556, 4541.248
5277.484, 4522.624
5279.413, 4504.088
5281.341, 4505.766
5283.270, 4509.142
5285.198, 4501.084
5287.127, 4488.062
5289.055, 4506.317
5290.984, 4499.274
5292.912, 4482.175
5294.841, 4477.271
5296.769, 4474.284
5298.698, 4469.417
5300.626, 4463.808
5302.555, 4472.614
5304.483, 4457.325
5306.412, 4435.974
5308.340, 4439.390
5310.269, 4431.782
5312.197, 4425.823
5314.125, 4426.783
5316.054, 4422.035
5317.982, 4415.067
5319.911, 4409.108
5321.839, 4408.083
5323.768, 4398.470
5325.696, 4391.185
5327.625, 4391.074
5329.553, 4385.720
5331.481, 4384.975
5333.410, 4386.038
5335.338, 4381.168
5337.267, 4383.334
5339.195, 4377.884
5341.124, 4361.390
5343.052, 4363.927
5344.981, 4357.575
5346.909, 4345.787
5348.838, 4343.997
5350.766, 4339.164
5352.695, 4330.823
5354.623, 4320.029
5356.552, 4312.812
5358.480, 4303.851
5360.409, 4294.534
5362.337, 4288.633
5364.266, 4270.967
5366.194, 4265.210
5368.123, 4275.296
5370.051, 4256.427
5371.979, 4243.349
5373.908, 4239.071
5375.836, 4240.138
5377.765, 4239.011
5379.693, 4231.936
5381.622, 4219.830
5383.550, 4204.189
5385.479, 4209.569
5387.407, 4218.615
5389.335, 4213.799
5391.264, 4204.211
5393.192, 4193.818
5395.121, 4182.837
5397.049, 4167.679
5398.978, 4161.634
5400.906, 4156.924
5402.835, 4148.588
5404.763, 4147.325
5406.692, 4151.248
5408.620, 4151.739
5410.549, 4133.994
5412.477, 4134.531
5414.406, 4131.687
5416.334, 4119.352
5418.263, 4113.964
5420.191, 4124.331
5422.120, 4127.820
5424.048, 4103.339
5425.977, 4105.296
5427.905, 4096.642
5429.833, 4079.122
5431.762, 4085.056
5433.690, 4079.542
5435.619, 4063.986
5437.547, 4045.215
5439.476, 4052.930
5441.404, 4042.055
5443.333, 4026.342
5445.261, 4030.725
5447.189, 4012.348
5449.118, 4006.502
5451.046, 4014.691
5452.975, 4006.269
5454.903, 4005.518
5456.832, 4009.126
5458.760, 4011.443
5460.689, 4000.859
5462.617, 3991.754
5464.546, 3985.913
5466.474, 3983.187
5468.403, 3958.730
5470.331, 3957.006
5472.260, 3972.154
5474.188, 3952.047
5476.117, 3944.465
5478.045, 3950.179
5479.974, 3959.643
5481.902, 3930.960
5483.831, 3929.308
5485.759, 3933.275
5487.688, 3915.227
5489.616, 3908.281
5491.544, 3892.958
5493.473, 3877.978
5495.401, 3890.672
5497.330, 3889.201
5499.258, 3887.772
5501.187, 3888.547
5503.115, 3877.528
5505.043, 3867.813
5506.972, 3861.529
5508.900, 3857.797
5510.829, 3849.807
5512.757, 3839.168
5514.686, 3828.275
5516.614, 3818.824
5518.543, 3810.887
5520.471, 3817.566
5522.400, 3825.227
5524.328, 3806.577
5526.257, 3797.938
5528.185, 3792.645
5530.114, 3786.857
5532.042, 3780.291
5533.971, 3778.718
5535.899, 3772.302
5537.828, 3758.415
5539.756, 3755.125
5541.685, 3761.691
5543.613, 3765.869
5545.542, 3758.516
5547.470, 3747.507
5549.398, 3732.523
5551.327, 3723.984
5553.255, 3731.125
5555.184, 3716.323
5557.112, 3708.729
5559.041, 3709.073
5560.969, 3704.556
5562.897, 3702.588
5564.826, 3693.192
5566.754, 3679.902
5568.683, 3680.604
5570.611, 3677.349
5572.540, 3666.599
5574.468, 3653.805
5576.397, 3658.243
5578.325, 3647.090
5580.254, 3634.145
5582.182, 3630.050
5584.111, 3639.941
5586.039, 3636.189
5587.968, 3627.040
5589.896, 3619.710
5591.825, 3600.939
5593.753, 3596.067
5595.682, 3599.669
5597.610, 3602.560
5599.539, 3596.652
5601.467, 3594.622
5603.396, 3587.296
5605.324, 3566.719
5607.252, 3572.051
5609.181, 3569.661
5611.109, 3558.169
5613.038, 3545.214
5614.966, 3544.042
5616.895, 3546.427
5618.823, 3547.063
5620.751, 3542.467
5622.680, 3524.732
5624.608, 3511.846
5626.537, 3509.626
5628.465, 3518.271
5630.394, 3508.864
5632.322, 3493.897
5634.251, 3478.985
5636.179, 3465.387
5638.108, 3457.805
5640.036, 3458.311
5641.965, 3460.654
5643.893, 3453.281
5645.822, 3450.235
5647.750, 3440.590
5649.679, 3425.610
5651.607, 3412.677
5653.536, 3414.488
5655.464, 3418.695
5657.393, 3416.647
5659.321, 3401.827
5661.250, 3395.346
5663.178, 3383.247
5665.106, 3373.415
5667.035, 3384.758
5668.963, 3374.948
5670.892, 3372.244
5672.820, 3374.451
5674.749, 3363.457
5676.677, 3345.613
5678.605, 3336.272
5680.534, 3332.990
5682.462, 3326.069
5684.391, 3329.885
5686.319, 3321.502
5688.248, 3306.388
5690.176, 3298.612
5692.105, 3305.652
5694.033, 3307.566
5695.962, 3301.272
5697.890, 3289.320
5699.819, 3274.904
5701.747, 3271.190
5703.676, 3271.629
5705.604, 3267.967
5707.533, 3257.498
5709.461, 3251.061
5711.390, 3248.099
5713.318, 3245.556
5715.247, 3235.202
5717.175, 3225.253
5719.104, 3213.203
5721.032, 3201.991
5722.960, 3214.739
5724.889, 3214.000
5726.817, 3202.722
5728.746, 3189.063
5730.674, 3180.997
5732.603, 3195.057
5734.531, 3192.170
5736.459, 3173.887
5738.388, 3181.964
5740.316, 3169.429
5742.245, 3150.442
5744.173, 3136.618
5746.102, 3139.163
5748.030, 3129.373
5749.959, 3127.076
5751.887, 3131.080
5753.816, 3133.354
5755.744, 3118.540
5757.673, 3103.449
5759.601, 3097.778
5761.530, 3102.164
5763.458, 3096.596
5765.387, 3093.444
5767.315, 3085.141
5769.244, 3072.163
5771.172, 3069.666
5773.101, 3082.910
5775.029, 3073.825
5776.958, 3048.068
5778.886, 3045.095
5780.814, 3054.979
5782.743, 3050.022
5784.671, 3035.703
5786.600, 3027.698
5788.528, 3028.962
5790.457, 3021.891
5792.385, 3013.892
5794.313, 3012.748
5796.242, 3016.777
5798.170, 3006.900
5800.099, 2992.665
5802.027, 2981.765
5803.956, 2976.715
5805.884, 2979.630
5807.813, 2970.923
5809.741, 2961.631
5811.670, 2971.986
5813.598, 2977.913
5815.527, 2972.427
5817.455, 2962.539
5819.384, 2954.151
5821.312, 2942.410
5823.241, 2934.513
5825.169, 2929.208
5827.098, 2927.248
5829.026, 2935.363
5830.955, 2933.115
5832.883, 2916.668
5834.812, 2901.404
5836.740, 2905.585
5838.668, 2896.036
5840.597, 2884.066
5842.525, 2874.254
5844.454, 2867.637
5846.382, 2861.314
5848.311, 2876.000
5850.239, 2875.544
5852.167, 2858.267
5854.096, 2845.612
5856.024, 2846.079
5857.953, 2835.006
5859.881, 2824.521
5861.810, 2826.166
5863.738, 2826.405
5865.667, 2826.909
5867.595, 2820.130
5869.524, 2810.325
5871.452, 2814.192
5873.381, 2807.834
5875.309, 2796.034
5877.238, 2784.234
5879.166, 2776.508
5881.095, 2783.598
5883.023, 2771.467
5884.952, 2760.750
5886.880, 2761.670
5888.809, 2771.518
5890.737, 2769.948
5892.666, 2757.003
5894.594, 2748.787
5896.522, 2753.297
5898.451, 2737.475
5900.379, 2733.253
5902.308, 2723.560
5904.236, 2710.431
5906.165, 2711.255
5908.093, 2712.878
5910.021, 2707.018
5911.950, 2698.734
5913.878, 2691.838
5915.807, 2681.121
5917.735, 2678.683
5919.664, 2678.883
5921.592, 2674.677
5923.521, 2663.010
5925.449, 2671.478
5927.378, 2657.256
5929.306, 2646.441
5931.235, 2650.321
5933.163, 2647.824
5935.092, 2645.503
5937.020, 2632.787
5938.949, 2623.511
5940.877, 2628.288
5942.806, 2619.428
5944.734, 2617.477
5946.663, 2612.085
5948.591, 2598.130
5950.520, 2575.239
5952.448, 2569.074
5954.376, 2569.324
5956.305, 2575.092
5958.233, 2579.807
5960.162, 2565.939
5962.090, 2562.715
5964.019, 2559.191
5965.947, 2560.414
5967.875, 2567.232
5969.804, 2553.174
5971.732, 2540.390
5973.661, 2530.825
5975.589, 2530.331
5977.518, 2540.105
5979.446, 2518.555
5981.375, 2516.384
5983.303, 2517.156
5985.232, 2512.346
5987.160, 2506.823
5989.089, 2492.589
5991.017, 2483.649
5992.946, 2476.201
5994.874, 2471.926
5996.803, 2481.236
5998.731, 2479.299
6000.660, 2464.667
6002.588, 2457.615
6004.517, 2464.955
6006.445, 2464.993
6008.374, 2451.031
6010.302, 2437.673
6012.230, 2432.944
6014.159, 2433.891
6016.087, 2412.470
6018.016, 2409.455
6019.944, 2406.672
6021.873, 2404.844
6023.801, 2408.894
6025.729, 2397.948
6027.658, 2396.275
6029.586, 2388.196
6031.515, 2378.194
6033.443, 2377.901
6035.372, 2382.051
6037.300, 2369.406
6039.229, 2362.949
6041.157, 2366.051
6043.086, 2369.374
6045.014, 2361.415
6046.943, 2341.942
6048.871, 2336.290
6050.800, 2339.520
6052.728, 2332.286
6054.657, 2327.100
6056.585, 2310.748
6058.514, 2307.334
6060.442, 2310.146
6062.371, 2297.857
6064.299, 2295.171
6066.228, 2288.026
6068.156, 2281.663
6070.084, 2281.479
6072.013, 2288.430
6073.941, 2279.480
6075.870, 2280.133
6077.798, 2272.458
6079.727, 2260.237
6081.655, 2256.531
6083.583, 2257.287
6085.512, 2247.452
6087.440, 2247.538
6089.369, 2247.732
6091.297, 2234.605
6093.226, 2233.652
6095.154, 2227.341
6097.083, 2212.674
6099.011, 2200.549
6100.940, 2198.321
6102.868, 2195.909
6104.797, 2197.600
6106.725, 2197.327
6108.654, 2190.071
6110.582, 2180.355
6112.511, 2186.395
6114.439, 2182.414
6116.368, 2179.950
6118.296, 2162.090
6120.225, 2139.527
6122.153, 2153.366
6124.082, 2141.185
6126.010, 2129.238
6127.938, 2130.720
6129.867, 2136.899
6131.795, 2130.022
6133.724, 2106.615
6135.652, 2108.888
6137.581, 2117.180
6139.509, 2118.771
6141.438, 2112.267
6143.366, 2104.593
6145.294, 2106.554
6147.223, 2098.073
6149.151, 2080.776
6151.080, 2067.639
6153.008, 2076.427
6154.937, 2080.191
6156.865, 2081.540
6158.794, 2072.735
6160.722, 2059.532
6162.651, 2056.815
6164.579, 2051.607
6166.508, 2043.860
6168.436, 2044.509
6170.365, 2047.481
6172.293, 2044.051
6174.222, 2039.998
6176.150, 2023.904
6178.079, 2025.756
6180.007, 2022.166
6181.936, 2004.226
6183.864, 1991.799
6185.792, 2006.695
6187.721, 2005.738
6189.649, 1994.935
6191.578, 1990.273
6193.506, 1997.525
6195.435, 1988.727
6197.363, 1971.256
6199.292, 1973.460
6201.220, 1968.622
6203.148, 1953.713
6205.077, 1966.437
6207.005, 1959.313
6208.934, 1954.655
6210.862, 1947.085
6212.791, 1937.505
6214.719, 1931.945
6216.648, 1940.559
6218.576, 1927.961
6220.505, 1928.597
6222.433, 1920.659
6224.362, 1905.165
6226.290, 1907.249
6228.219, 1902.568
6230.147, 1900.426
6232.076, 1900.022
6234.004, 1896.473
6235.933, 1888.618
6237.861, 1881.681
6239.790, 1881.560
6241.718, 1877.414
6243.646, 1870.994
6245.575, 1863.685
6247.503, 1858.072
6249.432, 1863.452
6251.360, 1861.204
6253.289, 1856.361
6255.217, 1849.038
6257.146, 1840.006
6259.074, 1831.554
6261.002, 1824.525
6262.931, 1820.564
6264.859, 1827.570
6266.788, 1824.872
6268.716, 1812.350
6270.645, 1812.662
6272.573, 1808.322
6274.502, 1810.357
6276.430, 1795.106
6278.359, 1779.980
6280.287, 1778.568
6282.216, 1779.370
6284.144, 1783.260
6286.073, 1784.005
6288.001, 1779.706
6289.930, 1775.722
6291.858, 1775.295
6293.787, 1775.895
6295.715, 1752.603
6297.644, 1752.645
6299.572, 1752.767
6301.500, 1747.273
6303.429, 1739.287
6305.357, 1723.039
6307.286, 1724.146
6309.214, 1731.832
6311.143, 1726.640
6313.071, 1719.255
6315.000, 1717.433
6316.928, 1706.378
6318.856, 1707.254
6320.785, 1709.959
6322.713, 1700.099
6324.642, 1694.574
6326.570, 1696.267
6328.499, 1680.668
6330.427, 1672.531
6332.356, 1682.983
6334.284, 1681.720
6336.213, 1670.013
6338.141, 1661.170
6340.070, 1663.351
6341.998, 1676.931
6343.927, 1658.098
6345.855, 1649.860
6347.784, 1649.179
6349.712, 1648.026
6351.641, 1648.334
6353.569, 1637.911
6355.498, 1631.829
6357.426, 1628.373
6359.354, 1627.551
6361.283, 1621.663
6363.211, 1607.222
6365.140, 1604.656
6367.068, 1607.460
6368.997, 1597.098
6370.925, 1595.797
6372.854, 1598.034
6374.782, 1593.914
6376.710, 1591.555
6378.639, 1593.455
6380.567, 1593.787
6382.496, 1587.540
6384.424, 1578.900
6386.353, 1572.240
6388.281, 1567.837
6390.210, 1561.626
6392.138, 1564.191
6394.067, 1560.831
6395.995, 1558.853
6397.924, 1552.084
6399.852, 1542.213
6401.781, 1556.855
6403.709, 1534.576
6405.638, 1525.837
6407.566, 1522.690
6409.495, 1525.304
6411.423, 1531.542
6413.352, 1532.798
6415.280, 1515.587
6417.208, 1508.007
6419.137, 1509.513
6421.065, 1508.022
6422.994, 1508.050
6424.922, 1509.028
6426.851, 1498.558
6428.779, 1498.800
6430.708, 1493.035
6432.636, 1488.776
6434.564, 1487.321
6436.493, 1483.359
6438.421, 1477.116
6440.350, 1480.480
6442.278, 1469.545
6444.207, 1460.596
6446.135, 1453.278
6448.064, 1455.931
6449.992, 1456.098
6451.921, 1439.645
6453.849, 1436.978
6455.778, 1441.217
6457.706, 1441.232
6459.635, 1434.650
6461.563, 1431.798
6463.492, 1428.068
6465.420, 1416.024
6467.349, 1420.941
6469.277, 1411.734
6471.206, 1423.921
6473.134, 1419.255
6475.063, 1412.440
6476.991, 1411.600
6478.919, 1404.650
6480.848, 1412.468
6482.776, 1399.370
6484.705, 1396.411
6486.633, 1394.979
6488.562, 1388.631
6490.490, 1381.897
6492.418, 1380.442
6494.347, 1377.734
6496.275, 1379.940
6498.204, 1368.227
6500.132, 1361.254
6502.061, 1359.706
6503.989, 1357.875
6505.918, 1354.002
6507.846, 1350.461
6509.775, 1349.727
6511.703, 1344.405
6513.632, 1344.255
6515.560, 1345.474
6517.489, 1341.632
6519.417, 1334.123
6521.346, 1332.277
6523.274, 1340.945
6525.203, 1328.380
6527.131, 1328.563
6529.060, 1318.659
6530.988, 1308.242
6532.917, 1306.117
6534.845, 1302.668
6536.773, 1303.342
6538.702, 1299.466
6540.630, 1299.186
6542.559, 1289.880
6544.487, 1287.492
6546.416, 1287.043
6548.344, 1280.287
6550.272, 1285.454
6552.201, 1279.902
6554.129, 1283.767
6556.058, 1273.788
6557.986, 1266.813
6559.915, 1270.941
6561.843, 1274.185
6563.772, 1266.738
6565.700, 1263.423
6567.629, 1264.860
6569.557, 1256.687
6571.486, 1256.991
6573.414, 1251.667
6575.343, 1247.146
6577.271, 1249.214
6579.200, 1246.292
6581.128, 1232.420
6583.057, 1240.015
6584.985, 1232.126
6586.914, 1233.213
6588.842, 1233.924
6590.771, 1225.741
6592.699, 1217.608
6594.627, 1219.711
6596.556, 1217.789
6598.484, 1212.805
6600.413, 1210.048
6602.341, 1210.823
6604.270, 1208.261
6606.198, 1202.962
6608.126, 1202.531
6610.055, 1208.997
6611.983, 1191.378
6613.912, 1197.823
6615.840, 1183.155
6617.769, 1181.209
6619.697, 1186.407
6621.626, 1183.840
6623.554, 1176.518
6625.483, 1174.591
6627.411, 1169.469
6629.340, 1164.510
##END=



