##NAMES=Serandite
##RRUFFID=R040056
##IDEAL CHEMISTRY=NaMn^2+^_2_Si_3_O_8_(OH)
##LOCALITY=Mont Saint-Hilaire, Rouville County, Quebec, Canada
##OWNER=RRUFF
##SOURCE=Bob Downs
##DESCRIPTION=Pink prismatic crystals
##STATUS=The identification of this mineral has been confirmed by X-ray diffraction and chemical analysis
##URL=https://www.rruff.net/odr/rruff_sample/R040056
##MEASURED CHEMISTRY=Na_1.01_Mn^2+^_1.93_Ca_0.05_Si_3.00_O_8_(OH)
##DIFFRACTION SAMPLE DESCRIPTION=Powder
##CELL PARAMETERS=a: 7.702 b: 6.868 c: 6.7545 alpha: 90.53 beta: 94 gamma: 102.71 volume: 347.6 crystal system: triclinic
##FILETYPE=Raman RAW
##RAMAN WAVELENGTH=785

86.78198, 4.949604
88.71045, 5.983491
90.63892, 6.523620
92.56738, 5.582626
94.49585, 4.547880
96.42432, 4.534389
98.35278, 5.308087
100.2813, 5.103910
102.2097, 3.401621
104.1382, 2.903916
106.0667, 4.574469
107.9951, 7.183072
109.9236, 10.65307
111.8521, 14.45547
113.7805, 16.53546
115.7090, 16.45681
117.6375, 16.82781
119.5659, 15.23150
121.4944, 18.67956
123.4229, 29.60927
125.3513, 47.29157
127.2798, 72.82344
129.2083, 108.1629
131.1367, 137.3630
133.0652, 163.4226
134.9937, 175.2162
136.9221, 158.9149
138.8506, 132.9686
140.7791, 116.0845
142.7075, 108.8193
144.6360, 106.2172
146.5645, 108.8765
148.4929, 114.2318
150.4214, 122.0688
152.3499, 131.8844
154.2783, 143.2332
156.2068, 156.3187
158.1353, 173.8913
160.0637, 197.8973
161.9922, 215.1431
163.9207, 221.9366
165.8491, 222.2887
167.7776, 217.5013
169.7061, 208.4057
171.6345, 194.5949
173.5630, 175.3721
175.4915, 163.0120
177.4199, 160.8082
179.3484, 159.8550
181.2769, 154.1152
183.2053, 150.1682
185.1338, 152.6584
187.0623, 162.0631
188.9907, 179.9614
190.9192, 206.4222
192.8477, 239.9392
194.7761, 291.2643
196.7046, 334.8690
198.6331, 359.2769
200.5615, 367.5435
202.4900, 361.6607
204.4185, 341.2599
206.3469, 324.7788
208.2754, 312.9549
210.2039, 306.5197
212.1323, 303.2735
214.0608, 307.5717
215.9893, 328.7118
217.9177, 361.5146
219.8462, 383.4396
221.7747, 395.4778
223.7031, 392.7304
225.6316, 367.5979
227.5601, 337.5144
229.4885, 306.6324
231.4170, 277.1367
233.3455, 251.1422
235.2739, 229.0503
237.2024, 211.5795
239.1309, 198.8099
241.0593, 190.3593
242.9878, 185.4692
244.9163, 186.0642
246.8447, 191.3876
248.7732, 203.5057
250.7017, 229.4953
252.6301, 268.3777
254.5586, 303.3879
256.4871, 333.1737
258.4156, 359.7015
260.3440, 382.1521
262.2725, 403.1241
264.2010, 427.2868
266.1294, 450.1714
268.0579, 461.0451
269.9864, 460.6857
271.9148, 451.0922
273.8433, 426.0722
275.7718, 408.7549
277.7002, 408.5705
279.6287, 415.8579
281.5572, 430.5842
283.4856, 447.0446
285.4141, 450.8998
287.3426, 442.9506
289.2710, 427.5845
291.1995, 401.0765
293.1280, 377.9315
295.0564, 366.5677
296.9849, 355.4286
298.9134, 337.1678
300.8418, 314.0237
302.7703, 289.2428
304.6988, 263.2189
306.6272, 242.1549
308.5557, 227.6012
310.4842, 215.7042
312.4126, 203.5498
314.3411, 195.6684
316.2696, 195.2222
318.1980, 200.3771
320.1265, 210.0297
322.0550, 223.1043
323.9834, 232.7562
325.9119, 238.6097
327.8404, 240.4393
329.7688, 234.9096
331.6973, 229.2820
333.6258, 226.5683
335.5542, 225.1882
337.4827, 221.9040
339.4112, 218.1479
341.3396, 219.4058
343.2681, 225.9730
345.1966, 236.8060
347.1250, 253.8051
349.0535, 272.0933
350.9820, 290.3595
352.9104, 309.2445
354.8389, 330.8152
356.7674, 352.9636
358.6958, 373.5251
360.6243, 392.0446
362.5528, 395.8143
364.4812, 381.4381
366.4097, 356.3359
368.3382, 314.1751
370.2666, 272.4184
372.1951, 237.3777
374.1236, 209.0465
376.0520, 188.7784
377.9805, 175.3526
379.9090, 165.5268
381.8374, 159.4305
383.7659, 154.8482
385.6944, 151.2021
387.6228, 149.4817
389.5513, 150.1212
391.4798, 152.5199
393.4082, 156.1579
395.3367, 161.3647
397.2652, 167.2753
399.1936, 174.6804
401.1221, 188.8769
403.0506, 210.0105
404.9790, 239.1840
406.9075, 281.2874
408.8360, 324.9994
410.7644, 378.0271
412.6929, 421.0838
414.6214, 438.9303
416.5498, 434.4306
418.4783, 412.6853
420.4068, 374.9279
422.3352, 331.7748
424.2637, 279.4099
426.1922, 236.8902
428.1206, 210.1259
430.0491, 189.2412
431.9776, 171.8459
433.9060, 158.7784
435.8345, 152.7177
437.7630, 150.5981
439.6914, 146.3200
441.6199, 140.5439
443.5484, 138.3312
445.4768, 140.0416
447.4053, 145.4368
449.3338, 155.7938
451.2622, 167.8497
453.1907, 181.7113
455.1192, 196.1010
457.0477, 216.5524
458.9761, 232.6572
460.9046, 228.2054
462.8331, 207.4460
464.7615, 185.2300
466.6900, 161.1879
468.6185, 142.6858
470.5469, 133.1396
472.4754, 125.3668
474.4039, 117.4211
476.3323, 112.4231
478.2608, 114.0058
480.1893, 117.4318
482.1177, 115.6968
484.0462, 113.1536
485.9747, 120.1337
487.9031, 136.3422
489.8316, 147.8595
491.7601, 153.2795
493.6885, 155.4401
495.6170, 151.1436
497.5455, 149.1290
499.4739, 149.9509
501.4024, 155.3915
503.3309, 171.8446
505.2593, 189.3687
507.1878, 198.3179
509.1163, 199.2298
511.0447, 191.1950
512.9732, 173.3719
514.9017, 161.4202
516.8301, 159.5448
518.7586, 156.5161
520.6871, 151.7738
522.6155, 145.8546
524.5440, 139.2429
526.4725, 131.1007
528.4009, 119.0428
530.3294, 106.7307
532.2579, 98.11409
534.1863, 92.14575
536.1148, 85.73158
538.0433, 78.68038
539.9717, 75.55790
541.9002, 79.49992
543.8287, 80.46647
545.7571, 74.81242
547.6856, 71.76492
549.6141, 75.52424
551.5425, 79.04022
553.4710, 78.27370
555.3995, 76.46564
557.3279, 76.25945
559.2564, 76.89258
561.1849, 76.91713
563.1133, 76.53121
565.0418, 77.60326
566.9703, 80.69242
568.8987, 82.93204
570.8272, 84.17738
572.7557, 84.85210
574.6841, 84.70425
576.6126, 84.40588
578.5411, 82.96156
580.4695, 82.97689
582.3980, 87.92607
584.3265, 93.11957
586.2549, 94.01562
588.1834, 92.43472
590.1119, 91.57547
592.0403, 91.42030
593.9688, 91.86212
595.8973, 93.00228
597.8257, 94.20378
599.7542, 94.77482
601.6827, 97.23382
603.6111, 103.6039
605.5396, 108.1363
607.4681, 107.8671
609.3965, 107.5562
611.3250, 109.2726
613.2535, 112.4118
615.1819, 117.3725
617.1104, 122.7330
619.0389, 126.1784
620.9673, 128.4181
622.8958, 131.8453
624.8243, 136.4720
626.7527, 141.6123
628.6812, 146.1080
630.6097, 155.9725
632.5381, 173.6859
634.4666, 189.1088
636.3951, 196.4381
638.3235, 210.7715
640.2520, 239.7270
642.1805, 273.0242
644.1089, 299.5919
646.0374, 334.5871
647.9659, 376.8571
649.8943, 443.5679
651.8228, 541.8986
653.7513, 687.1101
655.6797, 908.7669
657.6082, 1210.549
659.5367, 1683.822
661.4651, 2375.394
663.3936, 2978.680
665.3221, 3561.590
667.2505, 3730.201
669.1790, 3348.348
671.1075, 2813.917
673.0359, 2123.775
674.9644, 1524.144
676.8929, 1123.041
678.8214, 836.8497
680.7498, 646.9590
682.6783, 517.1177
684.6068, 431.6303
686.5352, 378.5988
688.4637, 344.1079
690.3922, 328.4208
692.3206, 333.9567
694.2491, 359.4749
696.1776, 401.4054
698.1060, 461.3309
700.0345, 501.4152
701.9630, 522.5511
703.8914, 510.2514
705.8199, 456.0548
707.7484, 400.9555
709.6768, 348.5056
711.6053, 309.9472
713.5338, 293.4205
715.4622, 282.8046
717.3907, 280.1708
719.3192, 269.8169
721.2476, 237.7207
723.1761, 201.5568
725.1046, 172.3966
727.0330, 149.9578
728.9615, 135.2276
730.8900, 126.2083
732.8184, 119.7058
734.7469, 115.4164
736.6754, 112.6709
738.6038, 111.2929
740.5323, 109.1852
742.4608, 106.3890
744.3892, 104.8562
746.3177, 104.8357
748.2462, 103.6234
750.1746, 100.3670
752.1031, 99.39992
754.0316, 103.0209
755.9600, 104.0292
757.8885, 97.87356
759.8170, 94.10133
761.7454, 99.01728
763.6739, 102.6835
765.6024, 100.7091
767.5308, 97.26171
769.4593, 93.00166
771.3878, 90.28764
773.3162, 92.13729
775.2447, 95.64659
777.1732, 98.10332
779.1016, 99.50763
781.0301, 99.54050
782.9586, 98.63994
784.8870, 97.17811
786.8155, 95.78670
788.7440, 97.39175
790.6724, 101.2859
792.6009, 103.2875
794.5294, 103.4835
796.4578, 104.7105
798.3863, 107.1715
800.3148, 108.9284
802.2432, 109.7059
804.1717, 110.3437
806.1002, 110.8582
808.0286, 111.6532
809.9571, 113.0487
811.8856, 114.0914
813.8140, 114.6545
815.7425, 114.7443
817.6710, 112.2673
819.5994, 112.6091
821.5279, 121.2290
823.4564, 127.4515
825.3848, 124.1005
827.3134, 120.5182
829.2418, 122.5920
831.1703, 125.7520
833.0988, 127.2657
835.0272, 127.6404
836.9557, 126.0735
838.8842, 124.8334
840.8126, 127.4916
842.7411, 131.2687
844.6696, 132.2116
846.5980, 131.5995
848.5265, 130.7525
850.4550, 130.4851
852.3834, 133.3510
854.3119, 137.8663
856.2404, 139.5878
858.1688, 139.5306
860.0973, 142.1408
862.0258, 146.7808
863.9542, 149.1046
865.8827, 149.1769
867.8112, 149.6377
869.7396, 150.5831
871.6681, 149.2837
873.5966, 145.2182
875.5250, 143.9017
877.4535, 145.8360
879.3820, 149.1466
881.3104, 152.6608
883.2389, 161.3854
885.1674, 174.4111
887.0958, 196.1560
889.0243, 228.3747
890.9528, 266.3010
892.8812, 319.1115
894.8097, 360.3675
896.7382, 396.3586
898.6666, 405.8972
900.5951, 372.3628
902.5236, 336.1181
904.4520, 299.1822
906.3805, 269.0291
908.3090, 248.1601
910.2374, 232.9661
912.1659, 223.4588
914.0944, 217.8871
916.0228, 218.7598
917.9513, 218.7036
919.8798, 215.8275
921.8082, 210.1406
923.7367, 197.8526
925.6652, 188.4163
927.5936, 189.1021
929.5221, 189.6989
931.4506, 183.6892
933.3790, 177.9628
935.3075, 175.9275
937.2360, 175.9668
939.1644, 177.8428
941.0929, 180.4151
943.0214, 182.0240
944.9498, 185.2985
946.8783, 190.9547
948.8068, 200.3802
950.7352, 214.6981
952.6637, 232.9990
954.5922, 254.4461
956.5206, 279.7791
958.4491, 307.7527
960.3776, 342.1446
962.3060, 390.2080
964.2345, 440.8146
966.1630, 488.1432
968.0914, 530.6130
970.0199, 572.5751
971.9484, 602.5610
973.8768, 613.2025
975.8053, 605.1796
977.7338, 570.7614
979.6622, 527.3363
981.5907, 482.8344
983.5192, 444.5971
985.4476, 417.8029
987.3761, 401.9185
989.3046, 395.9195
991.2330, 401.2603
993.1615, 426.1445
995.0900, 454.9879
997.0184, 479.8523
998.9469, 495.6517
1000.875, 489.4736
1002.804, 482.2378
1004.732, 472.0474
1006.661, 492.1068
1008.589, 557.1030
1010.518, 679.6906
1012.446, 774.6362
1014.375, 1049.162
1016.303, 2020.931
1018.232, 2784.972
1020.160, 2573.228
1022.089, 2032.393
1024.017, 1397.624
1025.945, 876.2162
1027.874, 642.5010
1029.802, 516.9462
1031.731, 428.9225
1033.659, 361.4660
1035.588, 307.5743
1037.516, 267.6559
1039.445, 249.1740
1041.373, 234.1881
1043.302, 213.7807
1045.230, 195.7277
1047.159, 182.6771
1049.087, 173.9532
1051.016, 171.7105
1052.944, 169.4180
1054.872, 164.8875
1056.801, 159.4911
1058.729, 153.3154
1060.658, 147.0168
1062.586, 139.4995
1064.515, 135.3807
1066.443, 138.2836
1068.372, 137.9734
1070.300, 130.7037
1072.229, 123.5720
1074.157, 117.2910
1076.086, 114.9991
1078.014, 118.4964
1079.943, 120.3538
1081.871, 119.1432
1083.799, 117.2758
1085.728, 115.0836
1087.656, 112.1015
1089.585, 108.1412
1091.513, 106.0035
1093.442, 106.0134
1095.370, 104.3388
1097.299, 100.7617
1099.227, 97.70260
1101.156, 95.35858
1103.084, 94.30830
1105.013, 94.24675
1106.941, 92.67052
1108.870, 90.02370
1110.798, 89.04919
1112.726, 89.20645
1114.655, 88.54676
1116.583, 87.17590
1118.512, 85.00681
1120.440, 82.73920
1122.369, 81.61591
1124.297, 81.54315
1126.226, 82.80964
1128.154, 84.59057
1130.083, 86.46791
1132.011, 87.50010
1133.940, 86.03741
1135.868, 84.02980
1137.797, 82.05244
1139.725, 81.77571
1141.653, 87.01315
1143.582, 90.39041
1145.510, 85.88525
1147.439, 81.54233
1149.367, 80.41644
1151.296, 80.76680
1153.224, 83.90150
1155.153, 85.11270
1157.081, 81.05013
1159.010, 79.69906
1160.938, 84.04082
1162.867, 85.59715
1164.795, 82.77057
1166.724, 81.16068
1168.652, 81.22350
1170.580, 81.30942
1172.509, 81.37953
1174.437, 79.51720
1176.366, 76.10325
1178.294, 75.96782
1180.223, 78.10185
1182.151, 77.23702
1184.080, 75.12445
1186.008, 77.21609
1187.937, 80.61921
1189.865, 80.07259
1191.794, 78.26905
1193.722, 77.66408
1195.651, 78.10741
1197.579, 80.22286
1199.507, 82.25407
1201.436, 83.05737
1203.364, 83.41167
1205.293, 83.58899
1207.221, 83.57339
1209.150, 83.06506
1211.078, 82.97636
1213.007, 83.45361
1214.935, 84.53026
1216.864, 86.54588
1218.792, 88.32516
1220.721, 90.22294
1222.649, 89.45236
1224.578, 85.86958
1226.506, 84.92573
1228.434, 86.32812
1230.363, 88.84320
1232.291, 91.40719
1234.220, 89.44967
1236.148, 86.37991
1238.077, 88.49966
1240.005, 92.59023
1241.934, 95.76330
1243.862, 98.37348
1245.791, 100.7421
1247.719, 102.4742
1249.648, 103.3544
1251.576, 103.5297
1253.505, 102.7362
1255.433, 102.3105
1257.361, 102.6390
1259.290, 103.1477
1261.218, 103.9004
1263.147, 103.3481
1265.075, 101.2464
1267.004, 101.8966
1268.932, 104.7830
1270.861, 106.8084
1272.789, 107.4806
1274.718, 103.9923
1276.646, 99.45768
1278.575, 99.58444
1280.503, 100.5980
1282.432, 97.53455
1284.360, 95.64342
1286.288, 98.48183
1288.217, 102.5182
1290.145, 107.9476
1292.074, 109.6034
1294.002, 105.2319
1295.931, 102.9142
1297.859, 104.0111
1299.788, 104.6934
1301.716, 104.6814
1303.645, 105.0437
1305.573, 105.5562
1307.502, 104.6251
1309.430, 103.3559
1311.359, 104.8167
1313.287, 106.5905
1315.215, 104.4515
1317.144, 103.0038
1319.072, 107.5358
1321.001, 110.6694
1322.929, 107.8089
1324.858, 107.2088
1326.786, 111.3904
1328.715, 113.7012
1330.643, 113.1420
1332.572, 114.3058
1334.500, 117.2186
1336.429, 118.4138
1338.357, 118.9219
1340.286, 123.2615
1342.214, 128.7238
1344.142, 130.8635
1346.071, 131.7165
1347.999, 132.3122
1349.928, 133.8505
1351.856, 137.8689
1353.785, 141.3125
1355.713, 142.2803
1357.642, 145.7439
1359.570, 152.3475
1361.499, 161.5597
1363.427, 172.7775
1365.356, 179.5438
1367.284, 183.0646
1369.213, 187.8143
1371.141, 192.6118
1373.069, 195.8540
1374.998, 197.8544
1376.926, 198.4137
1378.855, 198.5679
1380.783, 201.3305
1382.712, 198.7857
1384.640, 186.3373
1386.569, 176.6409
1388.497, 170.7048
1390.426, 162.9351
1392.354, 153.6962
1394.283, 145.9292
1396.211, 139.5992
1398.140, 134.4960
1400.068, 130.7459
1401.996, 130.2520
1403.925, 128.3790
1405.853, 120.3395
1407.782, 114.2227
1409.710, 113.1770
1411.639, 112.6956
1413.567, 112.9038
1415.496, 110.9606
1417.424, 107.3533
1419.353, 107.4948
1421.281, 109.6433
1423.210, 110.1833
1425.138, 110.3028
1427.067, 111.1412
1428.995, 111.8969
1430.923, 112.8356
1432.852, 111.7984
1434.780, 106.5452
1436.709, 105.3252
1438.637, 109.1040
1440.566, 108.1354
1442.494, 104.0716
1444.423, 104.6164
1446.351, 107.0042
1448.280, 107.3106
1450.208, 106.9461
1452.137, 106.8239
1454.065, 106.0825
1455.994, 103.5873
1457.922, 104.0315
1459.850, 108.9475
1461.779, 110.2602
1463.707, 108.6439
1465.636, 111.9498
1467.564, 115.8096
1469.493, 108.6374
1471.421, 101.7149
1473.350, 106.8820
1475.278, 108.9322
1477.207, 100.6134
1479.135, 96.09435
1481.064, 98.22286
1482.992, 102.4305
1484.921, 107.8170
1486.849, 110.6804
1488.777, 111.2215
1490.706, 108.0154
1492.634, 105.2390
1494.563, 108.1427
1496.491, 109.0659
1498.420, 104.5831
1500.348, 104.0445
1502.277, 109.0059
1504.205, 108.9461
1506.134, 104.9275
1508.062, 104.8180
1509.991, 106.0594
1511.919, 104.1523
1513.848, 102.5152
1515.776, 104.1842
1517.704, 105.2752
1519.633, 104.8172
1521.561, 105.4275
1523.490, 107.0064
1525.418, 103.0814
1527.347, 97.34609
1529.275, 101.5486
1531.204, 106.6863
1533.132, 100.9043
1535.061, 97.02552
1536.989, 102.1847
1538.918, 104.1502
1540.846, 101.3226
1542.775, 101.7373
1544.703, 104.2494
1546.631, 100.7090
1548.560, 96.89761
1550.488, 102.7878
1552.417, 108.4113
1554.345, 107.7047
1556.274, 104.9198
1558.202, 100.1922
1560.131, 97.27728
1562.059, 96.65430
1563.988, 101.8132
1565.916, 108.0096
1567.845, 107.6789
1569.773, 105.2797
1571.702, 102.6641
1573.630, 101.2764
1575.559, 101.6395
1577.487, 102.6889
1579.416, 104.0166
1581.344, 101.3475
1583.272, 98.04984
1585.201, 100.8072
1587.129, 103.4669
1589.058, 99.89001
1590.986, 99.28530
1592.915, 106.1272
1594.843, 108.4435
1596.772, 106.6697
1598.700, 105.8958
1600.629, 106.0249
1602.557, 107.8279
1604.486, 108.6684
1606.414, 106.4308
1608.343, 103.9672
1610.271, 100.5728
1612.199, 104.3069
1614.128, 112.8685
1616.056, 113.4184
1617.985, 110.0071
1619.913, 105.8660
1621.842, 103.2273
1623.770, 104.0755
1625.699, 103.1208
1627.627, 99.32651
1629.556, 96.80827
1631.484, 95.82642
1633.413, 98.04874
1635.341, 100.9422
1637.270, 102.9768
1639.198, 103.8295
1641.126, 103.2394
1643.055, 102.0482
1644.983, 100.5558
1646.912, 101.0754
1648.840, 102.4035
1650.769, 102.8240
1652.697, 102.6961
1654.626, 101.5865
1656.554, 103.0441
1658.483, 107.8317
1660.411, 108.0372
1662.340, 105.3723
1664.268, 104.4542
1666.197, 104.5503
1668.125, 105.7944
1670.053, 106.1198
1671.982, 105.1377
1673.910, 100.1662
1675.839, 93.45239
1677.767, 99.11566
1679.696, 107.8370
1681.624, 108.8430
1683.553, 106.1512
1685.481, 100.0712
1687.410, 97.44856
1689.338, 98.88293
1691.267, 103.4788
1693.195, 107.7678
1695.124, 103.9716
1697.052, 101.7031
1698.980, 107.6040
1700.909, 108.9520
1702.837, 104.6103
1704.766, 100.5836
1706.694, 98.39639
1708.623, 102.2256
1710.551, 105.9416
1712.480, 105.2507
1714.408, 103.4032
1716.337, 100.8076
1718.265, 100.5011
1720.194, 101.4278
1722.122, 100.5001
1724.051, 100.0382
1725.979, 102.3228
1727.907, 104.1294
1729.836, 104.9612
1731.764, 107.5877
1733.693, 109.9768
1735.621, 106.2957
1737.550, 101.8801
1739.478, 100.0276
1741.407, 100.3826
1743.335, 103.2388
1745.264, 99.67520
1747.192, 93.79953
1749.121, 96.18609
1751.049, 99.71465
1752.978, 98.85014
1754.906, 100.0770
1756.834, 104.5717
1758.763, 104.7477
1760.691, 102.0542
1762.620, 98.25035
1764.548, 95.71008
1766.477, 95.95321
1768.405, 97.79279
1770.334, 101.0485
1772.262, 101.6841
1774.191, 100.3413
1776.119, 96.89387
1778.048, 94.54140
1779.976, 94.44672
1781.905, 97.63795
1783.833, 103.2797
1785.761, 103.4768
1787.690, 101.2899
1789.618, 99.20383
1791.547, 98.80566
1793.475, 101.3040
1795.404, 100.3483
1797.332, 97.33668
1799.261, 99.15110
1801.189, 101.7756
1803.118, 102.5355
1805.046, 102.9587
1806.975, 103.4690
1808.903, 101.3496
1810.832, 98.10600
1812.760, 97.05716
1814.688, 96.97623
1816.617, 97.61826
1818.545, 95.76272
1820.474, 91.91737
1822.402, 94.68710
1824.331, 99.34991
1826.259, 101.7691
1828.188, 99.92209
1830.116, 92.99789
1832.045, 90.74941
1833.973, 91.61627
1835.902, 89.12106
1837.830, 89.72455
1839.759, 99.38385
1841.687, 101.3987
1843.615, 95.16436
1845.544, 94.01306
1847.472, 95.28109
1849.401, 96.77995
1851.329, 95.94772
1853.258, 91.80779
1855.186, 90.56529
1857.115, 91.98338
1859.043, 95.12896
1860.972, 97.16903
1862.900, 95.51391
1864.829, 95.08733
1866.757, 96.22324
1868.686, 97.07879
1870.614, 96.34828
1872.542, 90.28564
1874.471, 87.92862
1876.399, 91.12919
1878.328, 92.21192
1880.256, 92.45834
1882.185, 96.01733
1884.113, 96.72466
1886.042, 90.28660
1887.970, 85.44918
1889.899, 82.66880
1891.827, 85.13808
1893.756, 88.33978
1895.684, 88.44137
1897.613, 89.10094
1899.541, 90.43437
1901.469, 91.09634
1903.398, 91.24072
1905.326, 89.32755
1907.255, 89.29466
1909.183, 92.79593
1911.112, 89.55694
1913.040, 84.99411
1914.969, 87.14691
1916.897, 88.66885
1918.826, 86.61919
1920.754, 85.90585
1922.683, 86.09682
1924.611, 84.90271
1926.540, 84.60651
1928.468, 87.09218
1930.396, 87.08985
1932.325, 85.81979
1934.253, 90.07464
1936.182, 90.99368
1938.110, 83.03370
1940.039, 79.49655
1941.967, 80.41599
1943.896, 78.59542
1945.824, 77.16344
1947.753, 77.03635
1949.681, 77.75456
1951.610, 79.91757
1953.538, 80.17127
1955.467, 79.36111
1957.395, 77.83791
1959.323, 79.32934
1961.252, 84.58970
1963.180, 81.82400
1965.109, 77.18128
1967.037, 80.47176
1968.966, 80.57849
1970.894, 76.34329
1972.823, 73.08837
1974.751, 71.73959
1976.680, 76.33189
1978.608, 78.08839
1980.537, 76.27794
1982.465, 75.48872
1984.394, 74.97907
1986.322, 75.63480
1988.250, 76.71109
1990.179, 78.55111
1992.107, 77.08720
1994.036, 74.48808
1995.964, 74.46284
1997.893, 74.11011
1999.821, 73.53007
2001.750, 75.97533
2003.678, 77.90945
2005.607, 73.47020
2007.535, 72.17189
2009.464, 74.16390
2011.392, 74.58205
2013.321, 74.74999
2015.249, 74.63349
2017.177, 73.02413
2019.106, 71.35359
2021.034, 73.23832
2022.963, 73.80367
2024.891, 68.41383
2026.820, 68.39291
2028.748, 72.39481
2030.677, 69.11339
2032.605, 66.16763
2034.534, 70.92564
2036.462, 74.43105
2038.391, 75.46255
2040.319, 73.87376
2042.248, 72.42212
2044.176, 74.62040
2046.104, 72.26817
2048.033, 66.28258
2049.961, 65.86900
2051.890, 67.37994
2053.818, 68.54263
2055.747, 68.65184
2057.675, 70.22371
2059.604, 69.15740
2061.532, 67.10415
2063.461, 68.34942
2065.389, 68.31345
2067.318, 67.14436
2069.246, 64.63100
2071.175, 65.18270
2073.103, 70.57513
2075.031, 71.63534
2076.960, 70.70536
2078.888, 69.01945
2080.817, 68.77320
2082.745, 70.25503
2084.674, 63.61909
2086.602, 58.91847
2088.531, 64.99378
2090.459, 67.39362
2092.388, 64.41633
2094.316, 61.42604
2096.245, 61.47417
2098.173, 64.95852
2100.102, 68.46066
2102.030, 69.35016
2103.958, 67.55731
2105.887, 65.85852
2107.815, 62.88717
2109.744, 61.01194
2111.672, 60.82640
2113.601, 64.22459
2115.529, 64.77969
2117.458, 62.53368
2119.386, 62.82992
2121.315, 63.56736
2123.243, 65.27719
2125.172, 65.25552
2127.100, 62.95628
2129.029, 56.44965
2130.957, 54.75829
2132.885, 60.51217
2134.814, 64.36788
2136.742, 65.93667
2138.671, 62.61700
2140.599, 60.59945
2142.528, 59.66944
2144.456, 57.39226
2146.385, 57.42494
2148.313, 60.41684
2150.242, 58.49414
2152.170, 55.89638
2154.099, 60.26300
2156.027, 62.64177
2157.956, 62.02213
2159.884, 59.46943
2161.813, 55.94025
2163.741, 55.22822
2165.669, 56.75375
2167.598, 58.74307
2169.526, 62.38337
2171.455, 63.81723
2173.383, 57.83382
2175.312, 54.86471
2177.240, 55.30800
2179.169, 59.17374
2181.097, 59.35173
2183.026, 55.78333
2184.954, 50.42110
2186.883, 49.07947
2188.811, 54.54716
2190.740, 56.66835
2192.668, 56.94952
2194.596, 57.96008
2196.525, 57.78127
2198.453, 55.64924
2200.382, 55.88878
2202.310, 56.15320
2204.239, 54.87589
2206.167, 53.04560
2208.096, 51.80465
2210.024, 52.90732
2211.953, 53.42209
2213.881, 53.90017
2215.810, 58.17086
2217.738, 60.72573
2219.667, 58.35347
2221.595, 54.81182
2223.523, 51.95250
2225.452, 52.59058
2227.380, 54.11854
2229.309, 55.45101
2231.237, 57.09756
2233.166, 56.11104
2235.094, 50.87713
2237.023, 49.55219
2238.951, 49.95747
2240.880, 51.39307
2242.808, 50.59426
2244.737, 47.76266
2246.665, 48.60424
2248.594, 49.38703
2250.522, 47.80119
2252.450, 46.86687
2254.379, 47.37342
2256.307, 50.88606
2258.236, 50.80429
2260.164, 48.66824
2262.093, 50.63514
2264.021, 50.67033
2265.950, 47.28712
2267.878, 48.56438
2269.807, 50.20213
2271.735, 48.51215
2273.664, 48.62847
2275.592, 49.01285
2277.521, 46.64666
2279.449, 45.06493
2281.377, 45.01427
2283.306, 49.58422
2285.234, 51.47747
2287.163, 46.69263
2289.091, 46.65005
2291.020, 48.51252
2292.948, 50.01159
2294.877, 48.87826
2296.805, 46.52903
2298.734, 45.31287
2300.662, 44.27074
2302.591, 43.33215
2304.519, 44.14916
2306.448, 45.41956
2308.376, 46.82974
2310.304, 45.26374
2312.233, 43.82341
2314.161, 45.13372
2316.090, 45.15611
2318.018, 44.52085
2319.947, 44.21172
2321.875, 43.34303
2323.804, 43.25160
2325.732, 45.11351
2327.661, 44.62099
2329.589, 41.31950
2331.518, 43.22440
2333.446, 45.85714
2335.375, 45.58978
2337.303, 44.53432
2339.231, 44.24461
2341.160, 45.27173
2343.088, 45.09243
2345.017, 43.53678
2346.945, 40.95877
2348.874, 41.12930
2350.802, 43.89026
2352.731, 41.96177
2354.659, 40.25098
2356.588, 42.35612
2358.516, 42.08330
2360.445, 41.54134
2362.373, 41.83184
2364.302, 42.74340
2366.230, 44.54373
2368.158, 41.75395
2370.087, 40.57747
2372.015, 41.25536
2373.944, 40.76252
2375.872, 40.51018
2377.801, 42.39338
2379.729, 42.14922
2381.658, 41.17295
2383.586, 43.26103
2385.515, 42.00376
2387.443, 40.22741
2389.372, 41.85151
2391.300, 40.32562
2393.229, 38.71911
2395.157, 40.29040
2397.085, 39.10036
2399.014, 37.62056
2400.942, 39.93220
2402.871, 40.70526
2404.799, 40.35912
2406.728, 39.20202
2408.656, 38.82567
2410.585, 39.20208
2412.513, 38.99377
2414.442, 39.50362
2416.370, 40.56678
2418.299, 41.98590
2420.227, 42.78255
2422.156, 40.90896
2424.084, 40.16704
2426.012, 40.59678
2427.941, 39.03122
2429.869, 37.75989
2431.798, 38.29317
2433.726, 40.29953
2435.655, 37.84946
2437.583, 34.57246
2439.512, 38.91336
2441.440, 40.00261
2443.369, 37.48122
2445.297, 35.48820
2447.226, 34.80943
2449.154, 37.18697
2451.083, 38.33117
2453.011, 37.92996
2454.939, 38.92528
2456.868, 41.57099
2458.796, 41.15541
2460.725, 39.17472
2462.653, 37.79393
2464.582, 37.11272
2466.510, 37.45743
2468.439, 37.48878
2470.367, 39.37902
2472.296, 41.07666
2474.224, 42.36210
2476.153, 41.73846
2478.081, 37.95192
2480.010, 38.32097
2481.938, 37.98515
2483.866, 35.43264
2485.795, 35.33240
2487.723, 36.21100
2489.652, 37.08550
2491.580, 32.00846
2493.509, 31.30132
2495.437, 30.31641
2497.366, 28.97581
2499.294, 30.71928
2501.223, 28.86574
2503.151, 27.41381
2505.080, 27.42772
2507.008, 29.31364
2508.937, 29.68803
2510.865, 29.19292
2512.793, 28.26301
2514.722, 29.25987
2516.650, 30.31357
2518.579, 29.31666
2520.507, 27.95640
2522.436, 27.25697
2524.364, 27.07786
2526.293, 26.78292
2528.221, 25.98498
2530.150, 25.95501
2532.078, 27.53777
2534.007, 28.81767
2535.935, 31.07179
2537.864, 27.05039
2539.792, 24.19235
2541.720, 23.57447
2543.649, 23.54003
2545.577, 26.16434
2547.506, 28.31546
2549.434, 25.86016
2551.363, 24.77459
2553.291, 24.30261
2555.220, 24.38511
2557.148, 25.91976
2559.077, 26.38274
2561.005, 25.14707
2562.934, 24.49607
2564.862, 26.11612
2566.791, 26.13696
2568.719, 23.91011
2570.647, 21.84899
2572.576, 22.99614
2574.504, 24.02542
2576.433, 25.62602
2578.361, 24.43208
2580.290, 22.97426
2582.218, 21.80199
2584.147, 20.00773
2586.075, 20.80517
2588.004, 22.86514
2589.932, 24.75575
2591.861, 23.76812
2593.789, 19.56532
2595.718, 19.21368
2597.646, 21.33286
2599.574, 21.38417
2601.503, 19.74715
2603.431, 20.45427
2605.360, 21.63875
2607.288, 23.14519
2609.217, 23.44014
2611.145, 22.68704
2613.074, 20.67641
2615.002, 19.57956
2616.931, 20.60882
2618.859, 19.63212
2620.788, 19.58536
2622.716, 19.37033
2624.645, 19.32331
2626.573, 17.56172
2628.501, 16.12831
2630.430, 16.05926
2632.358, 19.40365
2634.287, 20.61050
2636.215, 17.87561
2638.144, 20.23000
2640.072, 19.82365
2642.001, 15.48051
2643.929, 18.96009
2645.858, 21.13380
2647.786, 17.93144
2649.715, 16.55310
2651.643, 18.06050
2653.572, 18.26111
2655.500, 19.08715
2657.428, 18.26397
2659.357, 16.58985
2661.285, 15.55469
2663.214, 18.47692
2665.142, 21.89112
2667.071, 21.17987
2668.999, 19.03166
2670.928, 15.86405
2672.856, 11.15302
2674.785, 12.64017
2676.713, 16.54938
2678.642, 19.92955
2680.570, 17.74902
2682.499, 16.71649
2684.427, 18.03350
2686.355, 19.36621
2688.284, 19.38617
2690.212, 18.93741
2692.141, 19.35098
2694.069, 16.57293
2695.998, 15.07998
2697.926, 20.40401
2699.855, 16.01426
2701.783, 11.22706
2703.712, 12.51184
2705.640, 11.90440
2707.569, 13.88857
2709.497, 19.15612
2711.426, 13.22591
2713.354, 11.56306
2715.282, 17.68727
2717.211, 18.57749
2719.139, 14.52307
2721.068, 10.59468
2722.996, 12.91322
2724.925, 16.14323
2726.853, 17.86096
2728.782, 17.41881
2730.710, 15.28552
2732.639, 14.59137
2734.567, 16.39238
2736.496, 15.32473
2738.424, 15.03192
2740.353, 16.59499
2742.281, 17.22047
2744.209, 15.11938
2746.138, 12.51992
2748.066, 14.34428
2749.995, 16.25573
2751.923, 16.83812
2753.852, 14.11293
2755.780, 11.94395
2757.709, 12.18014
2759.637, 14.43566
2761.566, 16.08003
2763.494, 15.20904
2765.423, 12.95123
2767.351, 16.18107
2769.280, 15.94963
2771.208, 14.14954
2773.136, 15.63003
2775.065, 19.11387
2776.993, 20.26251
2778.922, 16.65134
2780.850, 17.00730
2782.779, 18.36046
2784.707, 18.73794
2786.636, 14.79312
2788.564, 11.88586
2790.493, 11.50265
2792.421, 15.91309
2794.350, 14.88256
2796.278, 12.51678
2798.207, 13.07677
2800.135, 14.84986
2802.063, 16.51627
2803.992, 16.88803
2805.920, 14.78601
2807.849, 14.53309
2809.777, 14.78749
2811.706, 14.32806
2813.634, 12.54517
2815.563, 12.47040
2817.491, 16.10534
2819.420, 14.08102
2821.348, 13.50914
2823.277, 15.91511
2825.205, 17.24724
2827.134, 15.00233
2829.062, 12.93145
2830.990, 14.59990
2832.919, 14.16885
2834.847, 13.63764
2836.776, 14.34606
2838.704, 12.08315
2840.633, 11.00959
2842.561, 11.41254
2844.490, 13.20704
2846.418, 16.52086
2848.347, 17.88086
2850.275, 13.83839
2852.204, 12.01144
2854.132, 11.06499
2856.061, 11.53004
2857.989, 11.98983
2859.917, 14.01818
2861.846, 17.24942
2863.774, 15.02144
2865.703, 12.00918
2867.631, 11.48327
2869.560, 11.90530
2871.488, 11.64047
2873.417, 10.82621
2875.345, 10.47520
2877.274, 10.15069
2879.202, 8.857132
2881.131, 8.350661
2883.059, 11.83195
2884.988, 9.270158
2886.916, 7.771977
2888.844, 8.745984
2890.773, 7.535429
2892.701, 8.577100
2894.630, 10.29055
2896.558, 12.01283
2898.487, 12.46415
2900.415, 10.20393
2902.344, 7.707250
2904.272, 8.922112
2906.201, 10.41578
2908.129, 11.04964
2910.058, 12.54059
2911.986, 7.119240
2913.915, 5.619086
2915.843, 8.909848
2917.771, 8.744587
2919.700, 9.814026
2921.628, 9.024654
2923.557, 6.859352
2925.485, 6.581671
2927.414, 5.458756
2929.342, 5.628935
2931.271, 7.991475
2933.199, 6.807820
2935.128, 6.582431
2937.056, 8.305079
2938.985, 8.313570
2940.913, 8.420943
2942.842, 8.327120
2944.770, 7.858016
2946.698, 5.648771
2948.627, 5.567699
2950.555, 6.366107
2952.484, 5.268645
2954.412, 2.592262
2956.341, 0.7420649
2958.269, 6.037492
2960.198, 7.064958
2962.126, 6.665884
2964.055, 5.376679
2965.983, 4.127254
2967.912, 2.846708
2969.840, 3.067163
2971.769, 4.811106
2973.697, 6.900723
2975.625, 7.159904
2977.554, 7.050058
2979.482, 7.205598
2981.411, 5.276400
2983.339, 3.946615
2985.268, 4.165455
2987.196, 3.511550
2989.125, 3.352907
2991.053, 3.386642
2992.982, 3.878184
2994.910, 6.873673
2996.839, 4.428259
2998.767, 0.3462032
3000.696, 6.130369
3002.624, 5.615835
3004.552, 5.844429
3006.481, 6.990800
3008.409, 5.357524
3010.338, 5.001668
3012.266, 4.883274
3014.195, 2.307960
3016.123, 1.261622
3018.052, 3.203572
3019.980, 4.601420
3021.909, 2.380650
3023.837, 4.447446
3025.766, 4.892159
3027.694, 5.556505
3029.623, 3.472932
3031.551, 1.204409
3033.479, 2.376879
3035.408, 4.979368
3037.336, 3.634626
3039.265, 0.7591819
3041.193, 1.452706
3043.122, 1.929535
3045.050, 0.6921487
3046.979, -0.8546776
3048.907, -1.843001
3050.836, 2.623410
3052.764, 4.838306
3054.693, 3.364960
3056.621, 2.404540
3058.550, 3.813123
3060.478, 2.585780
3062.407, 1.543653
3064.335, 1.377465
3066.264, -1.356494
3068.192, -3.2130979E-02
3070.121, 1.675774
3072.049, 1.193067
3073.978, 1.421438
3075.906, 2.058179
3077.834, 3.365987
3079.763, 2.493804
3081.691, 3.095735
3083.620, 0.7986190
3085.548, -0.2434483
3087.477, 1.723918
3089.405, 2.680876
3091.334, 1.577171
3093.262, 2.105136
3095.191, 5.842072
3097.119, 1.188157
3099.048, -0.4539725
3100.976, 0.8850571
3102.905, 0.7630532
3104.833, 6.884319
3106.761, 5.441251
3108.690, -1.551262
3110.618, -0.5651217
3112.547, 3.204529
3114.475, 3.882125
3116.404, 2.664275
3118.332, 2.478431
3120.261, 1.102108
3122.189, 1.023089
3124.118, 4.065408
3126.046, 5.099141
3127.975, -0.3587001
3129.903, -1.653564
3131.832, 1.416210
3133.760, 1.8312059E-02
3135.688, -0.2203958
3137.617, -0.3394260
3139.545, -6.8671808E-02
3141.474, 2.240642
3143.402, -0.6023451
3145.331, -2.978323
3147.259, -1.604005
3149.188, -1.399454
3151.116, -0.2709040
3153.045, 1.434475
3154.973, 2.074998
3156.902, 0.5884716
3158.830, -2.352406
3160.759, -2.221265
3162.687, 0.9779966
3164.615, 3.524270
3166.544, 3.211162
3168.472, 3.042566
3170.401, 2.015230
3172.329, -2.558495
3174.258, -2.754121
3176.186, 0.9072141
3178.115, 2.688095
3180.043, -2.778901
3181.972, 0.3673277
3183.900, 0.5533276
3185.829, -7.1474522E-02
3187.757, 1.494226
3189.686, 0.1814096
3191.614, 1.052800
3193.542, 2.320399
3195.471, 2.556213
3197.399, 2.566023
3199.328, 1.020828
3201.256, -0.3813357
3203.185, 0.1408750
3205.113, 0.4291402
3207.042, 0.8352162
3208.970, 0.6850219
3210.899, 2.9900041E-04
3212.827, -0.3553796
3214.756, -0.8204762
3216.684, 0.4771148
3218.613, 1.851749
3220.541, 3.9950259E-02
3222.469, 1.057342
3224.398, 2.260620
3226.326, 2.026223
3228.255, -0.1332042
3230.183, 1.379000
3232.112, 1.182580
3234.040, -0.3146512
3235.969, -1.506977
3237.897, 0.4487534
3239.826, 1.068676
3241.754, 0.7839972
3243.683, 0.9688944
3245.611, 3.488837
3247.540, -0.4306312
3249.468, -2.790170
3251.396, -2.520339
3253.325, -1.504569
3255.253, 3.335849
3257.182, 3.643767
3259.110, 1.648827
3261.039, 0.2058863
3262.967, -1.506352
3264.896, -0.6731204
3266.824, -1.335746
3268.753, -2.945894
3270.681, -0.5729853
3272.610, -0.6887607
3274.538, 1.381752
3276.467, 2.804576
3278.395, 0.5028393
3280.323, 1.668075
3282.252, 2.624125
3284.180, 0.7443584
3286.109, -2.564855
3288.037, 0.9097359
3289.966, 1.475226
3291.894, 0.3541965
3293.823, 6.3850380E-02
3295.751, 2.420807
3297.680, 3.539355
3299.608, 2.467919
3301.537, -7.0701249E-02
3303.465, -2.007850
3305.394, 1.357311
3307.322, 0.2697211
3309.250, 1.265887
3311.179, 3.915389
3313.107, 4.180299
3315.036, 0.3857444
3316.964, -1.756712
3318.893, -1.668055
3320.821, -4.3272499E-02
3322.750, 1.832350
3324.678, -0.6075270
3326.607, -0.3544247
3328.535, 0.6970965
3330.464, -0.8747754
3332.392, -0.3756036
3334.321, 1.325087
3336.249, -1.269338
3338.177, -5.406551
3340.106, -0.2573734
3342.034, 2.644651
3343.963, 1.344733
3345.891, 0.5107111
3347.820, 2.957572
3349.748, 4.982162
3351.677, 3.793342
3353.605, 0.9935874
3355.534, -0.7720761
3357.462, -6.0313411E-02
3359.391, -0.8558342
3361.319, -0.8811821
3363.248, -1.667073
3365.176, -1.838703
3367.104, 2.067487
3369.033, -3.184623
3370.961, -4.397680
3372.890, -0.8989053
3374.818, 3.078011
3376.747, 1.750251
3378.675, -1.041422
3380.604, -2.642344
3382.532, -2.954246
3384.461, -2.164639
3386.389, -3.019357
3388.318, -2.754378
3390.246, -1.285583
3392.175, -0.1679213
3394.103, -1.102847
3396.031, -0.4759769
3397.960, 0.7866954
3399.888, 0.9431378
3401.817, -7.5661197E-02
3403.745, -1.792611
3405.674, -4.188858
3407.602, -2.194875
3409.531, 0.4407832
3411.459, 0.9466307
3413.388, -0.9900999
3415.316, 0.7429898
3417.245, 8.7680863E-03
3419.173, -1.406248
3421.102, -1.008475
3423.030, 2.532375
3424.958, 5.534382
3426.887, 3.304075
3428.815, -1.291074
3430.744, -4.062428
3432.672, -1.473322
3434.601, -2.403094
3436.529, 0.2190615
3438.458, 1.812334
3440.386, -0.1691141
3442.315, -2.427544
3444.243, 3.373625
3446.172, -0.2462949
3448.100, -1.279335
3450.029, 2.875416
3451.957, -0.3691801
3453.885, -2.547893
3455.814, -4.641767
3457.742, -2.415629
3459.671, 1.861607
3461.599, 1.131149
3463.528, 2.364213
3465.456, 0.1756530
3467.385, -3.412285
3469.313, -5.291355
3471.242, -3.653344
3473.170, -1.384682
3475.099, -2.259033
3477.027, -3.797647
3478.956, -4.365815
3480.884, -3.516707
3482.813, -1.349704
3484.741, 5.374321
3486.669, 2.184715
3488.598, -2.694762
3490.526, -0.1325270
3492.455, 0.1053281
3494.383, -1.151346
3496.312, 0.9691914
3498.240, 0.9194067
3500.169, -2.197328
3502.097, 0.5485449
3504.026, 2.878574
3505.954, 3.391747
3507.883, 0.2930738
3509.811, -3.258605
3511.740, -2.378131
3513.668, -3.011561
3515.596, 3.523426
3517.525, 1.451194
3519.453, -0.4900315
3521.382, 4.980226
3523.310, -0.2715777
3525.239, 0.4415104
3527.167, 1.108862
3529.096, 1.279471
3531.024, 0.9963024
3532.953, -0.7752652
3534.881, -2.851948
3536.810, -3.641299
3538.738, -2.592520
3540.667, -0.5694194
3542.595, -0.2371737
3544.523, -6.526280
3546.452, -7.7064931E-02
3548.380, 1.309832
3550.309, -3.741903
3552.237, -7.066599
3554.166, -1.720779
3556.094, -0.2311415
3558.023, 0.1316745
3559.951, -0.7265588
3561.880, -0.5369730
3563.808, 1.018595
3565.737, -1.9180140E-02
3567.665, 1.906556
3569.594, 0.9431302
3571.522, -0.4180063
3573.450, 1.162156
3575.379, 4.533036
3577.307, -4.790005
3579.236, 0.8746023
3581.164, 2.029362
3583.093, 2.029171
3585.021, 1.494359
3586.950, -4.075891
3588.878, 0.3953734
3590.807, -0.9595351
3592.735, -2.830408
3594.664, -3.057149
3596.592, -2.141634
3598.521, -1.200210
3600.449, -1.009790
3602.377, -2.005120
3604.306, -1.758841
3606.234, -1.155083
3608.163, -1.098410
3610.091, -1.048912
3612.020, -3.330430
3613.948, -0.8598274
3615.877, -1.875703
3617.805, -3.056360
3619.734, -0.9052657
3621.662, 1.229995
3623.591, -2.665546
3625.519, -2.469851
3627.448, 1.865108
3629.376, 1.151984
3631.304, -4.090599
3633.233, -2.357422
3635.161, -5.743908
3637.090, -2.302550
3639.018, -4.742124
3640.947, -2.336867
3642.875, 3.750878
3644.804, -0.9510663
3646.732, 1.628416
3648.661, 3.855218
3650.589, 0.1786460
3652.518, -1.234619
3654.446, -0.4552788
3656.375, -3.242825
3658.303, -4.290818
3660.231, -6.024800
3662.160, -2.170801
3664.088, -0.9039419
3666.017, -2.213700
3667.945, -2.244505
3669.874, -3.215142
3671.802, -3.775280
3673.731, -0.7837396
3675.659, 3.017801
3677.588, 0.8063110
3679.516, -4.171594
3681.445, 0.7146639
3683.373, 1.228549
3685.302, -6.7327127E-02
3687.230, 2.432733
3689.158, 1.761201
3691.087, -3.541046
3693.015, -7.149696
3694.944, -0.6157556
3696.872, -2.784992
3698.801, -2.060613
3700.729, -5.668643
3702.658, -7.153736
3704.586, -2.679650
3706.515, 1.985648
3708.443, 0.4282384
3710.372, -0.8200512
3712.300, -0.8546765
3714.229, -2.421825
3716.157, -2.789986
3718.085, 0.2630721
3720.014, 3.232061
3721.942, 1.815838
3723.871, -1.731159
3725.799, 0.8295828
3727.728, 0.5878485
3729.656, -2.611759
3731.585, -3.263352
3733.513, -1.248569
3735.442, -2.315778
3737.370, 0.4418848
3739.299, -1.050644
3741.227, -0.6825774
3743.156, 0.4671043
3745.084, -0.9895419
3747.012, 2.022518
3748.941, -0.5894191
3750.869, -7.6017901E-02
3752.798, -1.333268
3754.726, -1.632032
3756.655, -1.845085
3758.583, -1.395000
3760.512, 6.126560
3762.440, -1.980332
3764.369, -0.2605554
3766.297, 2.583063
3768.226, -1.002104
3770.154, -5.935846
3772.083, -6.229882
3774.011, -3.536940
3775.939, -2.523746
3777.868, -3.8019110E-02
3779.796, -2.675935
3781.725, -4.560970
3783.653, -3.128772
3785.582, -1.156013
3787.510, -0.9782743
3789.439, 0.7410276
3791.367, 2.446364
3793.296, -2.175590
3795.224, -4.179084
3797.153, -4.864801
3799.081, -2.590655
3801.010, 2.140893
3802.938, 1.344936
3804.866, -4.894998
3806.795, -1.290830
3808.723, 0.1306716
3810.652, -0.4281364
3812.580, -1.904964
3814.509, -1.254354
3816.437, 2.116773
3818.366, 0.1801824
3820.294, 9.7725429E-02
3822.223, -0.8003154
3824.151, -0.9515118
3826.080, -2.193677
3828.008, 0.2163378
3829.937, 2.083210
3831.865, -3.144093
3833.793, -3.380481
3835.722, 4.556563
3837.650, -0.3675905
3839.579, -7.951395
3841.507, -1.930269
3843.436, 1.056089
3845.364, -5.579871
3847.293, -8.681486
3849.221, -5.887090
3851.150, -3.285077
3853.078, -8.102658
3855.007, 1.568017
3856.935, 1.846310
3858.864, -0.5596390
3860.792, -0.2625953
3862.720, -0.7230549
3864.649, -0.7906384
3866.577, -10.44111
3868.506, -1.512146
3870.434, 2.844383
3872.363, 1.863008
3874.291, 2.290073
3876.220, -0.1986926
3878.148, -3.869111
3880.077, -1.151055
3882.005, -2.219271
3883.934, -1.684018
3885.862, 2.317416
3887.791, 3.681685
3889.719, 2.168279
3891.647, 1.254810
3893.576, 1.066108
3895.504, -0.5364760
3897.433, -3.100355
3899.361, -1.231417
3901.290, -3.209448
3903.218, -1.906248
3905.147, 0.8743900
3907.075, -1.819675
3909.004, -1.660224
3910.932, 2.140031
3912.861, 2.153048
3914.789, -1.747531
3916.718, 1.998916
3918.646, 1.642623
3920.574, -2.553238
3922.503, -3.059868
3924.431, 0.6841254
3926.360, -3.448234
3928.288, -3.998973
3930.217, 0.9053540
3932.145, -1.579321
3934.074, -5.717123
3936.002, -2.550866
3937.931, -4.602063
3939.859, -1.715812
3941.788, -3.303604
3943.716, -5.611313
3945.645, -5.399982
3947.573, -2.331787
3949.501, 1.790676
3951.430, 3.297150
3953.358, -0.8985922
3955.287, -1.274851
3957.215, -1.2532070E-03
3959.144, -2.283784
3961.072, 1.372387
3963.001, -1.228244
3964.929, -1.888729
3966.858, -0.3669602
3968.786, -1.122771
3970.715, -1.388520
3972.643, -2.264495
3974.572, -8.6404672E-03
3976.500, -3.498988
3978.428, 1.801950
3980.357, -3.147554
3982.285, -0.1344268
3984.214, -3.324311
3986.142, -9.600218
3988.071, -7.956818
3989.999, -2.080297
3991.928, -7.4924514E-02
3993.856, -1.137946
3995.785, -0.8003588
3997.713, -6.281784
3999.642, -6.846962
4001.570, -3.249962
4003.499, 2.197711
4005.427, -3.097185
4007.355, -8.229066
4009.284, -4.562028
4011.212, 0.1288371
4013.141, 1.260421
4015.069, 2.386620
4016.998, 2.572207
4018.926, 0.4854687
4020.855, -1.080944
4022.783, -0.3596681
4024.712, 0.7227959
4026.640, -3.578580
4028.569, -5.172449
4030.497, -3.354761
4032.426, -2.641158
4034.354, 0.1275217
4036.282, 5.432269
4038.211, 0.1628772
4040.139, 3.839933
4042.068, -3.780732
4043.996, -2.854969
4045.925, -3.741378
4047.853, -1.044331
4049.782, -1.806379
4051.710, -0.4741772
4053.639, 0.3025592
4055.567, -1.420498
4057.496, -0.8732247
4059.424, 1.373077
4061.353, 2.491389
4063.281, 0.2698466
4065.209, -6.241517
4067.138, 3.764384
4069.066, -0.8958858
4070.995, -2.184552
4072.923, 2.365203
4074.852, 2.218683
4076.780, -2.687129
4078.709, -3.621776
4080.637, -4.105114
4082.566, -4.734507
4084.494, -0.2001103
4086.423, -2.960071
4088.351, -7.190728
4090.280, -0.5207398
4092.208, -0.9849563
4094.136, -2.134371
4096.065, -3.426812
4097.994, -3.724956
4099.922, -4.177861
4101.851, -1.743121
4103.779, 0.8966675
4105.708, 7.7464841E-02
4107.636, -0.7030945
4109.564, -0.1438019
4111.493, -1.862322
4113.421, -3.223466
4115.350, 1.007262
4117.278, -4.601785
4119.207, -0.1863910
4121.135, -7.275871
4123.063, -6.5600321E-02
4124.992, -0.5524641
4126.920, -2.593482
4128.849, 0.7406852
4130.777, -2.496758
4132.706, -5.996369
4134.634, 0.1746393
4136.563, -0.3589416
4138.491, -2.761721
4140.420, 0.7974524
4142.348, -1.698812
4144.277, -3.811787
4146.205, -3.640141
4148.134, -1.334779
4150.062, 8.3309159E-02
4151.991, -3.371037
4153.919, -3.860219
4155.848, -2.852064
4157.776, -1.538500
4159.705, -1.254460
4161.633, -0.8146188
4163.562, -4.096605
4165.490, -2.603114
4167.418, -2.807692
4169.347, -2.771510
4171.275, -0.5058449
4173.204, -1.333993
4175.132, -0.2361656
4177.061, 1.490695
4178.989, -5.416146
4180.917, 1.420257
4182.846, 3.636782
4184.774, 0.1507218
4186.703, -7.079242
4188.631, -7.120122
4190.560, 3.679363
4192.488, 3.499699
4194.417, -3.392360
4196.345, 3.611635
4198.274, 0.1170707
4200.202, 1.712619
4202.131, 0.4463781
4204.059, -3.056115
4205.988, -3.020633
4207.916, 2.151495
4209.845, -0.3177791
4211.773, -4.939026
4213.702, 1.492002
4215.630, 2.775847
4217.559, -3.718609
4219.487, -0.9177541
4221.416, -3.013633
4223.344, 2.428650
4225.272, -0.3248407
4227.201, -4.612307
4229.129, 0.9014151
4231.058, -0.9361818
4232.986, -3.137191
4234.915, -10.14292
4236.843, -0.5668938
4238.771, 2.313266
4240.700, 2.809191
4242.628, 0.7329667
4244.557, -0.2161571
4246.485, -6.050907
4248.414, -6.562084
4250.342, -1.106937
4252.271, -4.790561
4254.199, -2.312587
4256.128, 2.188401
4258.056, 6.856513
4259.985, 2.170499
4261.913, 1.621489
4263.842, 0.9908499
4265.770, -0.9985619
4267.699, 0.3604783
4269.627, -2.881442
4271.556, -2.489608
4273.484, -4.115226
4275.413, 0.2945061
4277.341, -1.267785
4279.270, -4.654529
4281.198, 3.702828
4283.126, -4.369077
4285.055, 1.078710
4286.983, 1.277182
4288.912, -1.134386
4290.840, -2.495045
4292.769, -2.569062
4294.697, -2.501416
4296.625, -4.211746
4298.554, 3.277272
4300.482, -0.2765199
4302.411, -4.914664
4304.339, -1.928315
4306.268, -0.9143155
4308.196, -4.643649
4310.125, -3.285653
4312.053, -1.731829
4313.982, -0.6047078
4315.910, 2.032237
4317.839, 1.808129
4319.767, 0.3833935
4321.696, 0.0000000E+00
4323.624, 0.7725105
4325.553, -4.535933
4327.481, -5.769778
4329.410, 1.076523
4331.338, 2.971346
4333.267, 4.149599
4335.195, 0.4683550
4337.124, -4.715074
4339.052, -2.019768
4340.980, -2.017681
4342.909, -6.6727087E-02
4344.837, 2.771580
4346.766, -2.112266
4348.694, -3.842797
4350.623, -1.804142
4352.551, -0.3230782
4354.479, -1.091071
4356.408, -5.142296
4358.336, -0.5143051
4360.265, -1.177410
4362.193, -3.016576
4364.122, -0.3032137
4366.050, -3.379634
4367.979, -4.246166
4369.907, -1.872570
4371.836, -1.899795
4373.764, -0.7001284
##END=



