##NAMES=Serendibite
##RRUFFID=R070633
##IDEAL CHEMISTRY=Ca_4_[Mg_6_Al_6_]O_4_[Si_6_B_3_Al_3_O_36_]
##LOCALITY=Burma
##OWNER=RRUFF
##SOURCE=www.multicolour.com
##DESCRIPTION=Black, dark blue under strong light, polished gemstone
##STATUS=The identification of this mineral has been confirmed by X-ray diffraction and chemical analysis
##URL=https://www.rruff.net/odr/rruff_sample/R070633
##MEASURED CHEMISTRY=(Ca_1.91_Na_0.09_)(Mg_2.59_Al_0.18_Fe^2+^_0.11_Fe^3+^_0.11_)Al_4.50_B_1.50_(Si_2.78_Al_0.22_)O_20_ ; B_2_O_3_ estimated by charge balance  Fe^2+^ and Fe^3+^ splitted by charge balance
##DIFFRACTION SAMPLE DESCRIPTION=Powder
##CELL PARAMETERS=a: 10.0181 b: 10.4009 c: 8.6435 alpha: 106.472 beta: 95.98 gamma: 124.39 volume: 671.8 crystal system: triclinic
##FILETYPE=Raman RAW
##RAMAN WAVELENGTH=532

134.2155, 28.79701
136.1440, 25.45809
138.0724, 22.40660
140.0009, 20.40427
141.9294, 19.13626
143.8578, 18.27427
145.7863, 18.25243
147.7148, 18.78818
149.6432, 18.59763
151.5717, 16.56888
153.5002, 14.94336
155.4286, 14.95567
157.3571, 17.36441
159.2856, 18.59175
161.2140, 17.65370
163.1425, 15.04893
165.0710, 13.44304
166.9994, 12.82437
168.9279, 12.83061
170.8564, 13.25542
172.7848, 15.62025
174.7133, 17.02884
176.6418, 16.75816
178.5702, 15.22974
180.4987, 13.88196
182.4272, 11.87753
184.3556, 10.34982
186.2841, 10.45722
188.2126, 13.72378
190.1410, 16.48330
192.0695, 17.34063
193.9980, 16.44032
195.9264, 15.35771
197.8549, 14.29505
199.7834, 13.46448
201.7118, 13.01048
203.6403, 12.85830
205.5688, 12.88641
207.4972, 13.00728
209.4257, 13.29239
211.3542, 14.28199
213.2826, 16.75450
215.2111, 18.44156
217.1396, 17.93627
219.0680, 14.42692
220.9965, 12.08092
222.9250, 11.97150
224.8534, 13.53740
226.7819, 14.27979
228.7104, 13.81706
230.6388, 13.38004
232.5673, 13.67439
234.4958, 15.44659
236.4242, 16.39100
238.3527, 16.09428
240.2812, 15.04177
242.2096, 14.10631
244.1381, 12.62504
246.0666, 11.63142
247.9950, 11.97808
249.9235, 14.70101
251.8520, 16.38819
253.7804, 15.56414
255.7089, 13.45993
257.6374, 12.71862
259.5658, 14.39145
261.4943, 16.00246
263.4228, 16.40585
265.3512, 16.13917
267.2797, 15.85467
269.2082, 15.22668
271.1366, 14.37869
273.0651, 14.00699
274.9936, 14.69208
276.9220, 15.42351
278.8505, 15.95894
280.7790, 16.47425
282.7074, 16.57519
284.6359, 15.43640
286.5644, 14.08353
288.4928, 14.10652
290.4213, 16.07239
292.3498, 17.67494
294.2782, 17.97009
296.2067, 17.16299
298.1352, 16.71511
300.0636, 16.50182
301.9921, 16.59932
303.9206, 17.33771
305.8490, 18.64677
307.7775, 19.63009
309.7060, 20.22189
311.6344, 20.70603
313.5629, 20.46488
315.4914, 19.15163
317.4198, 17.68266
319.3483, 16.56673
321.2768, 15.05632
323.2052, 13.74964
325.1337, 12.80741
327.0622, 12.73606
328.9906, 13.15057
330.9191, 13.90426
332.8476, 14.56419
334.7760, 15.27881
336.7045, 16.51750
338.6330, 16.83155
340.5614, 15.36614
342.4899, 13.61690
344.4184, 12.97493
346.3468, 13.55280
348.2753, 14.25645
350.2038, 15.09098
352.1322, 16.25637
354.0607, 16.47740
355.9892, 14.37761
357.9176, 12.51492
359.8461, 12.26089
361.7746, 13.77244
363.7030, 15.26497
365.6315, 16.88396
367.5600, 18.45981
369.4884, 18.91909
371.4169, 17.56760
373.3454, 16.38783
375.2738, 16.23348
377.2023, 17.16158
379.1308, 17.78835
381.0592, 18.07346
382.9877, 18.19856
384.9162, 18.16601
386.8446, 17.87831
388.7731, 17.66025
390.7016, 17.54497
392.6300, 17.65947
394.5585, 17.99103
396.4870, 18.92860
398.4154, 19.48096
400.3439, 18.94410
402.2724, 17.39177
404.2008, 16.67124
406.1293, 17.94554
408.0578, 19.44519
409.9862, 19.56385
411.9147, 17.91285
413.8432, 16.52995
415.7716, 15.79677
417.7001, 15.67894
419.6286, 16.26108
421.5570, 18.95891
423.4855, 21.04488
425.4140, 20.86117
427.3424, 18.59039
429.2709, 17.32240
431.1994, 18.88359
433.1278, 21.01498
435.0563, 21.94548
436.9848, 20.46898
438.9132, 19.50114
440.8417, 19.90125
442.7702, 21.01507
444.6986, 21.43866
446.6271, 20.00920
448.5556, 19.01265
450.4840, 19.50470
452.4125, 21.71293
454.3410, 23.02433
456.2694, 22.80805
458.1979, 22.11583
460.1264, 21.58388
462.0548, 21.20236
463.9833, 20.89046
465.9118, 20.82658
467.8402, 20.99105
469.7687, 21.00233
471.6972, 20.88007
473.6256, 20.61084
475.5541, 19.86271
477.4826, 18.46290
479.4110, 18.32780
481.3395, 21.11243
483.2680, 24.03057
485.1964, 24.42861
487.1249, 21.71442
489.0534, 19.75545
490.9818, 20.32950
492.9103, 22.02296
494.8388, 22.66748
496.7672, 21.75952
498.6957, 20.86720
500.6242, 20.02232
502.5526, 18.75118
504.4811, 18.07021
506.4096, 18.89019
508.3380, 20.50782
510.2665, 21.49375
512.1949, 20.96085
514.1234, 20.73437
516.0519, 22.00701
517.9803, 24.29204
519.9088, 25.58004
521.8373, 25.02340
523.7657, 24.18916
525.6942, 23.71796
527.6227, 23.80166
529.5511, 24.11991
531.4796, 24.86120
533.4081, 24.99973
535.3365, 24.01449
537.2650, 22.52477
539.1935, 21.65000
541.1219, 21.23212
543.0504, 20.27621
544.9789, 20.62179
546.9073, 22.74862
548.8358, 24.49696
550.7643, 23.53400
552.6927, 22.01194
554.6212, 21.36077
556.5497, 21.76697
558.4781, 21.34259
560.4066, 20.79702
562.3351, 22.24963
564.2635, 24.18806
566.1920, 26.36299
568.1205, 26.82639
570.0490, 25.98829
571.9774, 24.23407
573.9059, 23.16118
575.8344, 23.20306
577.7628, 24.31861
579.6913, 25.09818
581.6198, 24.99441
583.5482, 24.17170
585.4767, 23.08799
587.4052, 23.15702
589.3336, 23.95617
591.2621, 24.97300
593.1906, 25.21197
595.1190, 25.11410
597.0475, 25.23597
598.9760, 25.46571
600.9044, 25.81827
602.8329, 25.83594
604.7614, 25.22882
606.6898, 23.97037
608.6183, 23.04951
610.5468, 23.12457
612.4752, 24.28472
614.4037, 24.66474
616.3322, 24.15899
618.2606, 23.54721
620.1891, 23.87162
622.1176, 24.58887
624.0460, 24.78065
625.9745, 24.10718
627.9030, 22.86741
629.8314, 22.03809
631.7599, 22.10843
633.6884, 22.22022
635.6168, 21.75152
637.5453, 20.45421
639.4738, 19.81801
641.4022, 20.32862
643.3307, 20.70237
645.2592, 20.14869
647.1876, 19.10565
649.1161, 18.54209
651.0446, 18.75429
652.9730, 19.66906
654.9015, 20.93244
656.8300, 21.23152
658.7584, 21.13845
660.6869, 21.43391
662.6154, 22.05799
664.5438, 22.12005
666.4723, 21.23108
668.4008, 20.60704
670.3292, 20.58765
672.2577, 21.10980
674.1862, 21.34553
676.1146, 21.33699
678.0431, 21.28877
679.9716, 21.25542
681.9000, 21.21651
683.8285, 21.65108
685.7570, 22.10801
687.6854, 22.12351
689.6139, 21.73303
691.5424, 21.31029
693.4708, 20.74162
695.3993, 20.52339
697.3278, 21.46888
699.2562, 22.95763
701.1847, 23.07523
703.1132, 20.64482
705.0416, 19.19966
706.9701, 19.69918
708.8986, 21.21488
710.8270, 21.90170
712.7555, 22.01649
714.6840, 22.38676
716.6124, 23.08848
718.5409, 23.66023
720.4694, 24.05536
722.3978, 23.59240
724.3263, 22.54566
726.2548, 21.08558
728.1832, 20.65560
730.1117, 21.50563
732.0402, 22.27269
733.9686, 22.09687
735.8971, 20.78955
737.8256, 19.46527
739.7540, 19.62850
741.6825, 21.00181
743.6110, 22.39823
745.5394, 23.68092
747.4679, 25.21677
749.3964, 26.01982
751.3248, 24.69773
753.2533, 23.53022
755.1818, 23.74631
757.1102, 25.05535
759.0387, 25.09174
760.9672, 24.59553
762.8956, 24.26150
764.8241, 24.17290
766.7526, 23.64408
768.6810, 23.76627
770.6095, 24.30527
772.5380, 24.15686
774.4664, 22.71463
776.3949, 21.47037
778.3234, 21.29089
780.2518, 22.25116
782.1803, 23.29186
784.1088, 24.53434
786.0372, 25.36821
787.9657, 25.44912
789.8942, 24.61305
791.8226, 23.82208
793.7511, 23.09550
795.6796, 23.32589
797.6080, 24.21491
799.5365, 24.39102
801.4650, 24.06836
803.3934, 23.74787
805.3219, 24.61070
807.2504, 25.21594
809.1788, 25.22820
811.1073, 25.11940
813.0358, 25.10191
814.9642, 24.89270
816.8927, 24.63402
818.8212, 24.56518
820.7496, 24.42467
822.6781, 23.78727
824.6066, 22.85795
826.5350, 22.70937
828.4635, 24.02227
830.3920, 24.90621
832.3204, 24.23141
834.2489, 23.35164
836.1774, 23.84932
838.1058, 25.71141
840.0343, 26.80657
841.9628, 25.96616
843.8912, 24.87403
845.8197, 24.58000
847.7482, 25.36789
849.6766, 25.91018
851.6051, 26.17530
853.5336, 26.24024
855.4620, 25.93751
857.3905, 25.02033
859.3190, 24.93564
861.2474, 26.80796
863.1759, 29.09690
865.1044, 30.32033
867.0328, 30.21993
868.9613, 29.70664
870.8898, 28.40029
872.8182, 27.27393
874.7467, 27.11739
876.6752, 27.93543
878.6036, 28.59542
880.5321, 28.94908
882.4606, 29.31085
884.3890, 29.68330
886.3175, 30.02426
888.2460, 30.25722
890.1744, 30.38387
892.1029, 30.44001
894.0314, 30.40093
895.9598, 30.26527
897.8883, 30.23631
899.8168, 30.45154
901.7452, 30.66457
903.6737, 30.84573
905.6022, 30.95944
907.5306, 30.64293
909.4591, 29.16966
911.3876, 28.04339
913.3160, 28.13662
915.2445, 29.73772
917.1730, 30.69631
919.1014, 31.15565
921.0299, 30.74409
922.9584, 28.88477
924.8868, 26.19118
926.8153, 24.74350
928.7438, 25.28516
930.6722, 26.10220
932.6007, 26.47298
934.5292, 26.27235
936.4576, 26.32394
938.3861, 26.75648
940.3146, 27.50817
942.2430, 28.67291
944.1715, 29.93663
946.1000, 30.65373
948.0284, 30.40292
949.9569, 30.03850
951.8854, 29.83312
953.8138, 29.88744
955.7423, 29.60057
957.6708, 28.51577
959.5992, 28.34982
961.5277, 30.91386
963.4562, 33.70935
965.3846, 34.09104
967.3131, 30.31496
969.2416, 27.81796
971.1700, 27.20588
973.0985, 27.54930
975.0270, 28.09989
976.9554, 29.20006
978.8839, 30.20836
980.8124, 30.72616
982.7408, 30.43586
984.6693, 30.17550
986.5978, 31.26348
988.5262, 31.36275
990.4547, 29.01764
992.3832, 26.62759
994.3116, 25.62374
996.2401, 25.94879
998.1686, 26.64592
1000.097, 28.17800
1002.026, 29.17451
1003.954, 28.77938
1005.882, 27.82737
1007.811, 26.94509
1009.739, 25.45371
1011.668, 23.93415
1013.596, 22.70159
1015.525, 22.98047
1017.453, 24.02851
1019.382, 24.39900
1021.310, 24.45108
1023.239, 23.93635
1025.167, 23.30467
1027.096, 23.16326
1029.024, 25.38165
1030.953, 27.39099
1032.881, 27.05932
1034.809, 25.01763
1036.738, 23.43988
1038.666, 24.05510
1040.595, 24.08445
1042.523, 22.41454
1044.452, 21.39207
1046.380, 22.64516
1048.309, 25.59228
1050.237, 26.87984
1052.166, 25.83924
1054.094, 24.61083
1056.023, 23.89767
1057.951, 23.78203
1059.880, 24.08696
1061.808, 24.71362
1063.736, 25.22864
1065.665, 25.77480
1067.593, 26.26351
1069.522, 26.13440
1071.450, 25.03998
1073.379, 24.04185
1075.307, 23.14671
1077.236, 22.40683
1079.164, 21.89067
1081.093, 21.87004
1083.021, 22.38070
1084.950, 23.49010
1086.878, 24.45615
1088.807, 24.85080
1090.735, 24.97791
1092.663, 25.29198
1094.592, 25.76306
1096.520, 25.92673
1098.449, 25.78087
1100.377, 25.53550
1102.306, 25.21913
1104.234, 23.89288
1106.163, 22.99792
1108.091, 23.85873
1110.020, 25.52663
1111.948, 26.25473
1113.877, 25.15425
1115.805, 24.33348
1117.734, 23.76820
1119.662, 23.51649
1121.590, 23.55384
1123.519, 23.46059
1125.447, 22.67299
1127.376, 22.92190
1129.304, 24.47033
1131.233, 25.51973
1133.161, 25.29936
1135.090, 24.81119
1137.018, 25.46971
1138.947, 25.93883
1140.875, 25.86810
1142.804, 25.33005
1144.732, 24.53439
1146.661, 23.58227
1148.589, 23.85149
1150.517, 24.94666
1152.446, 25.66634
1154.374, 26.67661
1156.303, 28.39011
1158.231, 29.67449
1160.160, 29.43567
1162.088, 28.25150
1164.017, 26.43336
1165.945, 24.71378
1167.874, 24.00186
1169.802, 24.48043
1171.731, 24.34782
1173.659, 24.03407
1175.588, 23.84915
1177.516, 23.19877
1179.444, 21.48519
1181.373, 21.02481
1183.301, 24.39710
1185.230, 27.32130
1187.158, 26.59243
1189.087, 23.42636
1191.015, 22.01531
1192.944, 23.48210
1194.872, 24.41398
1196.801, 23.32254
1198.729, 22.47872
1200.658, 22.83986
1202.586, 24.05577
1204.515, 24.29918
1206.443, 24.02715
1208.371, 24.25324
1210.300, 24.62347
1212.228, 25.05071
1214.157, 25.13514
1216.085, 23.88324
1218.014, 23.35583
1219.942, 25.03149
1221.871, 27.00712
1223.799, 27.28966
1225.728, 26.06770
1227.656, 25.40010
1229.585, 25.19051
1231.513, 24.90127
1233.442, 25.72685
1235.370, 27.54598
1237.298, 28.57829
1239.227, 28.18946
1241.155, 27.40756
1243.084, 26.23497
1245.012, 25.22032
1246.941, 25.25115
1248.869, 26.88498
1250.798, 27.85245
1252.726, 27.36158
1254.655, 26.51560
1256.583, 26.11697
1258.512, 25.99042
1260.440, 25.83554
1262.369, 25.89950
1264.297, 26.05656
1266.225, 25.72945
1268.154, 24.48090
1270.082, 23.45331
1272.011, 22.93299
1273.939, 22.85510
1275.868, 23.23038
1277.796, 23.61940
1279.725, 23.82561
1281.653, 24.06188
1283.582, 24.65316
1285.510, 25.77506
1287.439, 26.83913
1289.367, 27.86950
1291.296, 28.52063
1293.224, 28.81230
1295.152, 28.60329
1297.081, 27.94527
1299.009, 25.70535
1300.938, 24.78269
1302.866, 26.03309
1304.795, 28.09487
1306.723, 30.01081
1308.652, 31.68226
1310.580, 31.77535
1312.509, 28.95967
1314.437, 26.47745
1316.366, 25.21776
1318.294, 25.23148
1320.223, 27.00712
1322.151, 30.92029
1324.079, 32.99412
1326.008, 31.07819
1327.936, 28.88598
1329.865, 28.40636
1331.793, 29.19167
1333.722, 29.58166
1335.650, 29.51319
1337.579, 29.22070
1339.507, 28.08794
1341.436, 27.22012
1343.364, 27.88274
1345.293, 30.23997
1347.221, 31.41419
1349.150, 30.66595
1351.078, 29.75187
1353.006, 28.72134
1354.935, 27.89034
1356.863, 27.70011
1358.792, 28.25800
1360.720, 28.51968
1362.649, 27.99435
1364.577, 27.68430
1366.506, 28.52948
1368.434, 29.56777
1370.363, 29.18535
1372.291, 27.30208
1374.220, 25.62891
1376.148, 23.91981
1378.077, 23.07129
1380.005, 24.37274
1381.933, 26.84369
1383.862, 27.91994
1385.790, 27.10359
1387.719, 26.39502
1389.647, 26.07484
1391.576, 26.24841
1393.504, 27.25482
1395.433, 28.71357
1397.361, 29.30993
1399.290, 28.41072
1401.218, 27.97736
1403.147, 28.85278
1405.075, 29.72684
1407.004, 29.17863
1408.932, 27.01390
1410.860, 26.19322
1412.789, 29.14606
1414.717, 30.52236
1416.646, 27.99517
1418.574, 24.82948
1420.503, 24.37870
1422.431, 26.38154
1424.360, 26.91182
1426.288, 24.85589
1428.217, 23.95820
1430.145, 26.14364
1432.074, 29.04972
1434.002, 30.72119
1435.931, 31.18640
1437.859, 31.19194
1439.787, 30.86013
1441.716, 30.52578
1443.644, 30.05293
1445.573, 29.38026
1447.501, 28.62404
1449.430, 28.12536
1451.358, 28.91224
1453.287, 32.37996
1455.215, 34.48635
1457.144, 32.24759
1459.072, 29.19318
1461.001, 29.07790
1462.929, 31.53151
1464.858, 32.65537
1466.786, 31.76457
1468.714, 30.91153
1470.643, 30.47794
1472.571, 30.24232
1474.500, 29.91785
1476.428, 30.00093
1478.357, 30.77144
1480.285, 31.58663
1482.214, 32.46965
1484.142, 34.73373
1486.071, 36.55896
1487.999, 35.16314
1489.928, 30.28624
1491.856, 27.97737
1493.785, 30.59459
1495.713, 32.65949
1497.641, 33.37678
1499.570, 33.38782
1501.498, 32.83243
1503.427, 31.36669
1505.355, 30.60123
1507.284, 31.73961
1509.212, 31.92875
1511.141, 28.39264
1513.069, 25.71859
1514.998, 28.60063
1516.926, 35.18554
1518.855, 38.52871
1520.783, 38.64467
1522.712, 37.41327
1524.640, 32.38831
1526.568, 27.85005
1528.497, 26.95359
1530.425, 28.94166
1532.354, 31.99037
1534.282, 36.55095
1536.211, 38.84305
1538.139, 36.48895
1540.068, 33.61270
1541.996, 32.38676
1543.925, 32.19038
1545.853, 32.05682
1547.782, 31.88526
1549.710, 31.63136
1551.639, 31.33583
1553.567, 31.16179
1555.495, 30.55777
1557.424, 30.35499
1559.352, 32.33197
1561.281, 36.32040
1563.209, 37.36673
1565.138, 33.15266
1567.066, 30.60150
1568.995, 34.07098
1570.923, 37.76489
1572.852, 36.87244
1574.780, 32.26237
1576.709, 30.05467
1578.637, 31.44793
1580.566, 31.92344
1582.494, 28.69029
1584.422, 26.26526
1586.351, 27.92347
1588.279, 31.92520
1590.208, 33.98521
1592.136, 33.51503
1594.065, 32.79746
1595.993, 31.53275
1597.922, 30.70141
1599.850, 30.51226
1601.779, 31.17825
1603.707, 33.50639
1605.636, 37.61852
1607.564, 38.35811
1609.493, 32.66127
1611.421, 28.98355
1613.349, 29.80762
1615.278, 31.71057
1617.206, 32.49146
1619.135, 32.41469
1621.063, 32.70237
1622.992, 33.99632
1624.920, 34.34892
1626.849, 32.37650
1628.777, 30.94100
1630.706, 31.57210
1632.634, 33.07264
1634.563, 33.75409
1636.491, 33.48745
1638.420, 33.82121
1640.348, 35.32986
1642.276, 36.61750
1644.205, 37.64969
1646.133, 38.32822
1648.062, 38.44548
1649.990, 38.16275
1651.919, 38.02810
1653.847, 38.36636
1655.776, 38.08400
1657.704, 36.86151
1659.633, 35.47894
1661.561, 33.59125
1663.490, 32.06693
1665.418, 32.13805
1667.347, 33.76403
1669.275, 34.88070
1671.203, 35.15777
1673.132, 35.40126
1675.060, 35.05636
1676.989, 35.34898
1678.917, 37.81038
1680.846, 41.01099
1682.774, 42.02995
1684.703, 40.27553
1686.631, 39.25637
1688.560, 39.64504
1690.488, 39.80980
1692.417, 39.57011
1694.345, 38.91923
1696.274, 37.36463
1698.202, 35.37597
1700.130, 34.72315
1702.059, 36.13553
1703.987, 37.11942
1705.916, 37.38109
1707.844, 37.60759
1709.773, 38.51499
1711.701, 39.05643
1713.630, 37.57232
1715.558, 34.49473
1717.487, 33.48263
1719.415, 35.28492
1721.344, 37.50232
1723.272, 41.84577
1725.201, 44.24556
1727.129, 41.64009
1729.057, 37.39412
1730.986, 35.95823
1732.914, 37.23131
1734.843, 36.11446
1736.771, 30.55268
1738.700, 27.31463
1740.628, 28.98577
1742.557, 30.97728
1744.485, 31.21661
1746.414, 30.87147
1748.342, 31.54637
1750.271, 33.24972
1752.199, 35.01131
1754.128, 37.49289
1756.056, 38.22957
1757.984, 34.90525
1759.913, 32.01503
1761.841, 31.76164
1763.770, 32.91670
1765.698, 33.76109
1767.627, 34.35988
1769.555, 36.07552
1771.484, 39.81129
1773.412, 41.77362
1775.341, 39.34030
1777.269, 37.47635
1779.198, 39.73946
1781.126, 43.11200
1783.055, 43.40332
1784.983, 41.16434
1786.911, 40.37912
1788.840, 41.66311
1790.768, 42.51865
1792.697, 41.95979
1794.625, 41.57445
1796.554, 42.84354
1798.482, 44.15848
1800.411, 43.63945
1802.339, 41.70388
1804.268, 39.80241
1806.196, 37.73397
1808.125, 37.47438
1810.053, 40.83079
1811.982, 43.60498
1813.910, 43.13412
1815.839, 42.09520
1817.767, 43.68686
1819.695, 46.72015
1821.624, 46.66737
1823.552, 42.74619
1825.481, 41.29145
1827.409, 44.99356
1829.338, 47.83572
1831.266, 48.58822
1833.195, 47.64726
1835.123, 43.73219
1837.052, 38.81513
1838.980, 37.60396
1840.909, 40.77081
1842.837, 42.19695
1844.766, 40.54456
1846.694, 39.33111
1848.622, 39.18958
1850.551, 39.17242
1852.479, 37.95847
1854.408, 37.19781
1856.336, 40.06215
1858.265, 46.03790
1860.193, 48.37530
1862.122, 45.60504
1864.050, 43.30452
1865.979, 41.56884
1867.907, 40.82719
1869.836, 42.23977
1871.764, 43.64282
1873.693, 42.53889
1875.621, 40.46660
1877.549, 41.97837
1879.478, 47.11402
1881.406, 49.72551
1883.335, 48.89759
1885.263, 46.93307
1887.192, 42.84241
1889.120, 40.03233
1891.049, 41.69612
1892.977, 44.50258
1894.906, 44.41441
1896.834, 42.51170
1898.763, 42.91328
1900.691, 46.09263
1902.620, 47.77647
1904.548, 46.55141
1906.476, 45.57277
1908.405, 45.65701
1910.333, 46.36730
1912.262, 48.69239
1914.190, 50.77582
1916.119, 48.60629
1918.047, 42.64785
1919.976, 40.67775
1921.904, 45.82553
1923.833, 48.61278
1925.761, 46.95227
1927.689, 45.86401
1929.618, 47.33519
1931.546, 48.99900
1933.475, 48.90932
1935.403, 48.03291
1937.332, 48.57660
1939.260, 50.53543
1941.189, 49.89585
1943.117, 45.32683
1945.046, 43.54042
1946.974, 47.57204
1948.903, 50.58048
1950.831, 49.69689
1952.760, 47.28853
1954.688, 43.61594
1956.616, 40.27467
1958.545, 40.13638
1960.473, 42.83792
1962.402, 46.07880
1964.330, 50.24858
1966.259, 52.24873
1968.187, 49.72555
1970.116, 48.04426
1972.044, 49.53889
1973.973, 51.68574
1975.901, 53.20478
1977.830, 54.03711
1979.758, 53.92604
1981.687, 52.94821
1983.615, 51.88200
1985.543, 50.09573
1987.472, 49.87274
1989.400, 52.69339
1991.329, 54.75145
1993.257, 55.27450
1995.186, 54.97838
1997.114, 53.72845
1999.043, 52.22252
2000.971, 51.05175
2002.900, 50.31717
2004.828, 50.62547
2006.757, 51.99487
2008.685, 52.57290
2010.614, 51.81046
2012.542, 51.65615
2014.470, 53.01737
2016.399, 54.41177
2018.327, 55.91781
2020.256, 56.48485
2022.184, 54.11696
2024.113, 50.63380
2026.041, 50.07734
2027.970, 52.35026
2029.898, 53.09241
2031.827, 51.29784
2033.755, 50.15675
2035.684, 49.30419
2037.612, 49.67832
2039.541, 53.00130
2041.469, 55.68890
2043.397, 55.29218
2045.326, 53.99473
2047.254, 54.23280
2049.183, 55.34079
2051.111, 55.19328
2053.040, 53.94011
2054.968, 54.40821
2056.897, 57.27783
2058.825, 59.41788
2060.754, 60.35304
2062.682, 60.35046
2064.611, 59.16037
2066.539, 57.45930
2068.468, 54.35486
2070.396, 51.94827
2072.324, 54.13340
2074.253, 59.12100
2076.181, 60.13620
2078.110, 56.37466
2080.038, 54.99329
2081.967, 57.04602
2083.895, 58.23184
2085.824, 57.47575
2087.752, 56.93478
2089.681, 57.21565
2091.609, 57.97189
2093.538, 59.33440
2095.466, 60.79110
2097.395, 61.78809
2099.323, 62.46772
2101.251, 63.39035
2103.180, 64.53072
2105.108, 64.14297
2107.037, 60.65726
2108.965, 60.15310
2110.894, 66.56831
2112.822, 70.31930
2114.751, 67.92157
2116.679, 64.93868
2118.608, 63.26836
2120.536, 62.53243
2122.465, 63.50275
2124.393, 64.60941
2126.322, 61.35241
2128.250, 55.52926
2130.178, 56.65312
2132.107, 65.23977
2134.035, 69.62315
2135.964, 67.18046
2137.892, 65.45584
2139.821, 67.24837
2141.749, 68.07977
2143.678, 65.10536
2145.606, 62.63598
2147.535, 63.94392
2149.463, 66.44064
2151.392, 67.61543
2153.320, 67.70271
2155.249, 66.93929
2157.177, 65.45792
2159.105, 64.58963
2161.034, 64.26526
2162.962, 66.19980
2164.891, 71.59812
2166.819, 75.36908
2168.748, 76.24689
2170.676, 75.42224
2172.605, 70.98638
2174.533, 67.82247
2176.462, 70.99457
2178.390, 75.08398
2180.319, 72.91373
2182.247, 67.78123
2184.176, 67.61905
2186.104, 71.93870
2188.032, 74.14020
2189.961, 74.06742
2191.889, 73.93488
2193.818, 74.01884
2195.746, 73.33447
2197.675, 70.58412
2199.603, 69.61462
2201.532, 73.97210
2203.460, 77.54895
2205.389, 77.00055
2207.317, 74.79321
2209.246, 71.72347
2211.174, 69.20031
2213.103, 69.74292
2215.031, 72.67909
2216.959, 76.10749
2218.888, 79.96740
2220.816, 80.47994
2222.745, 77.10672
2224.673, 75.02727
2226.602, 75.01585
2228.530, 75.77573
2230.459, 78.03120
2232.387, 79.15297
2234.316, 76.07059
2236.244, 74.33917
2238.173, 79.58456
2240.101, 84.80556
2242.030, 82.40401
2243.958, 76.81012
2245.886, 74.15838
2247.815, 74.31049
2249.743, 78.05014
2251.672, 84.68553
2253.600, 87.79610
2255.529, 86.95856
2257.457, 84.59874
2259.386, 79.58817
2261.314, 77.61185
2263.243, 83.19373
2265.171, 86.33000
2267.100, 81.06819
2269.028, 78.05956
2270.957, 85.08501
2272.885, 92.00766
2274.813, 90.39198
2276.742, 86.47021
2278.670, 87.54097
2280.599, 90.83555
2282.527, 91.07796
2284.456, 89.19769
2286.384, 89.03345
2288.313, 90.67326
2290.241, 92.03914
2292.170, 93.50816
2294.098, 93.40658
2296.027, 89.94179
2297.955, 89.05528
2299.884, 93.35944
2301.812, 95.90466
2303.740, 93.82658
2305.669, 91.52544
2307.597, 90.35307
2309.526, 90.43175
2311.454, 93.28279
2313.383, 96.03439
2315.311, 94.12846
2317.240, 91.37716
2319.168, 95.30700
2321.097, 103.2484
2323.025, 106.3441
2324.954, 105.0375
2326.882, 104.5773
2328.811, 104.9949
2330.739, 103.7827
2332.667, 100.2352
2334.596, 99.37669
2336.524, 103.6789
2338.453, 106.1011
2340.381, 103.9103
2342.310, 102.1928
2344.238, 101.8188
2346.167, 102.4993
2348.095, 105.5723
2350.024, 107.8729
2351.952, 106.4391
2353.881, 104.7151
2355.809, 105.9293
2357.738, 108.2401
2359.666, 109.2586
2361.594, 109.6376
2363.523, 110.6251
2365.451, 112.2275
2367.380, 115.2114
2369.308, 119.6619
2371.237, 118.9101
2373.165, 112.5319
2375.094, 109.1040
2377.022, 109.4613
2378.951, 110.9702
2380.879, 113.8683
2382.808, 115.9474
2384.736, 116.9184
2386.665, 116.7857
2388.593, 112.7296
2390.521, 111.7266
2392.450, 118.9244
2394.378, 126.1195
2396.307, 130.5357
2398.235, 132.1908
2400.164, 129.0982
2402.092, 125.1390
2404.021, 124.6738
2405.949, 125.4228
2407.878, 123.5555
2409.806, 120.4797
2411.735, 119.8097
2413.663, 120.9771
2415.592, 120.3315
2417.520, 118.5395
2419.448, 122.2617
2421.377, 131.4373
2423.305, 137.9302
2425.234, 141.4214
2427.162, 140.5152
2429.091, 130.2346
2431.019, 125.8652
2432.948, 131.5057
2434.876, 135.2739
2436.805, 134.9942
2438.733, 134.5082
2440.662, 134.8016
2442.590, 135.0523
2444.519, 135.5355
2446.447, 135.0285
2448.375, 130.9219
2450.304, 128.1928
2452.232, 130.5996
2454.161, 135.1467
2456.089, 141.0904
2458.018, 146.2135
2459.946, 148.1682
2461.875, 147.7496
2463.803, 144.9932
2465.732, 141.2719
2467.660, 138.7207
2469.589, 137.6021
2471.517, 139.3767
2473.446, 143.5743
2475.374, 146.9138
2477.302, 149.3624
2479.231, 149.9771
2481.159, 148.8687
2483.088, 151.1781
2485.016, 158.2628
2486.945, 159.7767
2488.873, 149.6753
2490.802, 147.5069
2492.730, 159.0788
2494.659, 163.7647
2496.587, 157.1079
2498.516, 151.5964
2500.444, 149.3807
2502.373, 149.6139
2504.301, 153.6307
2506.229, 157.4615
2508.158, 162.0737
2510.086, 163.0772
2512.015, 153.8711
2513.943, 147.4008
2515.872, 150.5590
2517.800, 156.8564
2519.729, 166.0317
2521.657, 172.6025
2523.586, 169.8163
2525.514, 165.2672
2527.443, 166.4927
2529.371, 169.5613
2531.300, 170.0896
2533.228, 169.4317
2535.156, 169.0666
2537.085, 169.1560
2539.013, 169.6424
2540.942, 170.9288
2542.870, 175.4836
2544.799, 181.1479
2546.727, 179.7420
2548.656, 173.0677
2550.584, 170.4245
2552.513, 171.3055
2554.441, 172.8606
2556.370, 175.0274
2558.298, 178.4646
2560.227, 183.3073
2562.155, 184.9156
2564.083, 182.3406
2566.012, 182.7502
2567.940, 186.5967
2569.869, 189.3455
2571.797, 190.6449
2573.726, 192.0291
2575.654, 193.5460
2577.583, 195.8525
2579.511, 201.5942
2581.440, 202.6681
2583.368, 196.4246
2585.297, 191.9213
2587.225, 189.8247
2589.154, 190.9291
2591.082, 197.2892
2593.010, 201.5402
2594.939, 201.2172
2596.867, 199.5419
2598.796, 194.6580
2600.724, 192.8664
2602.653, 197.8188
2604.581, 200.9897
2606.510, 197.6971
2608.438, 196.1029
2610.367, 200.9616
2612.295, 206.1075
2614.224, 209.9435
2616.152, 212.1827
2618.081, 210.5940
2620.009, 210.4397
2621.938, 216.2408
2623.866, 220.7554
2625.794, 217.3325
2627.723, 214.6293
2629.651, 220.5511
2631.580, 225.8270
2633.508, 221.4288
2635.437, 217.3934
2637.365, 222.1358
2639.294, 227.9837
2641.222, 229.5166
2643.151, 229.2715
2645.079, 227.9695
2647.008, 227.5230
2648.936, 230.7447
2650.865, 234.6117
2652.793, 234.0762
2654.721, 235.0281
2656.650, 247.1192
2658.578, 259.5086
2660.507, 259.5707
2662.435, 253.9494
2664.364, 246.5921
2666.292, 241.8586
2668.221, 249.7628
2670.149, 259.2823
2672.078, 254.0557
2674.006, 245.6927
2675.935, 251.1677
2677.863, 262.0077
2679.792, 267.1401
2681.720, 268.8363
2683.648, 269.6771
2685.577, 269.9166
2687.505, 268.0934
2689.434, 267.3637
2691.362, 275.1056
2693.291, 285.2159
2695.219, 286.6482
2697.148, 284.1033
2699.076, 284.0889
2701.005, 286.5998
2702.933, 293.3385
2704.862, 301.0823
2706.790, 305.1526
2708.719, 306.0503
2710.647, 303.2979
2712.575, 298.8956
2714.504, 293.8903
2716.432, 291.5056
2718.361, 300.6859
2720.289, 312.6368
2722.218, 310.3817
2724.146, 302.6031
2726.075, 305.0301
2728.003, 311.4517
2729.932, 311.4207
2731.860, 309.1140
2733.789, 310.0813
2735.717, 312.9829
2737.646, 317.0156
2739.574, 320.5932
2741.502, 319.8094
2743.431, 318.3568
2745.359, 322.8643
2747.288, 328.1450
2749.216, 325.7802
2751.145, 321.4756
2753.073, 324.0925
2755.002, 328.1961
2756.930, 326.0463
2758.859, 322.4881
2760.787, 321.2248
2762.716, 323.0729
2764.644, 333.2196
2766.573, 342.4384
2768.501, 336.7439
2770.429, 329.5173
2772.358, 335.9960
2774.286, 343.6100
2776.215, 340.3062
2778.143, 334.0404
2780.072, 329.9495
2782.000, 328.2569
2783.929, 328.8349
2785.857, 332.3614
2787.786, 341.6706
2789.714, 350.9904
2791.643, 359.2548
2793.571, 362.3509
2795.500, 352.1428
2797.428, 343.9247
2799.356, 346.7244
2801.285, 351.2778
2803.213, 352.6200
2805.142, 354.4337
2807.070, 360.8594
2808.999, 364.2764
2810.927, 360.3099
2812.856, 356.3157
2814.784, 353.2575
2816.713, 354.0777
2818.641, 364.6735
2820.570, 370.7764
2822.498, 366.3084
2824.427, 362.7287
2826.355, 362.1424
2828.283, 363.4751
2830.212, 367.0502
2832.140, 371.2828
2834.069, 376.3561
2835.997, 381.3546
2837.926, 386.6116
2839.854, 389.9330
2841.783, 391.0503
2843.711, 389.7982
2845.640, 384.1107
2847.568, 382.2217
2849.497, 384.7463
2851.425, 384.9867
2853.354, 382.4254
2855.282, 383.7779
2857.210, 389.8060
2859.139, 395.1068
2861.067, 399.6213
2862.996, 401.7238
2864.924, 402.3873
2866.853, 412.4399
2868.781, 427.4298
2870.710, 417.6553
2872.638, 392.6067
2874.567, 393.9066
2876.495, 411.1332
2878.424, 417.4400
2880.352, 417.1945
2882.281, 416.8248
2884.209, 417.1420
2886.137, 419.9336
2888.066, 423.9080
2889.994, 428.6009
2891.923, 432.1180
2893.851, 432.1480
2895.780, 430.5406
2897.708, 427.1219
2899.637, 425.2768
2901.565, 428.8048
2903.494, 432.1496
2905.422, 428.4114
2907.351, 429.0772
2909.279, 446.6319
2911.208, 457.9859
2913.136, 453.7359
2915.064, 448.1000
2916.993, 442.5105
2918.921, 443.1100
2920.850, 455.3587
2922.778, 466.7180
2924.707, 476.6208
2926.635, 483.7178
2928.564, 487.5302
2930.492, 490.0905
2932.421, 491.3463
2934.349, 492.3881
2936.278, 493.2206
2938.206, 491.7747
2940.135, 488.4454
2942.063, 487.5370
2943.991, 488.7861
2945.920, 489.2107
2947.848, 490.0304
2949.777, 498.4310
2951.705, 508.7522
2953.634, 507.9926
2955.562, 502.9934
2957.491, 504.8173
2959.419, 508.8360
2961.348, 507.8983
2963.276, 508.4099
2965.205, 519.9064
2967.133, 529.1631
2969.062, 521.3943
2970.990, 517.5118
2972.918, 529.5919
2974.847, 541.2829
2976.775, 546.9495
2978.704, 549.1979
2980.632, 546.3088
2982.561, 544.5441
2984.489, 544.0169
2986.418, 547.6992
2988.346, 557.6776
2990.275, 564.3625
2992.203, 567.2343
2994.132, 566.4851
2996.060, 562.8370
2997.989, 567.1891
2999.917, 576.8708
3001.845, 570.0826
3003.774, 554.6049
3005.702, 558.3881
3007.631, 572.4175
3009.559, 584.3993
3011.488, 591.2429
3013.416, 581.6965
3015.345, 573.3506
3017.273, 588.5323
3019.202, 604.5895
3021.130, 607.4711
3023.059, 607.1878
3024.987, 605.1549
3026.916, 607.7303
3028.844, 620.1512
3030.772, 625.7886
3032.701, 617.0408
3034.629, 610.9734
3036.558, 608.8510
3038.486, 612.2942
3040.415, 621.3962
3042.343, 631.7783
3044.272, 642.5610
3046.200, 640.1340
3048.129, 629.6260
3050.057, 643.0833
3051.986, 665.4597
3053.914, 661.0819
3055.843, 647.9047
3057.771, 654.8362
3059.699, 663.8820
3061.628, 655.1694
3063.556, 645.1762
3065.485, 642.9445
3067.413, 645.1169
3069.342, 651.9154
3071.270, 660.1911
3073.199, 670.3592
3075.127, 677.6951
3077.056, 679.7079
3078.984, 680.9636
3080.913, 680.7278
3082.841, 690.3247
3084.770, 708.9565
3086.698, 720.9279
3088.626, 726.5089
3090.555, 727.1254
3092.483, 723.7645
3094.412, 714.7906
3096.340, 707.1689
3098.269, 709.6570
3100.197, 718.2010
3102.126, 735.9250
3104.054, 747.9676
3105.983, 741.7808
3107.911, 736.8185
3109.840, 742.1624
3111.768, 746.6617
3113.697, 748.9586
3115.625, 749.0204
3117.553, 745.9228
3119.482, 747.2468
3121.410, 753.4365
3123.339, 755.0854
3125.267, 754.4689
3127.196, 761.1306
3129.124, 771.8174
3131.053, 781.1911
3132.981, 788.3665
3134.910, 790.9220
3136.838, 792.3459
3138.767, 795.5866
3140.695, 797.7363
3142.624, 798.8959
3144.552, 794.8696
3146.480, 780.5743
3148.409, 775.4678
3150.337, 787.1356
3152.266, 796.6816
3154.194, 804.1019
3156.123, 814.9097
3158.051, 827.8144
3159.980, 834.3065
3161.908, 836.9741
3163.837, 842.1095
3165.765, 848.0779
3167.694, 857.1552
3169.622, 860.5078
3171.551, 842.7292
3173.479, 831.1479
3175.407, 837.2341
3177.336, 849.0594
3179.264, 870.7093
3181.193, 878.9551
3183.121, 870.8699
3185.050, 871.8115
3186.978, 882.8528
3188.907, 889.5555
3190.835, 891.9803
3192.764, 886.8433
3194.692, 881.4975
3196.621, 889.0734
3198.549, 899.5396
3200.478, 905.0348
3202.406, 906.1536
3204.334, 897.9029
3206.263, 897.5941
3208.191, 917.9708
3210.120, 932.9224
3212.048, 940.0757
3213.977, 945.7550
3215.905, 950.6901
3217.834, 961.7722
3219.762, 975.1992
3221.691, 970.3235
3223.619, 960.4579
3225.548, 965.8536
3227.476, 976.8666
3229.405, 989.1022
3231.333, 995.6829
3233.261, 987.3934
3235.190, 987.3510
3237.118, 1015.195
3239.047, 1021.164
3240.975, 1001.620
3242.904, 996.1713
3244.832, 1005.897
3246.761, 1014.001
3248.689, 1022.181
3250.618, 1036.981
3252.546, 1052.389
3254.475, 1062.569
3256.403, 1068.464
3258.332, 1066.513
3260.260, 1068.894
3262.188, 1084.220
3264.117, 1090.475
3266.045, 1079.910
3267.974, 1084.682
3269.902, 1103.985
3271.831, 1113.923
3273.759, 1117.083
3275.688, 1121.676
3277.616, 1127.708
3279.545, 1136.701
3281.473, 1144.504
3283.402, 1147.562
3285.330, 1148.270
3287.259, 1143.736
3289.187, 1151.007
3291.115, 1183.470
3293.044, 1190.498
3294.972, 1174.486
3296.901, 1183.558
3298.829, 1207.236
3300.758, 1218.826
3302.686, 1218.612
3304.615, 1193.048
3306.543, 1177.270
3308.472, 1204.667
3310.400, 1226.779
3312.329, 1227.515
3314.257, 1232.615
3316.186, 1246.331
3318.114, 1253.963
3320.042, 1256.244
3321.971, 1266.606
3323.899, 1280.605
3325.828, 1291.574
3327.756, 1298.739
3329.685, 1298.344
3331.613, 1298.581
3333.542, 1303.950
3335.470, 1308.388
3337.399, 1309.198
3339.327, 1316.266
3341.256, 1329.725
3343.184, 1342.517
3345.113, 1354.886
3347.041, 1373.288
3348.969, 1386.697
3350.898, 1378.715
3352.826, 1367.626
3354.755, 1359.916
3356.683, 1364.412
3358.612, 1386.891
3360.540, 1404.234
3362.469, 1413.237
3364.397, 1423.635
3366.326, 1433.406
3368.254, 1433.689
3370.183, 1431.232
3372.111, 1435.888
3374.040, 1442.306
3375.968, 1446.619
3377.896, 1453.049
3379.825, 1463.110
3381.753, 1476.217
3383.682, 1492.301
3385.610, 1504.801
3387.539, 1513.854
3389.467, 1517.127
3391.396, 1521.728
3393.324, 1537.156
3395.253, 1556.438
3397.181, 1581.774
3399.110, 1594.534
3401.038, 1586.216
3402.967, 1589.281
3404.895, 1608.074
3406.823, 1616.138
3408.752, 1618.473
3410.680, 1632.396
3412.609, 1645.647
3414.537, 1636.444
3416.466, 1631.763
3418.394, 1645.388
3420.323, 1665.785
3422.251, 1694.302
3424.180, 1707.082
3426.108, 1705.506
3428.037, 1714.484
3429.965, 1726.749
3431.894, 1720.574
3433.822, 1716.109
3435.750, 1732.512
3437.679, 1750.834
3439.607, 1765.406
3441.536, 1779.278
3443.464, 1792.855
3445.393, 1799.803
3447.321, 1802.841
3449.250, 1816.288
3451.178, 1833.259
3453.107, 1849.957
3455.035, 1859.152
3456.964, 1852.595
3458.892, 1855.206
3460.821, 1878.672
3462.749, 1895.114
3464.677, 1906.347
3466.606, 1931.086
3468.534, 1957.124
3470.463, 1959.643
3472.391, 1957.745
3474.320, 1960.049
3476.248, 1972.297
3478.177, 2003.291
3480.105, 2019.290
3482.034, 2019.875
3483.962, 2016.528
3485.891, 2018.892
3487.819, 2062.114
3489.748, 2106.045
3491.676, 2118.453
3493.604, 2118.006
3495.533, 2105.772
3497.461, 2106.661
3499.390, 2124.645
3501.318, 2136.947
3503.247, 2144.868
3505.175, 2151.236
3507.104, 2156.554
3509.032, 2153.513
3510.961, 2166.621
3512.889, 2211.220
3514.818, 2231.829
3516.746, 2218.988
3518.675, 2217.819
3520.603, 2226.255
3522.531, 2241.683
3524.460, 2257.687
3526.388, 2270.614
3528.317, 2276.720
3530.245, 2266.852
3532.174, 2275.390
3534.102, 2303.587
3536.031, 2327.620
3537.959, 2347.773
3539.888, 2371.824
3541.816, 2384.691
3543.745, 2363.954
3545.673, 2356.461
3547.602, 2388.185
3549.530, 2400.639
3551.458, 2394.190
3553.387, 2391.354
3555.315, 2398.242
3557.244, 2440.073
3559.172, 2476.043
3561.101, 2473.658
3563.029, 2469.095
3564.958, 2468.515
3566.886, 2468.296
3568.815, 2469.075
3570.743, 2479.163
3572.672, 2493.295
3574.600, 2503.899
3576.529, 2517.347
3578.457, 2541.072
3580.385, 2557.100
3582.314, 2562.705
3584.242, 2565.731
3586.171, 2567.582
3588.099, 2564.600
3590.028, 2573.361
3591.956, 2629.643
3593.885, 2660.434
3595.813, 2640.160
3597.742, 2635.553
3599.670, 2651.290
3601.599, 2655.356
3603.527, 2658.307
3605.456, 2682.771
3607.384, 2701.556
3609.313, 2693.063
3611.241, 2701.685
3613.169, 2741.950
3615.098, 2769.122
3617.026, 2782.860
3618.955, 2776.785
3620.883, 2769.232
3622.812, 2781.505
3624.740, 2790.568
3626.669, 2784.915
3628.597, 2806.455
3630.526, 2849.672
3632.454, 2839.729
3634.383, 2817.197
3636.311, 2842.184
3638.240, 2871.335
3640.168, 2882.209
3642.096, 2909.056
3644.025, 2956.881
3645.953, 2955.551
3647.882, 2928.518
3649.810, 2919.850
3651.739, 2923.221
3653.667, 2935.386
3655.596, 2951.352
3657.524, 2970.273
3659.453, 2993.575
3661.381, 3015.960
3663.310, 3017.061
3665.238, 3016.665
3667.167, 3035.546
3669.095, 3049.555
3671.023, 3041.927
3672.952, 3062.357
3674.880, 3101.028
3676.809, 3110.752
3678.737, 3110.799
3680.666, 3125.360
3682.594, 3136.296
3684.523, 3128.758
3686.451, 3144.151
3688.380, 3176.833
3690.308, 3179.204
3692.237, 3172.535
3694.165, 3181.125
3696.094, 3203.859
3698.022, 3257.945
3699.950, 3274.303
3701.879, 3258.229
3703.807, 3286.886
3705.736, 3330.896
3707.664, 3344.874
3709.593, 3351.299
3711.521, 3362.402
3713.450, 3355.760
3715.378, 3334.252
3717.307, 3341.843
3719.235, 3366.039
3721.164, 3393.476
3723.092, 3418.281
3725.021, 3439.626
3726.949, 3451.348
3728.877, 3454.479
3730.806, 3462.676
3732.734, 3472.129
3734.663, 3465.933
3736.591, 3478.704
3738.520, 3542.168
3740.448, 3581.042
3742.377, 3593.425
3744.305, 3593.146
3746.234, 3594.325
3748.162, 3621.305
3750.091, 3648.456
3752.019, 3666.214
3753.948, 3679.748
3755.876, 3690.274
3757.804, 3703.270
3759.733, 3716.548
3761.661, 3718.321
3763.590, 3738.626
3765.518, 3801.156
3767.447, 3833.135
3769.375, 3838.677
3771.304, 3842.188
3773.232, 3846.390
3775.161, 3852.050
3777.089, 3863.445
3779.018, 3882.894
3780.946, 3911.400
3782.875, 3940.705
3784.803, 3940.019
3786.731, 3940.158
3788.660, 3960.671
3790.588, 4001.961
3792.517, 4071.245
3794.445, 4077.853
3796.374, 4055.049
3798.302, 4058.746
3800.231, 4083.888
3802.159, 4137.107
3804.088, 4152.910
3806.016, 4126.594
3807.945, 4152.539
3809.873, 4191.550
3811.802, 4184.957
3813.730, 4189.267
3815.658, 4222.907
3817.587, 4260.094
3819.515, 4295.917
3821.444, 4319.303
3823.372, 4333.079
3825.301, 4332.188
3827.229, 4337.376
3829.158, 4352.447
3831.086, 4391.662
3833.015, 4443.767
3834.943, 4488.792
3836.872, 4526.008
3838.800, 4556.542
3840.729, 4568.579
3842.657, 4564.343
3844.585, 4575.150
3846.514, 4590.760
3848.442, 4592.843
3850.371, 4621.268
3852.299, 4679.010
3854.228, 4699.254
3856.156, 4702.060
3858.085, 4758.452
3860.013, 4816.700
3861.942, 4841.413
3863.870, 4860.572
3865.799, 4880.018
3867.727, 4892.584
3869.656, 4918.486
3871.584, 5009.635
3873.512, 5082.307
3875.441, 5097.751
3877.369, 5128.917
3879.298, 5163.042
3881.226, 5147.706
3883.155, 5145.313
3885.083, 5202.542
3887.012, 5255.631
3888.940, 5287.157
3890.869, 5323.234
3892.797, 5361.719
3894.726, 5383.136
3896.654, 5424.103
3898.583, 5496.316
3900.511, 5547.736
3902.439, 5572.985
3904.368, 5551.532
3906.296, 5551.065
3908.225, 5612.010
3910.153, 5657.146
3912.082, 5683.194
3914.010, 5700.027
3915.939, 5728.099
3917.867, 5803.592
3919.796, 5859.793
3921.724, 5885.936
3923.653, 5916.879
3925.581, 5958.441
3927.510, 6024.433
3929.438, 6076.998
3931.366, 6092.279
3933.295, 6134.917
3935.223, 6191.139
3937.152, 6223.745
3939.080, 6246.806
3941.009, 6265.091
3942.937, 6301.157
3944.866, 6352.403
3946.794, 6407.802
3948.723, 6457.242
3950.651, 6470.841
3952.580, 6501.663
3954.508, 6576.224
3956.437, 6618.941
3958.365, 6637.420
3960.293, 6672.411
3962.222, 6726.334
3964.150, 6786.252
3966.079, 6815.623
3968.007, 6824.607
3969.936, 6895.364
3971.864, 6970.081
3973.793, 7002.456
3975.721, 7028.566
3977.650, 7029.638
3979.578, 7046.414
3981.507, 7095.616
3983.435, 7192.131
3985.364, 7266.294
3987.292, 7304.064
3989.220, 7353.629
3991.149, 7405.367
3993.077, 7433.818
3995.006, 7458.095
3996.934, 7503.771
3998.863, 7540.530
4000.791, 7577.527
4002.720, 7647.162
4004.648, 7697.857
4006.577, 7733.999
4008.505, 7778.521
4010.434, 7815.059
4012.362, 7890.870
4014.291, 7960.993
4016.219, 7971.014
4018.147, 7971.042
4020.076, 8021.638
4022.004, 8070.892
4023.933, 8099.481
4025.861, 8140.771
4027.790, 8201.029
4029.718, 8275.351
4031.647, 8332.611
4033.575, 8347.511
4035.504, 8371.714
4037.432, 8441.349
4039.361, 8497.521
4041.289, 8537.126
4043.218, 8573.476
4045.146, 8606.665
4047.074, 8652.334
4049.003, 8694.125
4050.931, 8728.072
4052.860, 8833.073
4054.788, 8917.618
4056.717, 8911.883
4058.645, 8937.334
4060.574, 8991.082
4062.502, 9053.470
4064.431, 9148.071
4066.359, 9224.383
4068.288, 9223.957
4070.216, 9231.576
4072.145, 9307.272
4074.073, 9369.787
4076.001, 9440.928
4077.930, 9545.815
4079.858, 9647.335
4081.787, 9715.559
4083.715, 9760.564
4085.644, 9778.881
4087.572, 9840.443
4089.501, 9939.237
4091.429, 9992.064
4093.358, 10023.30
4095.286, 10106.64
4097.214, 10202.98
4099.143, 10285.32
4101.071, 10353.97
4103.000, 10423.17
4104.928, 10474.02
4106.857, 10541.59
4108.785, 10631.43
4110.714, 10736.26
4112.642, 10842.16
4114.571, 10937.55
4116.499, 11052.83
4118.428, 11173.70
4120.356, 11293.06
4122.285, 11419.97
4124.213, 11507.88
4126.142, 11586.35
4128.070, 11698.38
4129.999, 11823.13
4131.927, 11970.22
4133.855, 12177.94
4135.784, 12392.61
4137.712, 12595.25
4139.641, 12808.89
4141.569, 13041.94
4143.498, 13280.96
4145.426, 13548.83
4147.354, 13864.35
4149.283, 14184.66
4151.211, 14510.89
4153.140, 14864.23
4155.068, 15219.39
4156.997, 15563.30
4158.925, 15957.48
4160.854, 16405.29
4162.782, 16948.62
4164.711, 17442.54
4166.639, 17787.58
4168.568, 18206.25
4170.496, 18706.53
4172.425, 19265.15
4174.353, 19841.88
4176.282, 20432.43
4178.210, 20862.07
4180.139, 21215.19
4182.067, 21903.95
4183.996, 22609.03
4185.924, 23140.36
4187.853, 23795.07
4189.781, 24533.73
4191.709, 25098.40
4193.638, 25716.52
4195.566, 26574.81
4197.495, 27220.62
4199.423, 27727.04
4201.352, 28426.60
4203.280, 29136.30
4205.208, 29729.19
4207.137, 30387.03
4209.065, 31076.32
4210.994, 31730.47
4212.922, 32336.04
4214.851, 32862.90
4216.779, 33293.21
4218.708, 33703.64
4220.636, 34260.13
4222.565, 34753.54
4224.493, 35086.02
4226.422, 35542.22
4228.350, 36029.41
4230.279, 36371.36
4232.207, 36718.91
4234.136, 37128.29
4236.064, 37502.82
4237.993, 37916.00
4239.921, 38508.52
4241.850, 39092.80
4243.778, 39621.89
4245.707, 40181.41
4247.635, 40793.37
4249.563, 41413.06
4251.492, 42131.44
4253.420, 42958.53
4255.349, 43833.29
4257.277, 44758.91
4259.206, 45706.28
4261.134, 46834.92
4263.063, 48097.46
4264.991, 49163.82
4266.919, 50266.68
4268.848, 51591.96
4270.776, 52874.06
4272.705, 54116.17
4274.633, 55355.99
4276.562, 56608.30
4278.490, 57916.59
4280.419, 59007.11
4282.347, 59985.34
4284.276, 61108.94
4286.204, 62067.88
4288.133, 62758.93
4290.061, 63451.25
4291.990, 64042.61
4293.918, 64349.62
4295.847, 64704.22
4297.775, 65131.49
4299.704, 65338.57
4301.632, 65429.05
4303.561, 65411.55
4305.489, 65543.66
4307.417, 65739.57
4309.346, 65570.63
4311.274, 65393.40
4313.203, 65438.21
4315.131, 65197.02
4317.060, 64852.55
4318.988, 64842.55
4320.917, 64737.01
4322.845, 64409.62
4324.773, 64154.64
4326.702, 63992.68
4328.630, 64007.09
4330.559, 63861.39
4332.487, 63545.98
4334.416, 63416.79
4336.344, 63251.19
4338.273, 62933.95
4340.201, 62516.58
4342.130, 62116.50
4344.058, 62067.38
4345.987, 61905.66
4347.915, 61493.48
4349.844, 61167.95
4351.772, 60847.97
4353.701, 60398.79
4355.629, 60038.23
4357.558, 59778.43
4359.486, 59551.79
4361.415, 59203.54
4363.343, 58586.48
4365.271, 58297.98
4367.200, 58176.64
4369.128, 57775.84
4371.057, 57376.71
4372.985, 57060.51
4374.914, 56780.66
4376.842, 56417.14
4378.771, 55776.32
4380.699, 55204.72
4382.627, 54736.41
4384.556, 54397.79
4386.484, 53955.03
4388.413, 53231.53
4390.341, 52738.57
4392.270, 52306.25
4394.198, 51598.83
4396.127, 50913.08
4398.055, 50303.32
4399.984, 49677.41
4401.912, 49024.29
4403.841, 48346.91
4405.769, 47582.74
4407.698, 46772.21
4409.626, 45985.98
4411.555, 45278.18
4413.483, 44656.36
4415.412, 44072.47
4417.340, 43460.04
4419.269, 42718.70
4421.197, 42031.55
4423.125, 41415.02
4425.054, 40885.87
4426.982, 40365.43
4428.911, 39843.68
4430.839, 39177.69
4432.768, 38526.05
4434.696, 38098.71
4436.625, 37640.85
4438.553, 37147.63
4440.481, 36846.19
4442.410, 36474.98
4444.338, 35927.98
4446.267, 35388.64
4448.195, 34913.40
4450.124, 34592.39
4452.052, 34228.75
4453.981, 33814.62
4455.909, 33419.88
4457.838, 33091.10
4459.766, 32862.10
4461.695, 32651.47
4463.623, 32408.41
4465.552, 32037.38
4467.480, 31678.18
4469.409, 31358.04
4471.337, 31152.56
4473.266, 30916.82
4475.194, 30585.83
4477.123, 30347.82
4479.051, 30143.42
4480.979, 29893.87
4482.908, 29649.90
4484.836, 29418.61
4486.765, 29203.37
4488.693, 29001.83
4490.622, 28815.06
4492.550, 28588.98
4494.479, 28365.70
4496.407, 28221.80
4498.335, 27985.88
4500.264, 27706.40
4502.192, 27617.91
4504.121, 27427.18
4506.049, 27064.04
4507.978, 26930.24
4509.906, 26843.10
4511.835, 26661.14
4513.763, 26483.84
4515.692, 26307.27
4517.620, 26108.66
4519.549, 25898.74
4521.477, 25686.26
4523.406, 25502.84
4525.334, 25384.72
4527.263, 25382.15
4529.191, 25171.21
4531.120, 24929.91
4533.048, 24915.26
4534.977, 24860.18
4536.905, 24731.47
4538.833, 24513.22
4540.762, 24360.21
4542.690, 24326.37
4544.619, 24296.09
4546.547, 24207.34
4548.476, 23957.84
4550.404, 23850.76
4552.333, 23813.02
4554.261, 23641.98
4556.189, 23630.07
4558.118, 23756.47
4560.046, 23590.59
4561.975, 23455.40
4563.903, 23498.35
4565.832, 23368.72
4567.760, 23239.28
4569.689, 23351.03
4571.617, 23352.89
4573.546, 23271.98
4575.474, 23197.53
4577.403, 23204.15
4579.331, 23273.77
4581.260, 23168.72
4583.188, 23059.61
4585.117, 23023.66
4587.045, 23122.58
4588.974, 23220.98
4590.902, 23147.73
4592.831, 23113.79
4594.759, 23114.10
4596.688, 23118.18
4598.616, 23069.75
4600.544, 22983.97
4602.473, 23022.85
4604.401, 23057.36
4606.330, 23029.32
4608.258, 23094.61
4610.187, 23159.41
4612.115, 23136.36
4614.043, 23021.90
4615.972, 22927.91
4617.900, 23093.18
4619.829, 23170.39
4621.757, 23136.18
4623.686, 23089.68
4625.614, 23055.38
4627.543, 23040.66
4629.471, 23052.26
4631.400, 23081.69
4633.328, 23138.25
4635.257, 23009.27
4637.185, 22913.82
4639.114, 23159.87
4641.042, 23197.64
4642.971, 23101.33
4644.899, 23155.45
4646.828, 23231.76
4648.756, 23293.75
4650.685, 23283.39
4652.613, 23247.01
4654.542, 23206.28
4656.470, 23264.47
4658.398, 23304.05
4660.327, 23223.52
4662.255, 23290.57
4664.184, 23367.59
4666.112, 23247.28
4668.041, 23204.02
4669.969, 23245.61
4671.897, 23412.22
4673.826, 23377.94
4675.754, 23192.03
4677.683, 23244.97
4679.611, 23310.96
4681.540, 23316.34
4683.468, 23411.68
4685.397, 23498.18
4687.325, 23528.33
4689.254, 23527.63
4691.182, 23479.05
4693.111, 23303.29
4695.039, 23376.79
4696.968, 23536.39
4698.896, 23543.10
4700.825, 23433.32
4702.753, 23326.83
4704.682, 23565.59
4706.610, 23643.07
4708.539, 23524.31
4710.467, 23512.95
4712.396, 23503.93
4714.324, 23469.55
4716.252, 23476.38
4718.181, 23540.16
4720.109, 23658.11
4722.038, 23442.98
4723.966, 23247.31
4725.895, 23406.68
4727.823, 23449.50
4729.751, 23438.93
4731.680, 23444.97
4733.608, 23503.15
4735.537, 23562.98
4737.465, 23539.75
4739.394, 23492.06
4741.322, 23436.56
4743.251, 23394.02
4745.179, 23361.05
4747.108, 23350.28
4749.036, 23440.71
4750.965, 23464.52
4752.893, 23383.51
4754.822, 23309.07
4756.750, 23280.83
4758.679, 23310.36
4760.607, 23336.14
4762.536, 23352.24
4764.464, 23352.63
4766.393, 23399.06
4768.321, 23396.08
4770.250, 23258.64
4772.178, 23211.22
4774.106, 23224.99
4776.035, 23290.52
4777.963, 23228.55
4779.892, 23126.99
4781.820, 23126.18
4783.749, 23108.05
4785.677, 23078.96
4787.605, 23053.10
4789.534, 23117.90
4791.462, 23196.53
4793.391, 23020.54
4795.319, 22949.26
4797.248, 22999.67
4799.176, 23039.10
4801.105, 23043.74
4803.033, 23012.66
4804.962, 22919.04
4806.890, 22951.87
4808.819, 23114.38
4810.747, 22972.66
4812.676, 22887.38
4814.604, 22967.40
4816.533, 22865.18
4818.461, 22735.13
4820.390, 22647.30
4822.318, 22677.03
4824.247, 22695.28
4826.175, 22633.54
4828.104, 22619.58
4830.032, 22606.47
4831.960, 22564.22
4833.889, 22670.15
4835.817, 22741.17
4837.746, 22633.30
4839.674, 22551.99
4841.603, 22496.00
4843.531, 22460.01
4845.459, 22475.54
4847.388, 22474.65
4849.316, 22367.05
4851.245, 22357.48
4853.173, 22400.09
4855.102, 22455.92
4857.030, 22377.28
4858.959, 22257.61
4860.887, 22221.21
4862.816, 22134.93
4864.744, 22054.69
4866.673, 22063.72
4868.601, 22025.03
4870.530, 21965.13
4872.458, 21927.04
4874.387, 21918.06
4876.315, 21916.17
4878.244, 21891.87
4880.172, 21888.04
4882.101, 21869.78
4884.029, 21772.84
4885.958, 21648.73
4887.886, 21566.99
4889.814, 21648.83
4891.743, 21649.66
4893.671, 21577.07
4895.600, 21453.06
4897.528, 21426.19
4899.457, 21443.34
4901.385, 21423.81
4903.313, 21373.55
4905.242, 21297.25
4907.170, 21177.50
4909.099, 21196.89
4911.027, 21255.86
4912.956, 21193.95
4914.884, 21117.19
4916.813, 21039.40
4918.741, 20960.90
4920.670, 20959.23
4922.598, 20973.76
4924.527, 20912.42
4926.455, 20837.13
4928.384, 20781.42
4930.312, 20789.49
4932.241, 20752.81
4934.169, 20673.11
4936.098, 20546.96
4938.026, 20521.24
4939.955, 20526.60
4941.883, 20490.32
4943.812, 20449.60
4945.740, 20384.54
4947.668, 20272.40
4949.597, 20286.07
4951.525, 20314.10
4953.454, 20257.12
4955.382, 20176.26
4957.311, 20111.42
4959.239, 20085.82
4961.167, 19994.63
4963.096, 19920.45
4965.024, 19913.38
4966.953, 19880.88
4968.881, 19830.08
4970.810, 19765.31
4972.738, 19743.09
4974.667, 19715.01
4976.595, 19661.65
4978.524, 19560.06
4980.452, 19517.84
4982.381, 19546.20
4984.309, 19411.55
4986.238, 19307.74
4988.166, 19280.54
4990.095, 19312.08
4992.023, 19334.77
4993.952, 19327.29
4995.880, 19266.74
4997.809, 19172.04
4999.737, 19098.75
5001.666, 19184.18
5003.594, 19201.20
5005.522, 19132.41
5007.451, 18951.84
5009.379, 18966.90
5011.308, 19009.90
5013.236, 18814.13
5015.165, 18784.79
5017.093, 18814.51
5019.021, 18776.02
5020.950, 18719.75
5022.878, 18658.15
5024.807, 18584.80
5026.735, 18644.22
5028.664, 18687.07
5030.592, 18640.38
5032.521, 18476.31
5034.449, 18378.41
5036.378, 18402.56
5038.306, 18461.14
5040.235, 18454.68
5042.163, 18386.26
5044.092, 18396.03
5046.020, 18370.41
5047.949, 18298.42
5049.877, 18183.80
5051.806, 18141.67
5053.734, 18145.32
5055.663, 18141.52
5057.591, 18098.64
5059.520, 18055.07
5061.448, 18051.08
5063.376, 18110.77
5065.305, 18117.97
5067.233, 17978.71
5069.162, 17899.95
5071.090, 17877.51
5073.019, 17903.08
5074.947, 17915.53
5076.875, 17917.18
5078.804, 17896.78
5080.732, 17773.76
5082.661, 17719.23
5084.589, 17729.50
5086.518, 17695.27
5088.446, 17712.42
5090.375, 17727.71
5092.303, 17643.79
5094.232, 17573.97
5096.160, 17551.46
5098.089, 17616.78
5100.017, 17532.65
5101.946, 17465.52
5103.874, 17501.05
5105.803, 17449.13
5107.731, 17411.56
5109.660, 17411.99
5111.588, 17394.44
5113.517, 17375.35
5115.445, 17354.40
5117.374, 17311.48
5119.302, 17298.94
5121.230, 17330.69
5123.159, 17428.79
5125.087, 17391.86
5127.016, 17274.77
5128.944, 17123.54
5130.873, 17126.10
5132.801, 17139.21
5134.729, 17103.82
5136.658, 17117.33
5138.586, 17102.93
5140.515, 17072.09
5142.443, 17137.99
5144.372, 17092.62
5146.300, 17012.79
5148.229, 17066.99
5150.157, 17131.45
5152.086, 17159.19
5154.014, 17121.32
5155.943, 16928.50
5157.871, 16837.35
5159.800, 16918.29
5161.728, 16816.41
5163.657, 16765.04
5165.585, 16797.33
5167.514, 16851.15
5169.442, 16815.97
5171.371, 16751.57
5173.299, 16752.81
5175.228, 16722.94
5177.156, 16716.99
5179.084, 16779.37
5181.013, 16724.87
5182.941, 16708.33
5184.870, 16756.31
5186.798, 16735.82
5188.727, 16680.93
5190.655, 16648.76
5192.583, 16759.46
5194.512, 16661.57
5196.440, 16539.20
5198.369, 16589.70
5200.297, 16544.86
5202.226, 16530.03
5204.154, 16575.34
5206.083, 16516.27
5208.011, 16587.47
5209.940, 16695.80
5211.868, 16526.96
5213.797, 16438.60
5215.725, 16438.67
5217.654, 16522.83
5219.582, 16487.79
5221.511, 16406.49
5223.439, 16322.92
5225.368, 16278.89
5227.296, 16288.67
5229.225, 16325.79
5231.153, 16356.04
5233.082, 16287.19
5235.010, 16205.29
5236.938, 16185.34
5238.867, 16222.24
5240.795, 16209.58
5242.724, 16135.26
5244.652, 16139.58
5246.581, 16121.18
5248.509, 16086.99
5250.438, 16080.06
5252.366, 16077.39
5254.294, 16059.03
5256.223, 16011.78
5258.151, 15945.00
5260.080, 15985.13
5262.008, 16097.44
5263.937, 16080.36
5265.865, 16016.81
5267.794, 15945.26
5269.722, 15890.25
5271.651, 15871.36
5273.579, 15872.16
5275.508, 15881.24
5277.436, 15901.05
5279.365, 15833.66
5281.293, 15743.61
5283.222, 15787.87
5285.150, 15783.32
5287.079, 15752.73
5289.007, 15719.42
5290.936, 15804.38
5292.864, 15754.48
5294.792, 15603.64
5296.721, 15640.51
5298.649, 15689.47
5300.578, 15717.90
5302.506, 15717.94
5304.435, 15688.69
5306.363, 15623.89
5308.292, 15534.32
5310.220, 15471.99
5312.148, 15419.79
5314.077, 15396.52
5316.005, 15427.92
5317.934, 15399.77
5319.862, 15366.63
5321.791, 15350.48
5323.719, 15300.29
5325.648, 15300.58
5327.576, 15322.01
5329.505, 15303.82
5331.433, 15273.34
5333.362, 15213.64
5335.290, 15132.47
5337.219, 15131.66
5339.147, 15103.61
5341.076, 15074.84
5343.004, 15121.67
5344.933, 15194.79
5346.861, 15176.33
5348.790, 15031.84
5350.718, 14999.22
5352.646, 14962.40
5354.575, 14944.63
5356.503, 15027.33
5358.432, 14934.55
5360.360, 14834.49
5362.289, 14814.72
5364.217, 14764.00
5366.146, 14745.71
5368.074, 14757.71
5370.002, 14784.32
5371.931, 14776.77
5373.859, 14761.82
5375.788, 14743.76
5377.716, 14660.59
5379.645, 14619.97
5381.573, 14617.73
5383.502, 14630.72
5385.430, 14568.86
5387.359, 14531.65
5389.287, 14537.42
5391.216, 14487.63
5393.144, 14439.01
5395.073, 14412.94
5397.001, 14419.89
5398.930, 14401.83
5400.858, 14409.61
5402.787, 14431.21
5404.715, 14390.71
5406.644, 14353.65
5408.572, 14319.98
5410.500, 14286.09
5412.429, 14252.74
5414.357, 14223.09
5416.286, 14204.65
5418.214, 14207.91
5420.143, 14212.70
5422.071, 14161.94
5424.000, 14070.00
5425.928, 14135.48
5427.856, 14139.30
5429.785, 14096.37
5431.713, 14055.20
5433.642, 14030.80
5435.570, 13991.58
5437.499, 13961.38
5439.427, 14041.50
5441.356, 13978.10
5443.284, 13911.29
5445.213, 13928.84
5447.141, 13899.77
5449.070, 13884.55
5450.998, 13869.16
5452.927, 13815.50
5454.855, 13824.63
5456.784, 13801.54
5458.712, 13750.84
5460.641, 13823.20
5462.569, 13793.68
5464.498, 13755.88
5466.426, 13775.76
5468.354, 13715.79
5470.283, 13672.71
5472.211, 13642.07
5474.140, 13593.89
5476.068, 13491.73
5477.997, 13502.22
5479.925, 13599.75
5481.854, 13520.76
5483.782, 13479.03
5485.710, 13459.39
5487.639, 13434.90
5489.567, 13373.30
5491.496, 13346.75
5493.424, 13365.34
5495.353, 13418.33
5497.281, 13329.76
5499.210, 13296.18
5501.138, 13324.83
5503.067, 13287.71
5504.995, 13336.82
5506.924, 13326.64
5508.852, 13227.58
5510.781, 13229.42
5512.709, 13248.56
5514.638, 13209.57
5516.566, 13092.39
5518.495, 13153.84
5520.423, 13104.00
5522.352, 13010.32
5524.280, 13018.29
5526.208, 13085.57
5528.137, 13053.18
5530.065, 12973.01
5531.994, 13080.99
5533.922, 13085.41
5535.851, 13031.03
5537.779, 12965.32
5539.708, 12962.32
5541.636, 12885.36
5543.564, 12826.39
5545.493, 12838.12
5547.421, 12777.79
5549.350, 12898.66
5551.278, 12987.90
5553.207, 12838.71
5555.135, 12843.05
5557.064, 12820.80
5558.992, 12774.23
5560.921, 12770.48
5562.849, 12825.94
5564.778, 12754.30
5566.706, 12624.97
5568.635, 12681.76
5570.563, 12672.05
5572.492, 12639.00
5574.420, 12616.30
5576.349, 12625.79
5578.277, 12557.09
5580.206, 12472.34
5582.134, 12424.60
5584.063, 12476.62
5585.991, 12498.01
5587.919, 12474.25
5589.848, 12416.79
5591.776, 12392.58
5593.705, 12431.37
5595.633, 12449.98
5597.562, 12389.61
5599.490, 12411.91
5601.418, 12356.60
5603.347, 12309.67
5605.275, 12367.42
5607.204, 12309.77
5609.132, 12285.63
5611.061, 12284.61
5612.989, 12253.25
5614.918, 12196.33
5616.846, 12174.05
5618.775, 12163.01
5620.703, 12097.08
5622.632, 12085.19
5624.560, 12141.15
5626.489, 12193.54
5628.417, 12126.84
5630.346, 12089.43
5632.274, 12082.83
5634.203, 12073.38
5636.131, 12014.28
5638.060, 12050.60
5639.988, 12076.20
5641.917, 12049.66
5643.845, 11973.06
5645.773, 11879.35
5647.702, 11863.33
5649.630, 11900.31
5651.559, 11859.51
5653.487, 11876.54
5655.416, 11913.46
5657.344, 11914.17
5659.272, 11787.60
5661.201, 11781.64
5663.129, 11805.08
5665.058, 11823.19
5666.986, 11850.31
5668.915, 11756.52
5670.843, 11677.51
5672.772, 11652.58
5674.700, 11652.02
5676.629, 11688.43
5678.557, 11646.63
5680.486, 11575.98
5682.414, 11647.04
5684.343, 11618.12
5686.271, 11545.61
5688.200, 11502.60
5690.128, 11596.39
5692.057, 11564.19
5693.985, 11487.25
5695.914, 11417.81
5697.842, 11388.82
5699.771, 11400.56
5701.699, 11381.19
5703.627, 11371.88
5705.556, 11432.29
5707.484, 11407.42
5709.413, 11328.03
5711.341, 11251.29
5713.270, 11222.36
5715.198, 11225.25
5717.126, 11288.44
5719.055, 11299.57
5720.983, 11184.88
5722.912, 11165.82
5724.840, 11138.48
5726.769, 11115.86
5728.697, 11112.29
5730.626, 11086.54
5732.554, 11049.56
5734.483, 11042.46
5736.411, 11054.74
5738.340, 10963.94
5740.268, 10999.16
5742.197, 11055.96
5744.125, 11069.68
5746.054, 11038.18
5747.982, 10940.72
5749.911, 10835.31
5751.839, 10795.22
5753.768, 10888.60
5755.696, 10889.10
5757.625, 10850.13
5759.553, 10805.47
5761.481, 10771.31
5763.410, 10804.29
5765.338, 10781.25
5767.267, 10732.89
5769.195, 10708.83
5771.124, 10745.98
5773.052, 10714.46
5774.980, 10640.37
5776.909, 10576.09
5778.837, 10620.26
5780.766, 10624.47
5782.694, 10598.49
5784.623, 10555.30
5786.551, 10494.98
5788.480, 10597.94
5790.408, 10542.63
5792.337, 10454.86
5794.265, 10572.31
5796.194, 10531.71
5798.122, 10493.50
5800.051, 10482.16
5801.979, 10471.45
5803.908, 10352.54
5805.836, 10380.75
5807.765, 10438.03
5809.693, 10452.37
5811.622, 10451.67
5813.550, 10394.68
5815.479, 10414.32
5817.407, 10463.30
5819.335, 10403.85
5821.264, 10363.09
5823.192, 10340.59
5825.121, 10314.37
5827.049, 10274.57
5828.978, 10268.18
5830.906, 10346.09
5832.834, 10311.12
5834.763, 10169.20
5836.691, 10161.50
5838.620, 10266.18
5840.548, 10244.45
5842.477, 10135.79
5844.405, 10077.85
5846.334, 10091.84
5848.262, 10086.43
5850.191, 10061.58
5852.119, 10030.95
5854.048, 9994.433
5855.976, 10053.35
5857.905, 10037.20
5859.833, 9978.231
5861.762, 10025.33
5863.690, 10043.64
5865.619, 9995.629
5867.547, 9920.608
5869.476, 9867.686
5871.404, 9929.846
5873.333, 9856.824
5875.261, 9788.955
5877.189, 9778.393
5879.118, 9779.752
5881.046, 9785.726
5882.975, 9756.734
5884.903, 9754.599
5886.832, 9811.125
5888.760, 9734.723
5890.688, 9747.692
5892.617, 9762.452
5894.545, 9720.816
5896.474, 9600.370
5898.402, 9634.278
5900.331, 9629.729
5902.259, 9589.678
5904.188, 9566.305
5906.116, 9603.348
5908.045, 9584.279
5909.973, 9556.805
5911.902, 9552.688
5913.830, 9577.402
5915.759, 9596.355
5917.687, 9514.670
5919.616, 9440.402
5921.544, 9441.385
5923.473, 9448.556
5925.401, 9379.401
5927.330, 9356.815
5929.258, 9398.021
5931.187, 9450.615
5933.115, 9326.879
5935.043, 9291.223
5936.972, 9294.332
5938.900, 9295.848
5940.829, 9311.173
5942.757, 9264.724
5944.686, 9277.981
5946.614, 9310.215
5948.542, 9300.824
5950.471, 9222.834
5952.399, 9168.686
5954.328, 9108.047
5956.256, 9065.719
5958.185, 9079.240
5960.113, 9084.021
5962.042, 9128.089
5963.970, 9118.409
5965.899, 9062.604
5967.827, 9076.992
5969.756, 9075.541
5971.684, 9007.990
5973.613, 8936.888
5975.541, 8911.470
5977.470, 8930.860
5979.398, 8962.987
5981.327, 8998.180
5983.255, 9004.304
5985.184, 8968.224
5987.112, 8992.301
5989.041, 8845.752
5990.969, 8807.905
5992.897, 8845.990
5994.826, 8771.279
5996.754, 8689.729
5998.683, 8787.636
6000.611, 8772.619
6002.540, 8667.061
6004.468, 8782.058
6006.396, 8699.720
6008.325, 8710.615
6010.253, 8699.430
6012.182, 8622.837
6014.110, 8599.810
6016.039, 8590.480
6017.967, 8617.535
6019.896, 8607.176
6021.824, 8544.630
6023.753, 8525.676
6025.681, 8567.974
6027.610, 8572.247
6029.538, 8562.354
6031.467, 8550.810
6033.395, 8444.423
6035.324, 8430.754
6037.252, 8450.238
6039.181, 8429.072
6041.109, 8365.107
6043.038, 8418.236
6044.966, 8361.175
6046.895, 8296.905
6048.823, 8250.086
6050.751, 8232.132
6052.680, 8341.064
6054.608, 8314.395
6056.537, 8304.783
6058.465, 8284.133
6060.394, 8206.993
6062.322, 8188.789
6064.250, 8150.729
6066.179, 8163.361
6068.107, 8171.182
6070.036, 8133.642
6071.964, 8164.935
6073.893, 8134.777
6075.821, 8125.958
6077.750, 8131.804
6079.678, 8122.991
6081.607, 8098.567
6083.535, 8061.323
6085.464, 8101.985
6087.392, 8108.611
6089.321, 8026.302
6091.249, 7989.552
6093.178, 7999.978
6095.106, 7979.525
6097.035, 7977.453
6098.963, 8002.615
6100.892, 7974.124
6102.820, 7931.808
6104.749, 7953.250
6106.677, 7955.165
6108.605, 7903.350
6110.534, 7838.111
6112.462, 7811.091
6114.391, 7793.280
6116.319, 7776.783
6118.248, 7755.184
6120.176, 7728.223
6122.104, 7822.604
6124.033, 7762.242
6125.961, 7744.709
6127.890, 7749.980
6129.818, 7680.089
6131.747, 7663.209
6133.675, 7688.660
6135.604, 7704.673
6137.532, 7655.117
6139.461, 7556.314
6141.389, 7544.167
6143.318, 7615.857
6145.246, 7596.557
6147.175, 7573.274
6149.103, 7575.081
6151.032, 7504.984
6152.960, 7552.004
6154.889, 7529.793
6156.817, 7468.635
6158.746, 7439.482
6160.674, 7473.115
6162.603, 7398.004
6164.531, 7411.963
6166.459, 7460.859
6168.388, 7437.327
6170.316, 7350.936
6172.245, 7435.736
6174.173, 7387.151
6176.102, 7369.833
6178.030, 7305.235
6179.958, 7241.404
6181.887, 7315.607
6183.815, 7279.572
6185.744, 7224.843
6187.672, 7243.363
6189.601, 7280.557
6191.529, 7276.110
6193.458, 7276.314
6195.386, 7174.092
6197.315, 7120.876
6199.243, 7146.119
6201.172, 7187.419
6203.100, 7170.082
6205.029, 7164.790
6206.957, 7155.247
6208.886, 7150.464
6210.814, 7106.210
6212.743, 7025.572
6214.671, 7018.631
6216.600, 7095.591
6218.528, 7052.481
6220.457, 7021.446
6222.385, 7007.891
6224.313, 6936.426
6226.242, 6948.146
6228.170, 6995.335
6230.099, 6974.871
6232.027, 6939.682
6233.956, 6907.411
6235.884, 6819.374
6237.813, 6891.996
6239.741, 6852.717
6241.669, 6804.026
6243.598, 6790.534
6245.526, 6796.467
6247.455, 6810.240
6249.383, 6767.014
6251.312, 6757.926
6253.240, 6790.219
6255.169, 6795.673
6257.097, 6730.002
6259.026, 6763.393
6260.954, 6715.627
6262.883, 6696.629
6264.811, 6660.435
6266.740, 6640.471
6268.668, 6725.508
6270.597, 6688.727
6272.525, 6642.940
6274.454, 6596.089
6276.382, 6630.779
6278.311, 6693.325
6280.239, 6625.335
6282.167, 6633.342
6284.096, 6522.061
6286.024, 6559.346
6287.953, 6604.814
6289.881, 6559.250
6291.810, 6552.581
6293.738, 6543.804
6295.667, 6523.924
6297.595, 6527.439
6299.523, 6495.126
6301.452, 6424.537
6303.380, 6418.173
6305.309, 6477.073
6307.237, 6383.883
6309.166, 6390.477
6311.094, 6398.740
6313.023, 6341.521
6314.951, 6381.000
6316.880, 6416.032
6318.808, 6308.300
6320.737, 6257.802
6322.665, 6301.397
6324.594, 6331.724
6326.522, 6216.250
6328.451, 6282.512
6330.379, 6272.428
6332.308, 6276.080
6334.236, 6268.771
6336.165, 6237.802
6338.093, 6226.712
6340.021, 6259.929
6341.950, 6186.175
6343.878, 6152.289
6345.807, 6140.175
6347.735, 6122.061
6349.664, 6105.816
6351.592, 6089.771
6353.521, 6075.068
6355.449, 6076.755
6357.377, 6070.154
6359.306, 6062.362
6361.234, 6060.500
6363.163, 6025.288
6365.091, 5985.095
6367.020, 6005.819
6368.948, 6022.386
6370.877, 5983.960
6372.805, 5945.602
6374.734, 6030.900
6376.662, 5917.104
6378.591, 5920.243
6380.519, 5926.891
6382.448, 5911.008
6384.376, 5885.661
6386.305, 5863.610
6388.233, 5869.772
6390.162, 5879.286
6392.090, 5895.266
6394.019, 5840.260
6395.947, 5802.319
6397.875, 5802.919
6399.804, 5703.474
6401.732, 5791.075
6403.661, 5856.060
6405.589, 5752.609
6407.518, 5656.770
6409.446, 5690.839
6411.375, 5802.435
6413.303, 5758.015
6415.231, 5674.176
6417.160, 5661.412
6419.088, 5647.361
6421.017, 5640.573
6422.945, 5657.371
6424.874, 5662.494
6426.802, 5603.639
6428.731, 5637.521
6430.659, 5598.583
6432.588, 5573.742
6434.516, 5560.638
6436.445, 5536.232
6438.373, 5567.927
6440.302, 5533.866
6442.230, 5477.332
6444.159, 5516.006
6446.087, 5504.021
6448.016, 5439.728
6449.944, 5440.550
6451.873, 5570.971
6453.801, 5498.271
6455.729, 5513.066
6457.658, 5507.237
6459.586, 5448.187
6461.515, 5380.054
6463.443, 5341.988
6465.372, 5321.555
6467.300, 5352.452
6469.229, 5350.121
6471.157, 5342.721
6473.085, 5328.033
6475.014, 5333.768
6476.942, 5372.117
6478.871, 5333.570
6480.799, 5283.589
6482.728, 5240.450
6484.656, 5266.936
6486.585, 5284.164
6488.513, 5277.713
6490.442, 5263.617
6492.370, 5160.970
6494.299, 5189.093
6496.227, 5218.314
6498.156, 5173.274
6500.084, 5174.716
6502.013, 5197.798
6503.941, 5164.140
6505.870, 5124.256
6507.798, 5136.230
6509.727, 5067.556
6511.655, 5121.929
6513.583, 5083.161
6515.512, 5045.104
6517.440, 5081.777
6519.369, 5039.721
6521.297, 5025.722
6523.226, 5061.732
6525.154, 5001.237
6527.083, 4977.075
6529.011, 4931.145
6530.939, 4882.926
6532.868, 4909.993
6534.796, 4901.785
6536.725, 4953.156
6538.653, 4977.296
6540.582, 4989.648
6542.510, 4918.364
6544.439, 4856.360
6546.367, 4865.757
6548.296, 4866.397
6550.224, 4913.287
6552.153, 4858.792
6554.081, 4890.419
6556.010, 4870.634
6557.938, 4856.635
6559.867, 4860.742
6561.795, 4820.486
6563.724, 4743.140
6565.652, 4791.461
6567.581, 4704.667
6569.509, 4783.904
##END=



