##NAMES=Serpierite
##RRUFFID=R060475
##IDEAL CHEMISTRY=Ca(Cu,Zn)_4_(SO_4_)_2_(OH)_6_·3H_2_O
##LOCALITY=Oh mine, Gila County, Arizona, USA
##OWNER=RRUFF
##SOURCE=Michael Scott
##DESCRIPTION=Divergent sprays of blue bladed crystals associated with ktenasite, R090002
##STATUS=The identification of this mineral has been confirmed by single-crystal X-ray diffraction
##URL=https://www.rruff.net/odr/rruff_sample/R060475
##DIFFRACTION SAMPLE DESCRIPTION=Single crystal, powder profile is calculated
##CELL PARAMETERS=a: 22.2 b: 6.246 c: 21.869 alpha: 90 beta: 113.21 gamma: 90 volume: 2786.9 crystal system: monoclinic
##FILETYPE=Raman RAW
##RAMAN WAVELENGTH=532

182.9530, 2471.278
184.8814, 2487.099
186.8099, 2491.998
188.7384, 2490.170
190.6668, 2473.223
192.5953, 2460.504
194.5238, 2455.571
196.4522, 2457.419
198.3807, 2460.948
200.3092, 2467.226
202.2376, 2473.106
204.1661, 2475.692
206.0946, 2472.900
208.0230, 2470.592
209.9515, 2470.290
211.8800, 2471.544
213.8084, 2473.608
215.7369, 2476.010
217.6654, 2479.488
219.5938, 2483.950
221.5223, 2488.537
223.4508, 2495.023
225.3792, 2504.311
227.3077, 2516.246
229.2362, 2527.912
231.1646, 2537.055
233.0931, 2547.054
235.0216, 2559.947
236.9500, 2577.073
238.8785, 2593.901
240.8070, 2608.330
242.7354, 2620.574
244.6639, 2634.066
246.5924, 2652.837
248.5208, 2669.306
250.4493, 2679.253
252.3778, 2680.866
254.3062, 2677.457
256.2347, 2667.200
258.1632, 2650.927
260.0916, 2632.547
262.0201, 2609.927
263.9486, 2588.321
265.8770, 2570.260
267.8055, 2556.376
269.7340, 2543.354
271.6624, 2530.700
273.5909, 2519.714
275.5194, 2511.949
277.4478, 2506.745
279.3763, 2504.438
281.3048, 2507.539
283.2332, 2515.779
285.1617, 2522.271
287.0902, 2523.544
289.0186, 2523.527
290.9471, 2526.044
292.8756, 2532.035
294.8040, 2538.390
296.7325, 2544.206
298.6610, 2549.785
300.5894, 2557.724
302.5179, 2568.898
304.4464, 2582.003
306.3748, 2596.285
308.3033, 2610.964
310.2318, 2628.591
312.1602, 2651.316
314.0887, 2678.030
316.0172, 2704.473
317.9456, 2730.841
319.8741, 2755.984
321.8026, 2779.265
323.7310, 2800.891
325.6595, 2819.739
327.5880, 2836.759
329.5164, 2851.161
331.4449, 2860.240
333.3734, 2862.515
335.3018, 2861.827
337.2303, 2859.607
339.1588, 2856.051
341.0872, 2850.218
343.0157, 2840.909
344.9442, 2830.950
346.8727, 2823.304
348.8011, 2818.894
350.7296, 2815.385
352.6581, 2811.069
354.5865, 2805.981
356.5150, 2801.261
358.4435, 2796.660
360.3719, 2794.055
362.3004, 2794.870
364.2289, 2799.092
366.1573, 2803.498
368.0858, 2806.079
370.0143, 2808.076
371.9427, 2811.451
373.8712, 2817.047
375.7997, 2822.885
377.7281, 2827.760
379.6566, 2831.874
381.5851, 2838.354
383.5135, 2848.680
385.4420, 2860.305
387.3705, 2871.605
389.2989, 2882.493
391.2274, 2897.064
393.1559, 2917.136
395.0843, 2940.457
397.0128, 2963.975
398.9413, 2985.980
400.8697, 3012.257
402.7982, 3043.511
404.7267, 3079.763
406.6551, 3125.323
408.5836, 3184.604
410.5121, 3250.916
412.4405, 3322.793
414.3690, 3399.165
416.2975, 3474.594
418.2259, 3551.591
420.1544, 3621.858
422.0829, 3674.167
424.0113, 3701.621
425.9398, 3708.425
427.8683, 3689.328
429.7967, 3651.242
431.7252, 3606.281
433.6537, 3554.811
435.5821, 3508.273
437.5106, 3471.531
439.4391, 3448.926
441.3675, 3432.321
443.2960, 3422.172
445.2245, 3414.086
447.1529, 3405.696
449.0814, 3396.264
451.0099, 3386.777
452.9383, 3376.758
454.8668, 3368.365
456.7953, 3364.918
458.7237, 3366.859
460.6522, 3372.111
462.5807, 3380.077
464.5091, 3391.980
466.4376, 3401.587
468.3661, 3405.360
470.2945, 3408.092
472.2230, 3415.344
474.1515, 3427.571
476.0799, 3439.362
478.0084, 3450.171
479.9369, 3460.178
481.8653, 3469.004
483.7938, 3475.508
485.7223, 3479.503
487.6507, 3481.178
489.5792, 3483.109
491.5077, 3480.977
493.4361, 3469.380
495.3646, 3453.050
497.2931, 3434.727
499.2215, 3418.602
501.1500, 3400.735
503.0785, 3377.587
505.0069, 3351.837
506.9354, 3328.607
508.8639, 3311.252
510.7923, 3295.907
512.7208, 3281.728
514.6493, 3269.665
516.5778, 3260.579
518.5062, 3254.490
520.4347, 3250.587
522.3632, 3249.050
524.2916, 3249.614
526.2201, 3250.451
528.1486, 3251.988
530.0770, 3253.884
532.0055, 3255.512
533.9340, 3255.948
535.8624, 3258.563
537.7909, 3264.948
539.7194, 3273.921
541.6478, 3283.535
543.5763, 3293.210
545.5048, 3301.637
547.4332, 3308.190
549.3617, 3313.959
551.2902, 3318.120
553.2186, 3316.423
555.1471, 3315.740
557.0756, 3319.344
559.0040, 3328.365
560.9325, 3334.381
562.8610, 3334.055
564.7894, 3334.044
566.7179, 3338.636
568.6464, 3350.321
570.5748, 3360.858
572.5033, 3368.081
574.4318, 3375.340
576.3602, 3385.800
578.2887, 3399.465
580.2172, 3412.606
582.1456, 3422.397
584.0741, 3431.832
586.0026, 3444.138
587.9310, 3458.466
589.8595, 3476.181
591.7880, 3498.900
593.7164, 3525.539
595.6449, 3553.454
597.5734, 3585.329
599.5018, 3614.028
601.4303, 3638.611
603.3588, 3658.657
605.2872, 3675.080
607.2157, 3690.816
609.1442, 3699.571
611.0726, 3696.518
613.0011, 3681.974
614.9296, 3667.259
616.8580, 3652.027
618.7865, 3637.797
620.7150, 3625.034
622.6434, 3614.214
624.5719, 3604.161
626.5004, 3593.187
628.4288, 3584.570
630.3573, 3581.683
632.2858, 3587.693
634.2142, 3594.336
636.1427, 3600.110
638.0712, 3606.267
639.9996, 3614.974
641.9281, 3627.528
643.8566, 3636.829
645.7850, 3640.569
647.7135, 3639.576
649.6420, 3635.130
651.5704, 3625.341
653.4989, 3614.852
655.4274, 3603.207
657.3558, 3591.816
659.2843, 3584.275
661.2128, 3582.246
663.1412, 3582.644
665.0697, 3584.259
666.9982, 3587.067
668.9266, 3590.474
670.8551, 3593.380
672.7836, 3597.159
674.7120, 3603.136
676.6405, 3610.800
678.5690, 3617.563
680.4974, 3623.114
682.4259, 3627.890
684.3544, 3631.544
686.2828, 3633.378
688.2113, 3636.342
690.1398, 3641.540
692.0682, 3647.162
693.9967, 3651.727
695.9252, 3655.118
697.8536, 3659.621
699.7821, 3667.551
701.7106, 3674.796
703.6390, 3678.320
705.5675, 3677.091
707.4960, 3675.141
709.4244, 3671.663
711.3529, 3669.180
713.2814, 3669.430
715.2098, 3673.685
717.1383, 3678.129
719.0668, 3681.497
720.9952, 3684.107
722.9237, 3688.835
724.8522, 3696.544
726.7806, 3703.229
728.7091, 3706.339
730.6376, 3708.116
732.5660, 3710.896
734.4945, 3715.160
736.4230, 3718.485
738.3514, 3720.539
740.2799, 3724.247
742.2084, 3728.443
744.1368, 3732.788
746.0653, 3736.108
747.9938, 3738.903
749.9222, 3741.902
751.8507, 3744.633
753.7792, 3746.305
755.7076, 3748.690
757.6361, 3752.868
759.5646, 3758.135
761.4930, 3762.965
763.4215, 3767.012
765.3500, 3769.997
767.2784, 3771.477
769.2069, 3773.867
771.1354, 3777.682
773.0638, 3784.060
774.9923, 3788.726
776.9208, 3791.873
778.8492, 3795.212
780.7777, 3799.228
782.7062, 3803.567
784.6346, 3807.519
786.5631, 3811.948
788.4916, 3817.319
790.4200, 3821.360
792.3485, 3823.176
794.2770, 3823.887
796.2054, 3824.652
798.1339, 3825.873
800.0624, 3827.133
801.9908, 3827.638
803.9193, 3828.232
805.8478, 3831.126
807.7762, 3836.897
809.7047, 3842.909
811.6332, 3848.028
813.5616, 3852.294
815.4901, 3855.775
817.4186, 3857.175
819.3470, 3856.771
821.2755, 3854.544
823.2040, 3852.576
825.1324, 3852.978
827.0609, 3854.704
828.9894, 3855.244
830.9178, 3853.435
832.8463, 3852.823
834.7748, 3854.819
836.7032, 3858.402
838.6317, 3862.852
840.5602, 3868.065
842.4886, 3873.171
844.4171, 3876.820
846.3456, 3879.999
848.2740, 3883.550
850.2025, 3887.813
852.1310, 3891.948
854.0594, 3895.507
855.9879, 3895.833
857.9164, 3893.925
859.8448, 3891.384
861.7733, 3890.755
863.7018, 3891.695
865.6302, 3891.772
867.5587, 3892.378
869.4872, 3894.563
871.4156, 3898.169
873.3441, 3902.176
875.2726, 3905.120
877.2010, 3906.467
879.1295, 3906.301
881.0580, 3905.308
882.9865, 3903.893
884.9149, 3903.656
886.8434, 3905.034
888.7719, 3908.012
890.7003, 3912.051
892.6288, 3916.947
894.5573, 3920.899
896.4857, 3924.715
898.4142, 3931.063
900.3427, 3939.651
902.2711, 3947.522
904.1996, 3951.671
906.1281, 3955.575
908.0565, 3959.623
909.9850, 3963.504
911.9135, 3966.771
913.8419, 3968.826
915.7704, 3968.868
917.6989, 3969.218
919.6273, 3971.040
921.5558, 3973.849
923.4843, 3975.599
925.4127, 3975.175
927.3412, 3975.087
929.2697, 3977.691
931.1981, 3981.405
933.1266, 3986.582
935.0551, 3993.958
936.9835, 4001.300
938.9120, 4011.900
940.8405, 4021.926
942.7689, 4027.822
944.6974, 4032.912
946.6259, 4041.049
948.5543, 4049.213
950.4828, 4056.317
952.4113, 4066.113
954.3397, 4075.814
956.2682, 4086.021
958.1967, 4098.157
960.1251, 4109.745
962.0536, 4123.131
963.9821, 4146.208
965.9105, 4179.455
967.8390, 4220.707
969.7675, 4280.501
971.6959, 4362.014
973.6244, 4475.637
975.5529, 4638.682
977.4813, 4878.390
979.4098, 5187.680
981.3383, 5580.229
983.2667, 5980.173
985.1952, 6351.946
987.1237, 6528.894
989.0521, 6465.962
990.9806, 6191.529
992.9091, 5812.295
994.8375, 5354.653
996.7660, 4953.248
998.6945, 4661.347
1000.623, 4463.716
1002.551, 4326.154
1004.480, 4254.134
1006.408, 4205.931
1008.337, 4175.911
1010.265, 4157.893
1012.194, 4143.734
1014.122, 4131.043
1016.051, 4120.352
1017.979, 4115.234
1019.908, 4116.476
1021.836, 4117.289
1023.765, 4116.471
1025.693, 4116.168
1027.621, 4118.891
1029.550, 4121.953
1031.478, 4123.308
1033.407, 4121.990
1035.335, 4121.316
1037.264, 4122.644
1039.192, 4127.444
1041.121, 4134.591
1043.049, 4144.829
1044.978, 4156.679
1046.906, 4169.633
1048.835, 4182.141
1050.763, 4193.428
1052.692, 4205.229
1054.620, 4221.152
1056.548, 4243.173
1058.477, 4264.717
1060.405, 4283.033
1062.334, 4302.425
1064.262, 4325.538
1066.191, 4353.068
1068.119, 4378.149
1070.048, 4401.311
1071.976, 4415.632
1073.905, 4414.820
1075.833, 4399.292
1077.762, 4380.008
1079.690, 4356.453
1081.619, 4333.880
1083.547, 4311.971
1085.475, 4294.114
1087.404, 4282.655
1089.332, 4278.141
1091.261, 4278.522
1093.189, 4286.904
1095.118, 4299.063
1097.046, 4309.692
1098.975, 4318.846
1100.903, 4328.814
1102.832, 4339.782
1104.760, 4351.479
1106.689, 4364.329
1108.617, 4378.875
1110.546, 4394.099
1112.474, 4410.538
1114.402, 4426.236
1116.331, 4438.919
1118.259, 4452.423
1120.188, 4472.219
1122.116, 4497.360
1124.045, 4528.054
1125.973, 4568.911
1127.902, 4615.354
1129.830, 4661.710
1131.759, 4703.396
1133.687, 4721.052
1135.616, 4707.576
1137.544, 4677.303
1139.473, 4631.519
1141.401, 4576.814
1143.329, 4525.747
1145.258, 4476.474
1147.186, 4436.873
1149.115, 4411.854
1151.043, 4391.140
1152.972, 4366.810
1154.900, 4338.953
1156.829, 4316.007
1158.757, 4300.026
1160.686, 4286.351
1162.614, 4273.682
1164.543, 4261.796
1166.471, 4250.752
1168.400, 4240.794
1170.328, 4232.233
1172.256, 4224.051
1174.185, 4218.274
1176.113, 4216.209
1178.042, 4218.183
1179.970, 4217.568
1181.899, 4211.406
1183.827, 4205.444
1185.756, 4202.203
1187.684, 4200.675
1189.613, 4198.241
1191.541, 4194.806
1193.470, 4192.697
1195.398, 4193.507
1197.327, 4195.997
1199.255, 4199.368
1201.183, 4203.538
1203.112, 4206.627
1205.040, 4207.202
1206.969, 4206.965
1208.897, 4205.665
1210.826, 4203.337
1212.754, 4201.124
1214.683, 4198.988
1216.611, 4197.693
1218.540, 4199.233
1220.468, 4201.425
1222.397, 4202.303
1224.325, 4202.311
1226.254, 4203.979
1228.182, 4207.991
1230.110, 4212.158
1232.039, 4214.206
1233.967, 4214.945
1235.896, 4216.005
1237.824, 4216.872
1239.753, 4218.255
1241.681, 4222.446
1243.610, 4224.892
1245.538, 4223.729
1247.467, 4220.091
1249.395, 4215.563
1251.324, 4209.352
1253.252, 4204.225
1255.181, 4201.107
1257.109, 4199.661
1259.037, 4199.466
1260.966, 4200.575
1262.894, 4201.130
1264.823, 4199.442
1266.751, 4198.412
1268.680, 4200.644
1270.608, 4204.083
1272.537, 4204.814
1274.465, 4201.811
1276.394, 4200.384
1278.322, 4203.308
1280.251, 4206.983
1282.179, 4209.371
1284.108, 4209.739
1286.036, 4211.507
1287.964, 4216.901
1289.893, 4222.138
1291.821, 4225.396
1293.750, 4227.030
1295.678, 4229.151
1297.607, 4232.601
1299.535, 4236.473
1301.464, 4241.837
1303.392, 4245.653
1305.321, 4245.336
1307.249, 4242.882
1309.178, 4243.487
1311.106, 4248.264
1313.035, 4251.382
1314.963, 4250.003
1316.891, 4248.466
1318.820, 4249.324
1320.748, 4252.844
1322.677, 4255.585
1324.605, 4255.056
1326.534, 4254.484
1328.462, 4256.291
1330.391, 4254.223
1332.319, 4257.559
1334.248, 4251.565
1336.176, 4247.576
1338.105, 4246.283
1340.033, 4245.190
1341.962, 4243.794
1343.890, 4243.384
1345.818, 4244.877
1347.747, 4248.209
1349.675, 4250.126
1351.604, 4247.441
1353.532, 4245.830
1355.461, 4249.134
1357.389, 4254.529
1359.318, 4257.199
1361.246, 4256.817
1363.175, 4254.335
1365.103, 4249.435
1367.032, 4244.893
1368.960, 4241.823
1370.889, 4239.981
1372.817, 4240.080
1374.745, 4244.431
1376.674, 4247.228
1378.602, 4244.330
1380.531, 4238.821
1382.459, 4233.462
1384.388, 4229.740
1386.316, 4228.420
1388.245, 4231.641
1390.173, 4233.967
1392.102, 4235.742
1394.030, 4236.573
1395.959, 4234.705
1397.887, 4229.103
1399.816, 4226.071
1401.744, 4227.115
1403.672, 4227.035
1405.601, 4222.432
1407.529, 4217.431
1409.458, 4217.849
1411.386, 4224.298
1413.315, 4226.350
1415.243, 4218.720
1417.172, 4212.481
1419.100, 4213.445
1421.029, 4217.060
1422.957, 4218.225
1424.886, 4218.124
1426.814, 4220.297
1428.743, 4224.925
1430.671, 4227.336
1432.599, 4225.903
1434.528, 4223.676
1436.456, 4223.859
1438.385, 4226.880
1440.313, 4227.127
1442.242, 4221.185
1444.170, 4215.353
1446.099, 4211.304
1448.027, 4208.809
1449.956, 4207.470
1451.884, 4207.919
1453.813, 4206.980
1455.741, 4202.282
1457.670, 4199.287
1459.598, 4200.703
1461.526, 4203.995
1463.455, 4206.356
1465.383, 4207.693
1467.312, 4207.132
1469.240, 4203.473
1471.169, 4201.452
1473.097, 4202.126
1475.026, 4202.048
1476.954, 4198.668
1478.883, 4193.929
1480.811, 4191.262
1482.740, 4191.229
1484.668, 4191.336
1486.597, 4192.116
1488.525, 4193.088
1490.453, 4192.473
1492.382, 4190.760
1494.310, 4192.745
1496.239, 4199.428
1498.167, 4205.862
1500.096, 4210.292
1502.024, 4212.483
1503.953, 4211.524
1505.881, 4207.331
1507.810, 4202.384
1509.738, 4198.332
1511.667, 4193.654
1513.595, 4187.875
1515.524, 4183.523
1517.452, 4182.796
1519.380, 4185.007
1521.309, 4186.891
1523.237, 4186.759
1525.166, 4187.318
1527.094, 4189.389
1529.023, 4189.459
1530.951, 4185.112
1532.880, 4178.844
1534.808, 4175.155
1536.737, 4175.336
1538.665, 4174.018
1540.594, 4170.454
1542.522, 4167.524
1544.451, 4165.644
1546.379, 4164.985
1548.307, 4166.179
1550.236, 4169.205
1552.164, 4170.961
1554.093, 4170.513
1556.021, 4169.533
1557.950, 4168.172
1559.878, 4166.290
1561.807, 4164.681
1563.735, 4163.152
1565.664, 4159.187
1567.592, 4151.142
1569.521, 4145.455
1571.449, 4146.866
1573.378, 4147.792
1575.306, 4143.385
1577.234, 4136.232
1579.163, 4130.221
1581.091, 4125.371
1583.020, 4122.431
1584.948, 4122.903
1586.877, 4123.113
1588.805, 4122.303
1590.734, 4120.902
1592.662, 4117.778
1594.591, 4113.476
1596.519, 4112.390
1598.448, 4115.826
1600.376, 4118.083
1602.305, 4115.541
1604.233, 4112.986
1606.161, 4113.764
1608.090, 4115.905
1610.018, 4115.419
1611.947, 4112.144
1613.875, 4107.413
1615.804, 4102.576
1617.732, 4096.260
1619.661, 4086.728
1621.589, 4077.150
1623.518, 4070.053
1625.446, 4065.827
1627.375, 4067.569
1629.303, 4077.875
1631.232, 4085.935
1633.160, 4085.718
1635.089, 4084.533
1637.017, 4086.405
1638.945, 4089.473
1640.874, 4090.365
1642.802, 4089.121
1644.731, 4085.083
1646.659, 4077.009
1648.588, 4069.908
1650.516, 4065.315
1652.445, 4062.769
1654.373, 4062.304
1656.302, 4063.425
1658.230, 4063.519
1660.159, 4061.880
1662.087, 4059.904
1664.016, 4057.599
1665.944, 4054.806
1667.872, 4051.491
1669.801, 4047.716
1671.729, 4043.161
1673.658, 4037.761
1675.586, 4035.146
1677.515, 4038.122
1679.443, 4039.047
1681.372, 4035.877
1683.300, 4031.617
1685.229, 4026.230
1687.157, 4021.208
1689.086, 4020.336
1691.014, 4024.484
1692.943, 4026.166
1694.871, 4024.502
1696.799, 4020.540
1698.728, 4014.309
1700.656, 4006.368
1702.585, 3995.907
1704.513, 3984.667
1706.442, 3977.822
1708.370, 3976.823
1710.299, 3975.905
1712.227, 3974.897
1714.156, 3973.504
1716.084, 3971.431
1718.013, 3968.570
1719.941, 3965.167
1721.870, 3960.830
1723.798, 3953.577
1725.726, 3941.628
1727.655, 3933.212
1729.583, 3932.067
1731.512, 3930.705
1733.440, 3926.411
1735.369, 3921.799
1737.297, 3919.606
1739.226, 3919.444
1741.154, 3918.420
1743.083, 3916.344
1745.011, 3914.102
1746.940, 3910.423
1748.868, 3908.175
1750.797, 3909.407
1752.725, 3910.724
1754.653, 3908.292
1756.582, 3906.795
1758.510, 3904.138
1760.439, 3898.572
1762.367, 3894.989
1764.296, 3886.990
1766.224, 3877.812
1768.153, 3867.821
1770.081, 3858.627
1772.010, 3850.997
1773.938, 3845.438
1775.867, 3844.025
1777.795, 3847.424
1779.724, 3849.434
1781.652, 3849.315
1783.580, 3847.149
1785.509, 3840.071
1787.437, 3833.215
1789.366, 3830.542
1791.294, 3830.362
1793.223, 3829.512
1795.151, 3827.941
1797.080, 3823.642
1799.008, 3815.081
1800.937, 3807.839
1802.865, 3804.821
1804.794, 3802.764
1806.722, 3800.352
1808.651, 3797.468
1810.579, 3793.241
1812.507, 3787.867
1814.436, 3783.994
1816.364, 3781.903
1818.293, 3779.819
1820.221, 3778.116
1822.150, 3774.649
1824.078, 3766.710
1826.007, 3757.818
1827.935, 3752.728
1829.864, 3746.953
1831.792, 3742.165
1833.721, 3740.149
1835.649, 3736.169
1837.578, 3736.604
1839.506, 3737.117
1841.434, 3736.307
1843.363, 3734.391
1845.291, 3731.457
1847.220, 3727.254
1849.148, 3720.617
1851.077, 3710.872
1853.005, 3705.199
1854.934, 3707.348
1856.862, 3707.331
1858.791, 3703.107
1860.719, 3697.785
1862.648, 3692.458
1864.576, 3687.156
1866.505, 3681.673
1868.433, 3676.178
1870.361, 3672.005
1872.290, 3670.634
1874.218, 3667.041
1876.147, 3658.582
1878.075, 3652.024
1880.004, 3651.116
1881.932, 3650.199
1883.861, 3644.625
1885.789, 3637.052
1887.718, 3632.060
1889.646, 3629.354
1891.575, 3626.085
1893.503, 3621.390
1895.432, 3617.414
1897.360, 3615.599
1899.288, 3612.838
1901.217, 3608.575
1903.145, 3603.591
1905.074, 3598.899
1907.002, 3594.502
1908.931, 3589.440
1910.859, 3583.811
1912.788, 3579.290
1914.716, 3575.472
1916.645, 3572.206
1918.573, 3569.238
1920.502, 3565.693
1922.430, 3560.513
1924.359, 3555.054
1926.287, 3551.110
1928.215, 3548.135
1930.144, 3544.842
1932.072, 3541.565
1934.001, 3536.633
1935.929, 3528.807
1937.858, 3522.359
1939.786, 3517.010
1941.715, 3514.098
1943.643, 3517.436
1945.572, 3520.149
1947.500, 3514.753
1949.429, 3504.311
1951.357, 3496.558
1953.286, 3491.758
1955.214, 3485.338
1957.143, 3475.645
1959.071, 3468.164
1961.000, 3465.858
1962.928, 3462.778
1964.856, 3456.313
1966.785, 3449.958
1968.713, 3447.688
1970.642, 3446.757
1972.570, 3440.345
1974.499, 3429.776
1976.427, 3425.485
1978.356, 3428.747
1980.284, 3431.778
1982.213, 3434.877
1984.141, 3433.283
1986.070, 3418.714
1987.998, 3406.134
1989.927, 3407.777
1991.855, 3414.052
1993.783, 3412.214
1995.712, 3404.317
1997.640, 3399.817
1999.569, 3399.978
2001.497, 3398.207
2003.426, 3393.983
2005.354, 3388.905
2007.283, 3383.001
2009.211, 3376.228
2011.140, 3366.961
2013.068, 3358.220
2014.997, 3353.501
2016.925, 3350.825
2018.854, 3345.826
2020.782, 3338.820
2022.710, 3333.769
2024.639, 3331.381
2026.567, 3327.673
2028.496, 3320.927
2030.424, 3315.677
2032.353, 3313.851
2034.281, 3312.626
2036.210, 3311.826
2038.138, 3309.525
2040.067, 3301.676
2041.995, 3291.414
2043.924, 3287.347
2045.852, 3289.395
2047.781, 3287.960
2049.709, 3281.292
2051.637, 3275.410
2053.566, 3271.358
2055.494, 3267.011
2057.423, 3261.996
2059.351, 3256.831
2061.280, 3252.816
2063.208, 3248.580
2065.137, 3241.089
2067.065, 3232.802
2068.994, 3231.518
2070.922, 3236.793
2072.851, 3237.178
2074.779, 3230.649
2076.708, 3225.961
2078.636, 3224.303
2080.564, 3222.883
2082.493, 3222.107
2084.421, 3219.136
2086.350, 3212.641
2088.278, 3203.919
2090.207, 3192.938
2092.135, 3181.868
2094.064, 3175.030
2095.992, 3172.252
2097.921, 3168.711
2099.849, 3163.884
2101.778, 3158.681
2103.706, 3152.120
2105.635, 3145.823
2107.563, 3140.568
2109.491, 3134.718
2111.420, 3127.432
2113.348, 3120.454
2115.277, 3115.763
2117.205, 3111.953
2119.134, 3106.342
2121.062, 3100.219
2122.991, 3097.251
2124.919, 3097.110
2126.848, 3096.858
2128.776, 3096.268
2130.705, 3094.155
2132.633, 3089.306
2134.562, 3084.184
2136.490, 3079.041
2138.418, 3074.161
2140.347, 3071.235
2142.275, 3067.389
2144.204, 3058.575
2146.132, 3048.728
2148.061, 3044.586
2149.989, 3044.910
2151.918, 3043.827
2153.846, 3041.381
2155.775, 3039.743
2157.703, 3039.313
2159.632, 3036.402
2161.560, 3028.862
2163.489, 3021.586
2165.417, 3015.191
2167.345, 3009.897
2169.274, 3006.426
2171.202, 3003.548
2173.131, 3002.043
2175.059, 2999.747
2176.988, 2991.635
2178.916, 2991.396
2180.845, 2978.452
2182.773, 2984.232
2184.702, 2983.516
2186.630, 2974.980
2188.559, 2968.335
2190.487, 2964.386
2192.416, 2962.267
2194.344, 2963.583
2196.272, 2962.671
2198.201, 2956.141
2200.129, 2948.469
2202.058, 2941.615
2203.986, 2935.597
2205.915, 2931.575
2207.843, 2927.794
2209.772, 2920.417
2211.700, 2910.501
2213.629, 2903.075
2215.557, 2898.247
2217.486, 2894.199
2219.414, 2891.097
2221.343, 2888.304
2223.271, 2885.943
2225.199, 2883.091
2227.128, 2878.492
2229.056, 2874.741
2230.985, 2872.798
2232.913, 2871.568
2234.842, 2871.694
2236.770, 2871.054
2238.699, 2867.305
2240.627, 2862.107
2242.556, 2856.833
2244.484, 2852.456
2246.413, 2853.981
2248.341, 2849.664
2250.270, 2847.216
2252.198, 2847.775
2254.126, 2842.219
2256.055, 2844.727
2257.983, 2845.474
2259.912, 2842.608
2261.840, 2837.547
2263.769, 2828.437
2265.697, 2820.114
2267.626, 2815.399
2269.554, 2810.955
2271.483, 2805.569
2273.411, 2799.151
2275.340, 2790.723
2277.268, 2782.260
2279.197, 2776.931
2281.125, 2774.113
2283.053, 2772.085
2284.982, 2770.571
2286.910, 2768.184
2288.839, 2764.292
2290.767, 2761.230
2292.696, 2760.227
2294.624, 2756.904
2296.553, 2748.454
2298.481, 2742.397
2300.410, 2742.214
2302.338, 2740.808
2304.267, 2736.763
2306.195, 2730.445
2308.124, 2719.368
2310.052, 2709.405
2311.980, 2704.563
2313.909, 2703.634
2315.837, 2708.015
2317.766, 2713.609
2319.694, 2711.291
2321.623, 2702.816
2323.551, 2696.539
2325.480, 2692.370
2327.408, 2687.289
2329.337, 2683.006
2331.265, 2679.636
2333.194, 2675.264
2335.122, 2672.819
2337.051, 2669.333
2338.979, 2664.837
2340.907, 2658.144
2342.836, 2653.148
2344.764, 2653.160
2346.693, 2652.274
2348.621, 2646.399
2350.550, 2640.471
2352.478, 2636.979
2354.407, 2634.352
2356.335, 2631.664
2358.264, 2628.156
2360.192, 2623.385
2362.121, 2617.452
2364.049, 2610.209
2365.978, 2602.530
2367.906, 2596.909
2369.834, 2593.572
2371.763, 2588.645
2373.691, 2581.615
2375.620, 2575.785
2377.548, 2570.628
2379.477, 2567.362
2381.405, 2566.453
2383.334, 2563.797
2385.262, 2557.590
2387.191, 2552.532
2389.119, 2551.246
2391.048, 2549.952
2392.976, 2549.129
2394.905, 2546.476
2396.833, 2539.308
2398.761, 2531.961
2400.690, 2526.047
2402.618, 2521.482
2404.547, 2519.258
2406.475, 2517.060
2408.404, 2512.155
2410.332, 2505.863
2412.261, 2499.953
2414.189, 2494.773
2416.118, 2491.255
2418.046, 2489.285
2419.975, 2487.992
2421.903, 2487.235
2423.832, 2483.600
2425.760, 2481.085
2427.688, 2477.715
2429.617, 2472.473
2431.545, 2469.531
2433.474, 2462.355
2435.402, 2457.082
2437.331, 2455.063
2439.259, 2454.027
2441.188, 2456.124
2443.116, 2454.981
2445.045, 2447.484
2446.973, 2440.893
2448.902, 2438.248
2450.830, 2435.728
2452.759, 2430.120
2454.687, 2425.530
2456.615, 2425.741
2458.544, 2425.906
2460.472, 2421.671
2462.401, 2416.885
2464.329, 2415.976
2466.258, 2416.079
2468.186, 2414.131
2470.115, 2410.702
2472.043, 2405.493
2473.972, 2399.648
2475.900, 2395.637
2477.829, 2392.889
2479.757, 2390.917
2481.686, 2389.172
2483.614, 2383.251
2485.542, 2379.724
2487.471, 2375.210
2489.399, 2368.923
2491.328, 2366.142
2493.256, 2360.184
2495.185, 2356.863
2497.113, 2357.894
2499.042, 2356.469
2500.970, 2350.464
2502.899, 2346.701
2504.827, 2346.311
2506.756, 2344.523
2508.684, 2340.572
2510.613, 2335.284
2512.541, 2327.763
2514.469, 2322.000
2516.398, 2320.938
2518.326, 2319.344
2520.255, 2315.314
2522.183, 2311.302
2524.112, 2308.079
2526.040, 2304.758
2527.969, 2300.197
2529.897, 2296.386
2531.826, 2295.407
2533.754, 2294.574
2535.683, 2292.268
2537.611, 2289.334
2539.540, 2286.107
2541.468, 2282.900
2543.396, 2279.385
2545.325, 2276.297
2547.253, 2275.386
2549.182, 2274.119
2551.110, 2268.933
2553.039, 2261.891
2554.967, 2255.528
2556.896, 2250.370
2558.824, 2248.465
2560.753, 2248.247
2562.681, 2245.490
2564.610, 2241.086
2566.538, 2236.208
2568.467, 2231.370
2570.395, 2228.491
2572.323, 2227.132
2574.252, 2226.403
2576.180, 2226.008
2578.109, 2224.661
2580.037, 2222.388
2581.966, 2218.385
2583.894, 2213.066
2585.823, 2208.521
2587.751, 2205.035
2589.680, 2202.629
2591.608, 2201.447
2593.537, 2200.009
2595.465, 2197.978
2597.394, 2196.119
2599.322, 2194.110
2601.250, 2194.527
2603.179, 2192.766
2605.107, 2191.145
2607.036, 2191.686
2608.964, 2187.707
2610.893, 2188.370
2612.821, 2187.534
2614.750, 2184.987
2616.678, 2180.838
2618.607, 2174.679
2620.535, 2168.553
2622.464, 2161.902
2624.392, 2157.240
2626.321, 2157.231
2628.249, 2154.686
2630.177, 2147.825
2632.106, 2141.874
2634.034, 2137.429
2635.963, 2135.820
2637.891, 2140.202
2639.820, 2141.517
2641.748, 2135.450
2643.677, 2129.683
2645.605, 2125.307
2647.534, 2121.678
2649.462, 2118.147
2651.391, 2116.282
2653.319, 2117.865
2655.248, 2118.162
2657.176, 2114.762
2659.104, 2111.132
2661.033, 2108.730
2662.961, 2105.586
2664.890, 2101.067
2666.818, 2096.707
2668.747, 2093.209
2670.675, 2090.181
2672.604, 2087.293
2674.532, 2085.241
2676.461, 2085.487
2678.389, 2084.193
2680.318, 2078.343
2682.246, 2073.901
2684.175, 2074.345
2686.103, 2073.898
2688.031, 2069.613
2689.960, 2065.014
2691.888, 2061.905
2693.817, 2058.488
2695.745, 2053.754
2697.674, 2050.107
2699.602, 2048.406
2701.531, 2048.162
2703.459, 2051.017
2705.388, 2052.124
2707.316, 2047.136
2709.245, 2043.784
2711.173, 2045.891
2713.102, 2046.744
2715.030, 2042.893
2716.958, 2038.996
2718.887, 2037.750
2720.815, 2035.464
2722.744, 2029.918
2724.672, 2024.959
2726.601, 2021.345
2728.529, 2019.670
2730.458, 2022.587
2732.386, 2022.566
2734.315, 2012.860
2736.243, 2006.216
2738.172, 2008.117
2740.100, 2010.108
2742.029, 2011.696
2743.957, 2009.950
2745.885, 2001.772
2747.814, 1995.720
2749.742, 1997.253
2751.671, 1996.251
2753.599, 1988.156
2755.528, 1984.034
2757.456, 1987.497
2759.385, 1988.897
2761.313, 1983.364
2763.242, 1980.858
2765.170, 1986.178
2767.099, 1988.965
2769.027, 1988.616
2770.956, 1984.428
2772.884, 1975.300
2774.813, 1967.805
2776.741, 1963.690
2778.669, 1960.747
2780.598, 1960.015
2782.526, 1957.670
2784.455, 1953.333
2786.383, 1948.911
2788.312, 1944.195
2790.240, 1942.139
2792.169, 1939.238
2794.097, 1936.400
2796.026, 1935.742
2797.954, 1931.260
2799.883, 1929.443
2801.811, 1926.026
2803.740, 1920.831
2805.668, 1919.793
2807.596, 1917.267
2809.525, 1914.922
2811.453, 1915.057
2813.382, 1911.679
2815.310, 1910.981
2817.239, 1909.670
2819.167, 1907.577
2821.096, 1903.457
2823.024, 1898.089
2824.953, 1895.035
2826.881, 1893.727
2828.810, 1893.221
2830.738, 1892.725
2832.667, 1890.690
2834.595, 1887.391
2836.523, 1883.002
2838.452, 1878.298
2840.380, 1874.148
2842.309, 1871.039
2844.237, 1869.637
2846.166, 1869.375
2848.094, 1870.870
2850.023, 1871.503
2851.951, 1866.957
2853.880, 1862.254
2855.808, 1862.129
2857.737, 1862.172
2859.665, 1858.960
2861.594, 1855.568
2863.522, 1853.491
2865.450, 1852.498
2867.379, 1853.663
2869.307, 1853.412
2871.236, 1847.905
2873.164, 1844.212
2875.093, 1846.556
2877.021, 1847.176
2878.950, 1843.854
2880.878, 1841.363
2882.807, 1841.783
2884.735, 1840.019
2886.664, 1832.147
2888.592, 1828.574
2890.521, 1830.469
2892.449, 1831.717
2894.377, 1831.850
2896.306, 1829.659
2898.234, 1824.617
2900.163, 1820.286
2902.091, 1816.630
2904.020, 1817.845
2905.948, 1822.839
2907.877, 1824.827
2909.805, 1823.958
2911.734, 1820.256
2913.662, 1815.092
2915.591, 1812.620
2917.519, 1811.820
2919.448, 1811.993
2921.376, 1811.191
2923.304, 1805.123
2925.233, 1798.213
2927.161, 1796.278
2929.090, 1795.515
2931.018, 1792.885
2932.947, 1790.013
2934.875, 1788.244
2936.804, 1786.258
2938.732, 1783.075
2940.661, 1779.777
2942.589, 1776.193
2944.518, 1773.824
2946.446, 1774.352
2948.375, 1774.092
2950.303, 1771.915
2952.231, 1770.178
2954.160, 1769.209
2956.088, 1767.654
2958.017, 1765.125
2959.945, 1762.624
2961.874, 1760.020
2963.802, 1758.226
2965.731, 1757.144
2967.659, 1754.841
2969.588, 1752.010
2971.516, 1752.371
2973.445, 1750.123
2975.373, 1752.174
2977.302, 1748.345
2979.230, 1747.828
2981.158, 1748.188
2983.087, 1746.666
2985.015, 1744.391
2986.944, 1742.824
2988.872, 1740.816
2990.801, 1737.406
2992.729, 1734.205
2994.658, 1731.815
2996.586, 1730.235
2998.515, 1729.804
3000.443, 1728.939
3002.372, 1727.119
3004.300, 1725.300
3006.229, 1723.882
3008.157, 1722.137
3010.085, 1720.173
3012.014, 1718.396
3013.942, 1714.744
3015.871, 1714.510
3017.799, 1712.126
3019.728, 1710.263
3021.656, 1709.568
3023.585, 1707.195
3025.513, 1706.594
3027.442, 1707.061
3029.370, 1708.388
3031.299, 1711.379
3033.227, 1713.535
3035.156, 1711.408
3037.084, 1709.699
3039.012, 1713.339
3040.941, 1714.558
3042.869, 1707.318
3044.798, 1703.016
3046.726, 1704.921
3048.655, 1705.372
3050.583, 1701.738
3052.512, 1701.161
3054.440, 1704.866
3056.369, 1705.144
3058.297, 1702.359
3060.226, 1701.851
3062.154, 1702.813
3064.083, 1699.945
3066.011, 1700.391
3067.939, 1700.164
3069.868, 1699.438
3071.796, 1700.322
3073.725, 1700.262
3075.653, 1700.425
3077.582, 1699.853
3079.510, 1697.358
3081.439, 1696.060
3083.367, 1699.023
3085.296, 1700.167
3087.224, 1696.623
3089.153, 1696.513
3091.081, 1700.988
3093.010, 1702.988
3094.938, 1701.602
3096.866, 1699.068
3098.795, 1695.736
3100.723, 1695.484
3102.652, 1694.142
3104.580, 1695.775
3106.509, 1694.020
3108.437, 1694.351
3110.366, 1694.996
3112.294, 1693.595
3114.223, 1693.215
3116.151, 1698.103
3118.080, 1700.443
3120.008, 1697.116
3121.937, 1692.948
3123.865, 1688.132
3125.793, 1686.492
3127.722, 1685.509
3129.650, 1689.695
3131.579, 1687.088
3133.507, 1687.330
3135.436, 1689.500
3137.364, 1689.387
3139.293, 1689.197
3141.221, 1695.590
3143.150, 1701.335
3145.078, 1697.337
3147.007, 1692.909
3148.935, 1694.072
3150.864, 1696.535
3152.792, 1699.560
3154.720, 1701.171
3156.649, 1700.709
3158.577, 1698.933
3160.506, 1695.704
3162.434, 1695.053
3164.363, 1696.863
3166.291, 1698.696
3168.220, 1700.385
3170.148, 1700.995
3172.077, 1701.644
3174.005, 1705.127
3175.934, 1707.990
3177.862, 1705.624
3179.791, 1704.711
3181.719, 1709.949
3183.647, 1713.799
3185.576, 1713.215
3187.504, 1713.862
3189.433, 1716.074
3191.361, 1719.965
3193.290, 1724.959
3195.218, 1728.127
3197.147, 1729.073
3199.075, 1725.265
3201.004, 1720.266
3202.932, 1721.480
3204.861, 1723.242
3206.789, 1719.000
3208.718, 1716.590
3210.646, 1721.053
3212.574, 1724.599
3214.503, 1724.229
3216.431, 1725.514
3218.360, 1724.792
3220.288, 1729.151
3222.217, 1722.494
3224.145, 1719.601
3226.074, 1719.661
3228.002, 1721.121
3229.931, 1722.261
3231.859, 1719.866
3233.788, 1717.087
3235.716, 1715.895
3237.645, 1715.120
3239.573, 1713.954
3241.501, 1713.900
3243.430, 1715.245
3245.358, 1717.515
3247.287, 1717.341
3249.215, 1720.844
3251.144, 1718.830
3253.072, 1719.929
3255.001, 1722.023
3256.929, 1721.546
3258.858, 1720.382
3260.786, 1719.943
3262.715, 1719.603
3264.643, 1718.535
3266.572, 1718.582
3268.500, 1720.317
3270.428, 1721.049
3272.357, 1720.463
3274.285, 1719.492
3276.214, 1718.548
3278.142, 1720.603
3280.071, 1718.566
3281.999, 1720.215
3283.928, 1716.900
3285.856, 1717.460
3287.785, 1717.717
3289.713, 1716.499
3291.642, 1714.214
3293.570, 1710.680
3295.499, 1707.174
3297.427, 1703.883
3299.355, 1703.582
3301.284, 1705.753
3303.212, 1710.477
3305.141, 1715.250
3307.069, 1715.957
3308.998, 1716.575
3310.926, 1721.949
3312.855, 1723.946
3314.783, 1719.231
3316.712, 1717.688
3318.640, 1721.603
3320.569, 1724.984
3322.497, 1727.751
3324.426, 1730.734
3326.354, 1733.848
3328.282, 1737.111
3330.211, 1740.338
3332.139, 1744.096
3334.068, 1746.578
3335.996, 1745.185
3337.925, 1747.644
3339.853, 1748.818
3341.782, 1750.596
3343.710, 1754.226
3345.639, 1756.856
3347.567, 1764.229
3349.496, 1770.458
3351.424, 1775.087
3353.353, 1778.557
3355.281, 1778.899
3357.209, 1772.147
3359.138, 1768.691
3361.066, 1770.958
3362.995, 1772.983
3364.923, 1774.439
3366.852, 1777.369
3368.780, 1781.132
3370.709, 1785.228
3372.637, 1787.319
3374.566, 1782.234
3376.494, 1778.006
3378.423, 1778.820
3380.351, 1779.503
3382.280, 1779.169
3384.208, 1776.993
3386.136, 1773.162
3388.065, 1770.272
3389.993, 1767.190
3391.922, 1759.428
3393.850, 1752.056
3395.779, 1751.606
3397.707, 1749.799
3399.636, 1742.121
3401.564, 1733.897
3403.493, 1725.683
3405.421, 1718.248
3407.350, 1711.807
3409.278, 1709.857
3411.207, 1707.883
3413.135, 1696.818
3415.063, 1684.648
3416.992, 1677.919
3418.920, 1671.194
3420.849, 1662.390
3422.777, 1656.887
3424.706, 1655.812
3426.634, 1650.853
3428.563, 1643.449
3430.491, 1638.316
3432.420, 1633.443
3434.348, 1625.709
3436.277, 1618.552
3438.205, 1613.928
3440.134, 1609.408
3442.062, 1604.581
3443.990, 1600.273
3445.919, 1595.928
3447.847, 1587.504
3449.776, 1577.928
3451.704, 1572.467
3453.633, 1568.607
3455.561, 1566.458
3457.490, 1561.918
3459.418, 1553.492
3461.347, 1546.724
3463.275, 1542.218
3465.204, 1539.173
3467.132, 1536.706
3469.061, 1531.895
3470.989, 1527.507
3472.917, 1526.337
3474.846, 1525.285
3476.774, 1523.216
3478.703, 1521.246
3480.631, 1519.290
3482.560, 1519.553
3484.488, 1521.081
3486.417, 1521.462
3488.345, 1521.499
3490.274, 1521.991
3492.202, 1522.624
3494.131, 1522.475
3496.059, 1526.300
3497.988, 1535.204
3499.916, 1540.711
3501.844, 1543.685
3503.773, 1546.813
3505.701, 1549.883
3507.630, 1552.528
3509.558, 1555.720
3511.487, 1560.331
3513.415, 1564.833
3515.344, 1569.177
3517.272, 1571.764
3519.201, 1574.034
3521.129, 1581.535
3523.058, 1588.504
3524.986, 1588.305
3526.915, 1588.712
3528.843, 1593.602
3530.771, 1597.397
3532.700, 1600.022
3534.628, 1605.681
3536.557, 1613.270
3538.485, 1621.236
3540.414, 1628.395
3542.342, 1637.270
3544.271, 1648.001
3546.199, 1655.744
3548.128, 1670.228
3550.056, 1681.740
3551.985, 1690.979
3553.913, 1698.787
3555.842, 1709.653
3557.770, 1715.228
3559.698, 1709.252
3561.627, 1698.120
3563.555, 1682.875
3565.484, 1662.248
3567.412, 1637.726
3569.341, 1615.585
3571.269, 1595.211
3573.198, 1575.499
3575.126, 1558.038
3577.055, 1543.496
3578.983, 1532.108
3580.912, 1524.260
3582.840, 1518.380
3584.769, 1516.053
3586.697, 1519.198
3588.625, 1530.581
3590.554, 1552.724
3592.482, 1585.036
3594.411, 1627.912
3596.339, 1674.424
3598.268, 1723.028
3600.196, 1774.846
3602.125, 1819.428
3604.053, 1848.941
3605.982, 1858.128
3607.910, 1844.424
3609.839, 1819.769
3611.767, 1785.607
3613.696, 1737.104
3615.624, 1677.038
3617.552, 1607.701
3619.481, 1539.006
3621.409, 1475.080
3623.338, 1422.539
3625.266, 1383.809
3627.195, 1352.695
3629.123, 1328.506
3631.052, 1312.465
3632.980, 1299.903
3634.909, 1287.249
3636.837, 1274.579
3638.766, 1265.523
3640.694, 1252.716
3642.623, 1248.788
3644.551, 1243.348
3646.479, 1236.404
3648.408, 1225.555
3650.336, 1217.810
3652.265, 1216.418
3654.193, 1215.568
3656.122, 1214.383
3658.050, 1211.963
3659.979, 1208.447
3661.907, 1203.080
3663.836, 1199.119
3665.764, 1195.903
3667.693, 1191.420
3669.621, 1190.168
3671.550, 1185.461
3673.478, 1183.187
3675.406, 1183.869
3677.335, 1184.465
3679.263, 1182.337
3681.192, 1180.217
3683.120, 1178.600
3685.049, 1176.887
3686.977, 1174.961
3688.906, 1172.009
3690.834, 1169.327
3692.763, 1168.702
3694.691, 1166.901
3696.620, 1162.860
3698.548, 1164.442
3700.477, 1162.532
3702.405, 1166.236
3704.333, 1162.742
3706.262, 1166.378
3708.190, 1168.575
3710.119, 1167.610
3712.047, 1162.554
3713.976, 1162.318
3715.904, 1155.875
3717.833, 1156.864
3719.761, 1151.768
3721.690, 1148.777
3723.618, 1149.655
3725.547, 1149.923
3727.475, 1149.429
3729.404, 1148.259
3731.332, 1147.115
3733.260, 1146.119
3735.189, 1146.686
3737.117, 1149.195
3739.046, 1148.137
3740.974, 1144.559
3742.903, 1140.534
3744.831, 1137.612
3746.760, 1137.605
3748.688, 1137.044
3750.617, 1135.492
3752.545, 1137.462
3754.474, 1140.052
3756.402, 1133.802
3758.331, 1128.889
3760.259, 1133.851
3762.188, 1134.669
3764.116, 1130.534
3766.044, 1132.279
3767.973, 1135.561
3769.901, 1130.501
3771.830, 1127.059
3773.758, 1132.949
3775.687, 1133.214
3777.615, 1128.474
3779.544, 1126.379
3781.472, 1126.261
3783.401, 1127.901
3785.329, 1129.213
3787.258, 1129.200
3789.186, 1129.394
3791.115, 1129.092
3793.043, 1124.963
3794.971, 1120.935
3796.900, 1120.643
3798.828, 1120.557
3800.757, 1119.757
3802.685, 1120.601
3804.614, 1119.580
3806.542, 1120.102
3808.471, 1117.931
3810.399, 1116.234
3812.328, 1114.698
3814.256, 1113.280
3816.185, 1113.416
3818.113, 1114.149
3820.042, 1115.549
3821.970, 1114.185
3823.898, 1108.616
3825.827, 1106.954
3827.755, 1108.626
3829.684, 1110.941
3831.612, 1112.060
3833.541, 1109.256
3835.469, 1107.633
3837.398, 1107.804
3839.326, 1106.324
3841.255, 1104.225
3843.183, 1103.396
3845.112, 1103.086
3847.040, 1103.272
3848.969, 1103.231
3850.897, 1102.590
3852.825, 1098.026
3854.754, 1095.701
3856.682, 1103.321
3858.611, 1106.851
3860.539, 1103.090
3862.468, 1101.008
3864.396, 1100.142
3866.325, 1099.690
3868.253, 1098.995
3870.182, 1097.633
3872.110, 1096.213
3874.039, 1095.421
3875.967, 1098.412
3877.896, 1101.127
3879.824, 1099.821
3881.752, 1098.012
3883.681, 1096.305
3885.609, 1098.891
3887.538, 1097.398
3889.466, 1100.176
3891.395, 1098.286
3893.323, 1098.161
3895.252, 1099.811
3897.180, 1102.291
3899.109, 1102.492
3901.037, 1102.741
3902.966, 1105.332
3904.894, 1104.755
3906.823, 1101.016
3908.751, 1100.031
3910.679, 1100.883
3912.608, 1102.503
3914.536, 1103.593
3916.465, 1103.254
3918.393, 1102.404
3920.322, 1102.190
3922.250, 1105.184
3924.179, 1108.596
3926.107, 1112.213
3928.036, 1109.981
3929.964, 1104.106
3931.893, 1104.725
3933.821, 1106.746
3935.750, 1107.846
3937.678, 1106.874
3939.606, 1104.451
3941.535, 1103.607
3943.463, 1103.264
3945.392, 1103.038
3947.320, 1103.851
3949.249, 1105.577
3951.177, 1107.258
3953.106, 1108.501
3955.034, 1108.940
3956.963, 1110.153
3958.891, 1114.144
3960.820, 1111.973
3962.748, 1107.014
3964.677, 1108.455
3966.605, 1110.462
3968.533, 1110.009
3970.462, 1110.655
3972.390, 1111.874
3974.319, 1108.226
3976.247, 1104.805
3978.176, 1106.109
3980.104, 1106.611
3982.033, 1105.976
3983.961, 1109.467
3985.890, 1112.975
3987.818, 1111.191
3989.747, 1110.342
3991.675, 1111.438
3993.604, 1111.464
3995.532, 1111.467
3997.460, 1113.512
3999.389, 1115.905
4001.317, 1118.090
4003.246, 1117.331
4005.174, 1115.078
4007.103, 1114.054
4009.031, 1113.684
4010.960, 1112.820
4012.888, 1113.595
4014.817, 1115.335
4016.745, 1117.219
4018.674, 1117.957
4020.602, 1114.910
4022.531, 1113.426
4024.459, 1114.945
4026.387, 1115.594
4028.316, 1115.773
4030.244, 1120.851
4032.173, 1124.246
4034.101, 1124.833
4036.030, 1121.477
4037.958, 1117.501
4039.887, 1118.364
4041.815, 1119.485
4043.744, 1118.492
4045.672, 1118.220
4047.601, 1119.590
4049.529, 1121.736
4051.458, 1121.971
4053.386, 1121.213
4055.314, 1123.990
4057.243, 1126.853
4059.171, 1123.884
4061.100, 1121.130
4063.028, 1123.343
4064.957, 1125.475
4066.885, 1125.068
4068.814, 1124.391
4070.742, 1125.115
4072.671, 1126.535
4074.599, 1128.501
4076.528, 1128.748
4078.456, 1126.430
4080.385, 1124.658
4082.313, 1125.154
4084.241, 1126.931
4086.170, 1128.590
4088.098, 1130.132
4090.027, 1129.683
4091.955, 1130.648
4093.884, 1130.772
4095.812, 1130.410
4097.741, 1130.371
4099.669, 1129.224
4101.598, 1127.824
4103.526, 1126.303
4105.455, 1125.872
4107.383, 1125.881
4109.312, 1129.929
4111.240, 1133.598
4113.168, 1135.560
4115.097, 1137.164
4117.025, 1136.618
4118.954, 1133.980
4120.882, 1133.714
4122.811, 1135.397
4124.739, 1134.516
4126.668, 1135.151
4128.596, 1138.412
4130.525, 1136.238
4132.453, 1133.192
4134.382, 1136.499
4136.310, 1138.261
4138.239, 1137.217
4140.167, 1139.789
4142.096, 1142.564
4144.024, 1140.458
4145.953, 1139.566
4147.881, 1141.393
4149.810, 1142.599
4151.738, 1143.648
4153.667, 1146.626
4155.595, 1147.591
4157.523, 1144.402
4159.452, 1148.340
4161.380, 1152.549
4163.309, 1146.212
4165.237, 1142.530
4167.166, 1146.096
4169.094, 1147.667
4171.022, 1148.014
4172.951, 1148.013
4174.879, 1147.979
4176.808, 1149.405
4178.736, 1150.707
4180.665, 1150.670
4182.593, 1150.921
4184.522, 1151.544
4186.450, 1152.202
4188.379, 1153.289
4190.307, 1153.922
4192.236, 1152.775
4194.164, 1152.420
4196.093, 1153.118
4198.021, 1152.948
4199.950, 1152.806
4201.878, 1153.427
4203.807, 1154.566
4205.735, 1155.970
4207.664, 1156.601
4209.592, 1158.087
4211.521, 1159.644
4213.449, 1165.016
4215.377, 1162.945
4217.306, 1164.356
4219.234, 1165.621
4221.163, 1164.087
4223.091, 1160.431
4225.020, 1155.974
4226.948, 1157.740
4228.876, 1159.990
4230.805, 1159.194
4232.733, 1161.070
4234.662, 1164.994
4236.590, 1167.916
4238.519, 1170.507
4240.447, 1173.382
4242.376, 1171.573
4244.304, 1173.500
4246.233, 1171.757
4248.161, 1174.280
4250.090, 1173.432
4252.018, 1174.684
4253.947, 1175.917
4255.875, 1173.684
4257.804, 1171.255
4259.732, 1169.381
4261.661, 1170.819
4263.589, 1171.713
4265.518, 1171.007
4267.446, 1172.086
4269.375, 1170.836
4271.303, 1172.233
4273.231, 1172.221
4275.160, 1171.172
4277.088, 1171.391
4279.017, 1172.106
4280.945, 1170.429
4282.874, 1167.446
4284.802, 1169.143
4286.730, 1165.131
4288.659, 1170.109
4290.587, 1171.957
4292.516, 1170.976
4294.444, 1167.325
4296.373, 1166.430
4298.301, 1167.102
4300.230, 1169.014
4302.158, 1167.563
4304.087, 1164.308
4306.015, 1176.506
4307.944, 1184.277
4309.872, 1176.216
4311.801, 1168.373
4313.729, 1163.335
4315.658, 1165.523
4317.586, 1168.052
4319.515, 1169.043
4321.443, 1168.671
4323.372, 1167.709
4325.300, 1166.427
4327.229, 1166.879
4329.157, 1166.756
4331.085, 1168.319
4333.014, 1167.971
4334.942, 1169.053
4336.871, 1169.915
4338.799, 1169.480
4340.728, 1170.443
4342.656, 1171.611
4344.584, 1170.702
4346.513, 1174.570
4348.441, 1173.732
4350.370, 1175.119
4352.298, 1174.321
4354.227, 1170.198
4356.155, 1169.808
4358.084, 1166.417
4360.012, 1160.928
4361.941, 1159.266
4363.869, 1160.183
4365.798, 1161.365
4367.726, 1162.005
4369.655, 1161.894
4371.583, 1164.377
4373.512, 1166.555
4375.440, 1165.404
4377.369, 1164.899
4379.297, 1164.628
4381.226, 1162.119
4383.154, 1158.992
4385.083, 1155.127
4387.011, 1159.680
4388.939, 1164.667
4390.868, 1160.093
4392.796, 1156.202
4394.725, 1154.445
4396.653, 1153.237
4398.582, 1155.440
4400.510, 1154.360
4402.438, 1156.404
4404.367, 1158.893
4406.295, 1157.169
4408.224, 1155.504
4410.152, 1154.341
4412.081, 1151.398
4414.009, 1149.468
4415.938, 1150.675
4417.866, 1149.552
4419.795, 1146.793
4421.723, 1143.162
4423.652, 1141.797
4425.580, 1143.138
4427.509, 1143.979
4429.437, 1143.962
4431.366, 1142.021
4433.294, 1142.739
4435.223, 1143.937
4437.151, 1140.404
4439.080, 1137.333
4441.008, 1135.948
4442.937, 1137.716
4444.865, 1139.594
4446.793, 1139.574
4448.722, 1139.855
4450.650, 1139.956
4452.579, 1141.022
4454.507, 1138.508
4456.436, 1142.506
4458.364, 1142.910
4460.292, 1141.623
4462.221, 1139.317
4464.149, 1139.698
4466.078, 1140.961
4468.006, 1139.687
4469.935, 1137.937
4471.863, 1136.124
4473.792, 1135.591
4475.720, 1135.419
4477.649, 1135.209
4479.577, 1136.327
4481.506, 1138.252
4483.434, 1140.570
4485.363, 1142.533
4487.291, 1143.058
4489.220, 1137.592
4491.148, 1132.485
4493.077, 1130.231
4495.005, 1130.990
4496.934, 1131.999
4498.862, 1129.781
4500.791, 1129.581
4502.719, 1130.259
4504.647, 1126.071
4506.576, 1126.085
4508.504, 1132.184
4510.433, 1127.837
4512.361, 1124.510
4514.290, 1129.421
4516.218, 1133.910
4518.146, 1135.214
4520.075, 1127.791
4522.003, 1124.257
4523.932, 1125.512
4525.860, 1127.829
4527.789, 1128.291
4529.717, 1125.123
4531.646, 1126.939
4533.574, 1127.671
4535.503, 1120.587
4537.431, 1118.831
4539.360, 1121.293
4541.288, 1124.573
4543.217, 1125.935
4545.145, 1125.433
4547.074, 1127.618
4549.002, 1127.867
4550.931, 1123.274
4552.859, 1122.096
4554.788, 1122.181
4556.716, 1121.099
4558.645, 1119.832
4560.573, 1118.932
4562.501, 1118.449
4564.430, 1119.971
4566.358, 1118.165
4568.287, 1119.488
4570.215, 1120.202
4572.144, 1118.363
4574.072, 1115.826
4576.000, 1115.962
4577.929, 1125.396
4579.857, 1128.263
4581.786, 1125.351
4583.714, 1119.349
4585.643, 1115.391
4587.571, 1114.116
4589.500, 1112.402
4591.428, 1112.423
4593.357, 1115.027
4595.285, 1115.251
4597.214, 1114.636
4599.142, 1114.673
4601.071, 1114.065
4602.999, 1112.791
4604.928, 1111.105
4606.856, 1107.677
4608.785, 1107.749
4610.713, 1105.705
4612.642, 1107.200
4614.570, 1106.642
4616.499, 1107.272
4618.427, 1107.362
4620.355, 1105.327
4622.284, 1105.029
4624.212, 1104.900
4626.141, 1102.745
4628.069, 1104.212
4629.998, 1103.519
4631.926, 1104.959
4633.854, 1104.206
4635.783, 1105.298
4637.711, 1106.514
4639.640, 1106.379
4641.568, 1104.508
4643.497, 1100.910
4645.425, 1098.377
4647.354, 1098.360
4649.282, 1101.711
4651.211, 1105.502
4653.139, 1107.269
4655.068, 1105.787
4656.996, 1102.638
4658.925, 1100.552
4660.853, 1098.978
4662.782, 1098.822
4664.710, 1098.582
4666.639, 1098.102
4668.567, 1099.154
4670.496, 1096.881
4672.424, 1095.474
4674.353, 1092.475
4676.281, 1092.615
4678.209, 1093.885
4680.138, 1095.045
4682.066, 1094.682
4683.995, 1094.694
4685.923, 1098.012
4687.852, 1098.323
4689.780, 1097.611
4691.708, 1103.469
4693.637, 1100.046
4695.565, 1090.126
4697.494, 1090.400
4699.422, 1091.020
4701.351, 1089.775
4703.279, 1086.977
4705.208, 1085.403
4707.136, 1086.117
4709.065, 1088.278
4710.993, 1090.015
4712.922, 1090.304
4714.850, 1089.560
4716.779, 1088.367
4718.707, 1086.334
4720.636, 1090.253
4722.564, 1093.979
4724.493, 1088.183
4726.421, 1086.763
4728.350, 1088.082
4730.278, 1087.613
4732.207, 1084.920
4734.135, 1081.447
4736.063, 1081.007
4737.992, 1081.203
4739.920, 1081.637
4741.849, 1079.873
4743.777, 1082.922
4745.706, 1077.450
4747.634, 1077.098
4749.563, 1078.139
4751.491, 1078.863
4753.419, 1082.926
4755.348, 1084.402
4757.276, 1080.417
4759.205, 1084.349
4761.133, 1087.190
4763.062, 1079.994
4764.990, 1079.756
4766.919, 1080.693
4768.847, 1076.868
4770.776, 1074.544
4772.704, 1073.816
4774.633, 1074.474
4776.561, 1075.200
4778.490, 1075.901
4780.418, 1076.877
4782.347, 1076.654
4784.275, 1076.049
4786.204, 1076.533
4788.132, 1078.783
4790.061, 1081.682
4791.989, 1082.517
4793.917, 1082.361
4795.846, 1081.263
4797.774, 1077.405
4799.703, 1075.929
4801.631, 1076.970
4803.560, 1074.262
4805.488, 1074.173
4807.417, 1072.854
4809.345, 1073.893
4811.273, 1070.799
4813.202, 1070.300
4815.130, 1071.046
4817.059, 1072.283
4818.987, 1073.643
4820.916, 1075.858
4822.844, 1077.121
4824.773, 1076.671
4826.701, 1074.881
4828.630, 1073.234
4830.558, 1072.771
4832.487, 1068.213
4834.415, 1065.115
4836.344, 1066.272
4838.272, 1067.817
4840.201, 1069.804
4842.129, 1072.930
4844.058, 1069.539
4845.986, 1064.708
4847.915, 1061.563
4849.843, 1064.307
4851.771, 1067.675
4853.700, 1067.448
4855.628, 1069.482
4857.557, 1069.391
4859.485, 1063.355
4861.414, 1064.362
4863.342, 1066.237
4865.271, 1062.753
4867.199, 1064.798
4869.127, 1066.263
4871.056, 1061.402
4872.984, 1063.047
4874.913, 1066.684
4876.841, 1068.333
4878.770, 1062.698
4880.698, 1058.385
4882.627, 1063.463
4884.555, 1062.266
4886.484, 1059.624
4888.412, 1060.418
4890.341, 1057.759
4892.269, 1056.357
4894.198, 1061.248
4896.126, 1061.262
4898.055, 1058.021
4899.983, 1052.761
4901.912, 1053.459
4903.840, 1054.978
4905.769, 1052.220
4907.697, 1053.799
4909.625, 1055.671
4911.554, 1055.093
4913.482, 1056.172
4915.411, 1056.611
4917.339, 1056.114
4919.268, 1056.718
4921.196, 1055.877
4923.125, 1054.492
4925.053, 1052.788
4926.981, 1052.252
4928.910, 1050.633
4930.838, 1050.473
4932.767, 1047.326
4934.695, 1046.614
4936.624, 1043.413
4938.552, 1042.452
4940.481, 1045.068
4942.409, 1041.740
4944.338, 1042.123
4946.266, 1048.488
4948.195, 1048.182
4950.123, 1046.802
4952.052, 1045.806
4953.980, 1042.523
4955.909, 1042.722
4957.837, 1046.049
4959.766, 1043.033
4961.694, 1043.998
4963.623, 1047.316
4965.551, 1040.181
4967.479, 1038.911
4969.408, 1042.529
4971.336, 1041.750
4973.265, 1041.387
4975.193, 1040.685
4977.122, 1035.896
4979.050, 1035.521
4980.979, 1037.787
4982.907, 1039.244
4984.835, 1041.795
4986.764, 1044.078
4988.692, 1044.534
4990.621, 1043.515
4992.549, 1041.673
4994.478, 1039.203
4996.406, 1037.325
4998.335, 1037.366
5000.263, 1035.153
5002.192, 1037.218
5004.120, 1033.238
5006.049, 1030.281
5007.977, 1030.854
5009.906, 1030.687
5011.834, 1028.597
5013.763, 1028.058
5015.691, 1027.485
5017.620, 1026.699
5019.548, 1027.222
5021.477, 1025.336
5023.405, 1022.396
5025.333, 1023.488
5027.262, 1025.476
5029.190, 1026.643
5031.119, 1024.449
5033.047, 1024.990
5034.976, 1025.810
5036.904, 1023.083
5038.833, 1022.909
5040.761, 1023.472
5042.689, 1023.337
5044.618, 1022.959
5046.546, 1022.895
5048.475, 1022.123
5050.403, 1021.972
5052.332, 1021.974
5054.260, 1021.182
5056.189, 1020.107
5058.117, 1015.641
5060.046, 1010.596
5061.974, 1015.667
5063.903, 1018.982
5065.831, 1018.638
5067.760, 1013.896
5069.688, 1010.818
5071.617, 1008.865
5073.545, 1006.744
5075.474, 1006.622
5077.402, 1007.486
5079.331, 1008.610
5081.259, 1007.549
5083.188, 1010.117
5085.116, 1005.985
5087.044, 1004.493
5088.973, 1004.078
5090.901, 1004.116
5092.830, 1004.547
5094.758, 1004.483
5096.687, 1004.876
5098.615, 1004.894
5100.543, 1005.546
5102.472, 1006.118
5104.400, 1006.469
5106.329, 1006.652
5108.257, 1005.822
5110.186, 1003.373
5112.114, 1002.586
5114.043, 1003.639
5115.971, 1005.171
5117.900, 999.1462
5119.828, 997.5834
5121.757, 1000.067
5123.685, 998.2626
5125.614, 998.8660
5127.542, 1006.236
5129.471, 999.1445
5131.399, 999.5805
5133.328, 999.7958
5135.256, 993.6277
5137.185, 993.2507
5139.113, 993.7740
5141.042, 993.4842
5142.970, 994.2363
5144.898, 994.9012
5146.827, 995.8522
5148.755, 996.2789
5150.684, 996.2754
5152.612, 997.0734
5154.541, 995.2635
5156.469, 995.1412
5158.397, 993.4285
5160.326, 988.9468
5162.254, 987.5095
5164.183, 987.0226
5166.111, 986.9398
5168.040, 988.7825
5169.968, 985.5440
5171.897, 982.1875
5173.825, 988.4547
5175.754, 987.3196
5177.682, 984.9768
5179.611, 987.1447
5181.539, 987.7903
5183.468, 987.1581
5185.396, 985.3448
5187.325, 980.6838
5189.253, 979.0362
5191.182, 979.8152
5193.110, 980.4650
5195.039, 977.5604
5196.967, 974.9550
5198.896, 976.4173
5200.824, 977.3406
5202.752, 977.5635
5204.681, 977.3043
5206.609, 979.2275
5208.538, 977.5720
5210.466, 974.3832
5212.395, 976.2394
5214.323, 973.1707
5216.251, 971.9444
5218.180, 970.2393
5220.108, 973.4081
5222.037, 967.6306
5223.965, 966.7885
5225.894, 970.7089
5227.822, 966.6923
5229.751, 960.8400
5231.679, 968.4464
5233.608, 966.8254
5235.536, 963.9734
5237.465, 965.7199
5239.393, 966.8302
5241.322, 964.3204
5243.250, 959.3485
5245.179, 956.6557
5247.107, 959.0662
5249.036, 963.1727
5250.964, 965.5569
5252.893, 959.2179
5254.821, 953.9964
5256.750, 953.8596
5258.678, 953.2131
5260.606, 952.3359
5262.535, 952.1396
5264.463, 954.6510
5266.392, 955.2870
5268.320, 954.4789
5270.249, 952.7923
5272.177, 953.7943
5274.105, 954.1153
5276.034, 952.8008
5277.962, 949.4147
5279.891, 947.5258
5281.819, 947.7764
5283.748, 952.2807
5285.676, 944.2117
5287.605, 941.6540
5289.533, 947.8649
5291.462, 943.1525
5293.390, 941.9358
5295.319, 942.3668
5297.247, 938.0847
5299.176, 939.9334
5301.104, 940.5464
5303.033, 936.8092
5304.961, 936.5625
5306.890, 940.1160
5308.818, 944.1044
5310.747, 943.4963
5312.675, 939.3027
5314.604, 935.2238
5316.532, 933.4244
5318.460, 933.3001
5320.389, 934.1584
5322.317, 934.6168
5324.246, 932.3524
5326.174, 929.9781
5328.103, 928.8568
5330.031, 929.3570
5331.959, 929.8090
5333.888, 928.3069
5335.816, 925.3453
5337.745, 922.3326
5339.673, 920.4510
5341.602, 918.7668
5343.530, 916.9659
5345.459, 916.1525
5347.387, 915.6170
5349.316, 915.5477
5351.244, 915.1088
5353.173, 916.4431
5355.101, 915.4244
5357.030, 910.6431
5358.958, 915.2845
5360.887, 912.3148
5362.815, 906.2007
5364.744, 909.3787
5366.672, 910.7192
5368.601, 912.1381
5370.529, 912.1268
5372.458, 912.4459
5374.386, 909.8320
5376.314, 907.1248
5378.243, 904.1781
5380.171, 902.5928
5382.100, 900.9265
5384.028, 900.0287
5385.957, 900.1502
5387.885, 900.0099
5389.813, 901.4476
5391.742, 901.5905
5393.670, 902.3860
5395.599, 902.5283
5397.527, 905.2590
5399.456, 902.1970
5401.384, 902.3685
5403.313, 901.7160
5405.241, 897.7241
5407.170, 895.7657
5409.098, 894.3089
5411.027, 894.1000
5412.955, 892.3664
5414.884, 890.8467
5416.812, 890.1407
5418.741, 887.2735
5420.669, 886.1283
5422.598, 884.6001
5424.526, 884.9344
5426.455, 884.2761
5428.383, 883.0424
5430.312, 882.0097
5432.240, 881.6302
5434.168, 882.2598
5436.097, 883.2852
5438.025, 881.7296
5439.954, 877.1456
5441.882, 876.5764
5443.811, 877.7035
5445.739, 878.2616
5447.667, 876.5828
5449.596, 875.7430
5451.524, 876.3242
5453.453, 876.8529
5455.381, 873.2692
5457.310, 870.4813
5459.238, 871.3254
5461.167, 870.0358
5463.095, 872.2872
5465.024, 871.1004
5466.952, 871.8382
5468.881, 872.4866
5470.809, 867.3603
5472.738, 863.4647
5474.666, 862.3914
5476.595, 863.6818
5478.523, 861.1395
5480.452, 860.9118
5482.380, 863.4273
5484.309, 856.1490
5486.237, 858.0343
5488.166, 862.0172
5490.094, 860.7452
5492.022, 857.3763
5493.951, 854.2960
5495.879, 853.4916
5497.808, 857.5843
5499.736, 851.0878
##END=



