##NAMES=Serrabrancaite
##RRUFFID=R080077
##IDEAL CHEMISTRY=Mn(PO_4_)·H_2_O
##LOCALITY=Serra Branca pegmatite, Pedra Lavrada, Paraíba; Northeast, Brazil
##OWNER=RRUFF
##SOURCE=Michael Scott
##DESCRIPTION=Granular massive dark green to black, associated with vernadite, R080100 
##STATUS=The identification of this mineral is not yet confirmed
##URL=https://www.rruff.net/odr/rruff_sample/R080077
##FILETYPE=Raman RAW
##RAMAN WAVELENGTH=780

130.0991, 123.3685
132.0276, 124.2139
133.9561, 124.0620
135.8845, 122.2673
137.8130, 121.0607
139.7415, 120.6252
141.6699, 120.6622
143.5984, 121.5532
145.5269, 122.6312
147.4553, 122.7764
149.3838, 121.4538
151.3123, 120.7918
153.2407, 121.2208
155.1692, 121.7420
157.0977, 122.0696
159.0261, 122.2560
160.9546, 122.2514
162.8831, 121.9212
164.8115, 122.2160
166.7400, 123.5495
168.6685, 124.6839
170.5969, 125.3270
172.5254, 125.5159
174.4539, 125.3061
176.3823, 124.6987
178.3108, 123.4238
180.2393, 120.9104
182.1677, 119.4317
184.0962, 120.5758
186.0247, 121.6717
187.9531, 120.7572
189.8816, 118.4142
191.8101, 116.8605
193.7385, 116.1500
195.6670, 115.8639
197.5955, 116.5917
199.5239, 116.6604
201.4524, 114.8351
203.3809, 112.2044
205.3093, 110.4187
207.2378, 109.5177
209.1663, 109.1574
211.0947, 109.5918
213.0232, 109.9157
214.9517, 109.4432
216.8801, 109.0491
218.8086, 109.8362
220.7371, 111.4250
222.6655, 111.6943
224.5940, 110.4198
226.5225, 109.2111
228.4509, 108.5358
230.3794, 107.9725
232.3079, 107.0014
234.2363, 106.1799
236.1648, 106.9384
238.0933, 109.0665
240.0217, 110.2050
241.9502, 109.2519
243.8787, 108.8751
245.8071, 110.1867
247.7356, 111.9200
249.6641, 113.0712
251.5925, 113.7994
253.5210, 114.5831
255.4495, 115.4992
257.3780, 116.1156
259.3064, 116.1237
261.2349, 116.1214
263.1634, 116.2646
265.0918, 116.5463
267.0203, 117.0416
268.9488, 117.6931
270.8772, 118.1259
272.8057, 118.1379
274.7342, 118.2647
276.6626, 118.5936
278.5911, 119.0233
280.5196, 119.8784
282.4480, 120.5976
284.3765, 120.2178
286.3050, 118.5855
288.2334, 117.3590
290.1619, 116.7776
292.0904, 116.3823
294.0188, 116.0863
295.9473, 115.9830
297.8758, 116.4878
299.8042, 117.1447
301.7327, 116.7222
303.6612, 114.4942
305.5896, 113.6396
307.5181, 115.2363
309.4466, 116.3023
311.3750, 115.7162
313.3035, 114.6515
315.2320, 113.7930
317.1604, 113.1607
319.0889, 112.9357
321.0174, 113.4769
322.9458, 113.1069
324.8743, 111.2303
326.8028, 109.6665
328.7312, 109.4196
330.6597, 109.3739
332.5882, 108.6961
334.5166, 107.5706
336.4451, 106.4995
338.3736, 105.3959
340.3020, 105.0329
342.2305, 105.8615
344.1590, 106.4126
346.0874, 105.7910
348.0159, 105.0146
349.9444, 104.8529
351.8728, 104.9968
353.8013, 104.6630
355.7298, 103.8566
357.6582, 102.4836
359.5867, 100.0860
361.5152, 98.49180
363.4436, 99.29085
365.3721, 100.0330
367.3006, 98.98273
369.2290, 97.20378
371.1575, 97.04354
373.0860, 98.20221
375.0144, 97.93193
376.9429, 95.55727
378.8714, 93.85983
380.7998, 93.96268
382.7283, 94.48067
384.6568, 95.46610
386.5852, 96.21281
388.5137, 95.37506
390.4422, 93.55164
392.3706, 92.93272
394.2991, 93.77924
396.2276, 94.29816
398.1560, 93.92058
400.0845, 93.49187
402.0130, 93.21110
403.9414, 92.94371
405.8699, 92.67790
407.7984, 92.31075
409.7268, 91.35008
411.6553, 89.86295
413.5838, 89.71571
415.5122, 91.80196
417.4407, 93.83108
419.3692, 96.06602
421.2976, 97.50455
423.2261, 96.97237
425.1546, 95.97859
427.0830, 96.04578
429.0115, 96.94773
430.9400, 98.12761
432.8684, 99.83280
434.7969, 100.7449
436.7254, 100.4281
438.6538, 99.97303
440.5823, 98.64692
442.5108, 98.24025
444.4392, 101.0542
446.3677, 104.5510
448.2962, 105.4660
450.2246, 104.0465
452.1531, 103.2393
454.0816, 103.5514
456.0100, 103.1144
457.9385, 100.9376
459.8670, 99.97505
461.7954, 102.3882
463.7239, 104.6001
465.6524, 104.1053
467.5808, 102.2586
469.5093, 100.6114
471.4378, 99.21461
473.3662, 98.84767
475.2947, 99.77903
477.2232, 100.4253
479.1516, 100.6949
481.0801, 100.6439
483.0086, 100.2554
484.9370, 99.57613
486.8655, 98.56335
488.7940, 97.34354
490.7224, 95.76573
492.6509, 94.04779
494.5794, 93.82561
496.5078, 95.16763
498.4363, 95.27350
500.3648, 93.41072
502.2933, 92.02054
504.2217, 92.28304
506.1502, 92.56396
508.0787, 92.25795
510.0071, 91.57623
511.9356, 90.24656
513.8641, 88.80691
515.7925, 89.12848
517.7210, 90.88448
519.6495, 91.36525
521.5779, 90.03592
523.5064, 89.57940
525.4349, 91.42844
527.3633, 92.75667
529.2918, 92.38297
531.2203, 91.74181
533.1487, 91.48499
535.0772, 91.66502
537.0057, 92.72401
538.9341, 94.22487
540.8626, 94.80406
542.7911, 94.41804
544.7195, 94.55508
546.6480, 95.77458
548.5765, 96.52499
550.5049, 96.23830
552.4334, 95.99442
554.3619, 95.83109
556.2903, 96.16090
558.2188, 97.96852
560.1473, 99.98975
562.0757, 100.3872
564.0042, 99.60736
565.9327, 99.27409
567.8611, 99.48270
569.7896, 99.78072
571.7181, 100.5110
573.6465, 100.6877
575.5750, 99.72263
577.5035, 98.98051
579.4319, 98.98311
581.3604, 99.23616
583.2889, 99.85159
585.2173, 100.1988
587.1458, 99.31781
589.0743, 97.60432
591.0027, 96.36174
592.9312, 95.58920
594.8597, 95.35651
596.7881, 95.88592
598.7166, 96.29465
600.6451, 96.29813
602.5735, 96.79109
604.5020, 98.67244
606.4305, 100.0568
608.3589, 99.32256
610.2874, 98.25011
612.2159, 98.03578
614.1443, 98.47965
616.0728, 99.50338
618.0013, 100.9353
619.9297, 101.5970
621.8582, 101.4061
623.7867, 101.3628
625.7151, 101.4797
627.6436, 101.8465
629.5721, 102.7456
631.5005, 103.1892
633.4290, 102.6220
635.3575, 101.8057
637.2859, 101.1902
639.2144, 100.3825
641.1429, 98.69920
643.0714, 96.81391
644.9998, 95.91958
646.9283, 95.81454
648.8568, 95.81008
650.7852, 95.86060
652.7137, 95.40271
654.6422, 94.34319
656.5706, 93.28575
658.4991, 92.33559
660.4276, 91.36790
662.3560, 90.46223
664.2845, 89.37608
666.2130, 87.65159
668.1414, 86.18995
670.0699, 86.05833
671.9984, 86.07164
673.9268, 84.65814
675.8553, 82.57680
677.7838, 81.11255
679.7122, 80.21547
681.6407, 79.93630
683.5692, 80.25130
685.4976, 79.86949
687.4261, 78.43872
689.3546, 77.23711
691.2830, 76.55537
693.2115, 75.85265
695.1400, 74.74933
697.0684, 74.09371
698.9969, 74.80396
700.9254, 75.24044
702.8538, 74.17522
704.7823, 72.67191
706.7108, 71.28988
708.6392, 70.37063
710.5677, 70.70224
712.4962, 71.83841
714.4246, 72.36287
716.3531, 72.28181
718.2816, 71.98643
720.2100, 71.49510
722.1385, 70.68005
724.0670, 69.24623
725.9954, 68.27513
727.9239, 68.05437
729.8524, 67.73698
731.7808, 67.02370
733.7093, 66.42342
735.6378, 66.23179
737.5662, 66.06242
739.4947, 65.74050
741.4232, 65.28465
743.3516, 64.31375
745.2801, 63.54346
747.2086, 64.35783
749.1370, 65.84367
751.0655, 65.80870
752.9940, 64.55012
754.9224, 63.56193
756.8509, 62.85223
758.7794, 62.66601
760.7078, 63.05583
762.6363, 62.94500
764.5648, 62.16747
766.4932, 61.42470
768.4217, 60.74399
770.3502, 60.46571
772.2786, 60.92461
774.2071, 61.29076
776.1356, 61.21212
778.0640, 61.06264
779.9925, 61.17662
781.9210, 61.03256
783.8494, 60.04749
785.7779, 58.89993
787.7064, 58.16302
789.6348, 57.73018
791.5633, 57.54579
793.4918, 57.50629
795.4202, 57.42226
797.3487, 57.28849
799.2772, 57.02113
801.2056, 56.67510
803.1341, 56.56620
805.0626, 56.70461
806.9910, 56.94691
808.9195, 57.29689
810.8480, 57.68619
812.7764, 58.32161
814.7049, 58.37289
816.6334, 57.06325
818.5618, 56.33936
820.4903, 56.86940
822.4188, 57.26061
824.3472, 57.03406
826.2757, 56.83181
828.2042, 56.93995
830.1326, 57.08360
832.0611, 57.02327
833.9896, 57.05489
835.9180, 57.85792
837.8465, 58.37848
839.7750, 56.96100
841.7034, 55.31855
843.6319, 55.79719
845.5604, 57.14148
847.4888, 57.03745
849.4173, 56.09848
851.3458, 56.21653
853.2742, 57.05167
855.2027, 56.57928
857.1312, 54.91157
859.0596, 54.49561
860.9881, 55.45604
862.9166, 55.89127
864.8450, 55.70194
866.7735, 55.46823
868.7020, 55.16071
870.6305, 55.00625
872.5590, 55.08725
874.4874, 54.96379
876.4159, 54.48036
878.3444, 54.23314
880.2728, 54.46466
882.2013, 54.49578
884.1298, 53.98162
886.0582, 53.68562
887.9867, 54.10603
889.9152, 54.28126
891.8436, 53.37159
893.7721, 52.86640
895.7006, 54.14128
897.6290, 54.91787
899.5575, 53.12156
901.4860, 51.64847
903.4144, 52.87232
905.3429, 54.57693
907.2714, 55.34661
909.1998, 55.35024
911.1283, 54.16467
913.0568, 52.86932
914.9852, 52.62759
916.9137, 53.16399
918.8422, 54.69999
920.7706, 56.32834
922.6991, 55.91012
924.6276, 54.79737
926.5560, 56.08320
928.4845, 58.59398
930.4130, 59.64011
932.3414, 59.74269
934.2699, 60.43765
936.1984, 61.47151
938.1268, 61.59215
940.0553, 61.12867
941.9838, 61.96360
943.9122, 63.98245
945.8407, 65.78368
947.7692, 67.33959
949.6976, 69.02041
951.6261, 70.84575
953.5546, 72.60728
955.4830, 74.14725
957.4115, 77.01000
959.3400, 81.73769
961.2684, 85.35952
963.1969, 87.28161
965.1254, 90.05959
967.0538, 94.52538
968.9823, 97.44579
970.9108, 98.06866
972.8392, 99.14134
974.7677, 100.9234
976.6962, 102.4461
978.6246, 103.4758
980.5531, 104.8946
982.4816, 107.0809
984.4100, 108.6993
986.3385, 109.8310
988.2670, 109.4008
990.1954, 106.8652
992.1239, 104.1619
994.0524, 101.5015
995.9808, 99.27410
997.9093, 97.67160
999.8378, 96.01173
1001.766, 93.98323
1003.695, 92.56985
1005.623, 92.35335
1007.552, 91.45981
1009.480, 89.13327
1011.409, 87.14687
1013.337, 86.32274
1015.266, 84.59838
1017.194, 80.73229
1019.122, 78.04347
1021.051, 78.01209
1022.979, 77.54728
1024.908, 75.40678
1026.836, 73.88173
1028.765, 73.91402
1030.693, 73.78932
1032.622, 73.12767
1034.550, 72.16963
1036.479, 70.38267
1038.407, 69.51639
1040.336, 70.75983
1042.264, 71.43217
1044.193, 71.16660
1046.121, 69.95855
1048.049, 66.78839
1049.978, 64.46460
1051.906, 63.86913
1053.835, 63.40085
1055.763, 63.22582
1057.692, 62.42758
1059.620, 59.94383
1061.549, 58.48732
1063.477, 59.53817
1065.406, 59.66987
1067.334, 57.61000
1069.263, 56.06504
1071.191, 55.41734
1073.120, 55.24364
1075.048, 56.02401
1076.976, 56.26204
1078.905, 55.75805
1080.833, 54.80233
1082.762, 53.10931
1084.690, 51.59385
1086.619, 49.85543
1088.547, 49.58356
1090.476, 51.95756
1092.404, 52.64296
1094.333, 50.52048
1096.261, 49.55602
1098.190, 50.37513
1100.118, 50.83300
1102.047, 50.90896
1103.975, 50.00127
1105.903, 47.67782
1107.832, 47.24788
1109.760, 49.14813
1111.689, 49.76926
1113.617, 48.92065
1115.546, 48.40558
1117.474, 48.27135
1119.403, 47.96838
1121.331, 47.49365
1123.260, 47.39610
1125.188, 47.64466
1127.117, 47.62203
1129.045, 47.40205
1130.974, 47.62888
1132.902, 48.09415
1134.830, 47.77422
1136.759, 47.14449
1138.687, 48.03350
1140.616, 49.44004
1142.544, 48.48812
1144.473, 46.51316
1146.401, 46.34776
1148.330, 47.06962
1150.258, 47.21960
1152.187, 46.96200
1154.115, 46.43427
1156.044, 45.93208
1157.972, 45.72768
1159.901, 45.86500
1161.829, 46.81518
1163.757, 47.23375
1165.686, 45.54011
1167.614, 43.90685
1169.543, 43.46167
1171.471, 43.86639
1173.400, 45.79940
1175.328, 47.16095
1177.257, 46.82681
1179.185, 46.10812
1181.114, 44.80071
1183.042, 44.46603
1184.971, 46.71642
1186.899, 47.59034
1188.828, 45.01142
1190.756, 43.70078
1192.684, 44.83494
1194.613, 45.82825
1196.541, 46.93113
1198.470, 46.84054
1200.398, 45.00526
1202.327, 44.89887
1204.255, 46.82271
1206.184, 46.52998
1208.112, 44.14915
1210.041, 43.83518
1211.969, 45.17283
1213.898, 45.70140
1215.826, 45.56291
1217.755, 45.06220
1219.683, 44.49813
1221.611, 44.09312
1223.540, 43.98264
1225.468, 45.17189
1227.397, 46.52925
1229.325, 46.56175
1231.254, 45.98873
1233.182, 44.97547
1235.111, 44.41386
1237.039, 45.32687
1238.968, 45.67592
1240.896, 44.46208
1242.825, 43.67352
1244.753, 43.69787
1246.682, 44.13470
1248.610, 45.15113
1250.538, 45.82036
1252.467, 46.04576
1254.395, 45.53762
1256.324, 44.16868
1258.252, 43.23503
1260.181, 42.86092
1262.109, 42.65830
1264.038, 42.73810
1265.966, 43.96260
1267.895, 45.65304
1269.823, 45.80526
1271.752, 45.09521
1273.680, 44.48404
1275.609, 44.11432
1277.537, 44.30679
1279.465, 44.76126
1281.394, 45.15005
1283.322, 45.33142
1285.251, 45.28762
1287.179, 45.35861
1289.108, 45.89007
1291.036, 45.86784
1292.965, 44.58112
1294.893, 43.91330
1296.822, 44.76412
1298.750, 44.42992
1300.679, 42.06557
1302.607, 41.57581
1304.536, 43.32948
1306.464, 44.44910
1308.392, 44.95615
1310.321, 44.64968
1312.249, 43.90200
1314.178, 44.83581
1316.106, 45.95806
1318.035, 43.78293
1319.963, 41.44184
1321.892, 42.65127
1323.820, 44.20902
1325.749, 43.98141
1327.677, 43.64138
1329.606, 43.84636
1331.534, 43.69859
1333.463, 43.01832
1335.391, 42.75617
1337.319, 43.12663
1339.248, 44.13504
1341.176, 45.59120
1343.105, 44.39223
1345.033, 41.26540
1346.962, 41.02574
1348.890, 42.69138
1350.819, 44.22351
1352.747, 45.10668
1354.676, 43.44901
1356.604, 41.77682
1358.533, 43.39898
1360.461, 44.84911
1362.390, 43.45879
1364.318, 42.52760
1366.246, 43.56231
1368.175, 43.62968
1370.103, 41.78835
1372.032, 40.98652
1373.960, 41.62719
1375.889, 41.49960
1377.817, 40.82444
1379.746, 41.52338
1381.674, 42.66111
1383.603, 42.23573
1385.531, 41.58656
1387.460, 42.68693
1389.388, 43.66414
1391.317, 42.44675
1393.245, 41.34046
1395.173, 41.42279
1397.102, 41.79370
1399.030, 42.64414
1400.959, 43.11905
1402.887, 43.39393
1404.816, 42.94272
1406.744, 41.47794
1408.673, 40.84552
1410.601, 41.10898
1412.530, 41.47209
1414.458, 42.01569
1416.387, 42.96578
1418.315, 43.59648
1420.244, 43.44048
1422.172, 43.47051
1424.100, 44.03516
1426.029, 44.29941
1427.957, 44.46772
1429.886, 44.48711
1431.814, 43.93157
1433.743, 43.51297
1435.671, 43.36980
1437.600, 43.16264
1439.528, 43.01851
1441.457, 43.72975
1443.385, 44.12943
1445.314, 42.52820
1447.242, 41.62761
1449.171, 42.92156
1451.099, 43.39339
1453.027, 41.90923
1454.956, 41.51391
1456.884, 43.16036
1458.813, 43.38910
1460.741, 41.75031
1462.670, 40.92104
1464.598, 41.10229
1466.527, 41.69889
1468.455, 42.11804
1470.384, 42.02983
1472.312, 42.22828
1474.241, 43.77164
1476.169, 44.15018
1478.098, 42.34153
1480.026, 41.86966
1481.954, 42.97866
1483.883, 43.59113
1485.811, 43.46276
1487.740, 42.26017
1489.668, 40.94732
1491.597, 41.08884
1493.525, 41.52396
1495.454, 41.33497
1497.382, 41.45321
1499.311, 42.14499
1501.239, 42.00899
1503.168, 40.80148
1505.096, 40.15540
1507.025, 40.38171
1508.953, 41.10278
1510.881, 41.53996
1512.810, 40.80037
1514.738, 40.10981
1516.667, 40.35280
1518.595, 40.75018
1520.524, 41.16177
1522.452, 41.37489
1524.381, 41.09354
1526.309, 41.50088
1528.238, 42.62690
1530.166, 42.51550
1532.095, 41.69814
1534.023, 41.31473
1535.952, 41.20950
1537.880, 41.63787
1539.808, 42.04223
1541.737, 42.50902
1543.665, 42.47819
1545.594, 41.25989
1547.522, 40.16751
1549.451, 39.42553
1551.379, 39.24448
1553.308, 39.71224
1555.236, 40.38883
1557.165, 40.91398
1559.093, 41.22079
1561.022, 41.68562
1562.950, 42.77607
1564.879, 43.10692
1566.807, 42.20009
1568.735, 41.84781
1570.664, 41.85767
1572.592, 41.57421
1574.521, 41.27134
1576.449, 41.11909
1578.378, 41.32058
1580.306, 41.72577
1582.235, 41.82365
1584.163, 41.74396
1586.092, 41.59876
1588.020, 41.51457
1589.949, 41.09026
1591.877, 40.46571
1593.806, 41.14481
1595.734, 42.25398
1597.662, 42.63265
1599.591, 42.38095
1601.519, 41.53966
1603.448, 41.70941
1605.376, 43.07066
1607.305, 43.07008
1609.233, 42.38251
1611.162, 42.10671
1613.090, 41.63961
1615.019, 41.47557
1616.947, 41.84122
1618.876, 42.82410
1620.804, 43.06745
1622.733, 41.49773
1624.661, 40.99377
1626.590, 41.54599
1628.518, 41.11552
1630.447, 41.20401
1632.375, 43.07614
1634.303, 43.51199
1636.232, 40.98813
1638.160, 39.78826
1640.089, 41.35896
1642.017, 41.96216
1643.946, 41.26531
1645.874, 40.47000
1647.803, 40.02641
1649.731, 40.38992
1651.660, 40.15002
1653.588, 39.36917
1655.517, 39.61074
1657.445, 40.74863
1659.374, 40.65249
1661.302, 39.54029
1663.230, 39.43474
1665.159, 39.82124
1667.087, 40.30672
1669.016, 40.09855
1670.944, 38.14591
1672.873, 38.10591
1674.801, 40.62807
1676.730, 41.50259
1678.658, 40.06874
1680.587, 38.42766
1682.515, 38.30758
1684.444, 40.38984
1686.372, 40.62305
1688.301, 37.33093
1690.229, 36.93609
1692.157, 38.84190
1694.086, 38.81023
1696.014, 38.41871
1697.943, 38.64692
1699.871, 38.60619
1701.800, 39.08629
1703.728, 39.71759
1705.657, 39.47906
1707.585, 39.47358
1709.514, 39.79107
1711.442, 39.05000
1713.371, 38.22012
1715.299, 38.02186
1717.228, 38.31641
1719.156, 39.26777
1721.084, 39.07868
1723.013, 37.86389
1724.941, 38.34561
1726.870, 39.31625
1728.798, 38.27118
1730.727, 37.06417
1732.655, 36.88721
1734.584, 36.76578
1736.512, 36.23267
1738.441, 36.09813
1740.369, 36.58172
1742.298, 38.18266
1744.226, 38.89834
1746.155, 37.04350
1748.083, 36.54554
1750.011, 37.55613
1751.940, 37.44707
1753.868, 36.69174
1755.797, 35.56615
1757.725, 35.16802
1759.654, 36.40894
1761.582, 36.76854
1763.511, 36.79996
1765.439, 36.41526
1767.368, 35.64232
1769.296, 36.11239
1771.225, 36.62703
1773.153, 36.78291
1775.082, 37.22004
1777.010, 37.33670
1778.938, 37.00613
1780.867, 36.63786
1782.795, 36.90023
1784.724, 36.73289
1786.652, 35.57952
1788.581, 35.49620
1790.509, 36.59802
1792.438, 36.81850
1794.366, 36.46844
1796.295, 35.53860
1798.223, 34.91531
1800.152, 36.33115
1802.080, 37.47739
1804.009, 37.21776
1805.937, 37.01281
1807.865, 36.43716
1809.794, 36.55712
1811.722, 36.77926
1813.651, 35.60159
1815.579, 34.68183
1817.508, 35.88603
1819.436, 36.20191
1821.365, 34.98185
1823.293, 34.25008
1825.222, 34.15672
1827.150, 34.63275
1829.079, 34.79588
1831.007, 33.99139
1832.936, 33.19707
1834.864, 33.65903
1836.792, 34.29587
1838.721, 34.29202
1840.649, 34.49044
1842.578, 34.67301
1844.506, 34.16165
1846.435, 33.87646
1848.363, 34.19135
1850.292, 34.31665
1852.220, 34.24433
1854.149, 34.27709
1856.077, 34.65022
1858.006, 34.99285
1859.934, 34.45403
1861.863, 34.17854
1863.791, 34.45270
1865.719, 34.57083
1867.648, 35.03753
1869.576, 34.51606
1871.505, 33.63885
1873.433, 33.57342
1875.362, 33.87988
1877.290, 34.51231
1879.219, 34.55848
1881.147, 33.85513
1883.076, 34.09532
1885.004, 34.54589
1886.933, 32.18267
1888.861, 30.25403
1890.790, 32.22023
1892.718, 34.25605
1894.646, 34.63963
1896.575, 33.68229
1898.503, 32.73200
1900.432, 32.92084
1902.360, 33.98898
1904.289, 34.09012
1906.217, 33.24147
1908.146, 32.68958
1910.074, 31.57313
1912.003, 30.73667
1913.931, 32.19436
1915.860, 34.29171
1917.788, 34.58370
1919.717, 33.96614
1921.645, 33.30695
1923.573, 31.97127
1925.502, 31.43308
1927.430, 30.96936
1929.359, 30.29282
1931.287, 31.09245
1933.216, 31.60698
1935.144, 32.14816
1937.073, 33.21833
1939.001, 33.04448
1940.930, 32.46342
1942.858, 32.25286
1944.787, 32.32777
1946.715, 32.89117
1948.644, 33.21127
1950.572, 33.21014
1952.500, 32.07318
1954.429, 30.50164
1956.357, 30.27223
1958.286, 31.33510
1960.214, 32.07427
1962.143, 31.57661
1964.071, 31.63286
1966.000, 32.03852
1967.928, 31.42330
1969.857, 30.66674
1971.785, 30.69976
1973.714, 30.87969
1975.642, 31.37306
1977.571, 31.60421
1979.499, 31.72553
1981.427, 31.26747
1983.356, 29.77399
1985.284, 30.18839
1987.213, 31.98395
1989.141, 32.17820
1991.070, 31.40308
1992.998, 30.80807
1994.927, 31.12843
1996.855, 32.02105
1998.784, 32.32414
2000.712, 31.01317
2002.641, 28.92597
2004.569, 29.08490
2006.498, 30.28192
2008.426, 30.88197
2010.354, 30.06449
2012.283, 28.97112
2014.211, 29.14209
2016.140, 29.07550
2018.068, 28.75072
2019.997, 29.41014
2021.925, 29.74921
2023.854, 29.09445
2025.782, 28.87220
2027.711, 29.83959
2029.639, 30.22126
2031.568, 29.35894
2033.496, 29.52610
2035.425, 30.45164
2037.353, 30.82339
2039.281, 29.71242
2041.210, 29.23184
2043.138, 29.96122
2045.067, 29.72790
2046.995, 28.61595
2048.924, 27.86054
2050.852, 27.83170
2052.781, 29.19642
2054.709, 30.38099
2056.638, 29.73464
2058.566, 29.01053
2060.495, 29.24809
2062.423, 28.44500
2064.352, 27.44920
2066.280, 27.73308
2068.208, 28.49737
2070.137, 27.45245
2072.065, 26.16577
2073.994, 25.80672
2075.922, 26.62134
2077.851, 27.15888
2079.779, 26.47495
2081.708, 27.07613
2083.636, 28.62899
2085.565, 28.86223
2087.493, 28.57079
2089.422, 27.64549
2091.350, 27.83594
2093.279, 28.38310
2095.207, 26.42107
2097.135, 24.87667
2099.064, 25.13546
2100.992, 25.41570
2102.921, 25.36988
2104.849, 25.05367
2106.778, 25.59407
2108.706, 27.23383
2110.635, 28.18247
2112.563, 27.66846
2114.492, 25.10141
2116.420, 24.72308
2118.349, 25.82728
2120.277, 25.46214
2122.206, 24.73347
2124.134, 25.46398
2126.063, 26.44413
2127.991, 26.38276
2129.919, 25.94805
2131.848, 26.35883
2133.776, 25.01756
2135.705, 23.68209
2137.633, 24.42494
2139.562, 25.84554
2141.490, 26.48996
2143.419, 25.93766
2145.347, 25.50130
2147.276, 26.20795
2149.204, 26.38156
2151.133, 25.43526
2153.061, 25.76744
2154.990, 27.03620
2156.918, 26.46390
2158.846, 25.25020
2160.775, 25.50200
2162.703, 25.68681
2164.632, 25.66636
2166.560, 25.77873
2168.489, 26.37811
2170.417, 26.35948
2172.346, 25.93063
2174.274, 25.26576
2176.203, 23.81722
2178.131, 22.87569
2180.060, 22.52268
2181.988, 23.17912
2183.917, 24.07729
2185.845, 23.64634
2187.773, 22.96392
2189.702, 23.12637
2191.630, 23.56044
2193.559, 23.87923
2195.487, 23.66162
2197.416, 23.17210
2199.344, 23.95095
2201.273, 23.90864
2203.201, 22.75195
2205.130, 22.26745
2207.058, 22.79024
2208.987, 25.58042
2210.915, 25.65168
2212.844, 23.78981
2214.772, 23.12306
2216.700, 22.40171
2218.629, 23.04825
2220.557, 22.96901
2222.486, 21.53815
2224.414, 21.22294
2226.343, 23.24763
2228.271, 24.84888
2230.200, 23.43879
2232.128, 22.02964
2234.057, 21.81046
2235.985, 22.07131
2237.914, 21.54634
2239.842, 21.14561
2241.771, 22.13779
2243.699, 21.88807
2245.627, 21.50209
2247.556, 22.70828
2249.484, 23.58995
2251.413, 22.39208
2253.341, 21.86776
2255.270, 21.94248
2257.198, 21.77230
2259.127, 21.33428
2261.055, 21.30733
2262.984, 21.89740
2264.912, 22.28251
2266.841, 21.25344
2268.769, 20.49392
2270.698, 22.04115
2272.626, 22.54103
2274.554, 21.75213
2276.483, 21.58667
2278.411, 21.92890
2280.340, 22.21014
2282.268, 21.41738
2284.197, 20.71902
2286.125, 20.51909
2288.054, 20.63208
2289.982, 20.80468
2291.911, 20.18628
2293.839, 20.16793
2295.768, 21.73146
2297.696, 20.80241
2299.625, 19.68523
2301.553, 20.47664
2303.481, 21.55968
2305.410, 22.20789
2307.338, 22.01925
2309.267, 20.82660
2311.195, 19.12375
2313.124, 18.31096
2315.052, 19.02411
2316.981, 19.94752
2318.909, 19.44302
2320.838, 19.04750
2322.766, 18.69177
2324.695, 19.65922
2326.623, 20.64274
2328.552, 18.24420
2330.480, 17.39420
2332.408, 19.11040
2334.337, 20.00227
2336.265, 20.27155
2338.194, 19.85176
2340.122, 19.75355
2342.051, 19.48227
2343.979, 18.62327
2345.908, 18.99788
2347.836, 20.29567
2349.765, 19.92489
2351.693, 19.31446
2353.622, 19.63149
2355.550, 19.22786
2357.479, 18.29568
2359.407, 18.50089
2361.335, 19.09242
2363.264, 18.31561
2365.192, 18.00256
2367.121, 17.83059
2369.049, 16.78214
2370.978, 17.37736
2372.906, 17.69259
2374.835, 17.14733
2376.763, 17.35721
2378.692, 18.12338
2380.620, 18.72083
2382.549, 18.55598
2384.477, 17.43899
2386.406, 18.24484
2388.334, 17.92459
2390.262, 17.10221
2392.191, 18.30843
2394.119, 18.63175
2396.048, 17.37027
2397.976, 16.68977
2399.905, 16.88480
2401.833, 17.57846
2403.762, 17.32555
2405.690, 17.46024
2407.619, 17.98572
2409.547, 17.15707
2411.476, 16.45854
2413.404, 16.64878
2415.333, 16.90856
2417.261, 15.73069
2419.189, 15.27312
2421.118, 16.53038
2423.046, 16.90468
2424.975, 16.75414
2426.903, 16.63416
2428.832, 16.41940
2430.760, 17.97553
2432.689, 18.24931
2434.617, 15.71784
2436.546, 16.06513
2438.474, 16.36130
2440.403, 15.21498
2442.331, 15.26777
2444.260, 15.92447
2446.188, 15.88369
2448.116, 15.30484
2450.045, 15.44417
2451.973, 16.64260
2453.902, 17.11763
2455.830, 15.92228
2457.759, 14.85539
2459.687, 15.21975
2461.616, 15.60838
2463.544, 14.50837
2465.473, 14.45892
2467.401, 16.61810
2469.330, 15.92885
2471.258, 13.42173
2473.187, 14.85666
2475.115, 15.10512
2477.043, 12.31849
2478.972, 13.11344
2480.900, 14.82533
2482.829, 14.78122
2484.757, 14.27699
2486.686, 13.82226
2488.614, 13.47832
2490.543, 13.63946
2492.471, 14.43693
2494.400, 13.66435
2496.328, 13.61078
2498.257, 14.29035
2500.185, 13.93182
2502.114, 14.04108
2504.042, 14.95310
2505.970, 15.05775
2507.899, 14.49433
2509.827, 13.63771
2511.756, 13.96796
2513.684, 14.07435
2515.613, 13.80683
2517.541, 13.82396
2519.470, 13.05457
2521.398, 12.25044
2523.327, 12.77491
2525.255, 13.90100
2527.184, 15.38593
2529.112, 13.57015
2531.041, 13.12111
2532.969, 14.41417
2534.897, 14.11997
2536.826, 13.39956
2538.754, 12.54760
2540.683, 13.54169
2542.611, 14.10628
2544.540, 13.42165
2546.468, 14.59044
2548.397, 14.97073
2550.325, 13.32290
2552.254, 12.63116
2554.182, 12.81676
2556.111, 13.81847
2558.039, 13.23613
2559.968, 12.39157
2561.896, 13.25946
2563.824, 12.13538
2565.753, 11.30598
2567.681, 12.70772
2569.610, 13.27861
2571.538, 12.91320
2573.467, 11.24955
2575.395, 11.59738
2577.324, 12.92961
2579.252, 12.26022
2581.181, 12.34223
2583.109, 12.78705
2585.038, 11.85179
2586.966, 12.51008
2588.895, 14.06112
2590.823, 14.02553
2592.751, 12.97661
2594.680, 11.53296
2596.608, 9.756133
2598.537, 10.91665
2600.465, 13.36868
2602.394, 11.60139
2604.322, 10.73327
2606.251, 10.91596
2608.179, 8.634050
2610.108, 8.972558
2612.036, 11.14871
2613.965, 13.07718
2615.893, 12.51554
2617.822, 11.08412
2619.750, 11.00882
2621.678, 11.16945
2623.607, 11.12313
2625.535, 10.07784
2627.464, 10.40303
2629.392, 11.27411
2631.321, 10.09398
2633.249, 10.50954
2635.178, 12.10487
2637.106, 12.26348
2639.035, 11.02525
2640.963, 9.788655
2642.892, 9.276690
2644.820, 9.138640
2646.749, 9.236235
2648.677, 8.880247
2650.605, 9.731684
2652.534, 10.36695
2654.462, 10.34436
2656.391, 10.97640
2658.319, 10.57166
2660.248, 9.541128
2662.176, 9.978387
2664.105, 9.897732
2666.033, 8.701715
2667.962, 8.719255
2669.890, 9.522245
2671.819, 11.38298
2673.747, 10.80722
2675.676, 10.00294
2677.604, 10.02718
2679.532, 10.67384
2681.461, 11.02194
2683.389, 9.788673
2685.318, 9.270159
2687.246, 9.689192
2689.175, 10.91689
2691.103, 8.808067
2693.032, 8.703512
2694.960, 11.11290
2696.889, 10.56948
2698.817, 9.634915
2700.746, 9.321085
2702.674, 9.936862
2704.603, 10.51378
2706.531, 10.62611
2708.459, 8.438504
2710.388, 8.669624
2712.316, 10.03693
2714.245, 9.321404
2716.173, 8.107943
2718.102, 7.615500
2720.030, 8.028959
2721.959, 7.808956
2723.887, 7.985524
2725.816, 8.794929
2727.744, 8.315830
2729.673, 8.069487
2731.601, 9.063606
2733.530, 8.419699
2735.458, 7.993707
2737.386, 8.322102
2739.315, 8.716408
2741.243, 8.611004
2743.172, 8.114875
2745.100, 7.948155
2747.029, 8.332966
2748.957, 8.700663
2750.886, 8.389357
2752.814, 8.981043
2754.743, 9.019205
2756.671, 7.481198
2758.600, 8.800438
2760.528, 9.848067
2762.457, 8.867880
2764.385, 8.384291
2766.313, 7.083713
2768.242, 5.135530
2770.170, 5.567442
2772.099, 6.723431
2774.027, 7.606601
2775.956, 6.836555
2777.884, 7.257636
2779.813, 8.305905
2781.741, 9.367939
2783.670, 8.332636
2785.598, 7.252437
2787.527, 8.173879
2789.455, 7.146310
2791.384, 5.867940
2793.312, 4.844443
2795.240, 5.534606
2797.169, 6.100772
2799.097, 6.357256
2801.026, 8.193411
2802.954, 8.607304
2804.883, 7.716636
2806.811, 5.848988
2808.740, 6.233885
2810.668, 6.777354
2812.597, 5.860103
2814.525, 5.525312
2816.454, 5.377909
2818.382, 5.392267
2820.311, 6.817325
2822.239, 6.329713
2824.167, 4.332885
2826.096, 4.752651
2828.024, 5.745433
2829.953, 6.369184
2831.881, 5.618033
2833.810, 5.875678
2835.738, 6.424744
2837.667, 6.823087
2839.595, 7.184777
2841.524, 7.222380
2843.452, 6.997313
2845.381, 6.720393
2847.309, 6.185718
2849.238, 5.891191
2851.166, 6.229331
2853.094, 7.134011
2855.023, 7.639236
2856.951, 6.923703
2858.880, 5.862799
2860.808, 4.905238
2862.737, 4.308126
2864.665, 3.800250
2866.594, 3.903914
2868.522, 4.494715
2870.451, 5.197425
2872.379, 5.670083
2874.308, 6.085795
2876.236, 6.531804
2878.165, 6.187079
2880.093, 5.936352
2882.021, 5.798305
2883.950, 5.219989
2885.878, 3.575567
2887.807, 2.939954
2889.735, 6.860462
2891.664, 5.686654
2893.592, 3.740571
2895.521, 3.381496
2897.449, 4.250581
2899.378, 4.152343
2901.306, 3.634637
2903.235, 4.711659
2905.163, 5.937735
2907.092, 6.324270
2909.020, 5.385542
2910.948, 4.028207
2912.877, 3.528661
2914.805, 3.899667
2916.734, 3.949543
2918.662, 3.363050
2920.591, 3.396561
2922.519, 5.202933
2924.448, 4.149244
2926.376, 3.795698
2928.305, 4.934860
2930.233, 4.045633
2932.162, 2.864903
2934.090, 2.324767
2936.019, 3.307755
2937.947, 4.595162
2939.875, 4.690058
2941.804, 3.678249
2943.732, 5.396546
2945.661, 5.766227
2947.589, 5.228547
2949.518, 5.723230
2951.446, 6.062856
2953.375, 5.344432
2955.303, 3.723550
2957.232, 5.041930
2959.160, 5.500957
2961.089, 4.624550
2963.017, 2.258590
2964.946, 3.854348
2966.874, 4.895379
2968.802, 3.379867
2970.731, 4.807893
2972.659, 4.049631
2974.588, 2.783901
2976.516, 4.064464
2978.445, 2.869432
2980.373, 2.487314
2982.302, 3.801431
2984.230, 3.867032
2986.159, 2.629577
2988.087, 1.652538
2990.016, 2.212408
2991.944, 2.805569
2993.873, 3.024888
2995.801, 2.778141
2997.729, 3.962791
2999.658, 4.609886
3001.586, 4.730947
3003.515, 4.618773
3005.443, 3.938691
3007.372, 3.236303
3009.300, 3.146436
3011.229, 4.366450
3013.157, 4.129654
3015.086, 4.330425
3017.014, 5.470361
3018.943, 4.272909
3020.871, 3.829957
3022.800, 3.699777
3024.728, 2.350954
3026.656, 3.908081
3028.585, 4.185933
3030.513, 3.108749
3032.442, 3.866735
3034.370, 3.400899
3036.299, 3.515435
3038.227, 5.157908
3040.156, 5.591682
3042.084, 4.879365
3044.013, 3.326625
3045.941, 1.932243
3047.870, 1.464346
3049.798, 1.676819
3051.727, 2.126277
3053.655, 2.104514
3055.583, 1.926416
3057.512, 1.964057
3059.440, 2.505799
3061.369, 3.734492
3063.297, 3.644020
3065.226, 2.952430
3067.154, 2.895183
3069.083, 3.733111
3071.011, 2.002635
3072.940, -0.2847143
3074.868, 3.173357
3076.797, 2.916723
3078.725, 2.748330
3080.654, 3.916672
3082.582, 3.746182
3084.510, 3.449950
3086.439, 3.559951
3088.367, 3.798608
3090.296, 1.834241
3092.225, 0.8543558
3094.153, 1.159320
3096.082, 2.374785
3098.010, 2.021820
3099.938, 1.678377
3101.867, 2.179482
3103.795, 4.565571
3105.724, 2.056277
3107.652, 1.656616
3109.581, 3.697181
3111.509, 1.817410
3113.438, 2.117873
3115.366, 3.425269
3117.295, 4.604648
3119.223, 3.443485
3121.152, 3.696684
3123.080, 3.353985
3125.009, -0.2914012
3126.937, 2.371165
3128.865, 2.552594
3130.794, 1.339747
3132.722, 1.112084
3134.651, 0.1974224
3136.579, 1.892825
3138.508, 4.128131
3140.436, 3.180675
3142.365, 2.443689
3144.293, 1.537869
3146.222, 0.8373262
3148.150, 2.886389
3150.079, 3.945429
3152.007, 3.568621
3153.936, 2.897630
3155.864, 3.673154
3157.792, 3.369180
3159.721, 2.095493
3161.649, 0.5737593
3163.578, -6.1081789E-02
3165.506, 1.580462
3167.435, 3.080163
3169.363, 3.328513
3171.292, 2.010348
3173.220, 2.809122
3175.149, 2.231326
3177.077, 0.2034190
3179.006, 1.012292
3180.934, 1.532705
3182.863, 2.506925
3184.791, 3.587847
3186.719, 3.813233
3188.648, 2.201741
3190.576, 1.509889
3192.505, 2.756649
3194.433, 4.061545
3196.362, 4.708861
3198.290, 4.063228
3200.219, 2.165300
3202.147, 1.794797
3204.076, 3.115249
3206.004, 3.577616
3207.933, 2.616709
3209.861, 0.3568771
3211.790, 1.534239
3213.718, 2.237291
3215.646, 1.120529
3217.575, 1.155759
3219.503, 0.8886093
3221.432, 1.613395
3223.360, 2.695410
3225.289, 2.189631
3227.217, 1.130245
3229.146, 5.5730671E-02
3231.074, 0.1338018
3233.003, 4.476359
3234.931, 2.078063
3236.860, 0.8439067
3238.788, 1.689691
3240.717, 5.1348679E-02
3242.645, 0.5854901
3244.573, 1.482438
3246.502, 2.084406
3248.430, 2.544975
3250.359, 2.161413
3252.287, 0.7775346
3254.216, 8.0366969E-02
3256.144, 0.6758201
3258.073, 2.777187
3260.001, 1.968288
3261.930, 1.043334
3263.858, 2.861892
3265.787, 1.432558
3267.715, 1.743318
3269.644, 1.407143
3271.572, -0.2765474
3273.500, 1.052340
3275.429, 0.6516618
3277.357, -0.1736106
3279.286, 0.6379706
3281.214, 4.936267
3283.143, 2.621566
3285.071, 0.8756396
3287.000, 0.5530731
3288.928, -0.6995902
3290.857, 1.859415
3292.785, 2.973760
3294.714, 2.583499
3296.642, 2.227311
3298.571, 2.457585
3300.499, 1.880910
3302.427, 2.381226
3304.356, 3.540306
3306.284, 0.8580410
3308.213, -0.5581418
3310.141, 0.8688545
3312.070, 3.342014
3313.998, 1.695892
3315.927, 4.507503
3317.855, 4.611925
3319.784, 2.961245
3321.712, 2.893052
3323.641, 1.774314
3325.569, 1.792613
3327.498, 1.486619
3329.426, 0.5946699
3331.354, 3.678832
3333.283, 1.835067
3335.211, 0.6592888
3337.140, 0.8482742
3339.068, 0.1641524
3340.997, 1.355646
3342.925, 2.615498
3344.854, 1.685526
3346.782, -1.606070
3348.711, 0.4627039
3350.639, 1.566572
3352.568, 1.536684
3354.496, 1.082921
3356.425, 1.304196
3358.353, 0.5887806
3360.281, 1.034793
3362.210, 2.045382
3364.138, 2.218532
3366.067, 1.789742
3367.995, 3.5946850E-02
3369.924, -0.2691661
3371.852, 1.419819
3373.781, 4.088702
3375.709, 4.418755
3377.638, 4.139188
3379.566, 3.097925
3381.495, 1.875655
3383.423, 2.889252
3385.352, 2.594317
3387.280, 1.565137
3389.208, 0.7279663
3391.137, -9.6266583E-02
3393.065, 2.773785
3394.994, 3.938771
3396.922, 2.258817
3398.851, -0.2884001
3400.779, 2.287831
3402.708, 1.337259
3404.636, 2.660447
3406.565, 4.992362
3408.493, 4.187262
3410.422, 1.219607
3412.350, -1.414449
3414.279, -0.1491521
3416.207, 2.868998
3418.135, 1.180484
3420.064, 3.060091
3421.992, 2.451279
3423.921, 0.3906055
3425.849, -0.8035695
3427.778, 0.1727326
3429.706, 0.4759828
3431.635, 1.452364
3433.563, 2.572783
3435.492, 2.895986
3437.420, 1.970936
3439.349, 0.6982658
3441.277, 1.098994
3443.206, 1.862031
3445.134, 0.3320801
3447.063, 1.961562
3448.991, -0.5668968
3450.919, 0.3233264
3452.848, 4.256474
3454.776, 0.5667017
3456.705, 3.024475
3458.633, 2.469484
3460.562, -1.006842
3462.490, -3.872976
3464.419, -0.8446641
3466.347, 0.3962761
3468.276, -7.7687897E-02
3470.204, 0.1084130
3472.133, 1.641502
3474.061, 1.891911
3475.990, 2.338117
3477.918, 2.558946
3479.846, 2.582817
3481.775, 2.675798
3483.703, 3.244904
3485.632, 1.643559
3487.560, 0.1384155
3489.489, 0.3949563
3491.417, 2.114851
3493.346, 1.684762
3495.274, 1.050173
3497.203, 0.1579089
3499.131, 0.5365305
3501.060, 2.349332
3502.988, 0.7654231
3504.917, 2.896854
3506.845, 0.4615793
3508.773, -1.637220
3510.702, 0.7942705
3512.630, -1.333932
3514.559, 0.9625624
3516.487, 3.531401
3518.416, 3.040604
3520.344, 0.5226194
3522.273, 5.102071
3524.201, 1.135465
3526.130, -0.1574869
3528.058, 0.8552831
3529.987, 1.369234
3531.915, 0.4918614
3533.844, -0.1017715
3535.772, 0.2380923
3537.700, -0.1980612
3539.629, -0.7093488
3541.557, 1.507077
3543.486, 1.940879
3545.414, 0.8220710
3547.343, 0.5071385
3549.271, 1.559368
3551.200, 2.981543
3553.128, 3.916817
3555.057, 0.1441652
3556.985, 0.6743213
3558.914, 3.845800
3560.842, 3.731719
3562.771, -2.407325
3564.699, -0.8842869
3566.627, 0.4007451
3568.556, 1.976582
3570.484, 4.325475
3572.413, 2.943200
3574.341, -1.219304
3576.270, -0.1697913
3578.198, -0.4436026
3580.127, -1.981768
3582.055, 1.403213
3583.984, 2.034871
3585.912, 0.8964272
3587.841, -0.4025533
3589.769, -0.2606483
3591.698, 1.120857
3593.626, -3.2059211E-02
3595.554, -1.543597
3597.483, -2.579188
3599.411, -0.7589359
3601.340, 1.798438
3603.268, 0.1872339
3605.197, -5.6424920E-02
3607.125, -0.7024646
3609.054, -0.6493694
3610.982, -0.4544640
3612.911, -0.7113631
3614.839, -0.2241249
3616.768, -1.053066
3618.696, -0.8761103
3620.625, -0.5092687
3622.553, 0.2993736
3624.481, 2.075564
3626.410, -0.2662210
3628.338, -1.078879
3630.267, -0.6430585
3632.195, 0.1220361
3634.124, 0.8901213
3636.052, 2.121383
3637.981, 0.3662083
3639.909, 2.351455
3641.838, 2.830713
3643.766, 1.548087
3645.695, 1.175224
3647.623, 3.033092
3649.552, -1.115654
3651.480, 1.954199
3653.408, 2.955841
3655.337, 1.250358
3657.265, 2.403722
3659.194, 1.249237
3661.122, 0.7657307
3663.051, 2.274731
3664.979, 2.469856
3666.908, 1.207195
3668.836, 1.073013
3670.765, 2.464061
3672.693, -1.594796
3674.622, -3.684983
3676.550, -1.423473
3678.479, 0.4933284
3680.407, -2.217716
3682.335, 3.991513
3684.264, 2.584667
3686.192, 2.534126
3688.121, 2.231093
3690.049, 1.812567
3691.978, 4.213553
3693.906, 1.413291
3695.835, 3.711355
3697.763, 2.415980
3699.692, -1.411249
3701.620, -1.626913
3703.549, 4.678210
3705.477, 2.813917
3707.406, 3.315255
3709.334, 3.174415
3711.262, 0.4539058
3713.191, -0.2796314
3715.119, 3.727656
3717.048, 0.3890127
3718.976, 0.7009226
3720.905, -1.322120
3722.833, -0.4355517
3724.762, 2.045986
3726.690, 2.450052
3728.619, 1.958660
3730.547, -0.3908859
3732.476, 0.5969647
3734.404, 0.4909745
3736.333, -0.6635897
3738.261, -0.3006165
3740.189, 2.289352
3742.118, -0.2767586
3744.046, 2.735849
3745.975, 2.594673
3747.903, 2.324215
3749.832, 3.116532
3751.760, 2.675402
3753.689, -0.1688679
3755.617, -0.5719715
3757.546, 0.7966820
3759.474, 2.601032
3761.403, 3.533953
3763.331, 2.720542
3765.260, 0.2363503
3767.188, 2.140918
3769.116, 0.8706993
3771.045, -0.2560801
3772.973, 9.5230602E-02
3774.902, 1.547231
3776.830, 2.629889
3778.759, 1.275074
3780.687, -0.2359714
3782.616, 1.357380
3784.544, -3.042307
3786.473, -4.148271
3788.401, -0.3413239
3790.330, 1.088982
3792.258, 1.126826
3794.187, 2.934248
3796.115, 2.256040
3798.043, 1.777588
3799.972, 1.955366
3801.900, 1.271370
3803.829, -0.7670084
3805.757, -1.000595
3807.686, 1.740537
3809.614, 1.300458
3811.543, 2.247120
3813.471, 1.892404
3815.400, -0.2827404
3817.328, -0.4860392
3819.257, 1.262120
3821.185, 1.192162
3823.114, 1.590917
3825.042, -1.529256
3826.970, -0.5990273
3828.899, 2.957215
3830.827, 1.073611
3832.756, 0.5093476
3834.684, -5.7005871E-02
3836.613, -1.184948
3838.541, 0.2748790
3840.470, 1.229405
3842.398, 1.354217
3844.327, 2.076784
3846.255, 1.137533
3848.184, -0.9269903
3850.112, 1.089072
3852.041, 1.154432
3853.969, 2.262027
3855.897, 2.006879
3857.826, -0.2126901
3859.754, 0.5249313
3861.683, -2.112006
3863.611, 1.628431
3865.540, 2.057048
3867.468, 1.223110
3869.397, 1.245874
3871.325, 0.9011211
3873.254, -0.8568734
3875.182, -1.574390
3877.111, 0.4200726
3879.039, 2.082844
3880.968, 2.736487
3882.896, 2.988990
3884.824, 0.8294312
3886.753, -0.6520176
3888.681, 2.228417
3890.610, -0.4295571
3892.538, 1.174380
3894.467, 3.278879
3896.395, 0.7362981
3898.324, -1.224395
3900.252, -0.3248570
3902.181, 2.034230
3904.109, 3.347307
3906.038, 0.2901720
3907.966, 0.7453264
3909.895, -2.7574221E-02
3911.823, -0.2137688
3913.751, 2.151538
3915.680, 4.113945
3917.608, 2.232296
3919.537, -1.025251
3921.465, 4.899886
3923.394, 1.598487
3925.322, 0.4135101
3927.251, 1.162014
3929.179, -1.1110690E-02
3931.108, 1.886115
3933.036, 3.837689
3934.965, 0.9379690
3936.893, 1.951444
3938.822, 2.453697
3940.750, 0.3664490
3942.678, 0.2251177
3944.607, -0.3933204
3946.535, 0.6872422
3948.464, 1.940927
3950.392, 1.814455
3952.321, 1.871965
3954.249, 0.9404734
3956.178, -2.737694
3958.106, 2.165271
3960.035, 0.6224355
3961.963, 0.6025037
3963.892, 1.936826
3965.820, 1.850560
3967.749, 1.063876
3969.677, 0.9689825
3971.605, -0.7467211
3973.534, 0.4812545
3975.462, 0.4733545
3977.391, -1.167730
3979.319, 0.6931107
3981.248, 2.545033
3983.176, 1.628120
3985.105, 0.4789308
3987.033, 1.544394
3988.962, 1.264697
3990.890, 0.9481617
3992.819, 1.961278
3994.747, 0.2108246
3996.676, 1.918388
3998.604, 1.730799
4000.532, 0.9185141
4002.461, 1.922656
4004.389, 2.388470
4006.318, 0.5678187
4008.246, 1.763022
4010.175, 1.112286
4012.103, -1.343896
4014.032, 1.002283
4015.960, -1.075043
4017.889, -2.202149
4019.817, -0.3006393
4021.746, 0.7753677
4023.674, 0.8588193
4025.603, 0.5994056
4027.531, 1.985897
4029.459, -1.393585
4031.388, -1.667958
4033.316, -1.223365
4035.245, -1.271484
4037.173, 2.4572020E-02
4039.102, 1.101974
4041.030, -0.2325188
4042.959, -1.405919
4044.887, 1.328509
4046.816, -0.6260543
4048.744, 1.459388
4050.673, 1.706468
4052.601, -0.3030445
4054.530, 2.038692
4056.458, 0.4906379
4058.386, -1.773912
4060.315, 1.268392
4062.243, 0.9102069
4064.172, -4.0749490E-02
4066.100, -2.455221
4068.029, -0.6845050
4069.957, -0.4778914
4071.886, -6.4469248E-02
4073.814, 0.6829481
4075.743, 0.3754730
4077.671, -0.2720360
4079.600, 0.8781356
4081.528, 2.327181
4083.457, 0.1090403
4085.385, 2.530515
4087.313, 1.931750
4089.242, 7.050153
4091.170, 1.310904
4093.099, 0.9101938
4095.027, 0.6096964
4096.956, 0.6625035
4098.884, 1.876717
4100.813, 1.665927
4102.741, 9.0031195E-03
4104.670, 0.2698955
4106.598, 3.546243
4108.527, 2.238826
4110.455, 1.592370
4112.384, 1.110581
4114.312, 3.219373
4116.241, 4.008418
4118.169, 7.8306913E-02
4120.098, -1.365664
4122.026, 2.816994
4123.955, 4.391979
4125.883, -0.4022560
4127.812, -0.5953998
4129.740, 2.097000
4131.668, 1.943008
4133.597, 0.1221420
4135.525, 1.167763
4137.454, 0.4296239
4139.382, -0.2325582
4141.311, -0.8144032
4143.239, -1.221795
4145.167, 0.9238518
4147.096, 2.032109
4149.024, -0.4973829
4150.953, 0.5711836
4152.881, 2.006204
4154.810, 3.127955
4156.738, 0.5376613
4158.667, -0.9096092
4160.595, 1.371737
4162.524, -0.7015210
4164.452, -1.224453
4166.381, 2.384438
4168.309, 0.8339902
4170.238, -0.6897094
4172.166, 0.1081629
4174.095, 0.1483673
4176.023, 2.763252
4177.952, -0.6868557
4179.880, 2.242501
4181.809, 1.551274
4183.737, -1.772985
4185.666, 3.043978
4187.594, 1.171636
4189.522, -2.094368
4191.451, 1.443991
4193.379, 0.9315189
4195.308, 1.271068
4197.236, 2.486062
4199.165, 0.7616641
4201.093, -1.075969
4203.021, 0.1390965
4204.950, 4.434010
4206.878, 1.069430
4208.807, -1.223777
4210.735, -3.8492639E-02
4212.664, -0.7915958
4214.592, 1.130343
4216.521, -0.6841258
4218.449, -2.908132
4220.378, 0.9718313
4222.306, 0.3658955
4224.235, 4.0008549E-02
4226.163, 1.385751
4228.092, 0.8156811
4230.020, 1.685054
4231.949, 2.774949
4233.877, -0.7672149
4235.806, 0.1584993
4237.734, -1.521826
4239.663, -1.576387
4241.591, 1.812621
4243.520, 1.524246
4245.448, -1.343082
4247.376, 1.213557
4249.305, -0.2878796
4251.233, 0.5490893
4253.162, 2.025278
4255.090, 1.693017
4257.019, -0.3709025
4258.947, -2.532868
4260.875, -1.082018
4262.804, 0.4385875
4264.732, -0.6857252
4266.661, 0.3467296
4268.589, 2.837757
4270.518, 3.899728
4272.446, 2.606616
4274.375, 0.1662462
4276.303, 0.1829313
4278.232, -3.814933
4280.160, -0.1744924
4282.089, -1.259051
4284.017, -1.319509
4285.946, 2.954456
4287.874, -0.9534098
4289.803, -1.539402
4291.731, 2.607815
4293.660, 2.369079
4295.588, 0.5238337
4297.517, 0.5774202
4299.445, 2.680448
4301.374, 3.524568
4303.302, 1.632173
4305.230, 0.3746274
4307.159, 1.009455
4309.087, 0.9592276
4311.016, -0.4919226
4312.944, 0.5422075
4314.873, -0.5938277
4316.801, 1.887267
4318.729, 2.516518
4320.658, -2.501883
4322.586, 1.821062
4324.515, -2.912571
4326.443, -0.8361871
4328.372, -2.034262
4330.300, 3.410643
4332.229, 0.4851260
4334.157, 1.637943
4336.086, 0.5763174
4338.014, 0.6921428
4339.943, 0.4723066
4341.871, -0.8870997
4343.800, -0.1636459
4345.728, 1.769963
4347.657, 0.9626009
4349.585, 0.2987131
4351.514, 1.649833
4353.442, 0.2228426
4355.371, -1.507663
4357.299, -0.7323736
4359.228, 0.1045498
4361.156, 2.288909
4363.084, -1.808231
4365.013, 0.9884952
4366.941, 3.414382
4368.870, -1.270121
4370.798, 0.8981336
4372.727, 1.559180
4374.655, -0.1898891
4376.583, 3.527956
4378.512, 4.260179
4380.440, 1.809314
4382.369, -1.762594
4384.297, 0.0000000E+00
4386.226, 0.0000000E+00
4388.154, 0.0000000E+00
##END=



