##NAMES=Shandite
##RRUFFID=R070090
##IDEAL CHEMISTRY=Ni_3_Pb_2_S_2_
##LOCALITY=Nickel Reward mine, Tasmania, Australia
##OWNER=RRUFF
##SOURCE=Michael Scott
##DESCRIPTION=Bright silver metallic blebs in serpentinite, chonchoidal fracture
##STATUS=The identification of this mineral is not yet confirmed
##URL=https://www.rruff.net/odr/rruff_sample/R070090
##FILETYPE=Raman RAW
##RAMAN WAVELENGTH=532

144.1482, 323.3415
146.0767, 327.7712
148.0051, 336.6099
149.9336, 347.2047
151.8621, 354.0329
153.7905, 352.8540
155.7190, 353.2291
157.6475, 359.3465
159.5759, 373.3564
161.5044, 385.7851
163.4329, 396.5000
165.3613, 404.8542
167.2898, 410.2654
169.2183, 409.9814
171.1467, 410.1683
173.0752, 413.6561
175.0037, 423.2815
176.9321, 430.7942
178.8606, 435.0954
180.7891, 437.3523
182.7175, 439.2897
184.6460, 441.8995
186.5745, 443.4055
188.5029, 442.5099
190.4314, 438.6396
192.3599, 435.4800
194.2883, 434.3739
196.2168, 434.7365
198.1453, 434.1569
200.0737, 433.1786
202.0022, 430.7953
203.9307, 425.1885
205.8591, 415.3256
207.7876, 409.5264
209.7161, 412.1467
211.6445, 419.8295
213.5730, 423.1957
215.5014, 420.5387
217.4299, 415.9828
219.3584, 411.1218
221.2868, 405.4426
223.2153, 400.9867
225.1438, 399.0922
227.0723, 398.2833
229.0007, 395.5783
230.9292, 388.8333
232.8577, 383.0209
234.7861, 380.1265
236.7146, 381.4232
238.6431, 382.9596
240.5715, 385.1967
242.5000, 387.5601
244.4285, 389.3153
246.3569, 389.9793
248.2854, 390.4471
250.2139, 390.6099
252.1423, 390.4066
254.0708, 391.0968
255.9993, 392.5236
257.9277, 395.0446
259.8562, 399.4073
261.7847, 409.0158
263.7131, 417.1339
265.6416, 421.8050
267.5701, 423.5169
269.4985, 424.1630
271.4270, 424.7587
273.3555, 423.9875
275.2839, 419.6862
277.2124, 407.7957
279.1409, 399.6434
281.0693, 401.1973
282.9978, 410.6905
284.9263, 416.6516
286.8547, 415.6037
288.7832, 412.9402
290.7117, 412.0403
292.6401, 412.9328
294.5686, 415.2049
296.4971, 419.8200
298.4255, 425.6022
300.3540, 429.2266
302.2825, 428.5836
304.2109, 428.4059
306.1394, 430.8975
308.0679, 436.1453
309.9963, 439.7289
311.9248, 439.8986
313.8533, 439.0836
315.7817, 439.9923
317.7102, 443.1677
319.6387, 446.3394
321.5671, 449.3456
323.4956, 452.2883
325.4241, 453.5004
327.3525, 451.1766
329.2810, 448.5990
331.2095, 448.6540
333.1379, 451.8609
335.0664, 455.7959
336.9948, 460.1187
338.9233, 464.3793
340.8518, 467.5103
342.7802, 469.7366
344.7087, 471.3479
346.6372, 471.6487
348.5656, 470.2504
350.4941, 470.8430
352.4226, 472.5648
354.3510, 475.6108
356.2795, 482.1926
358.2080, 494.6846
360.1364, 507.4632
362.0649, 517.4949
363.9934, 524.4245
365.9218, 529.9476
367.8503, 533.2514
369.7788, 536.7695
371.7072, 542.7991
373.6357, 552.6237
375.5642, 559.3935
377.4926, 560.6039
379.4211, 557.1720
381.3496, 551.7184
383.2780, 543.9109
385.2065, 535.0157
387.1350, 524.9659
389.0634, 513.4360
390.9919, 501.4207
392.9204, 490.2191
394.8488, 479.8513
396.7773, 471.0545
398.7058, 464.5821
400.6342, 458.4751
402.5627, 449.7570
404.4912, 438.7836
406.4196, 429.0527
408.3481, 421.6918
410.2766, 415.1288
412.2050, 409.5174
414.1335, 405.0094
416.0620, 400.8334
417.9904, 396.2793
419.9189, 392.0636
421.8474, 388.2558
423.7758, 383.8185
425.7043, 378.1202
427.6328, 374.5363
429.5612, 373.3649
431.4897, 372.6635
433.4182, 366.8994
435.3466, 359.7522
437.2751, 353.1699
439.2036, 347.9074
441.1320, 344.7343
443.0605, 344.9546
444.9890, 346.2641
446.9174, 346.6817
448.8459, 346.1200
450.7744, 345.7802
452.7029, 344.8188
454.6313, 343.7979
456.5598, 344.5149
458.4883, 348.2072
460.4167, 351.0783
462.3452, 351.9171
464.2737, 350.7612
466.2021, 350.9780
468.1306, 352.6629
470.0591, 354.4448
471.9875, 354.8477
473.9160, 352.4370
475.8445, 350.4727
477.7729, 351.7475
479.7014, 354.9328
481.6299, 355.4638
483.5583, 351.7421
485.4868, 348.5898
487.4153, 348.0252
489.3437, 349.8798
491.2722, 352.2147
493.2007, 354.4296
495.1291, 356.3765
497.0576, 358.2133
498.9861, 359.7962
500.9145, 360.2196
502.8430, 359.0320
504.7715, 357.2631
506.6999, 355.6630
508.6284, 355.7529
510.5569, 354.6135
512.4854, 350.0749
514.4138, 344.3201
516.3423, 342.6143
518.2708, 345.8250
520.1992, 349.2155
522.1277, 351.5502
524.0562, 354.2832
525.9846, 357.0387
527.9131, 359.7208
529.8416, 361.2875
531.7700, 361.1314
533.6985, 357.8301
535.6270, 354.9322
537.5554, 353.6533
539.4839, 355.1630
541.4124, 361.2138
543.3408, 371.1625
545.2693, 377.3354
547.1978, 375.9272
549.1262, 371.5004
551.0547, 368.4893
552.9832, 367.4626
554.9116, 366.2137
556.8401, 363.4406
558.7686, 359.8683
560.6970, 359.1022
562.6255, 363.7120
564.5540, 367.7640
566.4824, 368.2462
568.4109, 364.1947
570.3394, 360.9021
572.2678, 358.1989
574.1963, 356.8238
576.1248, 358.2509
578.0532, 360.9251
579.9817, 362.0056
581.9102, 361.4953
583.8386, 361.1101
585.7670, 359.6321
587.6955, 350.4491
589.6240, 344.1263
591.5524, 344.8266
593.4809, 350.5151
595.4094, 353.4469
597.3378, 350.5966
599.2663, 347.2097
601.1948, 344.5971
603.1232, 343.4040
605.0517, 343.7372
606.9802, 346.6510
608.9086, 349.0086
610.8371, 349.0995
612.7656, 347.8477
614.6940, 347.2668
616.6225, 347.6403
618.5510, 347.6910
620.4794, 347.0420
622.4079, 347.1057
624.3364, 347.6765
626.2648, 348.8466
628.1933, 349.4409
630.1218, 349.8625
632.0502, 350.4488
633.9787, 351.3362
635.9072, 352.3719
637.8356, 353.8643
639.7641, 355.8002
641.6926, 358.1534
643.6210, 359.9781
645.5495, 360.8371
647.4780, 361.4248
649.4064, 362.1891
651.3349, 362.7915
653.2634, 363.3323
655.1918, 364.2099
657.1203, 365.4580
659.0488, 365.8469
660.9772, 365.2209
662.9057, 363.6865
664.8342, 360.0916
666.7626, 354.6612
668.6911, 353.5659
670.6196, 360.4535
672.5480, 367.5388
674.4765, 371.5998
676.4050, 373.0963
678.3334, 373.3170
680.2619, 371.5373
682.1904, 369.2997
684.1188, 367.0412
686.0473, 364.3043
687.9758, 362.5927
689.9042, 361.3503
691.8327, 361.6161
693.7612, 364.6964
695.6896, 371.0297
697.6181, 375.7068
699.5466, 377.7227
701.4750, 377.9441
703.4035, 376.7050
705.3320, 373.6256
707.2604, 370.7922
709.1889, 367.5349
711.1174, 364.8940
713.0458, 364.2959
714.9743, 366.1608
716.9028, 369.2866
718.8312, 375.3514
720.7597, 381.8871
722.6882, 383.8450
724.6166, 379.3393
726.5451, 375.1092
728.4736, 373.7625
730.4020, 373.7631
732.3305, 371.7165
734.2590, 364.5076
736.1874, 360.2722
738.1159, 363.6292
740.0444, 371.3704
741.9728, 374.6541
743.9013, 372.2900
745.8298, 369.3922
747.7582, 367.3564
749.6867, 366.3888
751.6152, 365.5685
753.5436, 363.5532
755.4721, 362.8535
757.4006, 366.6560
759.3290, 373.1353
761.2575, 375.5784
763.1860, 372.0035
765.1144, 368.3383
767.0429, 368.7605
768.9714, 371.6686
770.8998, 373.0326
772.8283, 370.9085
774.7568, 369.6907
776.6852, 370.1473
778.6137, 370.0338
780.5422, 368.3616
782.4706, 364.9937
784.3991, 362.0261
786.3276, 358.8121
788.2560, 357.5585
790.1845, 359.0628
792.1130, 367.2541
794.0414, 371.1204
795.9699, 368.9974
797.8984, 363.5357
799.8268, 360.3749
801.7553, 360.6970
803.6838, 363.1879
805.6122, 363.9385
807.5407, 363.2215
809.4692, 363.6210
811.3976, 367.6622
813.3261, 370.7381
815.2546, 371.2601
817.1830, 369.1818
819.1115, 366.7987
821.0400, 364.4732
822.9684, 363.2880
824.8969, 365.4484
826.8254, 371.5301
828.7538, 375.8311
830.6823, 373.8150
832.6108, 369.6730
834.5392, 369.5916
836.4677, 372.5171
838.3962, 374.2238
840.3246, 373.3681
842.2531, 370.9411
844.1816, 368.7978
846.1100, 369.7727
848.0385, 372.1757
849.9670, 374.4779
851.8954, 373.5174
853.8239, 373.1977
855.7524, 377.3333
857.6808, 382.0236
859.6093, 383.9485
861.5378, 382.5792
863.4662, 383.4175
865.3947, 386.4767
867.3232, 388.1652
869.2516, 386.8463
871.1801, 383.4916
873.1086, 378.0266
875.0370, 373.8328
876.9655, 376.1405
878.8940, 385.1659
880.8224, 394.0993
882.7509, 396.9664
884.6794, 396.3161
886.6078, 395.1663
888.5363, 394.3498
890.4648, 393.6777
892.3932, 392.6677
894.3217, 389.5883
896.2502, 386.5048
898.1786, 385.4082
900.1071, 386.4572
902.0356, 387.0519
903.9641, 388.5800
905.8925, 390.9873
907.8210, 393.0173
909.7495, 394.2523
911.6779, 398.2823
913.6064, 400.7148
915.5349, 398.4727
917.4633, 395.1086
919.3918, 394.2515
921.3203, 396.7871
923.2487, 400.3756
925.1772, 401.4287
927.1057, 400.7040
929.0341, 399.9846
930.9626, 401.4340
932.8911, 403.1655
934.8195, 404.6935
936.7480, 407.5078
938.6765, 411.1659
940.6049, 411.7360
942.5334, 406.8924
944.4619, 405.4368
946.3903, 407.4128
948.3188, 410.7448
950.2473, 412.6853
952.1757, 414.4453
954.1042, 412.8371
956.0327, 408.9802
957.9611, 404.6592
959.8896, 403.6661
961.8181, 408.3235
963.7465, 414.0537
965.6750, 417.6966
967.6035, 419.7532
969.5319, 418.5912
971.4604, 410.9651
973.3889, 401.5287
975.3173, 399.4473
977.2458, 407.0880
979.1743, 412.8626
981.1027, 412.0299
983.0312, 408.1646
984.9597, 410.1110
986.8881, 417.5258
988.8166, 422.9443
990.7451, 423.2805
992.6735, 423.3713
994.6020, 425.5146
996.5305, 427.6417
998.4589, 428.6747
1000.387, 428.7444
1002.316, 429.2635
1004.244, 430.4281
1006.173, 431.3940
1008.101, 433.1621
1010.030, 437.5931
1011.958, 441.4432
1013.887, 441.6751
1015.815, 440.1290
1017.744, 440.3769
1019.672, 442.4184
1021.601, 444.8622
1023.529, 448.2787
1025.458, 452.1937
1027.386, 455.1599
1029.314, 455.3240
1031.243, 453.1920
1033.171, 447.1375
1035.100, 441.6276
1037.028, 438.1044
1038.957, 437.8105
1040.885, 440.9963
1042.814, 450.8095
1044.742, 456.7199
1046.671, 454.7931
1048.599, 449.8902
1050.528, 448.9785
1052.456, 455.7900
1054.385, 460.3054
1056.313, 459.8002
1058.241, 455.8666
1060.170, 452.4091
1062.098, 450.2560
1064.027, 450.0029
1065.955, 453.7522
1067.884, 457.1134
1069.812, 456.5632
1071.741, 451.7057
1073.669, 449.5270
1075.598, 452.9084
1077.526, 456.2684
1079.454, 458.1642
1081.383, 459.2971
1083.311, 460.9504
1085.240, 463.9780
1087.168, 464.4109
1089.097, 458.0855
1091.025, 451.7504
1092.954, 451.6499
1094.882, 457.7655
1096.811, 459.5645
1098.739, 451.7870
1100.668, 443.9241
1102.596, 439.1512
1104.525, 437.1902
1106.453, 436.4123
1108.381, 437.4500
1110.310, 438.4245
1112.238, 439.8406
1114.167, 441.2852
1116.095, 440.4744
1118.024, 436.4908
1119.952, 435.9292
1121.881, 445.1434
1123.809, 453.5287
1125.738, 452.5486
1127.666, 442.4784
1129.595, 436.5888
1131.523, 439.9289
1133.452, 442.4275
1135.380, 440.8912
1137.308, 437.6312
1139.237, 436.7398
1141.165, 440.1437
1143.094, 442.1169
1145.022, 441.1562
1146.951, 439.0553
1148.879, 436.7206
1150.808, 432.9546
1152.736, 432.4024
1154.665, 440.1267
1156.593, 448.2069
1158.522, 450.5394
1160.450, 446.6750
1162.379, 444.1934
1164.307, 446.1978
1166.235, 447.0353
1168.164, 443.3165
1170.092, 436.4957
1172.021, 432.0732
1173.949, 434.6629
1175.878, 437.3338
1177.806, 439.4835
1179.735, 440.9856
1181.663, 442.7243
1183.592, 444.9994
1185.520, 446.1667
1187.449, 444.2466
1189.377, 443.4704
1191.306, 448.2665
1193.234, 454.6667
1195.162, 456.4702
1197.091, 453.5407
1199.019, 450.1172
1200.948, 445.1288
1202.876, 442.9808
1204.805, 449.2274
1206.733, 460.2248
1208.662, 462.4468
1210.590, 455.8188
1212.519, 450.0530
1214.447, 446.3031
1216.376, 442.3764
1218.304, 443.5594
1220.233, 452.6444
1222.161, 460.2387
1224.089, 465.7773
1226.018, 469.6010
1227.946, 469.7796
1229.875, 464.7932
1231.803, 458.2516
1233.732, 448.7987
1235.660, 443.4639
1237.589, 445.6720
1239.517, 452.4429
1241.446, 458.8276
1243.374, 465.2427
1245.303, 468.8134
1247.231, 471.3672
1249.160, 473.0880
1251.088, 471.2250
1253.016, 460.9056
1254.945, 455.7761
1256.873, 461.6869
1258.802, 468.0332
1260.730, 470.1246
1262.659, 469.0713
1264.587, 468.0427
1266.516, 471.4226
1268.444, 475.0623
1270.373, 470.9656
1272.301, 464.6844
1274.230, 463.6186
1276.158, 469.1209
1278.087, 471.4998
1280.015, 468.0918
1281.943, 465.1151
1283.872, 462.0006
1285.800, 458.9435
1287.729, 458.1608
1289.657, 464.5338
1291.586, 473.5912
1293.514, 481.2762
1295.443, 483.3428
1297.371, 479.9366
1299.300, 475.6512
1301.228, 475.0904
1303.157, 475.8335
1305.085, 474.2714
1307.014, 469.3786
1308.942, 467.5448
1310.870, 474.1068
1312.799, 484.8808
1314.727, 486.2310
1316.656, 475.9460
1318.584, 468.7255
1320.513, 469.1113
1322.441, 472.3975
1324.370, 473.9804
1326.298, 475.1114
1328.227, 476.5016
1330.155, 478.7912
1332.084, 481.1395
1334.012, 481.5918
1335.941, 480.2921
1337.869, 479.0534
1339.797, 475.2812
1341.726, 471.9342
1343.654, 474.6118
1345.583, 479.6168
1347.511, 482.5926
1349.440, 482.9110
1351.368, 484.3478
1353.297, 489.1745
1355.225, 494.0605
1357.154, 495.1966
1359.082, 492.1162
1361.011, 488.4464
1362.939, 485.7814
1364.868, 484.4846
1366.796, 483.9071
1368.724, 485.1645
1370.653, 486.8669
1372.581, 487.5565
1374.510, 487.4282
1376.438, 487.0906
1378.367, 485.4034
1380.295, 480.3191
1382.224, 477.8939
1384.152, 480.8030
1386.081, 487.0436
1388.009, 491.5434
1389.938, 494.4643
1391.866, 496.4378
1393.795, 496.0441
1395.723, 495.2827
1397.651, 493.5648
1399.580, 489.9445
1401.508, 487.8518
1403.437, 490.7905
1405.365, 492.9681
1407.294, 494.2120
1409.222, 494.5269
1411.151, 490.3434
1413.079, 481.5929
1415.008, 477.7464
1416.936, 482.4698
1418.865, 486.7465
1420.793, 486.9727
1422.722, 484.6950
1424.650, 483.4249
1426.578, 483.6848
1428.507, 485.3987
1430.435, 489.5976
1432.364, 493.3770
1434.292, 493.8049
1436.221, 490.0841
1438.149, 488.3488
1440.078, 490.0466
1442.006, 489.7360
1443.935, 484.0656
1445.863, 479.4810
1447.792, 479.6137
1449.720, 482.4210
1451.649, 486.2599
1453.577, 490.9996
1455.505, 490.9986
1457.434, 481.5612
1459.362, 475.0640
1461.291, 476.5492
1463.219, 480.6294
1465.148, 481.3849
1467.076, 478.0697
1469.005, 475.5675
1470.933, 472.4527
1472.862, 472.6704
1474.790, 480.2529
1476.719, 489.1288
1478.647, 492.3444
1480.576, 489.7337
1482.504, 486.0348
1484.432, 477.1471
1486.361, 472.6770
1488.289, 478.4673
1490.218, 487.3005
1492.146, 491.8966
1494.075, 492.0750
1496.003, 491.8680
1497.932, 492.1451
1499.860, 490.4613
1501.789, 484.3372
1503.717, 477.4955
1505.646, 471.7867
1507.574, 467.8900
1509.503, 469.6918
1511.431, 479.9942
1513.359, 487.8067
1515.288, 489.4623
1517.216, 488.4298
1519.145, 485.6225
1521.073, 482.0189
1523.002, 480.7047
1524.930, 482.1579
1526.859, 483.9373
1528.787, 486.1055
1530.716, 487.8474
1532.644, 486.5022
1534.573, 485.2074
1536.501, 491.6628
1538.430, 507.8341
1540.358, 517.1157
1542.286, 512.8060
1544.215, 506.6276
1546.143, 502.9450
1548.072, 501.6130
1550.000, 500.3423
1551.929, 498.2101
1553.857, 502.4912
1555.786, 522.8169
1557.714, 535.5168
1559.643, 527.0274
1561.571, 512.5914
1563.500, 509.2353
1565.428, 517.3601
1567.357, 517.5893
1569.285, 504.3016
1571.214, 492.8452
1573.142, 485.0437
1575.070, 480.9900
1576.999, 482.5747
1578.927, 487.8966
1580.856, 488.5868
1582.784, 480.4349
1584.713, 477.3832
1586.641, 483.8112
1588.570, 491.0909
1590.498, 497.2856
1592.427, 500.9681
1594.355, 498.5569
1596.284, 486.9727
1598.212, 480.4310
1600.141, 480.6491
1602.069, 484.1072
1603.997, 494.1389
1605.926, 503.2806
1607.854, 503.3118
1609.783, 494.5479
1611.711, 486.9209
1613.640, 477.1972
1615.568, 473.5561
1617.497, 482.5431
1619.425, 491.8870
1621.354, 493.9970
1623.282, 490.4489
1625.211, 485.3402
1627.139, 475.3846
1629.068, 473.8958
1630.996, 489.3552
1632.924, 502.3969
1634.853, 506.2172
1636.781, 504.8800
1638.710, 501.7667
1640.638, 496.8409
1642.567, 494.6706
1644.495, 498.0355
1646.424, 499.4583
1648.352, 496.6038
1650.281, 493.2629
1652.209, 491.3522
1654.138, 490.6629
1656.066, 491.3450
1657.995, 493.7875
1659.923, 496.2391
1661.851, 501.3666
1663.780, 502.9303
1665.708, 493.7072
1667.637, 484.5100
1669.565, 487.8860
1671.494, 501.9823
1673.422, 511.0861
1675.351, 514.0947
1677.279, 514.8574
1679.208, 513.1264
1681.136, 509.8393
1683.065, 502.4660
1684.993, 495.2674
1686.922, 496.3916
1688.850, 506.9556
1690.778, 512.0413
1692.707, 507.6046
1694.635, 503.9438
1696.564, 502.2493
1698.492, 501.8996
1700.421, 503.2096
1702.349, 505.4337
1704.278, 506.6076
1706.206, 506.1859
1708.135, 506.8137
1710.063, 509.9178
1711.992, 512.0760
1713.920, 512.3014
1715.849, 511.4893
1717.777, 508.7569
1719.705, 505.4405
1721.634, 507.7842
1723.562, 521.6470
1725.491, 527.0724
1727.419, 516.7456
1729.348, 507.7284
1731.276, 503.9917
1733.205, 504.7249
1735.133, 512.1433
1737.062, 524.4529
1738.990, 528.8117
1740.919, 517.9172
1742.847, 512.7675
1744.776, 518.4070
1746.704, 523.2247
1748.632, 521.8932
1750.561, 518.8721
1752.489, 519.2372
1754.418, 522.6130
1756.346, 524.8488
1758.275, 525.2625
1760.203, 526.0293
1762.132, 529.0956
1764.060, 530.2095
1765.989, 524.8849
1767.917, 519.1663
1769.846, 522.1398
1771.774, 532.2693
1773.703, 531.3376
1775.631, 512.2361
1777.559, 503.1900
1779.488, 516.0325
1781.416, 527.5756
1783.345, 527.6044
1785.273, 524.9131
1787.202, 528.9917
1789.130, 538.4361
1791.059, 544.5859
1792.987, 547.5867
1794.916, 545.8400
1796.844, 533.7999
1798.773, 526.1603
1800.701, 532.2975
1802.630, 541.7690
1804.558, 547.4704
1806.486, 549.7499
1808.415, 549.1173
1810.343, 545.3484
1812.272, 541.5818
1814.200, 536.5262
1816.129, 535.5282
1818.057, 545.7605
1819.986, 555.1934
1821.914, 553.6359
1823.843, 545.7045
1825.771, 538.6774
1827.700, 532.7114
1829.628, 531.0895
1831.557, 535.5364
1833.485, 540.3336
1835.413, 545.1435
1837.342, 548.5418
1839.270, 548.1049
1841.199, 546.7905
1843.127, 550.1501
1845.056, 557.5365
1846.984, 558.7312
1848.913, 548.8782
1850.841, 546.7128
1852.770, 564.6700
1854.698, 577.0000
1856.627, 570.9214
1858.555, 558.5754
1860.484, 548.5295
1862.412, 541.7998
1864.340, 543.8434
1866.269, 560.4761
1868.197, 564.8812
1870.126, 544.2486
1872.054, 530.4413
1873.983, 531.7174
1875.911, 536.6954
1877.840, 539.1845
1879.768, 541.3525
1881.697, 548.1107
1883.625, 559.3298
1885.554, 562.0840
1887.482, 552.9518
1889.411, 548.2589
1891.339, 553.6490
1893.267, 558.0024
1895.196, 554.1245
1897.124, 550.7142
1899.053, 557.2054
1900.981, 567.8099
1902.910, 568.9094
1904.838, 560.8931
1906.767, 555.8333
1908.695, 555.4159
1910.624, 555.3569
1912.552, 552.8574
1914.481, 553.0917
1916.409, 561.9445
1918.338, 571.9265
1920.266, 574.7749
1922.194, 572.5305
1924.123, 572.4124
1926.051, 575.2268
1927.980, 574.2661
1929.908, 565.0066
1931.837, 559.0078
1933.765, 559.4648
1935.694, 561.5919
1937.622, 563.8101
1939.551, 565.9619
1941.479, 568.2416
1943.408, 570.3438
1945.336, 570.3979
1947.265, 567.3848
1949.193, 566.8908
1951.121, 570.0991
1953.050, 573.8107
1954.978, 581.7072
1956.907, 584.3943
1958.835, 569.5928
1960.764, 554.0276
1962.692, 560.0046
1964.621, 579.0126
1966.549, 582.1075
1968.478, 568.3765
1970.406, 567.1966
1972.335, 587.5374
1974.263, 601.4837
1976.192, 596.6177
1978.120, 590.8922
1980.048, 593.0503
1981.977, 597.8236
1983.905, 601.4776
1985.834, 603.4177
1987.762, 601.2837
1989.691, 594.4435
1991.619, 589.6842
1993.548, 586.4861
1995.476, 586.2753
1997.405, 591.6873
1999.333, 596.5203
2001.262, 599.0798
2003.190, 600.2186
2005.119, 599.1535
2007.047, 597.8020
2008.975, 600.1409
2010.904, 605.6722
2012.832, 610.6909
2014.761, 615.5646
2016.689, 615.3662
2018.618, 606.9267
2020.546, 599.9740
2022.475, 599.1217
2024.403, 598.5321
2026.332, 593.8185
2028.260, 588.6324
2030.189, 587.4436
2032.117, 588.9011
2034.046, 588.5893
2035.974, 586.0736
2037.902, 586.1754
2039.831, 590.3534
2041.759, 594.5933
2043.688, 599.9719
2045.616, 603.7342
2047.545, 603.7087
2049.473, 603.4120
2051.402, 606.6475
2053.330, 609.8568
2055.259, 606.0184
2057.187, 597.7676
2059.116, 597.4376
2061.044, 605.3221
2062.973, 611.0108
2064.901, 613.4456
2066.829, 613.8934
2068.758, 611.1724
2070.686, 609.0745
2072.615, 609.0751
2074.543, 610.2776
2076.472, 613.4103
2078.400, 616.4706
2080.329, 615.0493
2082.257, 610.6951
2084.186, 612.4626
2086.114, 623.1152
2088.042, 626.0068
2089.971, 616.7706
2091.899, 610.0684
2093.828, 608.2440
2095.756, 608.0739
2097.685, 608.4141
2099.613, 610.2423
2101.542, 617.7244
2103.470, 624.2300
2105.399, 620.0336
2107.327, 609.3737
2109.256, 601.8155
2111.184, 597.5770
2113.113, 603.5040
2115.041, 626.3614
2116.969, 639.0952
2118.898, 631.3283
2120.826, 625.5666
2122.755, 630.0197
2124.683, 632.4702
2126.612, 622.1824
2128.540, 612.2307
2130.469, 617.0005
2132.397, 629.0477
2134.326, 634.5787
2136.254, 634.5671
2138.183, 633.5164
2140.111, 631.5370
2142.040, 629.7354
2143.968, 628.2649
2145.896, 626.7252
2147.825, 620.7544
2149.753, 621.5324
2151.682, 641.1884
2153.610, 658.0588
2155.539, 658.0393
2157.467, 650.2739
2159.396, 641.5389
2161.324, 633.5061
2163.253, 630.0231
2165.181, 630.9268
2167.110, 634.9766
2169.038, 642.4518
2170.967, 648.8688
2172.895, 654.5321
2174.823, 655.7171
2176.752, 649.0150
2178.680, 642.9662
2180.609, 642.5259
2182.537, 641.2130
2184.466, 630.7946
2186.394, 622.2288
2188.323, 630.3213
2190.251, 645.6456
2192.180, 649.9446
2194.108, 644.8725
2196.037, 641.2520
2197.965, 639.0781
2199.894, 638.4593
2201.822, 639.1445
2203.750, 643.9291
2205.679, 657.8154
2207.607, 662.9828
2209.536, 642.7234
2211.464, 629.3907
2213.393, 645.8038
2215.321, 663.9017
2217.250, 662.1555
2219.178, 651.8989
2221.107, 644.3337
2223.035, 640.2257
2224.964, 643.4594
2226.892, 653.1325
2228.821, 657.0021
2230.749, 654.7325
2232.677, 653.4299
2234.606, 653.1299
2236.534, 657.3766
2238.463, 671.0703
2240.391, 679.4904
2242.320, 676.0969
2244.248, 669.6985
2246.177, 659.7596
2248.105, 652.7996
2250.034, 657.9272
2251.962, 664.4606
2253.891, 657.5029
2255.819, 644.0618
2257.748, 637.7671
2259.676, 638.3770
2261.604, 648.3245
2263.533, 666.6786
2265.461, 671.9501
2267.390, 659.1837
2269.318, 653.7096
2271.247, 664.7526
2273.175, 671.2100
2275.104, 665.9544
2277.032, 662.2230
2278.961, 667.7083
2280.889, 670.0664
2282.818, 658.0026
2284.746, 646.5137
2286.675, 648.5992
2288.603, 656.0212
2290.531, 659.1837
2292.460, 660.5186
2294.388, 665.6800
2296.317, 673.6602
2298.245, 678.4952
2300.174, 679.7871
2302.102, 682.8477
2304.031, 689.8786
2305.959, 690.7355
2307.888, 680.9985
2309.816, 677.5560
2311.745, 684.6076
2313.673, 694.4075
2315.602, 705.2336
2317.530, 717.1281
2319.458, 732.3640
2321.387, 745.8726
2323.315, 749.0027
2325.244, 754.0846
2327.172, 781.1450
2329.101, 812.4067
2331.029, 819.0450
2332.958, 808.0762
2334.886, 798.6806
2336.815, 790.1777
2338.743, 778.7436
2340.672, 764.3590
2342.600, 749.3459
2344.529, 733.8649
2346.457, 717.5283
2348.385, 697.2845
2350.314, 681.9517
2352.242, 670.5397
2354.171, 666.9083
2356.099, 677.6159
2358.028, 686.3441
2359.956, 688.4847
2361.885, 686.4948
2363.813, 676.7950
2365.742, 669.0991
2367.670, 672.9702
2369.599, 680.4449
2371.527, 683.2371
2373.456, 683.3675
2375.384, 683.1183
2377.313, 683.3028
2379.241, 686.9940
2381.169, 693.5347
2383.098, 699.7022
2385.026, 705.1705
2386.955, 705.8092
2388.883, 700.9556
2390.812, 696.2744
2392.740, 690.4711
2394.669, 689.7689
2396.597, 700.6283
2398.526, 705.9485
2400.454, 700.3621
2402.383, 696.8591
2404.311, 698.8728
2406.240, 702.5681
2408.168, 708.3136
2410.096, 712.5122
2412.025, 712.4846
2413.953, 710.9680
2415.882, 708.9255
2417.810, 707.4089
2419.739, 707.9062
2421.667, 709.2381
2423.596, 709.8613
2425.524, 710.0287
2427.453, 711.0398
2429.381, 711.8334
2431.310, 708.1331
2433.238, 701.0156
2435.167, 698.6050
2437.095, 701.1356
2439.023, 701.3229
2440.952, 698.1158
2442.880, 698.0755
2444.809, 702.0181
2446.737, 704.7790
2448.666, 705.9794
2450.594, 704.9221
2452.523, 699.2778
2454.451, 697.3022
2456.380, 704.0966
2458.308, 709.6703
2460.237, 709.9235
2462.165, 711.2665
2464.094, 719.2756
2466.022, 723.8390
2467.950, 717.5218
2469.879, 710.8370
2471.807, 709.6976
2473.736, 711.6796
2475.664, 717.6201
2477.593, 722.9199
2479.521, 722.6400
2481.450, 718.8785
2483.378, 711.9642
2485.307, 705.2063
2487.235, 706.2421
2489.164, 711.4707
2491.092, 712.2341
2493.021, 710.1312
2494.949, 711.7896
2496.877, 716.4001
2498.806, 716.2391
2500.734, 711.0901
2502.663, 710.5606
2504.591, 714.7222
2506.520, 718.9077
2508.448, 722.9901
2510.377, 724.7275
2512.305, 724.4563
2514.234, 719.0338
2516.162, 699.7961
2518.091, 691.8162
2520.019, 700.5211
2521.948, 707.9531
2523.876, 710.8919
2525.804, 716.0718
2527.733, 728.1981
2529.661, 735.1028
2531.590, 729.6745
2533.518, 723.2815
2535.447, 718.9734
2537.375, 715.0926
2539.304, 710.1381
2541.232, 706.7717
2543.161, 708.6384
2545.089, 708.6522
2547.018, 698.4047
2548.946, 690.1545
2550.875, 695.2519
2552.803, 702.6868
2554.731, 701.2788
2556.660, 699.8333
2558.588, 709.9590
2560.517, 721.8903
2562.445, 721.1153
2564.374, 719.1201
2566.302, 736.0531
2568.231, 756.8148
2570.159, 755.0132
2572.088, 740.6216
2574.016, 731.3704
2575.945, 726.4558
2577.873, 723.9633
2579.802, 724.1115
2581.730, 731.1746
2583.658, 740.7925
2585.587, 733.3066
2587.515, 713.5412
2589.444, 713.0951
2591.372, 729.5436
2593.301, 729.8929
2595.229, 716.6284
2597.158, 712.2226
2599.086, 716.7314
2601.015, 719.1464
2602.943, 718.6791
2604.872, 722.4026
2606.800, 731.6923
2608.729, 737.1270
2610.657, 738.6624
2612.585, 734.9595
2614.514, 725.0547
2616.442, 726.9744
2618.371, 746.9637
2620.299, 756.9630
2622.228, 752.9442
2624.156, 744.4015
2626.085, 728.8674
2628.013, 720.6566
2629.942, 722.3488
2631.870, 724.4571
2633.799, 725.1366
2635.727, 727.2929
2637.656, 733.8903
2639.584, 737.0912
2641.512, 735.7465
2643.441, 733.1158
2645.369, 729.4116
2647.298, 725.0134
2649.226, 718.0389
2651.155, 715.6217
2653.083, 722.6411
2655.012, 728.5607
2656.940, 732.1423
2658.869, 734.4210
2660.797, 737.0411
2662.726, 733.5923
2664.654, 715.3679
2666.583, 706.5368
2668.511, 720.7205
2670.439, 733.6929
2672.368, 742.0948
2674.296, 744.6741
2676.225, 736.5944
2678.153, 734.0527
2680.082, 748.9571
2682.010, 756.6702
2683.939, 743.3461
2685.867, 731.2986
2687.796, 724.6188
2689.724, 723.7585
2691.653, 730.6618
2693.581, 739.4416
2695.510, 750.6986
2697.438, 758.5236
2699.366, 760.4133
2701.295, 759.2807
2703.223, 752.4866
2705.152, 748.8336
2707.080, 752.2414
2709.009, 755.4367
2710.937, 757.1859
2712.866, 755.7114
2714.794, 748.3239
2716.723, 740.9774
2718.651, 734.3116
2720.580, 729.8510
2722.508, 728.6217
2724.437, 728.2797
2726.365, 727.2699
2728.293, 728.1816
2730.222, 732.8344
2732.150, 737.7922
2734.079, 742.5674
2736.007, 746.8070
2737.936, 750.4413
2739.864, 753.4680
2741.793, 759.1719
2743.721, 758.6644
2745.650, 740.0134
2747.578, 733.1054
2749.507, 750.6161
2751.435, 759.4294
2753.364, 746.3966
2755.292, 736.6595
2757.220, 738.7532
2759.149, 742.0430
2761.077, 746.2527
2763.006, 748.1820
2764.934, 745.8290
2766.863, 747.2421
2768.791, 757.7781
2770.720, 761.6879
2772.648, 749.0264
2774.577, 743.3477
2776.505, 748.0023
2778.434, 752.5286
2780.362, 755.8139
2782.291, 757.9210
2784.219, 759.1400
2786.147, 757.8146
2788.076, 751.2834
2790.004, 752.0497
2791.933, 762.5557
2793.861, 762.1650
2795.790, 746.6550
2797.718, 742.5890
2799.647, 757.1115
2801.575, 759.7358
2803.504, 748.3347
2805.432, 749.4872
2807.361, 763.4611
2809.289, 762.2606
2811.218, 743.5877
2813.146, 740.5937
2815.074, 753.5745
2817.003, 757.2903
2818.931, 752.9398
2820.860, 749.5526
2822.788, 747.7535
2824.717, 749.1218
2826.645, 753.6400
2828.574, 764.6110
2830.502, 778.1487
2832.431, 775.8267
2834.359, 764.1461
2836.288, 758.9691
2838.216, 757.9368
2840.145, 755.9432
2842.073, 754.0880
2844.001, 755.7881
2845.930, 757.9998
2847.858, 753.2368
2849.787, 749.0255
2851.715, 760.2446
2853.644, 771.3857
2855.572, 759.9141
2857.501, 745.0459
2859.429, 744.5415
2861.358, 748.3484
2863.286, 750.5048
2865.215, 751.9003
2867.143, 754.3400
2869.072, 754.2875
2871.000, 743.9799
2872.928, 741.0577
2874.857, 763.9366
2876.785, 779.2234
2878.714, 764.9466
2880.642, 756.1758
2882.571, 766.4443
2884.499, 771.5306
2886.428, 763.0272
2888.356, 757.1785
2890.285, 761.1321
2892.213, 761.7881
2894.142, 756.7360
2896.070, 754.0271
2897.999, 754.3739
2899.927, 757.3842
2901.855, 763.7103
2903.784, 769.3467
2905.712, 774.9131
2907.641, 769.8310
2909.569, 756.3138
2911.498, 766.4149
2913.426, 795.2527
2915.355, 793.7658
2917.283, 771.0334
2919.212, 771.3937
2921.140, 785.5236
2923.069, 790.8185
2924.997, 787.7241
2926.926, 768.8251
2928.854, 749.3527
2930.782, 756.3779
2932.711, 771.6713
2934.639, 779.0376
2936.568, 779.9594
2938.496, 772.8789
2940.425, 763.5277
2942.353, 748.5420
2944.282, 744.6052
2946.210, 769.4243
2948.139, 786.1462
2950.067, 771.2970
2951.996, 757.9714
2953.924, 752.9826
2955.853, 756.6933
2957.781, 772.5127
2959.709, 783.3448
2961.638, 785.6064
2963.566, 783.5294
2965.495, 776.6015
2967.423, 770.1872
2969.352, 764.3695
2971.280, 755.8224
2973.209, 744.9344
2975.137, 739.8732
2977.066, 740.1555
2978.994, 744.1428
2980.923, 750.3214
2982.851, 755.2527
2984.780, 758.7764
2986.708, 759.7668
2988.636, 759.9505
2990.565, 761.3994
2992.493, 763.5698
2994.422, 766.8409
2996.350, 769.3770
2998.279, 769.3919
3000.207, 769.0052
3002.136, 768.9619
3004.064, 769.3542
3005.993, 771.3588
3007.921, 771.0814
3009.850, 764.0267
3011.778, 762.2377
3013.707, 768.2274
3015.635, 768.9324
3017.563, 762.0372
3019.492, 762.5447
3021.420, 771.6676
3023.349, 773.8425
3025.277, 770.1387
3027.206, 766.5701
3029.134, 763.3881
3031.063, 758.9767
3032.991, 756.7042
3034.920, 768.3379
3036.848, 780.6337
3038.777, 774.9726
3040.705, 766.7294
3042.634, 768.9117
3044.562, 773.5631
3046.490, 779.2138
3048.419, 779.8806
3050.347, 767.9355
3052.276, 762.6586
3054.204, 778.2642
3056.133, 782.6856
3058.061, 771.0472
3059.990, 763.7711
3061.918, 763.4721
3063.847, 761.6705
3065.775, 758.0784
3067.704, 755.8174
3069.632, 755.3412
3071.561, 761.1011
3073.489, 768.4595
3075.417, 764.8530
3077.346, 758.9919
3079.274, 766.7541
3081.203, 774.6496
3083.131, 769.0379
3085.060, 762.8746
3086.988, 766.8842
3088.917, 766.9606
3090.845, 753.7544
3092.774, 751.0474
3094.702, 774.6602
3096.631, 782.2341
3098.559, 764.0705
3100.488, 765.1821
3102.416, 786.2095
3104.344, 791.3620
3106.273, 782.7714
3108.201, 784.7624
3110.130, 791.9311
3112.058, 784.7396
3113.987, 776.2853
3115.915, 791.2935
3117.844, 806.1089
3119.772, 791.3308
3121.701, 777.8979
3123.629, 787.2806
3125.558, 791.7394
3127.486, 774.1523
3129.415, 761.8533
3131.343, 758.2241
3133.271, 762.5242
3135.200, 776.1680
3137.128, 778.5659
3139.057, 769.5347
3140.985, 775.5568
3142.914, 789.1197
3144.842, 781.7908
3146.771, 766.7252
3148.699, 767.0472
3150.628, 772.4207
3152.556, 772.9072
3154.485, 772.6248
3156.413, 770.8901
3158.342, 774.9774
3160.270, 793.9025
3162.198, 802.9423
3164.127, 796.6673
3166.055, 786.0666
3167.984, 770.2787
3169.912, 765.9636
3171.841, 771.2075
3173.769, 767.8087
3175.698, 760.9257
3177.626, 767.4069
3179.555, 778.5831
3181.483, 782.9100
3183.412, 782.6617
3185.340, 773.6673
3187.269, 770.2040
3189.197, 786.1744
3191.125, 797.4189
3193.054, 799.8147
3194.982, 793.4255
3196.911, 773.7888
3198.839, 761.5318
3200.768, 756.5809
3202.696, 759.0817
3204.625, 767.3904
3206.553, 779.0983
3208.482, 789.7529
3210.410, 788.6461
3212.339, 786.9028
3214.267, 798.1386
3216.196, 804.6630
3218.124, 791.7906
3220.052, 782.9802
3221.981, 783.9924
3223.909, 782.6466
3225.838, 775.1426
3227.766, 775.6649
3229.695, 782.9077
3231.623, 786.4319
3233.552, 785.1151
3235.480, 771.2771
3237.409, 757.1528
3239.337, 758.5389
3241.266, 768.7905
3243.194, 794.6511
3245.123, 808.9276
3247.051, 795.4416
3248.979, 785.1892
3250.908, 782.8145
3252.836, 782.4197
3254.765, 783.3924
3256.693, 788.6590
3258.622, 795.3989
3260.550, 792.2799
3262.479, 784.7968
3264.407, 780.6169
3266.336, 777.1390
3268.264, 770.5875
3270.193, 767.4363
3272.121, 770.8620
3274.050, 779.4941
3275.978, 795.8185
3277.906, 796.4082
3279.835, 779.0480
3281.763, 780.1949
3283.692, 794.8091
3285.620, 802.3395
3287.549, 802.4043
3289.477, 791.0697
3291.406, 777.7035
3293.334, 766.6337
3295.263, 762.7813
3297.191, 772.9016
3299.120, 775.3309
3301.048, 758.9087
3302.977, 767.8921
3304.905, 799.1744
3306.833, 802.3341
3308.762, 787.5799
3310.690, 785.6061
3312.619, 786.8582
3314.547, 775.7946
3316.476, 769.2485
3318.404, 783.8395
3320.333, 794.7504
3322.261, 795.8418
3324.190, 794.4599
3326.118, 790.9794
3328.047, 790.6469
3329.975, 792.9466
3331.904, 794.6431
3333.832, 796.9493
3335.760, 805.3090
3337.689, 810.5015
3339.617, 802.0334
3341.546, 794.6855
3343.474, 797.1533
3345.403, 796.4947
3347.331, 791.0557
3349.260, 784.9207
3351.188, 779.3918
3353.117, 786.1336
3355.045, 796.5044
3356.974, 784.5594
3358.902, 772.1725
3360.831, 781.8763
3362.759, 793.9354
3364.688, 804.1105
3366.616, 800.5100
3368.544, 774.5189
3370.473, 771.5308
3372.401, 791.4271
3374.330, 804.9603
3376.258, 808.6612
3378.187, 785.4235
3380.115, 763.6050
3382.044, 775.9406
3383.972, 791.5377
3385.901, 800.2330
3387.829, 802.4542
3389.758, 798.2601
3391.686, 788.9319
3393.615, 776.2313
3395.543, 773.1985
3397.471, 775.6335
3399.400, 773.6506
3401.328, 774.1188
3403.257, 782.7662
3405.185, 796.7205
3407.114, 821.2679
3409.042, 823.4120
3410.971, 794.0714
3412.899, 779.5514
3414.828, 778.4949
3416.756, 782.6547
3418.685, 787.8115
3420.613, 786.5458
3422.542, 786.4819
3424.470, 794.0276
3426.398, 798.7855
3428.327, 797.3666
3430.255, 791.8217
3432.184, 782.8035
3434.112, 781.1422
3436.041, 783.6733
3437.969, 780.7732
3439.898, 779.7023
3441.826, 788.1699
3443.755, 798.3808
3445.683, 811.9006
3447.612, 813.7624
3449.540, 802.4899
3451.469, 789.9092
3453.397, 779.9997
3455.325, 794.8924
3457.254, 813.0022
3459.182, 803.1996
3461.111, 791.5562
3463.039, 793.6589
3464.968, 798.3597
3466.896, 805.0898
3468.825, 803.6669
3470.753, 794.9783
3472.682, 790.0930
3474.610, 789.6388
3476.539, 799.0579
3478.467, 805.3331
3480.396, 797.2084
3482.324, 788.5238
3484.252, 780.2423
3486.181, 786.3505
3488.109, 805.2639
3490.038, 801.1989
3491.966, 788.5356
3493.895, 797.9080
3495.823, 809.7318
3497.752, 810.4817
3499.680, 808.0271
3501.609, 803.6464
3503.537, 799.0433
3505.466, 794.6580
3507.394, 795.0850
3509.323, 798.9631
3511.251, 807.5958
3513.179, 812.1017
3515.108, 800.9835
3517.036, 794.2233
3518.965, 797.6100
3520.893, 804.1035
3522.822, 812.5646
3524.750, 816.2621
3526.679, 816.5068
3528.607, 815.0409
3530.536, 813.0015
3532.464, 810.3138
3534.393, 809.4815
3536.321, 811.6511
3538.250, 807.7875
3540.178, 798.8896
3542.106, 801.6881
3544.035, 810.0654
3545.963, 816.1078
3547.892, 820.7414
3549.820, 828.6066
3551.749, 822.1202
3553.677, 794.3622
3555.606, 787.6750
3557.534, 798.4413
3559.463, 801.6420
3561.391, 802.8376
3563.320, 812.7762
3565.248, 813.4347
3567.177, 792.2766
3569.105, 789.2792
3571.033, 813.4503
3572.962, 818.5629
3574.890, 809.8067
3576.819, 794.5464
3578.747, 783.7505
3580.676, 790.1485
3582.604, 796.1298
3584.533, 795.5565
3586.461, 798.2388
3588.390, 803.9468
3590.318, 809.4348
3592.247, 812.5189
3594.175, 808.7879
3596.104, 802.5892
3598.032, 793.6840
3599.960, 790.8240
3601.889, 795.6771
3603.817, 801.0154
3605.746, 804.6160
3607.674, 796.2078
3609.603, 791.3115
3611.531, 808.4742
3613.460, 818.3412
3615.388, 804.1748
3617.317, 803.5375
3619.245, 813.6408
3621.174, 817.7198
3623.102, 815.3193
3625.031, 798.3102
3626.959, 787.9846
3628.887, 798.3109
3630.816, 808.8754
3632.744, 817.8746
3634.673, 815.9816
3636.601, 809.1446
3638.530, 809.7662
3640.458, 810.8223
3642.387, 807.5760
3644.315, 803.9291
3646.244, 800.3157
3648.172, 799.8496
3650.101, 801.6315
3652.029, 804.7164
3653.958, 804.5957
3655.886, 793.8027
3657.814, 788.4900
3659.743, 793.8400
3661.671, 804.7465
3663.600, 816.1843
3665.528, 799.8318
3667.457, 782.5358
3669.385, 800.3259
3671.314, 813.5034
3673.242, 803.2405
3675.171, 795.2758
3677.099, 790.9312
3679.028, 790.8969
3680.956, 794.5050
3682.885, 808.5757
3684.813, 810.5813
3686.741, 771.8925
3688.670, 771.5652
3690.598, 805.7172
3692.527, 805.1286
3694.455, 790.0225
3696.384, 790.8981
3698.312, 798.3640
3700.241, 815.3719
3702.169, 819.2117
3704.098, 810.0359
3706.026, 802.8459
3707.955, 797.5744
3709.883, 795.0669
3711.812, 791.3765
3713.740, 784.3137
3715.668, 774.2240
3717.597, 762.5810
3719.525, 771.2065
3721.454, 783.6037
3723.382, 767.9310
3725.311, 752.0447
3727.239, 746.4338
3729.168, 752.1780
3731.096, 767.4249
3733.025, 776.9425
3734.953, 780.8816
3736.882, 773.7861
3738.810, 772.1027
3740.739, 789.3813
3742.667, 789.2213
3744.595, 773.5247
3746.524, 773.8143
3748.452, 780.0608
3750.381, 782.0819
3752.309, 778.0845
3754.238, 762.3090
3756.166, 761.5880
3758.095, 773.8322
3760.023, 787.2524
3761.952, 793.9855
3763.880, 776.9391
3765.809, 767.2183
3767.737, 776.5219
3769.666, 775.7593
3771.594, 768.3351
3773.522, 767.5462
3775.451, 771.8616
3777.379, 787.3440
3779.308, 787.0688
3781.236, 761.3726
3783.165, 744.4821
3785.093, 739.6499
3787.022, 762.4960
3788.950, 780.6282
3790.879, 773.9091
3792.807, 760.5571
3794.736, 743.7387
3796.664, 757.1592
3798.593, 778.5640
3800.521, 773.8810
3802.449, 769.6889
3804.378, 777.1072
3806.306, 777.3086
3808.235, 769.2406
3810.163, 747.7522
3812.092, 734.7410
3814.020, 762.6820
3815.949, 777.1464
3817.877, 767.2504
3819.806, 759.2555
3821.734, 755.8788
3823.663, 765.4836
3825.591, 773.2736
3827.520, 765.5131
3829.448, 767.2737
3831.376, 778.8111
3833.305, 784.7460
3835.233, 783.3312
3837.162, 766.0466
3839.090, 755.8331
3841.019, 765.1153
3842.947, 770.5170
3844.876, 772.4020
3846.804, 774.1289
3848.733, 773.6392
3850.661, 770.3274
3852.590, 759.4807
3854.518, 739.1191
3856.447, 763.1279
3858.375, 796.2052
3860.303, 781.0915
3862.232, 761.5399
3864.160, 750.3967
3866.089, 755.1681
3868.017, 769.0934
3869.946, 762.8912
3871.874, 754.4926
3873.803, 760.1086
3875.731, 757.6057
3877.660, 744.1951
3879.588, 740.1531
3881.517, 742.4014
3883.445, 746.4985
3885.374, 755.0142
3887.302, 770.3650
3889.230, 768.3669
3891.159, 755.8881
3893.087, 757.7216
3895.016, 759.9771
3896.944, 751.6226
3898.873, 752.7694
3900.801, 761.1630
3902.730, 749.6807
3904.658, 735.6674
3906.587, 740.1042
3908.515, 743.6202
3910.444, 740.4725
3912.372, 743.9879
3914.301, 745.9127
3916.229, 732.1642
3918.157, 723.6922
3920.086, 726.8164
3922.014, 720.0526
3923.943, 710.1193
3925.871, 725.0213
3927.800, 738.9740
3929.728, 735.3114
3931.657, 731.5540
3933.585, 731.1348
3935.514, 721.3903
3937.442, 711.1507
3939.371, 719.8710
3941.299, 721.4087
3943.228, 709.6202
3945.156, 710.3252
3947.084, 723.8806
3949.013, 735.8915
3950.941, 735.7574
3952.870, 721.8312
3954.798, 721.0065
3956.727, 726.9863
3958.655, 731.6752
3960.584, 739.7961
3962.512, 732.5569
3964.441, 717.2222
3966.369, 714.4587
3968.298, 715.8958
3970.226, 719.8709
3972.155, 729.5798
3974.083, 726.6813
3976.011, 715.4485
3977.940, 720.2379
3979.868, 722.4869
3981.797, 712.5596
3983.725, 705.1989
3985.654, 695.2217
3987.582, 694.7662
3989.511, 700.9384
3991.439, 700.2834
3993.368, 703.5047
3995.296, 716.1769
3997.225, 714.1899
3999.153, 704.3251
4001.082, 695.3990
4003.010, 698.0774
4004.938, 716.1329
4006.867, 710.2163
4008.795, 697.4182
4010.724, 699.4495
4012.652, 708.6592
4014.581, 714.0173
4016.509, 702.5557
4018.438, 694.9952
4020.366, 678.9790
4022.295, 672.6985
4024.223, 692.9305
4026.152, 698.9393
4028.080, 693.6243
4030.009, 694.7976
4031.937, 696.9778
4033.865, 692.1688
4035.794, 697.1202
4037.722, 699.8707
4039.651, 695.6029
4041.579, 695.2241
4043.508, 689.2734
4045.436, 685.2039
4047.365, 684.5973
4049.293, 686.9572
4051.222, 687.6428
4053.150, 680.7179
4055.079, 681.2161
4057.007, 686.8673
4058.936, 689.7897
4060.864, 692.3416
4062.792, 697.6504
4064.721, 694.0307
4066.649, 685.6534
4068.578, 675.7569
4070.506, 674.2657
4072.435, 690.9370
4074.363, 696.5013
4076.292, 691.3007
4078.220, 690.5915
4080.149, 689.5443
4082.077, 684.1083
4084.006, 680.8823
4085.934, 680.8704
4087.863, 684.1693
4089.791, 685.0571
4091.719, 672.2058
4093.648, 675.6636
4095.576, 692.9744
4097.505, 686.2877
4099.433, 675.5088
4101.362, 667.0258
4103.290, 665.3867
4105.219, 670.0190
4107.147, 667.8587
4109.076, 668.0685
4111.004, 670.0123
4112.933, 669.7618
4114.861, 675.6461
4116.790, 672.3913
4118.718, 658.7186
4120.646, 664.6019
4122.575, 667.5461
4124.503, 655.4460
4126.432, 667.0635
4128.360, 683.1603
4130.289, 676.3851
4132.217, 675.3640
4134.146, 683.9771
4136.074, 686.3932
4138.002, 679.6142
4139.931, 668.0367
4141.859, 667.8638
4143.788, 689.4193
4145.716, 684.1910
4147.645, 662.0654
4149.573, 665.3326
4151.502, 671.2225
4153.430, 667.1752
4155.359, 670.8669
4157.287, 679.2129
4159.216, 671.7290
4161.144, 660.9144
4163.073, 668.5587
4165.001, 675.0715
4166.930, 675.8143
4168.858, 679.2535
4170.787, 679.4386
4172.715, 670.4568
4174.644, 663.2225
4176.572, 665.0336
4178.500, 684.3315
4180.429, 697.9715
4182.357, 691.3174
4184.286, 684.1625
4186.214, 680.9410
4188.143, 679.5522
4190.071, 682.4045
4192.000, 689.4208
4193.928, 691.9126
4195.856, 689.0457
4197.785, 684.8453
4199.713, 683.8107
4201.642, 676.6243
4203.570, 683.7596
4205.499, 700.8997
4207.427, 695.1516
4209.356, 687.7679
4211.284, 683.3393
4213.213, 688.5468
4215.141, 702.4597
4217.070, 700.6573
4218.998, 696.6036
4220.927, 699.7393
4222.855, 699.6184
4224.784, 698.1212
4226.712, 709.3304
4228.641, 713.9540
4230.569, 696.2943
4232.498, 694.2382
4234.426, 703.6948
4236.354, 711.7295
4238.283, 720.3629
4240.211, 734.2685
4242.140, 726.5311
4244.068, 708.2378
4245.997, 700.7504
4247.925, 697.7631
4249.854, 697.6611
4251.782, 709.3481
4253.710, 724.2595
4255.639, 729.0906
4257.567, 734.2891
4259.496, 742.2208
4261.424, 741.6155
4263.353, 736.1741
4265.281, 722.4040
4267.210, 730.2941
4269.138, 759.0438
4271.067, 735.9481
4272.995, 708.2977
4274.924, 716.7548
4276.852, 723.1943
4278.781, 725.8126
4280.709, 733.1039
4282.638, 741.2903
4284.566, 749.6346
4286.495, 750.5694
4288.423, 747.0897
4290.352, 747.4893
4292.280, 748.1431
4294.208, 747.2451
4296.137, 751.5509
4298.065, 759.1342
4299.994, 769.9716
4301.922, 773.3976
4303.851, 766.7188
4305.779, 772.4709
4307.708, 776.3820
4309.636, 759.9976
4311.564, 756.8777
4313.493, 769.9915
4315.421, 799.5576
4317.350, 815.8087
4319.278, 798.4072
4321.207, 787.4185
4323.135, 783.0551
4325.064, 778.3109
4326.992, 771.5293
4328.921, 761.9540
4330.849, 769.5458
4332.778, 780.2422
4334.706, 767.7668
4336.635, 771.6877
4338.563, 792.4670
4340.492, 768.4277
4342.420, 750.6991
4344.349, 783.6207
4346.277, 814.4698
4348.206, 830.2917
4350.134, 796.2308
4352.063, 775.8726
4353.991, 800.2197
4355.919, 800.7695
4357.848, 790.7935
4359.776, 792.2624
4361.705, 803.2504
4363.633, 821.8167
4365.562, 814.8345
4367.490, 805.9302
4369.418, 821.2966
4371.347, 820.3540
4373.275, 808.8561
4375.204, 819.1198
4377.132, 825.9592
4379.061, 819.0364
4380.989, 804.5898
4382.918, 792.3048
4384.846, 796.4008
4386.775, 803.2716
4388.703, 810.1715
4390.632, 820.6917
4392.560, 818.8558
4394.489, 791.1077
4396.417, 784.3508
4398.346, 795.9760
4400.274, 824.4857
4402.203, 829.8138
4404.131, 805.3035
4406.060, 805.2460
4407.988, 816.5938
4409.917, 830.9377
4411.845, 830.2788
4413.773, 820.7235
4415.702, 833.0612
4417.630, 837.4903
4419.559, 816.1640
4421.487, 809.7656
4423.416, 817.4106
4425.344, 847.6612
4427.272, 862.3385
4429.201, 858.4384
4431.129, 849.3913
4433.058, 830.2195
4434.986, 795.6758
4436.915, 798.0703
4438.843, 818.2285
4440.772, 830.4384
4442.700, 829.5373
4444.629, 818.1841
4446.557, 810.1426
4448.486, 809.7815
4450.414, 824.6852
4452.343, 809.1393
4454.271, 785.6188
4456.200, 797.0958
4458.128, 813.4304
4460.057, 827.5932
4461.985, 824.7352
4463.914, 820.4731
4465.842, 824.9146
4467.771, 819.0179
4469.699, 811.6729
4471.627, 821.9159
4473.556, 828.7275
4475.484, 828.5529
4477.413, 819.6511
4479.341, 816.2673
4481.270, 827.5469
4483.198, 836.2693
4485.126, 837.2250
4487.055, 818.0654
4488.983, 807.3043
4490.912, 808.2986
4492.840, 809.7660
4494.769, 817.3039
4496.697, 836.1674
4498.626, 829.7302
4500.554, 815.0615
4502.483, 812.7133
4504.411, 815.0303
4506.340, 819.1787
4508.268, 819.1801
4510.197, 821.8853
4512.125, 830.3752
4514.054, 819.5655
4515.982, 806.4699
4517.911, 811.9327
4519.839, 811.9802
4521.768, 808.3498
4523.696, 811.2025
4525.625, 813.1418
4527.553, 812.1071
4529.481, 804.6010
4531.410, 796.8910
4533.338, 792.0967
4535.267, 795.6218
4537.195, 804.7125
4539.124, 819.0410
4541.052, 821.7429
4542.980, 812.9375
4544.909, 808.8438
4546.837, 803.8765
4548.766, 795.4775
4550.694, 793.5356
4552.623, 791.1885
4554.551, 778.8486
4556.480, 787.5596
4558.408, 804.5681
4560.337, 788.2292
4562.265, 790.5054
4564.194, 818.0883
4566.122, 801.3516
4568.051, 779.1229
4569.979, 770.5344
4571.908, 787.1024
4573.836, 808.5486
4575.765, 813.7484
4577.693, 808.5323
4579.622, 800.0435
4581.550, 805.3623
4583.479, 808.2560
4585.407, 804.5295
4587.335, 802.3217
4589.264, 795.8034
4591.192, 778.5401
4593.121, 788.0673
4595.049, 806.6425
4596.978, 815.8631
4598.906, 815.0175
4600.834, 805.2175
4602.763, 780.3411
4604.691, 774.9431
4606.620, 794.4986
4608.548, 798.6536
4610.477, 798.2160
4612.405, 798.6531
4614.334, 789.6924
4616.262, 782.1069
4618.191, 787.0144
4620.119, 796.5666
4622.048, 801.7435
4623.976, 779.4963
4625.905, 773.4071
4627.833, 787.0258
4629.762, 796.5082
4631.690, 797.7576
4633.619, 789.6332
4635.547, 773.9207
4637.476, 767.5754
4639.404, 784.5839
4641.333, 794.8192
4643.261, 797.1793
4645.189, 789.7409
4647.118, 782.6055
4649.046, 777.8524
4650.975, 777.9678
4652.903, 783.4135
4654.832, 791.3167
4656.760, 783.9052
4658.688, 780.8831
4660.617, 792.3364
4662.545, 797.3020
4664.474, 797.1414
4666.402, 791.3583
4668.331, 797.5328
4670.259, 808.2093
4672.188, 814.5523
4674.116, 817.6045
4676.045, 813.3077
4677.973, 784.8344
4679.902, 764.7224
4681.830, 761.2545
4683.759, 796.9583
4685.687, 815.7498
4687.616, 803.7505
4689.544, 803.5867
4691.473, 801.9216
4693.401, 785.1967
4695.330, 787.7778
4697.258, 797.9460
4699.187, 806.9470
4701.115, 805.9990
4703.043, 796.3314
4704.972, 776.1240
4706.900, 765.9212
4708.829, 764.0256
4710.757, 754.5850
4712.686, 766.1974
4714.614, 795.5147
4716.542, 792.8445
4718.471, 785.9921
4720.399, 784.5421
4722.328, 789.1419
4724.256, 796.0104
4726.185, 804.2118
4728.113, 792.3547
4730.042, 779.0033
4731.970, 777.3053
4733.899, 784.6019
4735.827, 790.1785
4737.756, 779.9064
4739.684, 764.0773
4741.613, 757.2987
4743.541, 793.6578
4745.470, 791.1064
4747.398, 766.7966
4749.327, 801.4304
4751.255, 804.8777
4753.184, 774.4506
4755.112, 790.8568
4757.041, 802.0006
4758.969, 796.2890
4760.897, 790.0222
4762.826, 789.2360
4764.754, 796.6196
4766.683, 800.1039
4768.611, 791.7034
4770.540, 767.4912
4772.468, 788.7100
4774.396, 808.2233
4776.325, 778.1841
4778.253, 770.9194
4780.182, 777.2914
4782.110, 788.6884
4784.039, 796.3508
4785.967, 798.9131
4787.896, 794.3527
4789.824, 791.1963
4791.753, 786.2332
4793.681, 767.1551
4795.610, 772.6214
4797.538, 789.6213
4799.467, 770.7586
4801.395, 774.6191
4803.324, 797.0277
4805.252, 786.4927
4807.181, 783.3306
4809.109, 791.1008
4811.038, 787.1658
4812.966, 784.8187
4814.895, 787.2062
4816.823, 789.6476
4818.751, 789.1492
4820.680, 785.2262
4822.608, 780.4716
4824.537, 777.2124
4826.465, 776.4756
4828.394, 786.8044
4830.322, 791.7493
4832.250, 784.3055
4834.179, 769.1216
4836.107, 764.1887
4838.036, 783.9191
4839.964, 777.9113
4841.893, 774.4050
4843.821, 790.4420
4845.750, 772.6362
4847.678, 756.3755
4849.607, 776.1341
4851.535, 790.8473
4853.464, 794.1367
4855.392, 780.3057
4857.321, 770.5696
4859.249, 770.3107
4861.178, 789.5529
4863.106, 784.4220
4865.035, 775.1544
4866.963, 782.2938
4868.892, 785.0419
4870.820, 789.3439
4872.749, 810.7545
4874.677, 790.2985
4876.605, 763.2982
4878.534, 773.0559
4880.462, 769.0430
4882.391, 763.7703
4884.319, 780.7250
4886.248, 777.6754
4888.176, 767.6402
4890.104, 768.9772
4892.033, 772.2695
4893.961, 775.6868
4895.890, 778.9980
4897.818, 770.9949
4899.747, 762.1756
4901.675, 766.7153
4903.604, 771.3179
4905.532, 780.2805
4907.461, 802.8006
4909.389, 800.4133
4911.318, 788.0525
4913.246, 788.9296
4915.175, 781.1025
4917.103, 777.8951
4919.032, 798.7776
4920.960, 791.0838
4922.889, 778.3796
4924.817, 794.7910
4926.746, 794.9092
4928.674, 786.4548
4930.603, 777.8533
4932.531, 772.7352
4934.459, 775.9955
4936.388, 793.0200
4938.316, 808.2264
4940.245, 810.2678
4942.173, 780.2731
4944.102, 787.2200
4946.030, 797.4797
4947.958, 786.0334
4949.887, 790.3694
4951.815, 792.4792
4953.744, 776.2739
4955.672, 776.3594
4957.601, 778.7460
4959.529, 775.5954
4961.458, 786.3247
4963.386, 790.8282
4965.315, 780.3838
4967.243, 798.4673
4969.172, 803.0850
4971.100, 776.8863
4973.029, 772.8900
4974.957, 768.2296
4976.886, 759.4766
4978.814, 776.8301
4980.743, 798.1501
4982.671, 813.6772
4984.600, 807.8347
4986.528, 799.3256
4988.457, 792.8754
4990.385, 784.7766
4992.313, 789.1129
4994.242, 797.5558
4996.170, 769.3082
4998.099, 782.0020
5000.027, 815.6462
5001.956, 802.8765
5003.884, 794.6899
5005.813, 790.7572
5007.741, 776.4461
5009.669, 773.8458
5011.598, 778.7404
5013.526, 784.1813
5015.455, 802.8171
5017.383, 809.9753
5019.312, 783.2468
5021.240, 776.2606
5023.169, 778.6699
5025.097, 780.5302
5027.026, 796.9720
5028.954, 809.2114
5030.883, 809.0519
5032.811, 802.6157
5034.740, 795.6575
5036.668, 790.1880
5038.597, 783.1495
5040.525, 786.8833
5042.454, 797.3141
5044.382, 781.4154
5046.311, 781.0190
5048.239, 795.9001
5050.167, 817.7520
5052.096, 797.2100
5054.024, 762.9181
5055.953, 764.7390
5057.881, 778.7693
5059.810, 788.0504
5061.738, 777.4846
5063.667, 778.6867
5065.595, 783.5770
5067.523, 785.0294
5069.452, 785.8058
5071.380, 787.7987
5073.309, 792.0471
5075.237, 805.8890
5077.166, 808.7609
5079.094, 799.9126
5081.023, 799.0956
5082.951, 798.1536
5084.880, 796.1382
5086.808, 795.4833
5088.737, 792.8936
5090.665, 790.2380
5092.594, 791.1573
5094.522, 784.5671
5096.451, 781.0364
5098.379, 791.5590
5100.308, 804.3376
5102.236, 803.0661
5104.165, 780.1309
5106.093, 781.9940
5108.021, 787.7573
5109.950, 789.3400
5111.878, 778.8183
5113.807, 785.5186
5115.735, 800.5396
5117.664, 785.5684
5119.592, 768.6954
5121.521, 764.6044
5123.449, 789.1781
5125.377, 792.7056
5127.306, 794.4120
5129.234, 812.7269
5131.163, 799.5758
5133.091, 792.5948
5135.020, 805.7237
5136.948, 796.1896
5138.877, 796.1216
5140.805, 805.3334
5142.734, 798.3998
5144.662, 790.2512
5146.591, 790.5546
5148.519, 818.3884
5150.448, 818.6451
5152.376, 809.6423
5154.305, 807.8363
5156.233, 786.1382
5158.162, 777.1899
5160.090, 791.3508
5162.019, 798.4235
5163.947, 801.9801
5165.875, 804.6469
5167.804, 815.2196
5169.732, 802.1862
5171.661, 781.5541
5173.589, 776.9595
5175.518, 800.1826
5177.446, 816.9662
5179.375, 804.1592
5181.303, 795.7305
5183.231, 788.0469
5185.160, 782.1830
5187.088, 791.7432
5189.017, 801.3305
5190.945, 803.2911
5192.874, 786.0794
5194.802, 785.2572
5196.731, 792.1747
5198.659, 797.4463
5200.588, 802.0908
5202.516, 801.5240
5204.445, 795.5973
5206.373, 796.5484
5208.302, 789.5037
5210.230, 781.6255
5212.159, 797.1145
5214.087, 802.5742
5216.016, 798.7843
5217.944, 786.5802
5219.873, 798.5421
5221.801, 803.1713
5223.729, 793.1919
5225.658, 810.0152
5227.586, 820.0445
5229.515, 818.5750
5231.443, 808.6944
5233.372, 799.6750
5235.300, 803.9849
5237.229, 832.5860
5239.157, 831.6194
5241.085, 819.6909
5243.014, 807.7726
5244.942, 807.4492
5246.871, 801.4105
5248.799, 796.2831
5250.728, 812.6492
5252.656, 819.5349
5254.585, 806.7875
5256.513, 772.6306
5258.442, 810.0389
5260.370, 830.0135
5262.299, 816.0291
5264.227, 797.9424
5266.156, 803.7753
5268.084, 817.3217
5270.013, 813.7711
5271.941, 822.5491
5273.870, 824.1265
5275.798, 812.8433
5277.727, 818.3591
5279.655, 812.3434
5281.583, 802.3452
5283.512, 814.2191
5285.440, 816.3535
5287.369, 814.9044
5289.297, 815.7077
5291.226, 810.9634
5293.154, 803.0319
5295.083, 799.7733
5297.011, 824.1459
5298.939, 826.7377
5300.868, 816.1520
5302.796, 806.3431
5304.725, 795.2042
5306.653, 797.1064
5308.582, 810.8609
5310.510, 805.9228
5312.439, 805.2191
5314.367, 809.3912
5316.296, 814.7217
5318.224, 818.5118
5320.153, 820.4775
5322.081, 820.7565
5324.010, 819.5438
5325.938, 819.6691
5327.867, 821.5687
5329.795, 827.3521
5331.724, 806.7694
5333.652, 802.7775
5335.581, 827.2620
5337.509, 806.4919
5339.438, 831.1837
5341.366, 864.0103
5343.294, 807.9873
5345.223, 810.7527
5347.151, 822.0941
5349.080, 814.4019
5351.008, 815.6974
5352.937, 822.4340
5354.865, 831.2401
5356.793, 838.8932
5358.722, 840.7433
5360.650, 835.0790
5362.579, 823.7897
5364.507, 821.4533
5366.436, 833.6169
5368.364, 841.0721
5370.293, 812.5087
5372.221, 802.4597
5374.150, 798.1990
5376.078, 794.9788
5378.007, 809.9089
5379.935, 820.0992
5381.864, 820.3365
5383.792, 807.0725
5385.721, 814.3654
5387.649, 820.3526
5389.578, 820.7121
5391.506, 842.4642
5393.435, 836.5934
5395.363, 817.3740
5397.292, 805.8701
5399.220, 843.5055
5401.148, 860.1146
5403.077, 843.7023
5405.005, 813.5160
5406.934, 815.4152
5408.862, 819.9343
5410.791, 807.1472
5412.719, 838.1896
5414.647, 854.2355
5416.576, 851.4371
5418.504, 845.7593
5420.433, 855.4692
5422.361, 835.5774
5424.290, 786.3842
5426.218, 804.8310
5428.147, 845.0169
5430.075, 869.8292
5432.004, 843.8729
5433.932, 854.3487
5435.861, 870.8229
5437.789, 878.4963
5439.718, 867.4537
5441.646, 849.6273
5443.575, 829.8041
5445.503, 814.6860
5447.432, 841.7916
5449.360, 830.7524
5451.289, 810.8019
5453.217, 844.8801
5455.146, 843.4454
5457.074, 834.1818
5459.002, 835.2336
5460.931, 872.8008
5462.859, 852.5271
5464.788, 831.4612
5466.716, 847.9395
5468.645, 856.2717
5470.573, 846.6085
5472.501, 832.1758
5474.430, 828.6227
5476.358, 858.2955
5478.287, 868.4000
5480.215, 853.9977
5482.144, 855.7825
5484.072, 829.2416
5486.001, 816.9654
5487.929, 839.1270
5489.858, 851.4575
5491.786, 857.2487
5493.715, 856.5648
5495.643, 849.6039
5497.572, 874.2609
5499.500, 868.9169
5501.429, 842.2479
5503.357, 844.0099
5505.286, 874.7564
5507.214, 889.1504
5509.143, 873.2150
5511.071, 842.2223
5513.000, 855.2213
5514.928, 874.1772
5516.856, 867.8479
5518.785, 842.5682
5520.713, 840.7901
5522.642, 850.8363
5524.570, 851.6851
5526.499, 845.1081
5528.427, 857.2231
5530.355, 872.4001
5532.284, 843.0206
5534.212, 835.8768
5536.141, 857.8990
5538.069, 887.9099
5539.998, 862.4019
5541.926, 863.2982
5543.855, 871.7706
5545.783, 869.7623
5547.712, 855.5682
5549.640, 843.2261
5551.569, 844.4453
5553.497, 866.3835
5555.426, 862.4171
5557.354, 864.1821
5559.283, 872.2380
5561.211, 878.5275
5563.140, 859.7717
5565.068, 869.8528
5566.997, 894.6104
5568.925, 887.1956
5570.854, 854.5046
5572.782, 850.9000
5574.710, 872.9736
5576.639, 861.9748
5578.567, 854.2627
5580.496, 858.0099
5582.424, 871.4292
5584.353, 880.1459
5586.281, 880.5934
5588.209, 884.9283
5590.138, 891.8217
5592.066, 850.7169
5593.995, 848.3347
5595.923, 863.2363
5597.852, 869.3174
5599.780, 865.3433
5601.709, 866.5101
5603.637, 874.3128
5605.566, 885.3476
5607.494, 865.3568
5609.423, 871.9393
5611.351, 887.2849
5613.280, 880.6007
5615.208, 875.4840
5617.137, 874.5212
5619.065, 876.2087
5620.994, 878.0455
5622.922, 873.3256
5624.851, 891.7683
5626.779, 905.8409
5628.708, 874.4617
5630.636, 875.9258
5632.564, 864.1078
5634.493, 854.9439
5636.421, 890.5352
5638.350, 901.1132
5640.278, 891.8625
5642.207, 877.5751
5644.135, 874.8932
5646.063, 897.4061
5647.992, 903.3851
5649.920, 888.7448
5651.849, 867.2880
5653.777, 884.5369
5655.706, 890.6836
5657.634, 890.7047
5659.563, 916.9612
5661.491, 901.9429
5663.420, 885.8049
5665.348, 884.8775
5667.277, 900.6679
5669.205, 906.5554
5671.134, 907.0121
5673.062, 899.2629
5674.991, 869.6161
5676.919, 904.3508
5678.848, 907.0023
5680.776, 889.2620
5682.705, 912.5215
5684.633, 922.5375
5686.562, 914.2311
5688.490, 899.7861
5690.418, 895.5393
5692.347, 908.8435
5694.275, 918.4569
5696.204, 908.9073
5698.132, 876.1354
5700.061, 903.0126
5701.989, 910.6096
5703.917, 894.6922
5705.846, 873.0938
5707.774, 905.2332
5709.703, 910.2037
5711.631, 904.6539
5713.560, 912.5377
5715.488, 903.4922
5717.417, 892.3527
5719.345, 892.5588
5721.274, 905.3612
5723.202, 899.2332
5725.131, 899.6039
5727.059, 903.7488
5728.988, 910.1652
5730.916, 926.7981
5732.845, 933.0604
5734.773, 929.2415
5736.702, 921.8669
5738.630, 921.7650
5740.559, 922.7489
5742.487, 917.5634
5744.416, 903.3010
5746.344, 876.7849
5748.272, 907.7390
5750.201, 934.1096
5752.129, 939.9178
5754.058, 930.6613
5755.986, 897.0552
5757.915, 888.9397
5759.843, 904.8994
5761.771, 927.9565
5763.700, 900.6218
5765.628, 906.9037
5767.557, 922.8824
5769.485, 925.7806
5771.414, 923.4117
5773.342, 924.9879
5775.271, 915.9149
5777.199, 906.1732
5779.128, 930.3086
5781.056, 933.7159
5782.985, 961.4531
5784.913, 980.1923
5786.842, 931.4308
5788.770, 946.1627
5790.699, 928.8654
5792.627, 909.5582
5794.556, 929.7936
5796.484, 948.8921
5798.413, 935.4285
5800.341, 925.1253
5802.270, 933.7143
5804.198, 934.9025
5806.126, 946.6636
5808.055, 938.7717
5809.983, 919.3104
5811.912, 921.4041
5813.840, 941.0635
5815.769, 954.8204
5817.697, 955.3718
5819.625, 944.2480
5821.554, 939.7245
5823.482, 930.9632
5825.411, 931.5655
5827.339, 944.4781
5829.268, 952.6983
5831.196, 950.4533
5833.125, 927.5449
5835.053, 918.5505
5836.982, 969.5457
5838.910, 926.6382
5840.839, 921.6072
5842.767, 945.5059
5844.696, 962.0378
5846.624, 954.3550
5848.553, 932.6338
5850.481, 937.1478
5852.410, 959.9925
5854.338, 934.4998
5856.267, 968.0941
5858.195, 969.3065
5860.124, 950.4227
5862.052, 950.9388
5863.980, 941.7493
5865.909, 965.6430
5867.837, 962.0642
5869.766, 929.5911
5871.694, 953.0186
5873.623, 980.2972
5875.551, 968.8932
5877.479, 948.2495
5879.408, 956.2202
5881.336, 926.2873
5883.265, 933.4989
5885.193, 948.8791
5887.122, 952.1281
5889.050, 955.4869
5890.979, 955.7340
5892.907, 965.0262
5894.836, 975.8156
5896.764, 977.7678
5898.693, 982.9598
5900.621, 974.7769
5902.550, 967.9075
5904.478, 968.2061
5906.407, 968.4430
5908.335, 952.3480
5910.264, 958.1324
5912.192, 963.1030
5914.121, 946.1234
5916.049, 988.5756
5917.978, 964.1521
5919.906, 959.4118
5921.834, 985.7525
5923.763, 980.5899
5925.691, 984.1142
5927.620, 999.2637
5929.548, 997.6124
5931.477, 973.5809
5933.405, 977.7888
5935.333, 973.3291
5937.262, 970.5582
5939.190, 977.9049
5941.119, 995.9022
5943.047, 970.1215
5944.976, 997.5668
5946.904, 1013.542
5948.833, 997.3329
5950.761, 982.5887
5952.690, 984.6840
5954.618, 987.0729
5956.547, 990.3787
5958.475, 996.7241
5960.404, 1002.582
5962.332, 999.6146
5964.261, 1001.311
5966.189, 994.9363
5968.118, 974.4485
5970.046, 1002.575
5971.975, 1004.724
5973.903, 1010.249
5975.832, 1014.187
5977.760, 990.4429
5979.688, 979.3264
5981.617, 1009.874
5983.545, 1013.567
5985.474, 998.0721
5987.402, 1053.295
5989.331, 1029.942
5991.259, 994.9871
5993.188, 992.2413
5995.116, 1014.829
5997.044, 990.1125
5998.973, 1006.782
6000.901, 1024.869
6002.830, 1026.150
6004.758, 1013.051
6006.687, 1011.506
6008.615, 989.2004
6010.544, 1003.637
6012.472, 1033.449
6014.401, 1037.366
6016.329, 1022.127
6018.258, 992.7114
6020.186, 996.0156
6022.115, 1009.722
6024.043, 993.3882
6025.972, 1026.797
6027.900, 1022.549
6029.829, 1036.098
6031.757, 1045.336
6033.686, 989.6757
6035.614, 1021.876
6037.542, 1004.297
6039.471, 1015.383
6041.399, 1048.917
6043.328, 1031.313
6045.256, 1058.405
6047.185, 1079.555
6049.113, 1055.454
6051.042, 1023.073
6052.970, 1060.192
6054.898, 1076.357
6056.827, 1099.992
6058.755, 1104.984
6060.684, 1089.398
6062.612, 1071.990
6064.541, 1067.633
6066.469, 1051.063
6068.398, 1056.646
6070.326, 1063.212
6072.255, 1020.176
6074.183, 1039.634
6076.112, 1036.505
6078.040, 1026.092
6079.969, 1025.521
6081.897, 1038.910
6083.826, 1034.729
6085.754, 1027.422
6087.683, 1037.056
6089.611, 1036.967
6091.540, 1002.173
6093.468, 1024.456
6095.396, 1051.712
6097.325, 1061.368
6099.253, 1053.568
6101.182, 1038.361
6103.110, 1031.263
6105.039, 1028.051
6106.967, 1028.393
6108.896, 1039.451
6110.824, 1057.592
6112.752, 1054.863
6114.681, 1055.103
6116.609, 1074.418
6118.538, 1071.038
6120.466, 1040.391
6122.395, 1030.396
6124.323, 1049.398
6126.252, 1047.108
6128.180, 1052.180
6130.109, 1068.256
6132.037, 1071.906
6133.966, 1030.583
6135.894, 1040.313
6137.823, 1039.375
6139.751, 1040.158
6141.680, 1068.676
6143.608, 1037.371
6145.537, 1047.724
6147.465, 1034.433
6149.394, 1027.636
6151.322, 1045.161
6153.250, 1032.554
6155.179, 1064.181
6157.107, 1067.348
6159.036, 1058.719
6160.964, 1051.399
6162.893, 1042.414
6164.821, 1070.429
6166.750, 1074.940
6168.678, 1067.552
6170.606, 1062.488
6172.535, 1064.446
6174.463, 1067.918
6176.392, 1070.273
6178.320, 1081.711
6180.249, 1086.806
6182.177, 1073.764
6184.106, 1045.428
6186.034, 1050.872
6187.963, 1066.005
6189.891, 1060.290
6191.820, 1052.494
6193.748, 1063.512
6195.677, 1066.890
6197.605, 1080.885
6199.534, 1061.914
6201.462, 1057.033
6203.391, 1079.001
6205.319, 1090.491
6207.248, 1071.664
6209.176, 1053.154
6211.104, 1064.815
6213.033, 1072.250
6214.961, 1052.566
6216.890, 1046.691
6218.818, 1071.131
6220.747, 1065.753
6222.675, 1049.620
6224.604, 1053.360
6226.532, 1079.952
6228.460, 1061.510
6230.389, 1050.530
6232.317, 1056.060
6234.246, 1079.479
6236.174, 1098.978
6238.103, 1080.431
6240.031, 1075.536
6241.960, 1062.090
6243.888, 1043.228
6245.817, 1042.805
6247.745, 1064.167
6249.674, 1067.817
6251.602, 1109.418
6253.531, 1090.524
6255.459, 1076.792
6257.388, 1072.483
6259.316, 1052.199
6261.245, 1062.375
6263.173, 1060.142
6265.102, 1064.494
6267.030, 1072.929
6268.958, 1087.109
6270.887, 1105.789
6272.815, 1071.371
6274.744, 1036.499
6276.672, 1073.536
6278.601, 1085.871
6280.529, 1074.576
6282.458, 1111.845
6284.386, 1051.651
6286.314, 1077.780
6288.243, 1080.618
6290.171, 1076.185
6292.100, 1077.067
6294.028, 1062.617
6295.957, 1056.011
6297.885, 1074.038
6299.814, 1097.861
6301.742, 1078.695
6303.671, 1048.081
6305.599, 1073.251
6307.528, 1066.507
6309.456, 1071.226
6311.385, 1084.606
6313.313, 1088.879
6315.242, 1082.349
6317.170, 1075.999
6319.099, 1072.712
6321.027, 1072.674
6322.956, 1049.933
6324.884, 1041.142
6326.813, 1062.768
6328.741, 1096.210
6330.669, 1086.825
6332.598, 1072.079
6334.526, 1089.899
6336.455, 1098.476
6338.383, 1078.899
6340.312, 1057.611
6342.240, 1117.282
6344.168, 1065.438
6346.097, 1069.184
6348.025, 1078.398
6349.954, 1086.860
6351.882, 1103.012
6353.811, 1097.861
6355.739, 1081.840
6357.668, 1064.234
6359.596, 1062.552
6361.525, 1084.985
6363.453, 1105.081
6365.382, 1087.485
6367.310, 1075.533
6369.239, 1077.820
6371.167, 1077.009
6373.096, 1065.168
6375.024, 1062.758
6376.953, 1085.358
6378.881, 1102.980
6380.810, 1072.602
6382.738, 1078.771
6384.667, 1082.013
6386.595, 1074.044
6388.523, 1073.734
6390.452, 1094.309
6392.380, 1064.347
6394.309, 1076.385
6396.237, 1062.896
6398.166, 1056.579
6400.094, 1072.216
6402.022, 1081.372
6403.951, 1051.344
6405.879, 1096.631
6407.808, 1098.194
6409.736, 1081.034
6411.665, 1063.130
6413.593, 1061.762
6415.522, 1088.507
6417.450, 1082.947
6419.379, 1092.308
6421.307, 1083.646
6423.236, 1080.810
6425.164, 1073.165
6427.093, 1058.948
6429.021, 1078.772
##END=



