##NAMES=Shattuckite
##RRUFFID=R050133
##IDEAL CHEMISTRY=Cu_5_(SiO_3_)_4_(OH)_2_
##LOCALITY=Ajo, Pima County, Arizona, USA
##OWNER=RRUFF
##SOURCE=University of Arizona Mineral Museum
##DESCRIPTION=Aggregate of blue flattened grains
##STATUS=The identification of this mineral has been confirmed by X-ray diffraction and chemical analysis
##URL=https://www.rruff.net/odr/rruff_sample/R050133
##MEASURED CHEMISTRY=Cu_5.00_(Si_0.99_Al_0.01_O_3_)_4_((OH)_0.97_(H_2_O)_0.03_)_2_
##DIFFRACTION SAMPLE DESCRIPTION=Powder
##CELL PARAMETERS=a: 9.8994 b: 19.845 c: 5.382 alpha: 90 beta: 90 gamma: 90 volume: 1057.3 crystal system: orthorhombic
##FILETYPE=Raman RAW
##RAMAN WAVELENGTH=780

83.78855, 543.6851
85.71702, 575.0383
87.64548, 603.2402
89.57395, 628.4086
91.50242, 650.5109
93.43089, 669.1191
95.35935, 648.4103
97.28782, 614.8280
99.21629, 584.2167
101.1448, 555.4101
103.0732, 529.0289
105.0017, 507.2920
106.9301, 489.7818
108.8586, 474.8082
110.7871, 461.8181
112.7155, 450.8466
114.6440, 441.4211
116.5725, 433.2534
118.5009, 426.0274
120.4294, 419.2823
122.3579, 413.9175
124.2863, 410.1716
126.2148, 407.1871
128.1433, 404.5147
130.0717, 402.0901
132.0002, 399.7421
133.9287, 397.3354
135.8571, 395.8286
137.7856, 395.9333
139.7141, 395.8574
141.6425, 394.5820
143.5710, 392.8339
145.4995, 391.7700
147.4279, 391.3246
149.3564, 390.9521
151.2849, 390.6915
153.2133, 390.2742
155.1418, 389.3506
157.0703, 388.4215
158.9987, 388.1944
160.9272, 388.4940
162.8557, 388.5022
164.7841, 388.0327
166.7126, 387.5293
168.6411, 387.2899
170.5695, 386.9004
172.4980, 386.1100
174.4265, 384.9056
176.3549, 383.0734
178.2834, 380.1379
180.2119, 378.0664
182.1403, 377.3532
184.0688, 377.1681
185.9973, 377.6010
187.9257, 378.0804
189.8542, 377.7066
191.7827, 376.3339
193.7111, 374.9760
195.6396, 373.4310
197.5681, 372.2733
199.4965, 371.7206
201.4250, 371.6095
203.3535, 372.0280
205.2819, 372.9288
207.2104, 372.8750
209.1389, 370.4957
211.0673, 369.1532
212.9958, 370.1069
214.9243, 371.1693
216.8527, 370.8286
218.7812, 369.6361
220.7097, 368.9973
222.6381, 369.1815
224.5666, 369.2086
226.4951, 368.9847
228.4235, 368.7331
230.3520, 368.5558
232.2805, 368.3888
234.2089, 368.2007
236.1374, 367.9892
238.0659, 367.4756
239.9943, 366.4374
241.9228, 365.8470
243.8513, 366.3727
245.7797, 366.8425
247.7082, 366.6190
249.6367, 365.8860
251.5651, 364.9884
253.4936, 363.9278
255.4221, 363.0125
257.3505, 362.2610
259.2790, 361.6696
261.2075, 361.2673
263.1359, 360.9991
265.0644, 360.8457
266.9929, 360.7712
268.9213, 360.7196
270.8498, 360.7127
272.7783, 360.3056
274.7067, 359.1527
276.6352, 357.9538
278.5637, 356.7637
280.4921, 355.8045
282.4206, 355.4050
284.3491, 355.4552
286.2775, 355.6309
288.2060, 356.0204
290.1345, 356.1886
292.0629, 356.0181
293.9914, 355.6308
295.9199, 355.0759
297.8483, 354.3456
299.7768, 353.2011
301.7053, 351.7966
303.6337, 351.1060
305.5622, 351.6688
307.4907, 351.8099
309.4191, 350.8258
311.3476, 349.9349
313.2761, 349.9467
315.2045, 350.2572
317.1330, 350.1114
319.0615, 349.5362
320.9899, 348.9278
322.9184, 348.4803
324.8469, 347.7105
326.7753, 346.1789
328.7038, 344.7600
330.6323, 344.0645
332.5607, 343.6366
334.4892, 342.8718
336.4177, 341.7353
338.3461, 340.8986
340.2746, 340.8614
342.2031, 340.3200
344.1315, 338.6141
346.0600, 337.1399
347.9885, 337.0018
349.9169, 337.2618
351.8454, 336.8024
353.7739, 335.6837
355.7023, 335.0001
357.6308, 334.8261
359.5593, 334.7293
361.4877, 334.6956
363.4162, 334.7123
365.3447, 334.9948
367.2731, 335.1284
369.2016, 334.5914
371.1301, 333.4940
373.0585, 332.5997
374.9870, 331.9319
376.9154, 331.7007
378.8439, 332.1967
380.7724, 332.3803
382.7008, 331.4968
384.6293, 330.5917
386.5578, 330.3737
388.4862, 330.4286
390.4147, 329.8993
392.3432, 328.9355
394.2716, 328.8898
396.2001, 330.1727
398.1286, 330.8530
400.0570, 329.6758
401.9855, 328.6688
403.9140, 328.8693
405.8424, 329.4919
407.7709, 329.6043
409.6994, 329.2612
411.6278, 328.7553
413.5563, 328.0721
415.4848, 327.8304
417.4132, 328.4028
419.3417, 328.9260
421.2702, 329.3694
423.1986, 329.5117
425.1271, 329.0833
427.0556, 328.3669
428.9840, 327.6749
430.9125, 327.0559
432.8410, 326.8258
434.7694, 327.2813
436.6979, 327.2069
438.6264, 326.1636
440.5548, 325.0787
442.4833, 324.1597
444.4118, 323.3517
446.3402, 322.4767
448.2687, 321.7479
450.1972, 321.7569
452.1256, 322.4933
454.0541, 322.0737
455.9826, 319.0705
457.9110, 317.3426
459.8395, 318.0501
461.7680, 318.5781
463.6964, 317.8210
465.6249, 316.7776
467.5534, 316.0416
469.4818, 315.6902
471.4103, 315.9897
473.3388, 317.0071
475.2672, 317.5796
477.1957, 317.4911
479.1242, 317.4071
481.0526, 317.3576
482.9811, 317.4427
484.9096, 317.8755
486.8380, 318.1954
488.7665, 318.0202
490.6950, 317.6356
492.6234, 317.4017
494.5519, 317.2601
496.4804, 317.3446
498.4088, 317.8148
500.3373, 317.6676
502.2658, 316.6992
504.1942, 315.3432
506.1227, 313.3244
508.0512, 311.5646
509.9796, 310.8444
511.9081, 310.3434
513.8365, 308.8858
515.7650, 306.8856
517.6935, 305.9493
519.6219, 305.9658
521.5504, 305.4489
523.4789, 304.2090
525.4073, 302.7655
527.3358, 300.7009
529.2643, 299.4012
531.1927, 299.8662
533.1212, 300.5387
535.0497, 300.4234
536.9781, 299.8196
538.9066, 299.0438
540.8351, 298.1279
542.7635, 297.1842
544.6920, 296.2343
546.6205, 295.5796
548.5490, 295.3246
550.4774, 295.1822
552.4059, 295.2097
554.3344, 295.2692
556.2628, 295.5649
558.1913, 295.5395
560.1198, 294.4759
562.0482, 293.0827
563.9767, 292.1267
565.9052, 291.5801
567.8336, 291.6240
569.7621, 292.4189
571.6906, 292.7287
573.6190, 291.9269
575.5475, 291.5113
577.4760, 292.2146
579.4044, 292.3513
581.3329, 290.6917
583.2614, 289.1124
585.1898, 289.2113
587.1183, 289.8611
589.0468, 289.8572
590.9752, 289.2612
592.9037, 288.2498
594.8322, 286.7881
596.7606, 286.4765
598.6891, 287.7455
600.6176, 288.4487
602.5460, 288.5420
604.4745, 288.1791
606.4030, 286.9036
608.3314, 285.8428
610.2599, 285.9521
612.1884, 286.2874
614.1168, 286.1376
616.0453, 285.6924
617.9738, 285.2637
619.9022, 284.7622
621.8307, 283.9535
623.7592, 282.8237
625.6876, 282.5197
627.6161, 283.3137
629.5446, 283.4556
631.4730, 282.3144
633.4015, 281.4478
635.3300, 281.5724
637.2584, 281.8236
639.1869, 281.8920
641.1154, 281.8477
643.0438, 281.7836
644.9723, 281.6621
646.9008, 281.2549
648.8292, 280.7632
650.7577, 280.8778
652.6862, 281.4215
654.6146, 281.4356
656.5431, 280.8587
658.4716, 279.7030
660.4000, 277.4999
662.3285, 276.1804
664.2570, 276.9022
666.1854, 277.3579
668.1139, 276.6409
670.0424, 276.0033
671.9708, 276.4378
673.8993, 276.8690
675.8278, 276.0747
677.7562, 274.9438
679.6847, 274.6332
681.6132, 274.7537
683.5416, 274.4965
685.4701, 273.9116
687.3986, 273.7493
689.3270, 274.2479
691.2555, 274.2902
693.1840, 273.6101
695.1124, 272.7278
697.0409, 271.2561
698.9694, 270.2759
700.8978, 270.4482
702.8263, 270.6247
704.7548, 270.1969
706.6832, 269.5288
708.6117, 268.9938
710.5402, 268.5077
712.4686, 267.8712
714.3971, 267.0890
716.3256, 266.1519
718.2540, 265.2270
720.1825, 264.9419
722.1110, 265.2540
724.0394, 265.4652
725.9679, 265.7281
727.8964, 265.6947
729.8248, 265.1059
731.7533, 264.6504
733.6818, 264.5864
735.6102, 264.5576
737.5387, 264.4638
739.4672, 264.1794
741.3956, 263.3899
743.3241, 262.7897
745.2526, 262.9798
747.1810, 263.1982
749.1095, 262.6998
751.0380, 262.0073
752.9664, 261.8448
754.8949, 261.8983
756.8234, 261.5091
758.7518, 260.7565
760.6803, 260.0678
762.6088, 259.5448
764.5372, 259.4585
766.4657, 259.7455
768.3942, 259.5289
770.3226, 258.6332
772.2511, 258.1354
774.1796, 258.3869
776.1080, 258.4130
778.0365, 257.7654
779.9650, 257.3823
781.8934, 257.7541
783.8218, 257.9459
785.7503, 257.2203
787.6788, 256.6451
789.6072, 257.2541
791.5357, 257.9258
793.4642, 257.5202
795.3926, 256.6742
797.3211, 256.2714
799.2496, 256.1590
801.1780, 255.9151
803.1065, 255.4874
805.0350, 254.6874
806.9634, 253.6052
808.8919, 253.2985
810.8204, 253.9309
812.7488, 254.2325
814.6773, 253.9593
816.6058, 253.8091
818.5342, 254.0010
820.4627, 254.0297
822.3912, 253.6483
824.3196, 253.5090
826.2481, 254.0585
828.1766, 254.1336
830.1050, 253.0578
832.0335, 252.0984
833.9620, 251.8840
835.8904, 251.9337
837.8189, 252.2222
839.7474, 252.1165
841.6758, 250.8013
843.6043, 249.5557
845.5328, 249.5376
847.4612, 249.6024
849.3897, 248.6557
851.3182, 247.5141
853.2466, 246.8461
855.1751, 246.4761
857.1036, 246.5500
859.0320, 246.8864
860.9605, 246.8617
862.8890, 246.4109
864.8174, 245.3511
866.7459, 243.9639
868.6744, 243.6745
870.6028, 244.2690
872.5313, 244.4478
874.4598, 244.2109
876.3882, 243.7464
878.3167, 243.0916
880.2452, 242.7975
882.1736, 242.9438
884.1021, 242.5838
886.0306, 241.4897
887.9590, 240.6004
889.8875, 240.0728
891.8160, 239.5562
893.7444, 238.8477
895.6729, 238.4615
897.6014, 238.6585
899.5298, 238.8834
901.4583, 239.1670
903.3868, 239.2901
905.3152, 239.1306
907.2437, 238.9256
909.1722, 238.7922
911.1006, 238.4211
913.0291, 237.3237
914.9576, 236.4939
916.8860, 236.8292
918.8145, 237.3912
920.7430, 237.5150
922.6714, 237.4907
924.5999, 237.5258
926.5284, 237.5254
928.4568, 237.3824
930.3853, 237.1265
932.3138, 236.8970
934.2422, 236.7265
936.1707, 236.4702
938.0992, 236.0255
940.0276, 235.2227
941.9561, 234.3640
943.8846, 234.2173
945.8130, 234.4137
947.7415, 233.9709
949.6700, 233.1179
951.5984, 232.4390
953.5269, 232.0435
955.4554, 232.5727
957.3839, 233.5772
959.3123, 233.0157
961.2408, 231.3499
963.1693, 230.4019
965.0977, 229.9171
967.0262, 229.0154
968.9547, 227.8408
970.8831, 227.2914
972.8116, 227.1413
974.7401, 227.2050
976.6685, 227.7201
978.5970, 227.8095
980.5255, 227.2230
982.4539, 226.2603
984.3824, 225.1686
986.3109, 225.0504
988.2393, 225.7975
990.1678, 225.8223
992.0963, 225.1247
994.0247, 224.5437
995.9532, 224.0644
997.8817, 223.8901
999.8101, 224.1085
1001.739, 223.7877
1003.667, 222.7893
1005.596, 222.1773
1007.524, 222.0207
1009.452, 221.9129
1011.381, 221.8953
1013.309, 221.7839
1015.238, 221.4518
1017.166, 221.3235
1019.095, 221.5324
1021.023, 221.8537
1022.952, 222.3342
1024.880, 222.4024
1026.809, 222.0051
1028.737, 221.5473
1030.666, 220.9269
1032.594, 220.3578
1034.522, 219.6809
1036.451, 219.7460
1038.379, 221.1485
1040.308, 221.5280
1042.236, 220.2752
1044.165, 219.4766
1046.093, 219.4446
1048.022, 219.4660
1049.950, 219.5108
1051.879, 219.3122
1053.807, 218.9056
1055.736, 218.5864
1057.664, 218.1508
1059.593, 217.8528
1061.521, 217.9480
1063.449, 217.9878
1065.378, 217.9419
1067.306, 217.3289
1069.235, 215.9570
1071.163, 215.3082
1073.092, 215.6097
1075.020, 215.1025
1076.949, 213.6853
1078.877, 213.6150
1080.806, 214.8072
1082.734, 214.9172
1084.663, 214.0923
1086.591, 213.9612
1088.520, 214.4023
1090.448, 214.0057
1092.376, 212.9369
1094.305, 212.6995
1096.233, 212.9912
1098.162, 212.8077
1100.090, 212.4907
1102.019, 212.3415
1103.947, 212.1991
1105.876, 212.2171
1107.804, 212.3591
1109.733, 212.3317
1111.661, 212.2096
1113.590, 212.1547
1115.518, 212.0939
1117.447, 212.0569
1119.375, 211.9942
1121.303, 211.2622
1123.232, 210.3800
1125.160, 211.0140
1127.089, 212.1946
1129.017, 211.8948
1130.946, 211.2346
1132.874, 212.0072
1134.803, 213.0216
1136.731, 212.7905
1138.660, 212.1150
1140.588, 211.9436
1142.517, 211.8949
1144.445, 211.3032
1146.374, 210.6701
1148.302, 210.5349
1150.230, 210.6272
1152.159, 210.7663
1154.087, 211.0367
1156.016, 211.5077
1157.944, 211.7002
1159.873, 211.4577
1161.801, 211.1669
1163.730, 211.0087
1165.658, 210.9859
1167.587, 210.8801
1169.515, 210.7415
1171.444, 210.7666
1173.372, 210.7391
1175.301, 210.6008
1177.229, 210.5939
1179.157, 210.6681
1181.086, 210.3493
1183.014, 209.6579
1184.943, 209.7584
1186.871, 210.5297
1188.800, 210.7545
1190.728, 210.7673
1192.657, 210.6694
1194.585, 210.1156
1196.514, 209.8529
1198.442, 209.8716
1200.371, 209.2856
1202.299, 208.6540
1204.228, 208.6809
1206.156, 208.7434
1208.084, 208.4430
1210.013, 208.0458
1211.941, 207.6123
1213.870, 207.3410
1215.798, 207.7437
1217.727, 208.1506
1219.655, 207.7205
1221.584, 207.5374
1223.512, 208.6338
1225.441, 209.2275
1227.369, 208.0557
1229.298, 207.2288
1231.226, 207.6627
1233.155, 208.2707
1235.083, 208.9444
1237.011, 209.0187
1238.940, 208.0020
1240.868, 207.6358
1242.797, 208.6810
1244.725, 208.9771
1246.654, 207.7183
1248.582, 206.8661
1250.511, 206.8770
1252.439, 207.4887
1254.368, 208.3358
1256.296, 208.0677
1258.225, 207.2838
1260.153, 207.7738
1262.082, 208.6838
1264.010, 208.3851
1265.938, 207.7086
1267.867, 207.7593
1269.795, 207.8637
1271.724, 207.2510
1273.652, 206.7271
1275.581, 207.1538
1277.509, 207.7612
1279.438, 207.8552
1281.366, 207.5735
1283.295, 206.8966
1285.223, 206.9051
1287.152, 208.0266
1289.080, 208.2472
1291.009, 207.4715
1292.937, 206.9753
1294.865, 206.5800
1296.794, 206.6082
1298.722, 207.0712
1300.651, 207.1457
1302.579, 206.9776
1304.508, 206.7209
1306.436, 206.4713
1308.365, 206.9713
1310.293, 207.7702
1312.222, 207.4489
1314.150, 206.5991
1316.079, 206.6532
1318.007, 206.8018
1319.936, 206.0564
1321.864, 205.3165
1323.792, 204.7254
1325.721, 204.4636
1327.649, 204.8682
1329.578, 205.0964
1331.506, 204.8279
1333.435, 204.3808
1335.363, 204.0967
1337.292, 203.5146
1339.220, 202.5793
1341.149, 202.6429
1343.077, 203.2483
1345.006, 202.7914
1346.934, 202.0531
1348.863, 201.9193
1350.791, 201.8367
1352.719, 201.6420
1354.648, 201.2367
1356.576, 200.4889
1358.505, 199.9933
1360.433, 199.9284
1362.362, 199.7643
1364.290, 199.5014
1366.219, 199.2342
1368.147, 198.7766
1370.076, 198.3449
1372.004, 198.0638
1373.933, 197.7926
1375.861, 197.5490
1377.790, 197.1946
1379.718, 196.6920
1381.646, 196.5719
1383.575, 196.8152
1385.503, 196.9040
1387.432, 196.6104
1389.360, 196.1575
1391.289, 195.7913
1393.217, 195.5522
1395.146, 195.3289
1397.074, 194.8325
1399.003, 194.6970
1400.931, 195.0878
1402.860, 195.5744
1404.788, 195.9386
1406.717, 195.4198
1408.645, 194.6922
1410.573, 194.6224
1412.502, 194.4740
1414.430, 193.7270
1416.359, 193.0786
1418.287, 192.8531
1420.216, 193.0993
1422.144, 193.7029
1424.073, 193.6479
1426.001, 192.9916
1427.930, 192.5789
1429.858, 192.4369
1431.787, 192.0481
1433.715, 191.5348
1435.644, 191.4583
1437.572, 191.4792
1439.500, 191.3321
1441.429, 191.3728
1443.357, 191.3717
1445.286, 191.0185
1447.214, 190.7663
1449.143, 190.8914
1451.071, 191.2041
1453.000, 191.0589
1454.928, 190.2657
1456.857, 190.0182
1458.785, 190.4341
1460.714, 190.4878
1462.642, 190.0395
1464.571, 189.1907
1466.499, 188.3887
1468.427, 187.9565
1470.356, 187.7627
1472.284, 187.6287
1474.213, 187.2946
1476.141, 186.8395
1478.070, 186.6124
1479.998, 186.7812
1481.927, 186.8784
1483.855, 186.5007
1485.784, 185.8040
1487.712, 185.3590
1489.641, 185.5358
1491.569, 185.6747
1493.498, 185.8402
1495.426, 185.9209
1497.354, 185.6103
1499.283, 185.2027
1501.211, 184.8994
1503.140, 185.0458
1505.068, 185.2235
1506.997, 184.9749
1508.925, 184.4513
1510.854, 183.5149
1512.782, 182.5016
1514.711, 182.2556
1516.639, 182.5038
1518.568, 182.4692
1520.496, 182.1352
1522.425, 181.6561
1524.353, 181.2909
1526.281, 181.4454
1528.210, 181.4199
1530.138, 180.6312
1532.067, 179.9572
1533.995, 179.6981
1535.924, 180.1001
1537.852, 180.4482
1539.781, 179.4649
1541.709, 178.4519
1543.638, 178.4159
1545.566, 178.5394
1547.495, 178.1605
1549.423, 177.5396
1551.352, 177.0342
1553.280, 176.8753
1555.208, 176.7388
1557.137, 176.4341
1559.065, 176.2825
1560.994, 175.8532
1562.922, 175.2817
1564.851, 175.2039
1566.779, 175.0189
1568.708, 174.5325
1570.636, 174.4432
1572.565, 174.2585
1574.493, 172.9227
1576.422, 171.8651
1578.350, 171.8234
1580.279, 171.8625
1582.207, 171.7702
1584.135, 171.3386
1586.064, 170.2817
1587.992, 169.8733
1589.921, 170.1878
1591.849, 169.4619
1593.778, 168.2610
1595.706, 167.9471
1597.635, 167.5885
1599.563, 166.7234
1601.492, 165.4607
1603.420, 163.9797
1605.349, 164.4871
1607.277, 165.7332
1609.205, 164.3029
1611.134, 162.2395
1613.062, 161.0847
1614.991, 160.2525
1616.919, 159.5834
1618.848, 158.9411
1620.776, 158.6667
1622.705, 158.3807
1624.633, 157.9532
1626.562, 157.5923
1628.490, 156.9035
1630.419, 156.0114
1632.347, 155.4515
1634.276, 155.1474
1636.204, 154.6228
1638.132, 153.5543
1640.061, 152.5838
1641.989, 152.4046
1643.918, 152.5215
1645.846, 152.0447
1647.775, 150.8961
1649.703, 150.2549
1651.632, 150.4645
1653.560, 150.5170
1655.489, 150.3676
1657.417, 150.1110
1659.346, 149.6535
1661.274, 149.2284
1663.203, 148.9658
1665.131, 148.6586
1667.059, 148.0471
1668.988, 147.2804
1670.916, 146.9676
1672.845, 147.0279
1674.773, 146.4834
1676.702, 146.0293
1678.630, 146.1768
1680.559, 145.7650
1682.487, 144.6901
1684.416, 144.0546
1686.344, 143.9966
1688.273, 143.8832
1690.201, 143.4577
1692.130, 143.2307
1694.058, 143.0743
1695.986, 142.4901
1697.915, 142.1257
1699.843, 142.1100
1701.772, 141.9692
1703.700, 141.7637
1705.629, 141.5898
1707.557, 141.3585
1709.486, 141.3681
1711.414, 141.5215
1713.343, 141.1969
1715.271, 140.5253
1717.200, 139.9561
1719.128, 139.8049
1721.057, 139.7978
1722.985, 139.4789
1724.913, 138.8966
1726.842, 138.6863
1728.770, 138.8916
1730.699, 138.5560
1732.627, 138.0574
1734.556, 137.9182
1736.484, 138.0355
1738.413, 137.8292
1740.341, 137.2064
1742.270, 136.7448
1744.198, 136.0746
1746.127, 135.6414
1748.055, 136.1239
1749.984, 136.1660
1751.912, 135.5149
1753.840, 134.6919
1755.769, 134.5060
1757.697, 134.7692
1759.626, 134.4009
1761.554, 133.8503
1763.483, 133.5591
1765.411, 133.2558
1767.340, 132.8899
1769.268, 132.5677
1771.197, 132.4437
1773.125, 132.2691
1775.054, 132.2919
1776.982, 132.4434
1778.911, 132.1165
1780.839, 131.7413
1782.767, 131.3058
1784.696, 130.8529
1786.624, 130.6350
1788.553, 130.3430
1790.481, 130.0793
1792.410, 129.5230
1794.338, 129.1172
1796.267, 129.1766
1798.195, 129.1033
1800.124, 128.9156
1802.052, 128.4795
1803.981, 127.8571
1805.909, 127.9180
1807.838, 128.1761
1809.766, 128.0173
1811.694, 127.0669
1813.623, 126.3094
1815.551, 126.8141
1817.480, 127.2767
1819.408, 126.7492
1821.337, 125.9440
1823.265, 125.6061
1825.194, 125.4468
1827.122, 125.3638
1829.051, 125.4748
1830.979, 125.1512
1832.908, 124.7783
1834.836, 124.7699
1836.765, 124.2417
1838.693, 123.3053
1840.621, 123.1318
1842.550, 123.4035
1844.478, 122.8609
1846.407, 122.3362
1848.335, 122.2596
1850.264, 122.0144
1852.192, 121.7280
1854.121, 121.2657
1856.049, 120.7571
1857.978, 120.5780
1859.906, 120.3892
1861.835, 120.3721
1863.763, 120.3782
1865.692, 120.0127
1867.620, 119.7064
1869.548, 119.5658
1871.477, 119.0845
1873.405, 118.3398
1875.334, 117.8355
1877.262, 117.9512
1879.191, 117.7937
1881.119, 117.4519
1883.048, 117.5582
1884.976, 116.8335
1886.905, 115.8865
1888.833, 115.6755
1890.762, 115.8415
1892.690, 115.7352
1894.619, 115.3863
1896.547, 115.2290
1898.475, 114.8031
1900.404, 113.9993
1902.332, 113.9091
1904.261, 113.9318
1906.189, 113.5749
1908.118, 113.4439
1910.046, 112.7821
1911.975, 111.8861
1913.903, 111.8819
1915.832, 111.8244
1917.760, 111.4071
1919.689, 111.3379
1921.617, 111.3130
1923.546, 111.0120
1925.474, 110.5348
1927.402, 110.1985
1929.331, 110.1924
1931.259, 110.2541
1933.188, 110.0260
1935.116, 109.7567
1937.045, 109.0367
1938.973, 108.4207
1940.902, 108.8669
1942.830, 109.0336
1944.759, 108.7222
1946.687, 108.4539
1948.616, 108.1876
1950.544, 107.5615
1952.473, 106.8612
1954.401, 106.7694
1956.329, 106.8697
1958.258, 106.6724
1960.186, 106.2272
1962.115, 106.1292
1964.043, 106.0351
1965.972, 105.6832
1967.900, 105.3397
1969.829, 105.4055
1971.757, 105.3107
1973.686, 104.7596
1975.614, 104.2208
1977.543, 103.2767
1979.471, 102.5413
1981.400, 102.9958
1983.328, 103.3458
1985.256, 103.2144
1987.185, 102.8476
1989.113, 102.2257
1991.042, 101.7068
1992.970, 101.2414
1994.899, 100.8409
1996.827, 100.6478
1998.756, 100.4244
2000.684, 100.4136
2002.613, 100.6322
2004.541, 100.5501
2006.470, 100.0338
2008.398, 99.61818
2010.327, 99.86549
2012.255, 99.59272
2014.183, 98.85332
2016.112, 98.40247
2018.040, 98.57690
2019.969, 98.30923
2021.897, 97.59750
2023.826, 97.15049
2025.754, 97.23545
2027.683, 97.72408
2029.611, 97.66399
2031.540, 97.31813
2033.468, 97.44331
2035.397, 97.40350
2037.325, 96.93918
2039.254, 96.58952
2041.182, 96.22392
2043.110, 95.81174
2045.039, 95.46853
2046.967, 95.65699
2048.896, 95.59240
2050.824, 95.25346
2052.753, 94.95908
2054.681, 94.60800
2056.610, 94.30158
2058.538, 93.67045
2060.467, 93.35604
2062.395, 93.31895
2064.323, 93.17715
2066.252, 93.09138
2068.180, 92.51801
2070.109, 92.38474
2072.037, 92.32964
2073.966, 91.89629
2075.894, 91.62476
2077.823, 91.18813
2079.751, 90.80981
2081.680, 90.48684
2083.608, 90.83973
2085.537, 91.15463
2087.465, 90.40604
2089.394, 89.62016
2091.322, 89.47696
2093.250, 89.38937
2095.179, 88.80746
2097.107, 88.63475
2099.036, 88.81550
2100.964, 88.63270
2102.893, 87.96076
2104.821, 87.58861
2106.750, 87.58482
2108.678, 87.23028
2110.607, 86.67973
2112.535, 86.63490
2114.464, 86.44041
2116.392, 85.68089
2118.321, 85.20401
2120.249, 84.97008
2122.177, 84.93658
2124.106, 84.86892
2126.034, 84.62040
2127.963, 84.57463
2129.891, 84.61837
2131.820, 84.59269
2133.748, 84.56799
2135.677, 83.92579
2137.605, 83.00858
2139.534, 82.94328
2141.462, 82.73493
2143.391, 82.34774
2145.319, 82.30217
2147.248, 82.05746
2149.176, 81.64751
2151.104, 81.58643
2153.033, 81.56503
2154.961, 81.61892
2156.890, 81.55898
2158.818, 81.13013
2160.747, 80.63506
2162.675, 79.42780
2164.604, 78.81910
2166.532, 79.26018
2168.461, 79.23654
2170.389, 78.69315
2172.318, 78.86648
2174.246, 79.02164
2176.175, 78.66187
2178.103, 78.53547
2180.031, 78.19172
2181.960, 77.55949
2183.888, 77.28093
2185.817, 76.88302
2187.745, 76.44624
2189.674, 76.61674
2191.602, 76.73627
2193.531, 76.63878
2195.459, 76.43382
2197.388, 75.44986
2199.316, 74.68619
2201.245, 75.07610
2203.173, 75.38464
2205.102, 75.11844
2207.030, 74.89847
2208.958, 74.36501
2210.887, 73.89568
2212.815, 73.32008
2214.744, 73.11072
2216.672, 73.14165
2218.601, 72.47165
2220.529, 71.78381
2222.458, 71.80150
2224.386, 72.10975
2226.315, 71.89666
2228.243, 71.34647
2230.172, 71.24525
2232.100, 71.38791
2234.029, 70.98538
2235.957, 70.65982
2237.885, 70.93540
2239.814, 70.64484
2241.742, 69.59016
2243.671, 69.43013
2245.599, 69.63371
2247.528, 68.65287
2249.456, 68.05210
2251.385, 68.37183
2253.313, 68.82255
2255.242, 68.75703
2257.170, 68.06334
2259.099, 67.79313
2261.027, 67.82189
2262.956, 67.44941
2264.884, 67.01723
2266.813, 67.16698
2268.741, 67.17165
2270.669, 66.69595
2272.598, 66.19328
2274.526, 65.76974
2276.455, 65.75070
2278.383, 65.41037
2280.312, 65.09456
2282.240, 65.32323
2284.169, 65.49230
2286.097, 65.19135
2288.026, 64.59018
2289.954, 64.31211
2291.883, 64.38226
2293.811, 64.54829
2295.740, 64.07426
2297.668, 63.28108
2299.596, 63.09002
2301.525, 62.86736
2303.453, 62.27486
2305.382, 61.97820
2307.310, 61.89370
2309.239, 61.72029
2311.167, 61.53058
2313.096, 61.22506
2315.024, 60.98748
2316.953, 60.82679
2318.881, 60.35823
2320.810, 59.99514
2322.738, 59.86465
2324.667, 59.91703
2326.595, 59.92841
2328.523, 59.63108
2330.452, 59.04927
2332.380, 59.00928
2334.309, 59.24746
2336.237, 59.10711
2338.166, 58.25578
2340.094, 57.60244
2342.023, 57.65481
2343.951, 57.97123
2345.880, 58.05046
2347.808, 57.21177
2349.737, 56.54690
2351.665, 56.79358
2353.594, 56.74113
2355.522, 55.99149
2357.450, 55.89015
2359.379, 56.04908
2361.307, 56.12719
2363.236, 56.17957
2365.164, 55.91296
2367.093, 55.61710
2369.021, 55.45823
2370.950, 55.34585
2372.878, 54.86733
2374.807, 54.44469
2376.735, 54.17722
2378.664, 54.59562
2380.592, 54.65524
2382.521, 53.99138
2384.449, 53.70359
2386.377, 53.52926
2388.306, 53.58542
2390.234, 53.75448
2392.163, 53.63609
2394.091, 53.12671
2396.020, 52.77710
2397.948, 52.46557
2399.877, 52.08296
2401.805, 51.98629
2403.734, 52.17731
2405.662, 52.03566
2407.591, 51.44560
2409.519, 50.83582
2411.448, 50.85077
2413.376, 51.13153
2415.304, 50.99358
2417.233, 50.72760
2419.161, 50.62928
2421.090, 49.96621
2423.018, 49.52866
2424.947, 49.37994
2426.875, 49.51791
2428.804, 49.57509
2430.732, 49.13426
2432.661, 48.56427
2434.589, 47.94739
2436.518, 47.55896
2438.446, 47.62499
2440.375, 47.68809
2442.303, 47.69276
2444.231, 47.20661
2446.160, 46.46968
2448.088, 46.59964
2450.017, 46.39655
2451.945, 46.22915
2453.874, 45.67376
2455.802, 45.35395
2457.731, 45.66072
2459.659, 45.51323
2461.588, 45.03392
2463.516, 44.69606
2465.445, 44.64288
2467.373, 44.65769
2469.302, 44.30916
2471.230, 43.90062
2473.158, 43.66900
2475.087, 43.56503
2477.015, 43.56619
2478.944, 43.69607
2480.872, 43.26399
2482.801, 42.62211
2484.729, 42.65788
2486.658, 42.58075
2488.586, 42.51752
2490.515, 42.38671
2492.443, 42.27092
2494.372, 42.05139
2496.300, 41.62060
2498.229, 41.66267
2500.157, 41.52850
2502.085, 40.86551
2504.014, 40.65729
2505.942, 40.58155
2507.871, 40.11618
2509.799, 40.12282
2511.728, 40.07802
2513.656, 40.38041
2515.585, 41.72054
2517.513, 40.78540
2519.442, 39.84480
2521.370, 39.46917
2523.299, 38.93490
2525.227, 38.68230
2527.156, 38.62730
2529.084, 38.49625
2531.012, 38.50806
2532.941, 38.28509
2534.869, 37.64149
2536.798, 37.76204
2538.726, 38.07830
2540.655, 37.79621
2542.583, 37.37313
2544.512, 37.18057
2546.440, 36.99560
2548.369, 36.95190
2550.297, 37.00415
2552.226, 36.78584
2554.154, 36.40693
2556.083, 36.09750
2558.011, 35.78184
2559.939, 35.13985
2561.868, 34.92283
2563.796, 35.61806
2565.725, 35.65715
2567.653, 35.34554
2569.582, 34.93583
2571.510, 34.69272
2573.439, 34.51484
2575.367, 33.93380
2577.296, 33.71250
2579.224, 33.61828
2581.153, 33.57164
2583.081, 33.31759
2585.010, 33.19022
2586.938, 33.33187
2588.866, 33.14918
2590.795, 32.78785
2592.723, 32.70606
2594.652, 32.68788
2596.580, 32.30335
2598.509, 31.82599
2600.437, 31.56849
2602.366, 31.36096
2604.294, 31.52782
2606.223, 31.28317
2608.151, 30.93073
2610.080, 31.25811
2612.008, 31.25889
2613.937, 30.70072
2615.865, 30.68225
2617.793, 30.53078
2619.722, 30.18762
2621.650, 29.81720
2623.579, 29.65581
2625.507, 29.51771
2627.436, 29.28148
2629.364, 29.48238
2631.293, 29.53495
2633.221, 29.40578
2635.150, 29.16187
2637.078, 28.59470
2639.007, 28.51339
2640.935, 28.30664
2642.864, 28.19024
2644.792, 28.56755
2646.720, 28.23635
2648.649, 27.95046
2650.577, 28.22227
2652.506, 28.09856
2654.434, 27.70670
2656.363, 27.06008
2658.291, 26.83714
2660.220, 26.92803
2662.148, 26.76970
2664.077, 26.64398
2666.005, 26.97904
2667.934, 27.10250
2669.862, 26.53094
2671.791, 26.13974
2673.719, 26.10843
2675.647, 26.06000
2677.576, 25.88967
2679.504, 25.49244
2681.433, 25.46442
2683.361, 25.21438
2685.290, 24.68846
2687.218, 25.01572
2689.147, 25.36613
2691.075, 24.93677
2693.004, 24.76312
2694.932, 24.75062
2696.861, 24.54280
2698.789, 24.24618
2700.718, 23.98737
2702.646, 23.92131
2704.574, 23.89509
2706.503, 23.70324
2708.431, 23.59169
2710.360, 23.78076
2712.288, 23.16359
2714.217, 22.13538
2716.145, 22.39660
2718.074, 22.54269
2720.002, 22.64648
2721.931, 22.54427
2723.859, 22.19467
2725.788, 22.06547
2727.716, 21.57582
2729.645, 21.63514
2731.573, 21.79719
2733.501, 21.47684
2735.430, 21.75184
2737.358, 21.60520
2739.287, 20.99843
2741.215, 21.13931
2743.144, 21.01730
2745.072, 20.63663
2747.001, 20.88030
2748.929, 20.80408
2750.858, 20.27704
2752.786, 20.43405
2754.715, 20.31676
2756.643, 19.92120
2758.572, 19.86624
2760.500, 19.95120
2762.428, 19.87228
2764.357, 19.24768
2766.285, 19.08054
2768.214, 19.17198
2770.142, 19.30758
2772.071, 19.21798
2773.999, 18.99187
2775.928, 19.02503
2777.856, 18.85505
2779.785, 18.49429
2781.713, 18.30309
2783.642, 18.09632
2785.570, 18.02971
2787.499, 18.23709
2789.427, 18.40573
2791.355, 18.14028
2793.284, 17.87120
2795.212, 17.93476
2797.141, 17.79456
2799.069, 17.58744
2800.998, 17.49869
2802.926, 17.28271
2804.855, 17.03254
2806.783, 16.92771
2808.712, 16.96335
2810.640, 16.83567
2812.569, 16.60478
2814.497, 16.44167
2816.426, 16.20090
2818.354, 15.80118
2820.282, 15.81249
2822.211, 16.06600
2824.139, 16.09586
2826.068, 15.99976
2827.996, 15.77644
2829.925, 15.56873
2831.853, 15.30571
2833.782, 15.09344
2835.710, 15.18278
2837.639, 15.20358
2839.567, 15.02342
2841.496, 15.01376
2843.424, 14.83037
2845.353, 14.71137
2847.281, 14.63396
2849.209, 14.44058
2851.138, 14.43164
2853.066, 14.64079
2854.995, 14.40816
2856.923, 14.21851
2858.852, 14.02472
2860.780, 13.88213
2862.709, 13.80725
2864.637, 13.93741
2866.566, 13.59583
2868.494, 13.38698
2870.423, 13.50865
2872.351, 13.31231
2874.280, 13.12081
2876.208, 12.95444
2878.136, 12.98394
2880.065, 12.98938
2881.993, 12.83624
2883.922, 12.56081
2885.850, 12.66501
2887.779, 12.79430
2889.707, 12.62607
2891.636, 12.17463
2893.564, 12.12385
2895.493, 12.18821
2897.421, 12.05226
2899.350, 12.11529
2901.278, 12.10109
2903.207, 12.01280
2905.135, 11.97598
2907.063, 12.02147
2908.992, 12.04845
2910.920, 11.90209
2912.849, 11.56562
2914.777, 11.34578
2916.706, 11.28843
2918.634, 11.22207
2920.563, 11.17659
2922.491, 11.12344
2924.420, 11.01933
2926.348, 10.89010
2928.277, 10.72388
2930.205, 10.50848
2932.134, 10.74016
2934.062, 10.79469
2935.990, 10.57803
2937.919, 10.39311
2939.847, 10.32024
2941.776, 10.23337
2943.704, 10.03470
2945.633, 10.34179
2947.561, 10.34789
2949.490, 9.838214
2951.418, 9.941604
2953.347, 10.03069
2955.275, 9.910894
2957.204, 9.866718
2959.132, 9.824341
2961.061, 9.620091
2962.989, 9.438053
2964.917, 9.293773
2966.846, 9.219761
2968.774, 9.172695
2970.703, 9.017641
2972.631, 8.722733
2974.560, 8.651050
2976.488, 8.780101
2978.417, 8.706848
2980.345, 8.789595
2982.274, 8.774140
2984.202, 8.383227
2986.131, 8.495769
2988.059, 8.575856
2989.988, 8.521094
2991.916, 8.861097
2993.844, 8.489147
2995.773, 8.032062
2997.701, 8.255976
2999.630, 8.335587
3001.558, 8.423100
3003.487, 8.416572
3005.415, 7.822795
3007.344, 7.874304
3009.272, 7.936872
3011.201, 7.623489
3013.129, 7.629404
3015.058, 7.673605
3016.986, 7.641020
3018.915, 7.602317
3020.843, 7.349237
3022.771, 7.218894
3024.700, 7.245108
3026.628, 7.311730
3028.557, 7.258843
3030.485, 7.188697
3032.414, 7.204134
3034.342, 7.004469
3036.271, 6.916354
3038.199, 6.991366
3040.128, 7.256687
3042.056, 6.909804
3043.985, 6.531400
3045.913, 6.585533
3047.842, 6.599941
3049.770, 6.581949
3051.698, 6.580628
3053.627, 6.557078
3055.555, 6.543108
3057.484, 6.392913
3059.412, 6.271037
3061.341, 6.444832
3063.269, 6.352596
3065.198, 6.197659
3067.126, 6.248921
3069.055, 6.156247
3070.983, 6.306856
3072.912, 6.398500
3074.840, 5.958901
3076.769, 5.856166
3078.697, 5.865695
3080.625, 5.809342
3082.554, 5.719530
3084.482, 5.681667
3086.411, 5.721091
3088.339, 5.874994
3090.268, 5.749696
3092.196, 5.519811
3094.125, 5.408188
3096.053, 5.595665
3097.982, 5.653158
3099.910, 5.416417
3101.839, 5.154813
3103.767, 5.058159
3105.696, 5.190864
3107.624, 5.300489
3109.552, 5.322180
3111.481, 5.363060
3113.409, 5.156537
3115.338, 5.010936
3117.266, 5.130288
3119.195, 5.241346
3121.123, 5.021047
3123.052, 4.962045
3124.980, 5.244448
3126.909, 4.827078
3128.837, 4.756938
3130.766, 4.848347
3132.694, 4.981475
3134.623, 4.819746
3136.551, 4.689640
3138.479, 4.647047
3140.408, 4.627505
3142.336, 4.775382
3144.265, 4.616796
3146.193, 4.340667
3148.122, 4.309094
3150.050, 4.356320
3151.979, 4.183746
3153.907, 3.982992
3155.836, 4.157344
3157.764, 4.136848
3159.693, 4.183891
3161.621, 4.261133
3163.550, 4.174011
3165.478, 3.965610
3167.406, 3.945453
3169.335, 4.003632
3171.263, 3.886429
3173.192, 3.880582
3175.120, 3.925459
3177.049, 3.926445
3178.977, 4.017769
3180.906, 4.002448
3182.834, 3.973797
3184.763, 3.998160
3186.691, 3.630428
3188.620, 3.785976
3190.548, 3.774688
3192.477, 3.465424
3194.405, 3.776082
3196.333, 3.613708
3198.262, 3.424419
3200.190, 3.443112
3202.119, 3.565885
3204.047, 3.493265
3205.976, 3.315289
3207.904, 3.128507
3209.833, 3.072511
3211.761, 3.406461
3213.690, 3.487075
3215.618, 3.107049
3217.547, 3.262197
3219.475, 3.444488
3221.404, 3.297942
3223.332, 2.949218
3225.260, 3.222382
3227.189, 3.090859
3229.117, 2.979501
3231.046, 2.989298
3232.974, 3.049521
3234.903, 2.829330
3236.831, 2.862963
3238.760, 3.076720
3240.688, 2.969530
3242.617, 2.872049
3244.545, 2.747413
3246.474, 2.675730
3248.402, 2.896792
3250.331, 2.841500
3252.259, 2.768569
3254.187, 2.728420
3256.116, 2.726898
3258.044, 2.797837
3259.973, 2.720734
3261.901, 2.659407
3263.830, 2.864224
3265.758, 2.840279
3267.687, 2.903585
3269.615, 2.913789
3271.543, 2.751683
3273.472, 2.701298
3275.400, 2.721662
3277.329, 2.608041
3279.257, 2.371058
3281.186, 2.498019
3283.114, 2.505140
3285.043, 2.560874
3286.971, 2.643345
3288.900, 2.725896
3290.828, 2.379962
3292.757, 2.464010
3294.685, 2.631098
3296.614, 2.262402
3298.542, 2.407229
3300.470, 2.482068
3302.399, 2.441709
3304.327, 2.393544
3306.256, 2.513866
3308.184, 2.418668
3310.113, 2.376245
3312.041, 2.475214
3313.970, 2.351166
3315.898, 2.285228
3317.827, 2.149104
3319.755, 2.073743
3321.684, 2.345396
3323.612, 2.362154
3325.541, 2.327246
3327.469, 2.197899
3329.397, 1.974178
3331.326, 2.175908
3333.254, 2.175593
3335.183, 2.050630
3337.111, 1.926559
3339.040, 1.929641
3340.968, 2.173760
3342.897, 2.115162
3344.825, 1.930765
3346.754, 1.936459
3348.682, 2.108793
3350.611, 1.982807
3352.539, 1.850328
3354.468, 1.947675
3356.396, 2.340204
3358.324, 1.966362
3360.253, 1.856037
3362.181, 2.034220
3364.110, 1.837355
3366.038, 1.844807
3367.967, 1.970337
3369.895, 1.909392
3371.824, 1.641932
3373.752, 1.598408
3375.681, 2.014778
3377.609, 2.052433
3379.538, 1.810838
3381.466, 1.960279
3383.395, 1.844615
3385.323, 1.713730
3387.251, 1.690997
3389.180, 1.747292
3391.108, 1.687085
3393.037, 1.799119
3394.965, 1.786001
3396.894, 1.713505
3398.822, 1.795796
3400.751, 1.897347
3402.679, 1.542471
3404.608, 1.415854
3406.536, 1.678215
3408.465, 1.552016
3410.393, 1.554945
3412.322, 1.546654
3414.250, 1.494892
3416.178, 1.437991
3418.107, 1.897848
3420.035, 1.713171
3421.964, 1.566690
3423.892, 1.580551
3425.821, 1.393048
3427.749, 1.455181
3429.678, 1.648889
3431.606, 1.566913
3433.535, 1.314273
3435.463, 1.683960
3437.392, 1.659851
3439.320, 1.447341
3441.249, 1.406275
3443.177, 1.625256
3445.105, 1.480542
3447.034, 1.212596
3448.962, 1.480054
3450.891, 1.840093
3452.819, 1.640286
3454.748, 1.613831
3456.676, 1.483195
3458.605, 1.625520
3460.533, 1.764868
3462.462, 1.336761
3464.390, 1.299149
3466.319, 1.331522
3468.247, 1.272425
3470.176, 1.215603
3472.104, 1.431972
3474.032, 1.128292
3475.961, 1.184417
3477.889, 1.329008
3479.818, 1.308002
3481.746, 1.208240
3483.675, 1.306020
3485.603, 1.479160
3487.532, 1.530656
3489.460, 1.408479
3491.389, 1.286940
3493.317, 1.295528
3495.246, 1.285780
3497.174, 1.358991
3499.103, 1.513050
3501.031, 1.437619
3502.959, 1.129176
3504.888, 1.243188
3506.816, 1.328475
3508.745, 1.126469
3510.673, 1.215098
3512.602, 1.194469
3514.530, 1.168708
3516.459, 1.197699
3518.387, 1.253679
3520.316, 1.229991
3522.244, 1.173373
3524.173, 1.098309
3526.101, 1.061368
3528.030, 1.110963
3529.958, 1.265276
3531.886, 1.279515
3533.815, 1.063767
3535.743, 0.9432627
3537.672, 1.053440
3539.600, 1.242363
3541.529, 1.142226
3543.457, 1.098773
3545.386, 1.084405
3547.314, 1.080370
3549.243, 1.120025
3551.171, 0.8468555
3553.100, 1.160719
3555.028, 1.243108
3556.957, 1.038451
3558.885, 0.9602296
3560.813, 0.9880294
3562.742, 0.8592122
3564.670, 0.7936140
3566.599, 0.9504836
3568.527, 1.182898
3570.456, 0.7253662
3572.384, 0.7494925
3574.313, 0.8249274
3576.241, 1.753050
3578.170, 2.819870
3580.098, 1.518416
3582.027, 1.041909
3583.955, 0.8166751
3585.884, 0.8221390
3587.812, 0.9654256
3589.740, 1.051350
3591.669, 1.029563
3593.597, 0.9553480
3595.526, 1.031424
3597.454, 1.082605
3599.383, 0.9899901
3601.311, 0.9642932
3603.240, 0.7545208
3605.168, 0.7576950
3607.097, 0.8005136
3609.025, 0.8956153
3610.954, 1.168169
3612.882, 1.022811
3614.811, 0.9695412
3616.739, 1.015821
3618.667, 1.055403
3620.596, 0.9981083
3622.524, 0.7615076
3624.453, 0.8453576
3626.381, 0.9587497
3628.310, 0.8513697
3630.238, 0.6882913
3632.167, 0.7546512
3634.095, 0.8104249
3636.024, 1.026931
3637.952, 0.9555576
3639.881, 0.8015442
3641.809, 0.7905784
3643.738, 0.8860210
3645.666, 0.6355219
3647.594, 2.689629
3649.523, 2.549965
3651.451, 1.069917
3653.380, 0.5586876
3655.308, 0.5474226
3657.237, 0.8060229
3659.165, 0.9199215
3661.094, 0.7896779
3663.022, 0.6156397
3664.951, 0.6213046
3666.879, 0.7279853
3668.808, 0.6679754
3670.736, 0.9613438
3672.665, 0.9447129
3674.593, 0.7071537
3676.521, 0.7638242
3678.450, 0.5378028
3680.378, 0.7865760
3682.307, 0.7678764
3684.235, 0.6695797
3686.164, 0.7706671
3688.092, 1.015517
3690.021, 0.7073702
3691.949, 0.7456533
3693.878, 0.8701689
3695.806, 0.7689146
3697.735, 0.6154745
3699.663, 0.7467407
3701.592, 0.6465115
3703.520, 0.6896175
3705.448, 0.7585291
3707.377, 0.6240219
3709.305, 0.5098838
3711.234, 0.7601660
3713.162, 0.9017645
3715.091, 0.6714823
3717.019, 0.8001801
3718.948, 0.6997498
3720.876, 0.5063061
3722.805, 0.6494206
3724.733, 0.4715510
3726.662, 0.6892045
3728.590, 0.5357905
3730.519, 0.6150704
3732.447, 0.7656290
3734.375, 0.6186764
3736.304, 0.4652302
3738.232, 0.6660560
3740.161, 0.7765226
3742.089, 0.6407450
3744.018, 0.6542965
3745.946, 0.8338498
3747.875, 0.7239708
3749.803, 0.5319154
3751.732, 0.3639087
3753.660, 0.5317476
3755.589, 0.6386549
3757.517, 0.6044125
3759.446, 0.6194953
3761.374, 0.6529134
3763.302, 0.4684338
3765.231, 0.2820383
3767.159, 0.3996085
3769.088, 0.7144672
3771.016, 0.9168583
3772.945, 0.7522107
3774.873, 0.6539778
3776.802, 0.5146681
3778.730, 0.3688788
3780.659, 0.6219049
3782.587, 0.8764413
3784.516, 0.6823043
3786.444, 0.5588863
3788.373, 0.7857639
3790.301, 0.7187037
3792.229, 0.7610047
3794.158, 0.7446903
3796.086, 0.6218965
3798.015, 0.5751199
3799.943, 0.4533635
3801.872, 0.4929627
3803.800, 0.4875982
3805.729, 0.4805507
3807.657, 0.5310187
3809.586, 0.5715919
3811.514, 0.5198153
3813.443, 0.5606548
3815.371, 0.3631969
3817.300, 0.7286848
3819.228, 0.6999069
3821.156, 0.4626046
3823.085, 0.4547386
3825.013, 0.5484560
3826.942, 0.2753198
3828.870, 0.4838065
3830.799, 0.5443507
3832.727, 0.5923369
3834.656, 0.5477159
3836.584, 0.4570839
3838.513, 0.5255064
3840.441, 0.5925408
3842.370, 0.5205749
3844.298, 0.4826108
3846.227, 0.6134022
3848.155, 0.5955352
3850.083, 0.4621565
3852.012, 0.4517187
3853.940, 0.3023124
3855.869, 0.5121606
3857.797, 0.3278599
3859.726, 0.5687959
3861.654, 0.5063554
3863.583, 0.3985138
3865.511, 0.6284438
3867.440, 0.5048209
3869.368, 0.4446365
3871.297, 0.5899044
3873.225, 0.6690353
3875.154, 0.4225977
3877.082, 0.5486995
3879.010, 0.8476135
3880.939, 0.5626069
3882.867, 0.3522494
3884.796, 0.3743979
3886.724, 0.5375191
3888.653, 0.3634863
3890.581, 0.4940242
3892.510, 0.6193345
3894.438, 0.5547767
3896.367, 0.7974537
3898.295, 0.7667204
3900.224, 0.7509431
3902.152, 0.5263153
3904.081, 0.4120065
3906.009, 0.5273896
3907.938, 0.6215711
3909.866, 0.5551119
3911.794, 0.5232130
3913.723, 0.5486435
3915.651, 0.5414866
3917.580, 0.3253612
3919.508, 0.5226534
3921.437, 0.6069155
3923.365, 0.5319564
3925.294, 0.5414587
3927.222, 0.5104865
3929.151, 0.5564461
3931.079, 0.4454986
3933.008, 0.4742163
3934.936, 0.2224805
3936.865, 0.4019469
3938.793, 0.6076584
3940.721, 0.5101895
3942.650, 0.5763579
3944.578, 0.6769791
3946.507, 0.7112581
3948.435, 0.6397111
3950.364, 0.3961762
3952.292, 0.5619687
3954.221, 0.5791361
3956.149, 0.4675269
3958.078, 0.6477203
3960.006, 0.7637981
3961.935, 0.3421561
3963.863, 0.4420786
3965.792, 0.6330153
3967.720, 0.4220697
3969.648, 0.5961347
3971.577, 0.5971845
3973.505, 0.4362382
3975.434, 0.6689543
3977.362, 0.5426445
3979.291, 0.5911636
3981.219, 0.4800914
3983.148, 0.4084195
3985.076, 0.2486856
3987.005, 0.2743212
3988.933, 0.4226236
3990.862, 0.4395007
3992.790, 0.3574967
3994.719, 0.4219070
3996.647, 0.1887103
3998.575, 0.2333746
4000.504, 0.2073758
4002.432, 0.3320758
4004.361, 0.2410343
4006.289, 0.1070927
4008.218, 0.1399597
4010.146, 0.2242942
4012.075, 0.3156489
4014.003, 0.2826115
4015.932, 0.3010530
4017.860, 0.2369696
4019.789, 0.4381500
4021.717, 0.5438992
4023.646, 0.3911602
4025.574, 0.3080683
4027.502, 0.3073837
4029.431, 0.1149397
4031.359, 0.3805554
4033.288, 0.1591409
4035.216, 0.2024213
4037.145, 0.1811692
4039.073, 0.1780415
4041.002, 0.3009554
4042.930, 0.3955526
4044.859, 0.3606165
4046.787, 0.3547865
4048.716, 0.4951085
4050.644, 0.3389951
4052.573, 0.3272974
4054.501, 8.7610550E-02
4056.429, 0.1070602
4058.358, 0.2159234
4060.286, 0.2837316
4062.215, 0.2026299
4064.143, 0.2962944
4066.072, 0.5022153
4068.000, 0.2645762
4069.929, 0.2837487
4071.857, 0.2104782
4073.786, 8.7980554E-02
4075.714, 0.4356984
4077.643, 0.2660707
4079.571, 0.2781788
4081.500, 0.2324436
4083.428, 0.2739398
4085.356, 0.3203787
4087.285, 0.1835127
4089.213, 0.4115148
4091.142, 0.4214352
4093.070, 0.2098987
4094.999, 0.1040377
4096.927, 5.7644479E-02
4098.855, 0.2402816
4100.784, 0.4482661
4102.712, 0.5847073
4104.641, 0.3780638
4106.569, 0.1871884
4108.498, 0.2682416
4110.426, 0.2086383
4112.355, 0.4723195
4114.283, 0.3285427
4116.212, 0.2431319
4118.140, 0.3069199
4120.069, 0.5322299
4121.997, 0.3456038
4123.926, 8.9162908E-02
4125.854, 0.1922359
4127.783, 0.4056081
4129.711, 0.5138524
4131.640, 0.5856040
4133.568, 0.4599472
4135.497, -7.0881732E-02
4137.425, 0.1071546
4139.354, 0.2252404
4141.282, 4.0919919E-02
4143.210, 0.1723586
4145.139, 0.3257864
4147.067, 0.1762632
4148.996, 0.3197559
4150.924, 0.4324965
4152.853, 0.3796431
4154.781, 0.3145157
4156.709, 0.1992199
4158.638, 0.4897141
4160.566, 0.1798182
4162.495, 0.1396429
4164.423, 3.5112150E-02
4166.352, 0.2444621
4168.280, 0.3931054
4170.209, 0.4527479
4172.137, 0.2797119
4174.066, 0.1732969
4175.994, 0.1834058
4177.923, 0.2802636
4179.851, 0.3118581
4181.780, 0.2591198
4183.708, 0.3798676
4185.637, 0.2740783
4187.565, 0.3865161
4189.494, 0.6058933
4191.422, 0.6300868
4193.351, 0.1775483
4195.279, 0.1606306
4197.208, 0.4131007
4199.136, 0.3459207
4201.064, 0.2487479
4202.993, 0.3993246
4204.921, 0.6494615
4206.850, 0.6260678
4208.778, 0.4297488
4210.707, 0.5180986
4212.635, 0.5535063
4214.563, 2.3526620E-02
4216.492, 0.5763232
4218.420, 0.5359388
4220.349, 9.9557430E-02
4222.277, -0.1361575
4224.206, 0.4692930
4226.134, 0.2521268
4228.063, 0.2629475
4229.991, 0.1394243
4231.920, 0.2835256
4233.848, 0.1796189
4235.777, 0.1993734
4237.705, 0.3084880
4239.634, 0.1734364
4241.562, 0.3482459
4243.491, 0.3322913
4245.419, -4.0166620E-02
4247.348, 0.4594022
4249.276, 9.5849708E-02
4251.205, 0.1945780
4253.133, 0.4301907
4255.062, 0.3753564
4256.990, 0.2509419
4258.918, 8.1412241E-02
4260.847, 0.1867415
4262.775, 0.4219766
4264.704, 0.1655221
4266.632, 9.1199070E-02
4268.561, 0.2734934
4270.489, 0.2709796
4272.417, 9.4937697E-02
4274.346, 8.9256838E-02
4276.274, 0.2642046
4278.203, 0.2704278
4280.131, 0.3029388
4282.060, 0.1366867
4283.988, 8.7181553E-02
4285.917, 0.3266829
4287.845, 0.3515722
4289.774, 0.2089542
4291.702, 0.3789765
4293.631, 0.4222265
4295.559, 0.3454740
4297.488, 0.3226418
4299.416, 0.1813170
4301.345, 0.2069896
4303.273, 5.5280719E-02
4305.202, 0.1068413
4307.130, 0.3354578
4309.059, 0.2660067
4310.987, 0.2000579
4312.916, 0.6068029
4314.844, 0.5033047
4316.772, 3.5295218E-02
4318.701, 0.3697087
4320.629, 0.1602121
4322.558, 1.1544530E-02
4324.486, 0.4365350
4326.415, 0.4804400
4328.343, 0.2841803
4330.271, 8.0044933E-02
4332.200, 0.2807061
4334.128, 0.3042333
4336.057, 0.2483237
4337.985, 0.3781534
4339.914, 0.5580197
4341.842, 0.3289064
4343.771, 0.1844918
4345.699, 0.2895267
4347.628, 0.4606554
4349.556, 0.2227437
4351.485, 0.5332167
4353.413, 0.5443372
4355.342, 0.4855928
4357.270, 0.3060960
4359.199, 0.3375427
4361.127, 0.2979040
4363.056, 0.3019917
4364.984, 0.1163747
4366.913, 6.4598329E-02
4368.841, 0.3205840
4370.770, 0.1449387
4372.698, 7.4630238E-02
4374.626, -1.5374779E-03
4376.555, 0.1411730
4378.483, 0.2186315
4380.412, 8.2404964E-02
4382.340, 3.2129738E-02
##END=



