##NAMES=Shkatulkalite
##RRUFFID=R110193
##IDEAL CHEMISTRY=Na_2_Nb_2_Na_3_Ti(Si_2_O_7_)_2_O_2_(FO)(H_2_O)_4_(H_2_O)_3_
##LOCALITY=Demix-Varennes quarry, Saint-Amable sill, Varennes & St-Amable, Lajemmerais RCM, Monteregie, Quebec, Canada
##OWNER=RRUFF
##SOURCE=Donald Doell
##DESCRIPTION=Pale yellow platy
##STATUS=The identification of this mineral is not yet confirmed
##URL=https://www.rruff.net/odr/rruff_sample/R110193
##FILETYPE=Raman Processed
##RAMAN WAVELENGTH=780

191.1697, 2768.026
193.0981, 2774.193
195.0266, 2781.309
196.9551, 2785.025
198.8835, 2786.471
200.8120, 2789.159
202.7405, 2793.983
204.6689, 2798.593
206.5974, 2802.741
208.5259, 2806.444
210.4543, 2808.431
212.3828, 2810.414
214.3113, 2815.952
216.2397, 2826.310
218.1682, 2834.013
220.0967, 2837.119
222.0251, 2839.364
223.9536, 2841.432
225.8821, 2843.529
227.8105, 2845.535
229.7390, 2847.559
231.6675, 2851.106
233.5959, 2858.698
235.5244, 2864.173
237.4529, 2864.156
239.3813, 2864.761
241.3098, 2870.737
243.2383, 2879.659
245.1667, 2886.340
247.0952, 2889.623
249.0237, 2894.039
250.9521, 2901.301
252.8806, 2907.258
254.8091, 2908.899
256.7375, 2910.132
258.6660, 2914.762
260.5945, 2922.427
262.5229, 2928.569
264.4514, 2932.484
266.3799, 2936.416
268.3083, 2939.749
270.2368, 2944.284
272.1653, 2952.948
274.0938, 2962.373
276.0222, 2966.958
277.9507, 2966.146
279.8792, 2968.571
281.8076, 2975.771
283.7361, 2981.992
285.6646, 2985.989
287.5930, 2987.865
289.5215, 2986.037
291.4500, 2982.406
293.3784, 2982.361
295.3069, 2986.340
297.2354, 2987.738
299.1638, 2985.151
301.0923, 2982.618
303.0208, 2982.126
304.9492, 2981.978
306.8777, 2981.423
308.8062, 2980.344
310.7346, 2977.888
312.6631, 2973.991
314.5916, 2970.446
316.5200, 2967.261
318.4485, 2964.641
320.3770, 2962.419
322.3054, 2960.782
324.2339, 2960.593
326.1624, 2961.124
328.0908, 2959.993
330.0193, 2957.309
331.9477, 2953.851
333.8762, 2949.011
335.8047, 2945.143
337.7331, 2942.485
339.6616, 2941.471
341.5901, 2943.711
343.5185, 2947.631
345.4470, 2948.729
347.3755, 2946.849
349.3039, 2945.827
351.2324, 2947.552
353.1609, 2947.808
355.0893, 2943.915
357.0178, 2940.049
358.9463, 2940.748
360.8747, 2943.226
362.8032, 2941.474
364.7317, 2935.535
366.6601, 2931.546
368.5886, 2930.794
370.5171, 2931.228
372.4455, 2933.347
374.3740, 2935.432
376.3025, 2935.979
378.2309, 2935.979
380.1594, 2936.551
382.0879, 2937.730
384.0163, 2940.286
385.9448, 2945.877
387.8733, 2949.722
389.8017, 2951.097
391.7302, 2951.422
393.6587, 2950.643
395.5871, 2949.682
397.5156, 2949.479
399.4441, 2949.758
401.3725, 2949.514
403.3010, 2948.649
405.2295, 2947.072
407.1579, 2942.748
409.0864, 2940.653
411.0149, 2944.720
412.9433, 2948.146
414.8718, 2944.425
416.8003, 2938.224
418.7287, 2938.046
420.6572, 2944.437
422.5857, 2947.592
424.5141, 2947.083
426.4426, 2944.743
428.3711, 2938.375
430.2995, 2934.448
432.2280, 2938.386
434.1565, 2943.901
436.0849, 2945.623
438.0134, 2944.937
439.9419, 2945.952
441.8703, 2948.890
443.7988, 2952.756
445.7273, 2958.036
447.6557, 2962.481
449.5842, 2964.819
451.5127, 2967.169
453.4411, 2971.016
455.3696, 2974.798
457.2981, 2977.322
459.2265, 2978.359
461.1550, 2976.223
463.0835, 2970.667
465.0119, 2968.877
466.9404, 2973.390
468.8689, 2974.500
470.7973, 2966.433
472.7258, 2958.367
474.6543, 2954.017
476.5827, 2952.083
478.5112, 2951.972
480.4397, 2953.150
482.3681, 2953.856
484.2966, 2954.118
486.2251, 2952.487
488.1535, 2947.376
490.0820, 2945.389
492.0105, 2950.716
493.9389, 2956.179
495.8674, 2961.249
497.7959, 2963.400
499.7243, 2957.996
501.6528, 2948.718
503.5813, 2944.297
505.5097, 2944.130
507.4382, 2943.317
509.3667, 2941.531
511.2951, 2939.489
513.2236, 2936.142
515.1521, 2934.295
517.0806, 2935.755
519.0090, 2937.353
520.9375, 2937.125
522.8660, 2935.389
524.7944, 2931.981
526.7229, 2927.653
528.6514, 2925.075
530.5798, 2924.722
532.5083, 2924.088
534.4368, 2923.868
536.3652, 2922.249
538.2937, 2916.710
540.2222, 2913.134
542.1506, 2914.446
544.0791, 2918.036
546.0076, 2922.752
547.9360, 2927.485
549.8645, 2929.893
551.7930, 2930.256
553.7214, 2932.993
555.6499, 2938.875
557.5784, 2945.089
559.5068, 2952.162
561.4353, 2958.683
563.3638, 2963.993
565.2922, 2969.411
567.2207, 2975.483
569.1492, 2981.898
571.0776, 2989.871
573.0061, 2997.127
574.9345, 2999.706
576.8630, 2997.723
578.7914, 2992.396
580.7199, 2982.163
582.6484, 2975.033
584.5768, 2973.158
586.5053, 2968.498
588.4338, 2957.761
590.3622, 2947.474
592.2907, 2940.660
594.2192, 2935.206
596.1476, 2930.642
598.0761, 2925.870
600.0046, 2918.235
601.9330, 2909.145
603.8615, 2905.155
605.7900, 2900.594
607.7184, 2896.477
609.6469, 2896.729
611.5754, 2892.039
613.5038, 2892.723
615.4323, 2892.599
617.3608, 2889.437
619.2892, 2885.102
621.2177, 2878.630
623.1462, 2873.193
625.0746, 2871.825
627.0031, 2872.966
628.9316, 2875.323
630.8600, 2878.004
632.7885, 2877.021
634.7170, 2872.625
636.6454, 2866.737
638.5739, 2859.170
640.5024, 2852.905
642.4308, 2848.072
644.3593, 2845.703
646.2878, 2847.512
648.2162, 2849.771
650.1447, 2851.708
652.0732, 2852.864
654.0016, 2852.433
655.9301, 2851.305
657.8586, 2850.160
659.7870, 2849.402
661.7155, 2850.082
663.6440, 2852.042
665.5724, 2854.323
667.5009, 2856.865
669.4294, 2860.164
671.3578, 2865.603
673.2863, 2868.382
675.2148, 2865.847
677.1432, 2863.841
679.0717, 2863.995
681.0002, 2864.461
682.9286, 2863.981
684.8571, 2863.760
686.7856, 2865.263
688.7141, 2865.554
690.6425, 2868.068
692.5710, 2868.363
694.4995, 2869.941
696.4279, 2872.768
698.3564, 2875.590
700.2849, 2878.540
702.2133, 2881.151
704.1418, 2883.533
706.0703, 2885.429
707.9987, 2885.900
709.9272, 2887.623
711.8557, 2892.402
713.7841, 2896.302
715.7126, 2897.640
717.6411, 2897.701
719.5695, 2896.558
721.4980, 2895.252
723.4265, 2895.235
725.3549, 2895.284
727.2834, 2892.454
729.2119, 2888.310
731.1403, 2889.096
733.0688, 2887.138
734.9973, 2886.015
736.9257, 2887.804
738.8542, 2885.449
740.7827, 2888.294
742.7111, 2890.248
744.6396, 2890.552
746.5681, 2889.859
748.4965, 2888.289
750.4250, 2885.618
752.3535, 2880.503
754.2819, 2876.471
756.2104, 2875.870
758.1389, 2876.345
760.0673, 2876.895
761.9958, 2877.558
763.9243, 2877.689
765.8527, 2878.388
767.7812, 2882.430
769.7097, 2888.040
771.6381, 2889.066
773.5666, 2886.661
775.4951, 2889.073
777.4235, 2895.701
779.3520, 2900.362
781.2805, 2902.624
783.2089, 2904.072
785.1374, 2904.980
787.0659, 2905.134
788.9943, 2903.969
790.9228, 2903.834
792.8513, 2905.899
794.7797, 2908.253
796.7082, 2911.997
798.6367, 2913.777
800.5651, 2909.250
802.4936, 2906.134
804.4221, 2910.450
806.3505, 2916.991
808.2790, 2922.072
810.2075, 2926.138
812.1359, 2928.872
814.0644, 2931.554
815.9929, 2935.952
817.9213, 2941.876
819.8498, 2949.938
821.7783, 2959.033
823.7067, 2964.144
825.6352, 2965.338
827.5637, 2967.998
829.4921, 2972.483
831.4206, 2976.137
833.3491, 2978.412
835.2775, 2981.581
837.2060, 2987.879
839.1345, 2991.570
841.0629, 2990.200
842.9914, 2991.245
844.9199, 2997.011
846.8483, 3002.722
848.7768, 3006.416
850.7053, 3011.135
852.6337, 3018.250
854.5622, 3025.705
856.4907, 3032.432
858.4191, 3038.896
860.3476, 3046.221
862.2761, 3052.228
864.2045, 3054.997
866.1330, 3056.284
868.0615, 3057.969
869.9899, 3059.002
871.9184, 3056.667
873.8469, 3053.965
875.7753, 3055.403
877.7038, 3060.641
879.6323, 3070.255
881.5607, 3082.550
883.4892, 3091.200
885.4177, 3096.825
887.3461, 3104.028
889.2746, 3112.357
891.2031, 3116.456
893.1315, 3116.391
895.0600, 3115.250
896.9885, 3113.069
898.9169, 3112.112
900.8454, 3110.200
902.7739, 3107.931
904.7023, 3106.501
906.6308, 3102.683
908.5593, 3100.318
910.4877, 3096.652
912.4162, 3091.275
914.3447, 3085.139
916.2731, 3077.648
918.2016, 3072.701
920.1301, 3073.219
922.0585, 3072.135
923.9870, 3066.974
925.9155, 3060.765
927.8439, 3054.832
929.7724, 3046.088
931.7009, 3031.286
933.6293, 3016.299
935.5578, 3003.990
937.4863, 2991.087
939.4147, 2977.151
941.3432, 2961.167
943.2717, 2940.305
945.2001, 2920.821
947.1286, 2908.459
949.0571, 2897.016
950.9855, 2881.837
952.9140, 2866.094
954.8425, 2850.861
956.7709, 2837.646
958.6994, 2828.812
960.6279, 2821.252
962.5563, 2811.640
964.4848, 2801.736
966.4133, 2793.732
968.3417, 2786.041
970.2702, 2775.728
972.1987, 2765.820
974.1271, 2761.039
976.0556, 2758.639
977.9841, 2755.447
979.9125, 2751.430
981.8410, 2745.492
983.7695, 2739.332
985.6979, 2736.426
987.6264, 2735.295
989.5549, 2733.363
991.4833, 2730.476
993.4118, 2725.351
995.3403, 2723.757
997.2687, 2717.731
999.1972, 2718.290
1001.126, 2716.402
1003.054, 2713.053
1004.983, 2711.368
1006.911, 2710.688
1008.840, 2708.885
1010.768, 2706.025
1012.696, 2701.542
1014.625, 2696.157
1016.553, 2692.613
1018.482, 2690.546
1020.410, 2689.172
1022.339, 2688.259
1024.267, 2687.090
1026.196, 2685.972
1028.124, 2687.287
1030.053, 2689.675
1031.981, 2686.778
1033.910, 2680.115
1035.838, 2674.157
1037.767, 2669.210
1039.695, 2665.941
1041.624, 2664.561
1043.552, 2668.025
1045.480, 2673.650
1047.409, 2672.438
1049.337, 2666.305
1051.266, 2659.977
1053.194, 2654.412
1055.123, 2653.005
1057.051, 2654.196
1058.980, 2654.025
1060.908, 2652.559
1062.837, 2648.538
1064.765, 2649.362
1066.694, 2644.956
1068.622, 2648.839
1070.550, 2650.211
1072.479, 2650.092
1074.407, 2651.287
1076.336, 2650.132
1078.264, 2650.543
1080.193, 2646.823
1082.121, 2642.889
1084.050, 2639.481
1085.978, 2638.652
1087.907, 2638.612
1089.835, 2636.897
1091.764, 2633.743
1093.692, 2626.465
1095.620, 2620.830
1097.549, 2628.149
1099.477, 2638.185
1101.406, 2638.841
1103.334, 2635.065
1105.263, 2630.113
1107.191, 2625.715
1109.120, 2623.957
1111.048, 2623.042
1112.977, 2621.052
1114.905, 2619.720
1116.834, 2619.934
1118.762, 2621.994
1120.691, 2626.750
1122.619, 2632.550
1124.547, 2641.180
1126.476, 2645.895
1128.404, 2639.328
1130.333, 2634.142
1132.261, 2639.164
1134.190, 2641.271
1136.118, 2632.653
1138.047, 2625.349
1139.975, 2624.301
1141.904, 2624.259
1143.832, 2623.502
1145.761, 2624.123
1147.689, 2627.273
1149.618, 2629.807
1151.546, 2631.281
1153.474, 2630.383
1155.403, 2630.214
1157.331, 2624.136
1159.260, 2625.913
1161.188, 2625.153
1163.117, 2620.745
1165.045, 2620.827
1166.974, 2626.150
1168.902, 2628.015
1170.831, 2625.960
1172.759, 2627.273
1174.688, 2631.766
1176.616, 2636.088
1178.545, 2639.568
1180.473, 2639.329
1182.401, 2636.357
1184.330, 2632.826
1186.258, 2629.860
1188.187, 2629.933
1190.115, 2632.177
1192.044, 2635.492
1193.972, 2639.006
1195.901, 2640.840
1197.829, 2642.571
1199.758, 2647.094
1201.686, 2650.964
1203.615, 2649.901
1205.543, 2648.587
1207.472, 2650.401
1209.400, 2653.523
1211.328, 2657.625
1213.257, 2662.044
1215.185, 2667.286
1217.114, 2671.360
1219.042, 2672.965
1220.971, 2674.570
1222.899, 2676.783
1224.828, 2678.307
1226.756, 2677.954
1228.685, 2680.288
1230.613, 2687.089
1232.542, 2690.174
1234.470, 2688.741
1236.399, 2687.720
1238.327, 2687.132
1240.255, 2685.204
1242.184, 2688.132
1244.112, 2686.383
1246.041, 2693.830
1247.969, 2698.245
1249.898, 2700.473
1251.826, 2701.764
1253.755, 2702.367
1255.683, 2701.353
1257.612, 2701.124
1259.540, 2704.926
1261.469, 2708.818
1263.397, 2709.105
1265.326, 2709.957
1267.254, 2713.630
1269.182, 2717.862
1271.111, 2723.293
1273.039, 2726.304
1274.968, 2725.578
1276.896, 2725.190
1278.825, 2725.607
1280.753, 2727.173
1282.682, 2727.400
1284.610, 2730.629
1286.539, 2730.083
1288.467, 2731.546
1290.396, 2734.838
1292.324, 2739.778
1294.253, 2744.894
1296.181, 2747.349
1298.109, 2747.710
1300.038, 2744.699
1301.966, 2742.398
1303.895, 2744.710
1305.823, 2749.067
1307.752, 2754.862
1309.680, 2760.189
1311.609, 2762.670
1313.537, 2767.264
1315.466, 2777.621
1317.394, 2785.395
1319.323, 2788.584
1321.251, 2792.184
1323.180, 2796.532
1325.108, 2798.300
1327.036, 2802.638
1328.965, 2806.930
1330.893, 2810.066
1332.822, 2815.891
1334.750, 2820.128
1336.679, 2823.612
1338.607, 2826.038
1340.536, 2826.979
1342.464, 2826.607
1344.393, 2823.981
1346.321, 2822.016
1348.250, 2822.378
1350.178, 2822.781
1352.107, 2823.079
1354.035, 2821.910
1355.964, 2819.007
1357.892, 2816.448
1359.820, 2814.408
1361.749, 2811.130
1363.677, 2807.144
1365.606, 2805.518
1367.534, 2805.673
1369.463, 2806.464
1371.391, 2808.146
1373.320, 2813.013
1375.248, 2816.171
1377.177, 2811.190
1379.105, 2807.694
1381.034, 2810.807
1382.962, 2812.236
1384.891, 2809.794
1386.819, 2807.771
1388.747, 2806.810
1390.676, 2808.960
1392.604, 2806.140
1394.533, 2810.753
1396.461, 2803.994
1398.390, 2801.110
1400.318, 2801.958
1402.247, 2808.261
1404.175, 2815.137
1406.104, 2817.865
1408.032, 2819.770
1409.961, 2822.313
1411.889, 2824.729
1413.818, 2825.669
1415.746, 2829.824
1417.674, 2838.731
1419.603, 2843.921
1421.531, 2845.425
1423.460, 2845.948
1425.388, 2846.503
1427.317, 2849.823
1429.245, 2855.165
1431.174, 2864.423
1433.102, 2870.690
1435.031, 2866.187
1436.959, 2862.836
1438.888, 2866.861
1440.816, 2869.281
1442.745, 2867.569
1444.673, 2865.977
1446.601, 2864.521
1448.530, 2867.323
1450.458, 2872.626
1452.387, 2872.009
1454.315, 2867.878
1456.244, 2863.226
1458.172, 2858.982
1460.101, 2855.205
1462.029, 2853.937
1463.958, 2852.023
1465.886, 2849.911
1467.815, 2848.957
1469.743, 2846.981
1471.672, 2846.636
1473.600, 2845.945
1475.528, 2844.647
1477.457, 2842.073
1479.385, 2838.777
1481.314, 2835.909
1483.242, 2832.304
1485.171, 2825.926
1487.099, 2820.478
1489.028, 2817.502
1490.956, 2814.110
1492.885, 2809.819
1494.813, 2808.626
1496.742, 2804.007
1498.670, 2805.167
1500.599, 2798.130
1502.527, 2796.641
1504.455, 2797.644
1506.384, 2800.454
1508.312, 2800.370
1510.241, 2792.175
1512.169, 2786.086
1514.098, 2784.199
1516.026, 2782.662
1517.955, 2781.207
1519.883, 2785.133
1521.812, 2781.672
1523.740, 2786.135
1525.669, 2778.680
1527.597, 2777.539
1529.526, 2776.943
1531.454, 2773.254
1533.382, 2770.442
1535.311, 2769.689
1537.239, 2769.880
1539.168, 2770.964
1541.096, 2771.415
1543.025, 2770.333
1544.953, 2762.657
1546.882, 2754.757
1548.810, 2754.790
1550.739, 2755.483
1552.667, 2752.761
1554.596, 2752.022
1556.524, 2754.699
1558.453, 2758.069
1560.381, 2761.505
1562.309, 2761.577
1564.238, 2758.986
1566.166, 2754.836
1568.095, 2750.171
1570.023, 2743.516
1571.952, 2742.486
1573.880, 2752.558
1575.809, 2754.468
1577.737, 2745.114
1579.666, 2740.409
1581.594, 2739.639
1583.523, 2734.693
1585.451, 2729.335
1587.380, 2728.906
1589.308, 2730.426
1591.236, 2734.163
1593.165, 2734.180
1595.093, 2728.720
1597.022, 2725.198
1598.950, 2723.691
1600.879, 2720.226
1602.807, 2716.390
1604.736, 2716.675
1606.664, 2716.115
1608.593, 2709.667
1610.521, 2703.499
1612.450, 2699.379
1614.378, 2695.975
1616.307, 2693.116
1618.235, 2689.240
1620.163, 2686.300
1622.092, 2682.458
1624.020, 2680.200
1625.949, 2676.855
1627.877, 2674.192
1629.806, 2673.505
1631.734, 2671.242
1633.663, 2666.899
1635.591, 2668.370
1637.520, 2664.479
1639.448, 2666.658
1641.377, 2659.125
1643.305, 2653.812
1645.234, 2649.593
1647.162, 2646.199
1649.090, 2643.862
1651.019, 2642.491
1652.947, 2642.261
1654.876, 2642.107
1656.804, 2639.271
1658.733, 2636.186
1660.661, 2635.483
1662.590, 2632.061
1664.518, 2623.972
1666.447, 2621.255
1668.375, 2615.997
1670.304, 2613.032
1672.232, 2609.324
1674.161, 2609.503
1676.089, 2611.395
1678.017, 2611.604
1679.946, 2610.409
1681.874, 2607.735
1683.803, 2602.900
1685.731, 2597.397
1687.660, 2598.560
1689.588, 2599.766
1691.517, 2590.766
1693.445, 2584.727
1695.374, 2588.378
1697.302, 2586.279
1699.231, 2578.040
1701.159, 2578.540
1703.088, 2582.887
1705.016, 2580.461
1706.944, 2577.576
1708.873, 2579.034
1710.801, 2580.953
1712.730, 2583.436
1714.658, 2581.874
1716.587, 2576.781
1718.515, 2567.674
1720.444, 2559.676
1722.372, 2559.726
1724.301, 2558.774
1726.229, 2551.449
1728.158, 2547.761
1730.086, 2547.364
1732.015, 2539.231
1733.943, 2530.441
1735.871, 2532.743
1737.800, 2537.285
1739.728, 2541.909
1741.657, 2540.418
1743.585, 2531.758
1745.514, 2521.516
1747.442, 2511.905
1749.371, 2509.271
1751.299, 2507.388
1753.228, 2502.036
1755.156, 2499.083
1757.085, 2499.900
1759.013, 2498.468
1760.942, 2494.747
1762.870, 2488.186
1764.798, 2481.275
1766.727, 2474.961
1768.655, 2472.063
1770.584, 2473.343
1772.512, 2473.937
1774.441, 2473.177
1776.369, 2469.038
1778.298, 2464.587
1780.226, 2461.896
1782.155, 2461.913
1784.083, 2465.103
1786.012, 2463.325
1787.940, 2457.933
1789.869, 2455.024
1791.797, 2453.069
1793.725, 2450.654
1795.654, 2449.031
1797.582, 2448.747
1799.511, 2445.654
1801.439, 2439.970
1803.368, 2430.810
1805.296, 2423.608
1807.225, 2425.440
1809.153, 2424.994
1811.082, 2419.761
1813.010, 2415.228
1814.939, 2411.365
1816.867, 2407.923
1818.796, 2404.679
1820.724, 2401.604
1822.652, 2398.253
1824.581, 2394.574
1826.509, 2389.109
1828.438, 2383.548
1830.366, 2383.718
1832.295, 2381.512
1834.223, 2371.090
1836.152, 2365.196
1838.080, 2365.219
1840.009, 2359.849
1841.937, 2351.634
1843.866, 2343.737
1845.794, 2336.250
1847.723, 2328.892
1849.651, 2325.753
1851.579, 2326.160
1853.508, 2324.820
1855.436, 2322.530
1857.365, 2319.798
1859.293, 2316.740
1861.222, 2313.318
1863.150, 2311.808
1865.079, 2310.707
1867.007, 2305.911
1868.936, 2299.418
1870.864, 2291.329
1872.793, 2286.281
1874.721, 2284.355
1876.650, 2281.469
1878.578, 2277.379
1880.506, 2274.301
1882.435, 2265.528
1884.363, 2266.370
1886.292, 2264.960
1888.220, 2260.776
1890.149, 2251.930
1892.077, 2243.771
1894.006, 2242.005
1895.934, 2238.573
1897.863, 2232.404
1899.791, 2226.276
1901.720, 2221.821
1903.648, 2222.640
1905.577, 2222.442
1907.505, 2218.721
1909.433, 2211.673
1911.362, 2202.712
1913.290, 2196.932
1915.219, 2193.800
1917.147, 2194.182
1919.076, 2193.668
1921.004, 2191.493
1922.933, 2183.069
1924.861, 2174.591
1926.790, 2176.138
1928.718, 2175.405
1930.647, 2168.112
1932.575, 2163.094
1934.504, 2160.023
1936.432, 2158.274
1938.360, 2154.920
1940.289, 2148.230
1942.217, 2142.934
1944.146, 2139.153
1946.074, 2133.518
1948.003, 2128.017
1949.931, 2124.438
1951.860, 2122.311
1953.788, 2121.394
1955.717, 2118.830
1957.645, 2115.013
1959.574, 2113.662
1961.502, 2105.806
1963.431, 2107.690
1965.359, 2103.961
1967.287, 2097.516
1969.216, 2095.749
1971.144, 2094.787
1973.073, 2093.078
1975.001, 2090.034
1976.930, 2086.003
1978.858, 2083.109
1980.787, 2079.021
1982.715, 2074.042
1984.644, 2069.653
1986.572, 2063.799
1988.501, 2059.986
1990.429, 2055.777
1992.358, 2052.397
1994.286, 2050.552
1996.214, 2050.181
1998.143, 2040.610
2000.071, 2030.488
2002.000, 2029.685
2003.928, 2027.916
2005.857, 2022.445
2007.785, 2015.004
2009.714, 2008.573
2011.642, 2004.386
2013.571, 2006.757
2015.499, 1997.437
2017.428, 1995.292
2019.356, 1994.469
2021.285, 1980.325
2023.213, 1971.285
2025.141, 1972.859
2027.070, 1967.461
2028.998, 1958.660
2030.927, 1955.302
2032.855, 1951.825
2034.784, 1946.457
2036.712, 1938.272
2038.641, 1929.129
2040.569, 1922.731
2042.498, 1917.381
2044.426, 1912.407
2046.355, 1911.200
2048.283, 1903.676
2050.212, 1900.712
2052.140, 1890.912
2054.068, 1883.987
2055.997, 1877.314
2057.925, 1871.569
2059.854, 1865.132
2061.782, 1858.231
2063.711, 1854.004
2065.639, 1848.978
2067.568, 1842.455
2069.496, 1841.360
2071.425, 1839.956
2073.353, 1836.979
2075.281, 1833.025
2077.210, 1827.305
2079.138, 1817.581
2081.067, 1808.801
2082.995, 1802.874
2084.924, 1799.691
2086.852, 1796.525
2088.781, 1787.642
2090.709, 1782.656
2092.638, 1777.374
2094.566, 1770.937
2096.495, 1768.324
2098.423, 1762.888
2100.352, 1761.626
2102.280, 1756.712
2104.208, 1756.541
2106.137, 1747.910
2108.065, 1747.453
2109.994, 1742.696
2111.922, 1733.154
2113.851, 1730.082
2115.779, 1728.532
2117.708, 1725.631
2119.636, 1718.725
2121.565, 1717.236
2123.493, 1710.416
2125.422, 1710.479
2127.350, 1705.588
2129.279, 1701.483
2131.207, 1697.942
2133.135, 1693.885
2135.064, 1688.846
2136.992, 1682.652
2138.921, 1676.031
2140.849, 1671.203
2142.778, 1673.059
2144.706, 1672.671
2146.635, 1668.427
2148.563, 1661.139
2150.492, 1653.216
2152.420, 1645.820
2154.349, 1642.500
2156.277, 1637.508
2158.206, 1636.847
2160.134, 1632.450
2162.063, 1633.236
2163.991, 1633.054
2165.919, 1631.095
2167.848, 1624.844
2169.776, 1619.984
2171.705, 1618.526
2173.633, 1619.821
2175.562, 1619.807
2177.490, 1613.519
2179.419, 1605.100
2181.347, 1596.054
2183.276, 1591.931
2185.204, 1588.603
2187.133, 1583.583
2189.061, 1578.941
2190.990, 1574.628
2192.918, 1569.360
2194.846, 1566.338
2196.775, 1560.574
2198.703, 1559.295
2200.632, 1550.341
2202.560, 1544.650
2204.489, 1540.347
2206.417, 1537.786
2208.346, 1541.240
2210.274, 1543.452
2212.203, 1540.729
2214.131, 1532.049
2216.060, 1520.856
2217.988, 1511.671
2219.917, 1507.378
2221.845, 1507.754
2223.773, 1501.473
2225.702, 1495.720
2227.630, 1498.546
2229.559, 1496.646
2231.487, 1490.966
2233.416, 1486.246
2235.344, 1481.263
2237.273, 1475.430
2239.201, 1475.186
2241.130, 1474.962
2243.058, 1468.571
2244.987, 1464.813
2246.915, 1463.702
2248.844, 1462.723
2250.772, 1459.920
2252.700, 1454.530
2254.629, 1447.843
2256.557, 1440.667
2258.486, 1433.117
2260.414, 1429.774
2262.343, 1429.644
2264.271, 1425.541
2266.200, 1420.734
2268.128, 1416.354
2270.057, 1415.920
2271.985, 1416.399
2273.914, 1415.720
2275.842, 1407.335
2277.771, 1405.401
2279.699, 1394.765
2281.627, 1394.391
2283.556, 1389.159
2285.484, 1382.912
2287.413, 1377.781
2289.341, 1376.429
2291.270, 1375.402
2293.198, 1373.945
2295.127, 1371.046
2297.055, 1367.673
2298.984, 1364.205
2300.912, 1357.567
2302.841, 1351.118
2304.769, 1347.983
2306.698, 1345.523
2308.626, 1342.836
2310.554, 1338.014
2312.483, 1334.196
2314.411, 1331.863
2316.340, 1325.770
2318.268, 1320.762
2320.197, 1319.890
2322.125, 1316.603
2324.054, 1312.446
2325.982, 1310.118
2327.911, 1305.743
2329.839, 1299.971
2331.768, 1298.741
2333.696, 1296.039
2335.625, 1289.992
2337.553, 1284.164
2339.481, 1280.021
2341.410, 1279.188
2343.338, 1274.214
2345.267, 1266.597
2347.195, 1265.462
2349.124, 1255.798
2351.052, 1259.384
2352.981, 1255.822
2354.909, 1252.601
2356.838, 1252.398
2358.766, 1244.001
2360.695, 1236.197
2362.623, 1239.179
2364.552, 1239.414
2366.480, 1237.186
2368.408, 1234.601
2370.337, 1229.619
2372.265, 1228.041
2374.194, 1223.121
2376.122, 1223.198
2378.051, 1221.404
2379.979, 1219.182
2381.908, 1215.371
2383.836, 1208.819
2385.765, 1199.885
2387.693, 1193.015
2389.622, 1195.164
2391.550, 1196.973
2393.479, 1195.969
2395.407, 1185.387
2397.335, 1179.386
2399.264, 1180.986
2401.192, 1176.547
2403.121, 1171.785
2405.049, 1169.495
2406.978, 1165.964
2408.906, 1163.272
2410.835, 1161.213
2412.763, 1158.052
2414.692, 1156.451
2416.620, 1152.912
2418.549, 1148.553
2420.477, 1144.030
2422.406, 1141.956
2424.334, 1136.267
2426.262, 1126.869
2428.191, 1124.208
2430.119, 1121.241
2432.048, 1114.619
2433.976, 1113.790
2435.905, 1112.061
2437.833, 1101.718
2439.762, 1097.139
2441.690, 1095.755
2443.619, 1095.259
2445.547, 1088.210
2447.476, 1078.634
2449.404, 1076.249
2451.333, 1076.139
2453.261, 1076.414
2455.189, 1073.128
2457.118, 1069.414
2459.046, 1066.243
2460.975, 1062.760
2462.903, 1059.758
2464.832, 1056.066
2466.760, 1052.845
2468.689, 1049.716
2470.617, 1043.921
2472.546, 1037.175
2474.474, 1032.087
2476.403, 1031.204
2478.331, 1029.821
2480.260, 1027.104
2482.188, 1021.871
2484.116, 1017.482
2486.045, 1013.650
2487.973, 1009.014
2489.902, 1003.776
2491.830, 998.7307
2493.759, 996.2811
2495.687, 993.6359
2497.616, 990.7134
2499.544, 989.0575
2501.473, 989.6583
2503.401, 985.4080
2505.330, 983.7496
2507.258, 981.3860
2509.187, 976.7375
2511.115, 973.5213
2513.043, 970.4425
2514.972, 967.0145
2516.900, 961.1725
2518.829, 955.2600
2520.757, 950.7842
2522.686, 950.4537
2524.614, 950.5315
2526.543, 946.9621
2528.471, 945.1573
2530.400, 943.7778
2532.328, 940.9860
2534.257, 938.1666
2536.185, 935.2097
2538.114, 931.6872
2540.042, 928.4265
2541.970, 925.5120
2543.899, 922.8394
2545.827, 919.4278
2547.756, 916.6274
2549.684, 919.6848
2551.613, 919.1588
2553.541, 915.1305
2555.470, 911.2249
2557.398, 907.4479
2559.327, 903.1455
2561.255, 898.7679
2563.184, 894.7960
2565.112, 890.5212
2567.041, 887.6611
2568.969, 885.7465
2570.897, 884.7870
2572.826, 882.7390
2574.754, 877.9330
2576.683, 871.7846
2578.611, 871.6485
2580.540, 870.7178
2582.468, 867.9280
2584.397, 868.0982
2586.325, 865.6614
2588.254, 859.8015
2590.182, 853.4942
2592.111, 849.7972
2594.039, 848.7053
2595.968, 844.7337
2597.896, 839.2849
2599.824, 833.3339
2601.753, 831.2501
2603.681, 827.7937
2605.610, 822.4135
2607.538, 820.0409
2609.467, 819.2460
2611.395, 818.6943
2613.324, 813.6257
2615.252, 808.5127
2617.181, 804.1721
2619.109, 800.3356
2621.038, 796.3423
2622.966, 792.9409
2624.895, 789.8304
2626.823, 786.7193
2628.751, 784.5625
2630.680, 782.0782
2632.608, 778.6684
2634.537, 774.5446
2636.465, 770.0680
2638.394, 766.5862
2640.322, 764.2209
2642.251, 759.9124
2644.179, 759.4830
2646.108, 753.4456
2648.036, 750.6006
2649.965, 749.2975
2651.893, 746.9885
2653.822, 739.0507
2655.750, 735.4202
2657.678, 734.8488
2659.607, 733.9713
2661.535, 730.8969
2663.464, 725.8258
2665.392, 725.6874
2667.321, 715.6617
2669.249, 711.9049
2671.178, 713.1992
2673.106, 712.4557
2675.035, 710.5312
2676.963, 708.3870
2678.892, 705.9328
2680.820, 703.8778
2682.749, 702.2830
2684.677, 698.0306
2686.605, 692.4061
2688.534, 686.4526
2690.462, 682.2902
2692.391, 679.4385
2694.319, 677.2373
2696.248, 673.9906
2698.176, 669.4208
2700.105, 665.1578
2702.033, 666.6048
2703.962, 666.6190
2705.890, 663.8655
2707.819, 657.6941
2709.747, 654.0106
2711.676, 650.9714
2713.604, 644.6237
2715.532, 641.2780
2717.461, 638.4941
2719.389, 633.2842
2721.318, 629.0795
2723.246, 626.8333
2725.175, 623.0844
2727.103, 620.6763
2729.032, 618.6555
2730.960, 616.1816
2732.889, 615.7664
2734.817, 614.0395
2736.746, 610.2909
2738.674, 604.9219
2740.603, 601.2225
2742.531, 599.0364
2744.459, 596.9809
2746.388, 593.4376
2748.316, 590.0430
2750.245, 589.2275
2752.173, 585.5630
2754.102, 587.3572
2756.030, 580.6465
2757.959, 579.5665
2759.887, 578.2549
2761.816, 574.1759
2763.744, 569.1181
2765.673, 566.7617
2767.601, 566.8276
2769.530, 566.0964
2771.458, 562.7620
2773.386, 558.7438
2775.315, 558.3819
2777.243, 557.0225
2779.172, 553.7469
2781.100, 547.7937
2783.029, 544.4259
2784.957, 541.9483
2786.886, 539.1029
2788.814, 534.8723
2790.743, 530.4680
2792.671, 526.7176
2794.600, 525.7870
2796.528, 525.2922
2798.457, 524.9133
2800.385, 525.1270
2802.313, 523.0540
2804.242, 518.7579
2806.170, 512.5381
2808.099, 509.4399
2810.027, 508.0713
2811.956, 506.7708
2813.884, 504.2490
2815.813, 502.8892
2817.741, 499.0940
2819.670, 498.0146
2821.598, 493.3292
2823.527, 487.9037
2825.455, 485.4556
2827.384, 484.1076
2829.312, 481.6253
2831.240, 476.8170
2833.169, 473.6124
2835.097, 471.8285
2837.026, 470.6063
2838.954, 467.5458
2840.883, 463.9467
2842.811, 460.6823
2844.740, 458.5210
2846.668, 455.9655
2848.597, 454.7856
2850.525, 455.7152
2852.454, 451.6654
2854.382, 444.7889
2856.311, 438.1063
2858.239, 439.0743
2860.167, 437.5829
2862.096, 435.5358
2864.024, 436.2417
2865.953, 433.4081
2867.881, 429.2078
2869.810, 425.2959
2871.738, 423.9496
2873.667, 422.2182
2875.595, 419.4373
2877.524, 414.8992
2879.452, 414.6422
2881.381, 413.9007
2883.309, 408.5504
2885.238, 408.2423
2887.166, 407.7158
2889.094, 405.2813
2891.023, 401.3026
2892.951, 397.9078
2894.880, 395.3924
2896.808, 393.8766
2898.737, 391.2321
2900.665, 389.7250
2902.594, 389.6996
2904.522, 385.4220
2906.451, 384.4556
2908.379, 378.1120
2910.308, 379.7409
2912.236, 377.1822
2914.165, 373.9669
2916.093, 372.3872
2918.021, 369.5137
2919.950, 368.6554
2921.878, 364.9425
2923.807, 363.0136
2925.735, 361.4479
2927.664, 359.9868
2929.592, 358.3823
2931.521, 357.0081
2933.449, 353.4611
2935.378, 353.6675
2937.306, 350.4583
2939.235, 347.3956
2941.163, 345.7024
2943.092, 343.2926
2945.020, 342.0950
2946.948, 339.3549
2948.877, 337.5732
2950.805, 334.7578
2952.734, 331.0006
2954.662, 328.4523
2956.591, 328.3532
2958.519, 328.9024
2960.448, 327.2229
2962.376, 323.9868
2964.305, 321.3643
2966.233, 318.6878
2968.162, 316.3808
2970.090, 314.4375
2972.019, 310.2072
2973.947, 308.0627
2975.875, 307.5865
2977.804, 307.1671
2979.732, 307.0389
2981.661, 305.1063
2983.589, 301.6374
2985.518, 300.6768
2987.446, 297.6013
2989.375, 295.1758
2991.303, 292.6909
2993.232, 290.2677
2995.160, 288.4892
2997.089, 286.5423
2999.017, 284.0807
3000.946, 282.9882
3002.874, 282.8644
3004.802, 282.9427
3006.731, 278.1307
3008.659, 275.2791
3010.588, 273.9616
3012.516, 271.8797
3014.445, 270.3936
3016.373, 269.5009
3018.302, 268.8104
3020.230, 267.3878
3022.159, 264.8445
3024.087, 263.0716
3026.016, 262.9071
3027.944, 259.3457
3029.873, 256.2094
3031.801, 254.8069
3033.729, 255.5405
3035.658, 255.2291
3037.586, 255.1769
3039.515, 254.9124
3041.443, 251.0116
3043.372, 248.8239
3045.300, 247.0576
3047.229, 244.7115
3049.157, 242.8179
3051.086, 239.3828
3053.014, 236.6282
3054.943, 237.7765
3056.871, 233.9161
3058.800, 231.1905
3060.728, 230.9260
3062.656, 232.6175
3064.585, 230.9636
3066.513, 228.9358
3068.442, 227.8879
3070.370, 226.9016
3072.299, 225.2187
3074.227, 224.1443
3076.156, 222.7782
3078.084, 221.6697
3080.013, 220.3101
3081.941, 218.6667
3083.870, 217.4985
3085.798, 215.3542
3087.727, 213.6889
3089.655, 212.3022
3091.583, 211.1595
3093.512, 210.6161
3095.440, 207.4402
3097.369, 209.4233
3099.297, 208.7505
3101.226, 206.6499
3103.154, 204.6045
3105.083, 203.0513
3107.011, 200.7088
3108.940, 199.9837
3110.868, 199.9509
3112.797, 199.3466
3114.725, 193.8333
3116.654, 192.2168
3118.582, 192.8713
3120.510, 193.0090
3122.439, 190.9970
3124.367, 188.7551
3126.296, 187.4771
3128.224, 186.2982
3130.153, 185.5389
3132.081, 184.7330
3134.010, 184.8968
3135.938, 184.1139
3137.867, 183.5758
3139.795, 182.6810
3141.724, 181.8566
3143.652, 180.6785
3145.581, 178.8939
3147.509, 178.4055
3149.438, 177.9555
3151.366, 174.1930
3153.294, 171.9002
3155.223, 171.4241
3157.151, 171.7594
3159.080, 171.2133
3161.008, 168.8500
3162.937, 168.9287
3164.865, 167.3323
3166.794, 166.1843
3168.722, 164.9187
3170.651, 163.6849
3172.579, 162.4523
3174.508, 163.9704
3176.436, 163.1702
3178.365, 161.8866
3180.293, 160.6613
3182.221, 159.8636
3184.150, 158.0218
3186.078, 157.8690
3188.007, 157.3460
3189.935, 155.8576
3191.864, 153.3159
3193.792, 151.3438
3195.721, 150.3086
3197.649, 149.7617
3199.578, 149.3419
3201.506, 148.4527
3203.435, 146.7979
3205.363, 144.1091
3207.292, 144.4152
3209.220, 143.3492
3211.148, 141.8607
3213.077, 143.0620
3215.005, 143.6401
3216.934, 141.5832
3218.862, 138.7136
3220.791, 137.4968
3222.719, 135.5723
3224.648, 135.0095
3226.576, 134.8872
3228.505, 134.1913
3230.433, 135.5811
3232.362, 134.1588
3234.290, 131.0427
3236.219, 128.2621
3238.147, 129.6055
3240.075, 129.9015
3242.004, 128.3089
3243.932, 125.5060
3245.861, 123.4718
3247.789, 123.3245
3249.718, 123.4646
3251.646, 123.6038
3253.575, 123.1342
3255.503, 123.0453
3257.432, 121.7543
3259.360, 121.0057
3261.289, 119.2682
3263.217, 118.8820
3265.146, 118.7948
3267.074, 119.0334
3269.002, 117.8853
3270.931, 117.8319
3272.859, 115.8177
3274.788, 115.0390
3276.716, 114.1505
3278.645, 113.9046
3280.573, 113.6548
3282.502, 113.8777
3284.430, 114.1454
3286.359, 114.6050
3288.287, 115.8427
3290.216, 114.4198
3292.144, 113.3216
3294.073, 116.0559
3296.001, 116.3908
3297.929, 114.5805
3299.858, 113.9758
3301.786, 115.6067
3303.715, 115.6545
3305.643, 114.7142
3307.572, 114.3573
3309.500, 114.4547
3311.429, 113.5347
3313.357, 114.2807
3315.286, 114.6477
3317.214, 115.2907
3319.143, 115.2310
3321.071, 114.6190
3323.000, 114.5002
3324.928, 114.2633
3326.856, 112.9149
3328.785, 112.4663
3330.713, 112.3060
3332.642, 112.1124
3334.570, 111.6384
3336.499, 110.6363
3338.427, 109.6958
3340.356, 107.8787
3342.284, 107.1546
3344.213, 104.8080
3346.141, 103.5242
3348.070, 103.3881
3349.998, 106.0862
3351.927, 103.9648
3353.855, 103.5857
3355.783, 105.0940
3357.712, 103.3085
3359.640, 101.8914
3361.569, 102.5071
3363.497, 102.8459
3365.426, 100.9655
3367.354, 100.4184
3369.283, 100.3890
3371.211, 99.32725
3373.140, 99.45770
3375.068, 100.4621
3376.997, 99.86834
3378.925, 98.47208
3380.854, 99.44637
3382.782, 95.86844
3384.710, 97.16836
3386.639, 97.64043
3388.567, 93.76196
3390.496, 93.84972
3392.424, 92.90172
3394.353, 91.95021
3396.281, 91.95638
3398.210, 91.30336
3400.138, 90.92078
3402.067, 90.59216
3403.995, 90.78753
3405.924, 90.06954
3407.852, 89.89050
3409.781, 89.27245
3411.709, 89.05492
3413.637, 87.65590
3415.566, 87.03275
3417.494, 87.23560
3419.423, 85.12563
3421.351, 83.95043
3423.280, 83.45275
3425.208, 83.18914
3427.137, 82.63414
3429.065, 82.12056
3430.994, 82.20735
3432.922, 81.56177
3434.851, 81.47058
3436.779, 82.49780
3438.708, 82.72483
3440.636, 81.92528
3442.564, 79.85352
3444.493, 76.74728
3446.421, 78.77500
3448.350, 77.20101
3450.278, 76.28479
3452.207, 77.20473
3454.135, 77.15931
3456.064, 73.78552
##END=



