##NAMES=Sillimanite
##RRUFFID=R100127
##IDEAL CHEMISTRY=Al_2_SiO_5_
##LOCALITY=Andana Tea Plantation, near Khawatha, Rathapura District, Sri Lanka
##OWNER=RRUFF
##SOURCE=William W. Pinch
##DESCRIPTION=Transparent bluish-gray crystal fragment
##STATUS=The identification of this mineral has been confirmed by single-crystal X-ray diffraction
##URL=https://www.rruff.net/odr/rruff_sample/R100127
##DIFFRACTION SAMPLE DESCRIPTION=Single crystal, powder profile is calculated
##CELL PARAMETERS=a: 7.487 b: 7.676 c: 5.7718 alpha: 90 beta: 90 gamma: 90 volume: 331.7 crystal system: orthorhombic
##FILETYPE=Raman RAW
##RAMAN WAVELENGTH=780

132.1167, 88748.45
134.0452, 88720.55
135.9736, 88737.09
137.9021, 88766.93
139.8306, 88798.85
141.7590, 88829.38
143.6875, 88860.37
145.6160, 88891.52
147.5444, 88893.24
149.4729, 88823.22
151.4014, 88759.14
153.3298, 88729.30
155.2583, 88709.77
157.1868, 88668.48
159.1152, 88604.54
161.0437, 88543.17
162.9722, 88500.98
164.9006, 88447.80
166.8291, 88403.58
168.7576, 88333.23
170.6860, 88181.49
172.6145, 87969.09
174.5430, 87824.14
176.4714, 87823.91
178.3999, 87805.66
180.3284, 87737.05
182.2568, 87663.68
184.1853, 87612.65
186.1138, 87578.28
188.0422, 87550.11
189.9707, 87522.33
191.8992, 87501.61
193.8276, 87486.71
195.7561, 87474.04
197.6846, 87460.82
199.6130, 87448.77
201.5415, 87443.48
203.4700, 87450.77
205.3984, 87444.25
207.3269, 87417.38
209.2554, 87390.84
211.1838, 87359.36
213.1123, 87339.34
215.0408, 87348.59
216.9692, 87383.66
218.8977, 87409.80
220.8262, 87432.13
222.7546, 87433.30
224.6831, 87406.22
226.6116, 87368.18
228.5400, 87342.08
230.4685, 87314.03
232.3970, 87254.16
234.3254, 87163.16
236.2539, 87030.80
238.1824, 86855.53
240.1108, 86635.66
242.0393, 86312.91
243.9678, 85989.10
245.8962, 85748.51
247.8247, 85585.78
249.7532, 85453.91
251.6816, 85355.40
253.6101, 85263.58
255.5386, 85171.12
257.4670, 85086.35
259.3955, 85018.58
261.3240, 84958.11
263.2524, 84890.15
265.1809, 84815.26
267.1094, 84733.91
269.0378, 84638.98
270.9663, 84566.39
272.8948, 84561.27
274.8232, 84550.59
276.7517, 84470.77
278.6802, 84355.79
280.6086, 84291.21
282.5371, 84275.38
284.4656, 84262.02
286.3940, 84213.95
288.3225, 84217.97
290.2510, 84304.77
292.1794, 84441.33
294.1079, 84633.59
296.0364, 84849.67
297.9648, 85005.60
299.8933, 85097.02
301.8218, 85156.34
303.7502, 85196.67
305.6787, 85197.53
307.6072, 85192.99
309.5356, 85113.78
311.4641, 84873.89
313.3926, 84498.15
315.3210, 84015.73
317.2495, 83376.75
319.1780, 82810.09
321.1064, 82332.03
323.0349, 81931.77
324.9634, 81642.34
326.8918, 81405.40
328.8203, 81161.33
330.7488, 80922.05
332.6772, 80733.10
334.6057, 80623.05
336.5342, 80506.89
338.4626, 80376.46
340.3911, 80249.57
342.3196, 80129.88
344.2480, 80017.78
346.1765, 79917.09
348.1050, 79822.53
350.0334, 79713.20
351.9619, 79587.38
353.8904, 79446.02
355.8188, 79278.48
357.7473, 79115.62
359.6758, 78966.41
361.6042, 78832.00
363.5327, 78720.68
365.4612, 78624.23
367.3896, 78511.24
369.3181, 78370.34
371.2466, 78251.64
373.1750, 78153.33
375.1035, 78066.59
377.0320, 78004.97
378.9604, 77923.67
380.8889, 77790.65
382.8174, 77624.77
384.7458, 77461.13
386.6743, 77302.25
388.6028, 77134.23
390.5313, 76957.17
392.4597, 76783.61
394.3882, 76611.47
396.3167, 76453.72
398.2451, 76313.84
400.1736, 76191.66
402.1021, 76087.13
404.0305, 76001.15
405.9590, 75938.70
407.8875, 75901.28
409.8159, 75868.83
411.7444, 75847.05
413.6729, 75809.67
415.6013, 75727.80
417.5298, 75644.90
419.4583, 75596.41
421.3867, 75556.59
423.3152, 75489.95
425.2437, 75391.66
427.1721, 75218.97
429.1006, 74950.84
431.0291, 74717.41
432.9575, 74565.46
434.8860, 74436.74
436.8145, 74335.51
438.7429, 74235.04
440.6714, 74108.91
442.5999, 73969.70
444.5283, 73843.23
446.4568, 73729.39
448.3853, 73615.23
450.3137, 73496.41
452.2422, 73380.08
454.1707, 73264.12
456.0991, 73147.12
458.0276, 73043.80
459.9561, 72922.55
461.8845, 72732.51
463.8130, 72508.73
465.7415, 72327.36
467.6699, 72192.34
469.5984, 72034.72
471.5269, 71831.17
473.4553, 71642.36
475.3838, 71474.49
477.3123, 71319.68
479.2407, 71190.11
481.1692, 71054.83
483.0977, 70871.29
485.0261, 70667.71
486.9546, 70504.84
488.8831, 70387.21
490.8115, 70253.96
492.7400, 70093.40
494.6685, 69935.28
496.5969, 69776.27
498.5254, 69627.07
500.4539, 69503.89
502.3823, 69378.65
504.3108, 69220.23
506.2393, 69054.29
508.1677, 68924.92
510.0962, 68829.64
512.0247, 68726.55
513.9531, 68620.05
515.8816, 68483.87
517.8101, 68302.04
519.7385, 68125.92
521.6670, 67962.27
523.5955, 67821.45
525.5239, 67734.75
527.4524, 67654.09
529.3809, 67526.68
531.3093, 67368.26
533.2378, 67225.15
535.1663, 67097.47
537.0947, 66963.80
539.0232, 66817.49
540.9517, 66691.21
542.8801, 66602.20
544.8086, 66503.76
546.7371, 66376.02
548.6655, 66236.14
550.5940, 66079.30
552.5225, 65928.56
554.4509, 65820.56
556.3794, 65742.39
558.3079, 65641.55
560.2363, 65518.33
562.1648, 65399.57
564.0933, 65285.30
566.0217, 65176.35
567.9502, 65080.12
569.8787, 64976.79
571.8071, 64853.15
573.7356, 64737.57
575.6641, 64652.83
577.5925, 64556.20
579.5210, 64497.76
581.4495, 64410.00
583.3779, 64349.17
585.3064, 64307.76
587.2349, 64248.20
589.1633, 64163.80
591.0918, 64076.33
593.0203, 64004.21
594.9487, 63905.65
596.8772, 63772.70
598.8057, 63619.36
600.7341, 63439.20
602.6626, 63256.20
604.5911, 63090.45
606.5195, 62935.44
608.4480, 62784.88
610.3765, 62635.48
612.3049, 62471.77
614.2334, 62290.73
616.1619, 62134.95
618.0903, 62021.64
620.0188, 61903.36
621.9473, 61768.79
623.8757, 61640.36
625.8042, 61538.46
627.7327, 61422.91
629.6611, 61248.84
631.5896, 61074.11
633.5181, 60957.36
635.4465, 60868.19
637.3750, 60761.98
639.3035, 60640.70
641.2319, 60511.09
643.1604, 60373.43
645.0889, 60231.64
647.0173, 60084.57
648.9458, 59937.17
650.8743, 59777.60
652.8027, 59643.43
654.7312, 59558.01
656.6597, 59469.73
658.5881, 59339.89
660.5166, 59209.07
662.4451, 59115.74
664.3735, 59026.55
666.3020, 58891.17
668.2305, 58793.95
670.1589, 58675.25
672.0874, 58546.30
674.0159, 58429.28
675.9443, 58262.74
677.8728, 58113.52
679.8013, 57985.30
681.7297, 57867.90
683.6582, 57758.12
685.5867, 57652.46
687.5151, 57551.40
689.4436, 57444.82
691.3721, 57329.71
693.3005, 57207.64
695.2290, 57085.20
697.1575, 56956.89
699.0859, 56809.71
701.0144, 56657.30
702.9429, 56531.71
704.8713, 56426.84
706.7998, 56298.91
708.7283, 56150.77
710.6567, 56046.17
712.5852, 55994.45
714.5137, 55903.04
716.4421, 55742.63
718.3706, 55589.11
720.2991, 55473.46
722.2275, 55346.95
724.1560, 55188.04
726.0845, 55034.61
728.0129, 54903.96
729.9414, 54785.63
731.8699, 54674.63
733.7983, 54566.10
735.7268, 54455.76
737.6553, 54341.82
739.5837, 54221.64
741.5122, 54096.80
743.4407, 53973.20
745.3691, 53851.42
747.2976, 53725.58
749.2261, 53595.99
751.1545, 53477.33
753.0830, 53345.98
755.0115, 53240.32
756.9399, 53109.69
758.8684, 52998.73
760.7969, 52899.78
762.7253, 52763.66
764.6538, 52664.58
766.5823, 52556.84
768.5107, 52414.02
770.4392, 52264.61
772.3677, 52113.64
774.2961, 51979.61
776.2246, 51888.69
778.1531, 51813.96
780.0815, 51716.68
782.0100, 51604.00
783.9385, 51497.47
785.8669, 51395.63
787.7954, 51286.57
789.7239, 51170.84
791.6523, 51060.33
793.5808, 50952.89
795.5093, 50869.08
797.4377, 50817.62
799.3662, 50741.64
801.2947, 50624.57
803.2231, 50523.45
805.1516, 50462.75
807.0801, 50380.56
809.0085, 50252.17
810.9370, 50116.33
812.8655, 49984.45
814.7939, 49861.12
816.7224, 49752.07
818.6509, 49647.90
820.5793, 49545.25
822.5078, 49439.53
824.4363, 49322.95
826.3647, 49201.96
828.2932, 49084.02
830.2217, 48968.20
832.1501, 48851.85
834.0786, 48738.53
836.0071, 48642.06
837.9355, 48557.63
839.8640, 48460.93
841.7925, 48353.07
843.7209, 48235.41
845.6494, 48108.92
847.5779, 47995.25
849.5063, 47895.75
851.4348, 47791.23
853.3633, 47691.68
855.2917, 47599.51
857.2202, 47498.00
859.1487, 47414.05
861.0771, 47317.55
863.0056, 47214.42
864.9341, 47105.45
866.8625, 46990.87
868.7910, 46866.62
870.7195, 46743.67
872.6479, 46628.48
874.5764, 46512.19
876.5049, 46393.75
878.4333, 46269.32
880.3618, 46124.82
882.2903, 45987.24
884.2188, 45888.42
886.1472, 45792.46
888.0757, 45657.67
890.0042, 45557.36
891.9326, 45415.27
893.8611, 45322.94
895.7896, 45197.87
897.7180, 45067.15
899.6465, 44991.62
901.5750, 44940.41
903.5034, 44840.15
905.4319, 44703.58
907.3604, 44565.39
909.2888, 44429.63
911.2173, 44316.09
913.1458, 44223.03
915.0742, 44127.84
917.0027, 44029.62
918.9312, 43925.50
920.8596, 43836.38
922.7881, 43747.27
924.7166, 43654.98
926.6450, 43578.79
928.5735, 43491.30
930.5020, 43404.10
932.4304, 43316.81
934.3589, 43241.14
936.2874, 43177.90
938.2158, 43125.42
940.1443, 43081.73
942.0728, 43054.74
944.0012, 43047.58
945.9297, 43050.23
947.8582, 43067.38
949.7866, 43074.11
951.7151, 43070.07
953.6436, 43039.15
955.5720, 42968.42
957.5005, 42893.85
959.4290, 42830.13
961.3574, 42746.41
963.2859, 42639.92
965.2144, 42496.34
967.1428, 42298.22
969.0713, 42085.67
970.9998, 41855.61
972.9282, 41640.24
974.8567, 41455.72
976.7852, 41279.73
978.7136, 41099.43
980.6421, 40929.96
982.5706, 40771.60
984.4990, 40632.60
986.4275, 40539.94
988.3560, 40436.09
990.2844, 40273.32
992.2129, 40119.93
994.1414, 40024.33
996.0698, 39937.71
997.9983, 39825.28
999.9268, 39717.36
1001.855, 39632.12
1003.784, 39553.35
1005.712, 39475.86
1007.641, 39389.02
1009.569, 39289.08
1011.498, 39173.03
1013.426, 39030.55
1015.354, 38886.57
1017.283, 38753.41
1019.211, 38638.57
1021.140, 38563.14
1023.068, 38490.58
1024.997, 38384.95
1026.925, 38282.07
1028.854, 38215.80
1030.782, 38151.38
1032.711, 38064.94
1034.639, 37965.26
1036.568, 37849.00
1038.496, 37735.05
1040.425, 37635.13
1042.353, 37547.23
1044.281, 37487.11
1046.210, 37417.99
1048.138, 37302.73
1050.067, 37182.95
1051.995, 37080.49
1053.924, 36989.01
1055.852, 36912.32
1057.781, 36832.13
1059.709, 36733.43
1061.638, 36632.17
1063.566, 36548.80
1065.495, 36457.99
1067.423, 36337.05
1069.352, 36219.34
1071.280, 36113.66
1073.208, 36032.09
1075.137, 36006.11
1077.065, 35966.04
1078.994, 35860.69
1080.922, 35748.08
1082.851, 35651.89
1084.779, 35561.50
1086.708, 35483.74
1088.636, 35396.00
1090.565, 35273.92
1092.493, 35166.16
1094.422, 35098.41
1096.350, 35034.86
1098.279, 34959.77
1100.207, 34888.96
1102.135, 34834.50
1104.064, 34769.58
1105.992, 34679.80
1107.921, 34592.50
1109.849, 34502.33
1111.778, 34437.52
1113.706, 34430.71
1115.635, 34399.31
1117.563, 34312.46
1119.492, 34237.57
1121.420, 34194.72
1123.349, 34135.07
1125.277, 34051.23
1127.206, 33962.71
1129.134, 33867.81
1131.063, 33778.43
1132.991, 33682.30
1134.919, 33578.50
1136.848, 33484.75
1138.776, 33370.01
1140.705, 33259.31
1142.633, 33163.36
1144.562, 33071.17
1146.490, 33000.55
1148.419, 32911.51
1150.347, 32834.05
1152.276, 32768.43
1154.204, 32687.08
1156.133, 32594.94
1158.061, 32527.04
1159.990, 32446.09
1161.918, 32392.51
1163.846, 32295.57
1165.775, 32211.41
1167.703, 32130.59
1169.632, 32031.03
1171.560, 31929.23
1173.489, 31854.71
1175.417, 31793.10
1177.346, 31736.15
1179.274, 31671.70
1181.203, 31576.26
1183.131, 31479.62
1185.060, 31403.78
1186.988, 31333.49
1188.917, 31260.21
1190.845, 31184.75
1192.773, 31105.61
1194.702, 31026.98
1196.630, 30945.94
1198.559, 30875.56
1200.487, 30780.71
1202.416, 30689.61
1204.344, 30604.88
1206.273, 30531.58
1208.201, 30474.30
1210.130, 30411.68
1212.058, 30341.86
1213.987, 30265.44
1215.915, 30183.24
1217.844, 30111.54
1219.772, 30050.76
1221.700, 29991.59
1223.629, 29932.01
1225.557, 29872.66
1227.486, 29809.64
1229.414, 29730.38
1231.343, 29642.76
1233.271, 29566.86
1235.200, 29497.56
1237.128, 29434.24
1239.057, 29365.72
1240.985, 29268.33
1242.914, 29170.91
1244.842, 29094.23
1246.771, 29031.74
1248.699, 28991.46
1250.627, 28942.05
1252.556, 28864.54
1254.484, 28781.55
1256.413, 28693.22
1258.341, 28621.69
1260.270, 28586.58
1262.198, 28535.26
1264.127, 28452.77
1266.055, 28381.32
1267.984, 28323.68
1269.912, 28275.29
1271.841, 28215.81
1273.769, 28182.57
1275.698, 28115.91
1277.626, 28066.16
1279.554, 28023.79
1281.483, 27946.83
1283.411, 27917.99
1285.340, 27842.71
1287.268, 27837.67
1289.197, 27799.16
1291.125, 27747.28
1293.054, 27703.58
1294.982, 27644.98
1296.911, 27543.60
1298.839, 27459.46
1300.768, 27422.10
1302.696, 27370.92
1304.625, 27284.87
1306.553, 27216.87
1308.481, 27178.96
1310.410, 27113.26
1312.338, 27017.24
1314.267, 26950.81
1316.195, 26911.86
1318.124, 26860.97
1320.052, 26800.32
1321.981, 26736.79
1323.909, 26670.38
1325.838, 26592.96
1327.766, 26521.54
1329.695, 26486.12
1331.623, 26450.22
1333.552, 26383.09
1335.480, 26313.80
1337.408, 26265.35
1339.337, 26203.00
1341.265, 26107.02
1343.194, 26022.84
1345.122, 25957.12
1347.051, 25891.94
1348.979, 25825.38
1350.908, 25780.30
1352.836, 25721.37
1354.765, 25669.95
1356.693, 25621.22
1358.622, 25566.77
1360.550, 25518.04
1362.479, 25460.49
1364.407, 25396.10
1366.335, 25323.13
1368.264, 25249.57
1370.192, 25175.09
1372.121, 25110.85
1374.049, 25042.75
1375.978, 24969.48
1377.906, 24915.87
1379.835, 24835.24
1381.763, 24771.86
1383.692, 24728.21
1385.620, 24665.91
1387.549, 24616.88
1389.477, 24570.82
1391.406, 24520.03
1393.334, 24479.00
1395.262, 24438.17
1397.191, 24394.43
1399.119, 24345.85
1401.048, 24291.13
1402.976, 24239.73
1404.905, 24185.98
1406.833, 24125.98
1408.762, 24074.85
1410.690, 24013.01
1412.619, 23951.98
1414.547, 23895.32
1416.476, 23856.14
1418.404, 23827.18
1420.333, 23790.99
1422.261, 23751.26
1424.189, 23707.01
1426.118, 23665.70
1428.046, 23640.47
1429.975, 23602.15
1431.903, 23541.09
1433.832, 23465.94
1435.760, 23375.07
1437.689, 23311.00
1439.617, 23275.34
1441.546, 23225.26
1443.474, 23165.71
1445.403, 23116.95
1447.331, 23070.99
1449.260, 23010.11
1451.188, 22951.74
1453.116, 22913.50
1455.045, 22873.14
1456.973, 22819.52
1458.902, 22760.37
1460.830, 22691.82
1462.759, 22636.21
1464.687, 22569.96
1466.616, 22502.44
1468.544, 22442.50
1470.473, 22369.96
1472.401, 22307.97
1474.330, 22252.53
1476.258, 22198.76
1478.187, 22140.60
1480.115, 22084.91
1482.043, 22034.49
1483.972, 21979.19
1485.900, 21915.10
1487.829, 21844.51
1489.757, 21792.71
1491.686, 21717.18
1493.614, 21681.31
1495.543, 21639.25
1497.471, 21584.14
1499.400, 21492.87
1501.328, 21408.56
1503.257, 21353.37
1505.185, 21306.12
1507.114, 21261.15
1509.042, 21221.46
1510.970, 21187.10
1512.899, 21125.92
1514.827, 21047.43
1516.756, 20986.77
1518.684, 20939.45
1520.613, 20905.88
1522.541, 20869.79
1524.470, 20816.06
1526.398, 20759.84
1528.327, 20703.38
1530.255, 20651.04
1532.184, 20603.38
1534.112, 20545.61
1536.041, 20483.99
1537.969, 20448.72
1539.897, 20421.42
1541.826, 20371.82
1543.754, 20320.17
1545.683, 20286.80
1547.611, 20241.16
1549.540, 20162.97
1551.468, 20102.09
1553.397, 20060.85
1555.325, 20018.61
1557.254, 19971.59
1559.182, 19903.29
1561.111, 19835.04
1563.039, 19799.26
1564.968, 19764.03
1566.896, 19711.09
1568.824, 19654.42
1570.753, 19591.55
1572.681, 19535.62
1574.610, 19484.99
1576.538, 19436.76
1578.467, 19386.22
1580.395, 19320.23
1582.324, 19253.13
1584.252, 19198.19
1586.181, 19144.96
1588.109, 19088.92
1590.038, 19039.69
1591.966, 19000.34
1593.895, 18954.32
1595.823, 18901.12
1597.751, 18833.30
1599.680, 18764.80
1601.608, 18716.78
1603.537, 18670.16
1605.465, 18617.06
1607.394, 18558.00
1609.322, 18508.40
1611.251, 18456.17
1613.179, 18401.22
1615.108, 18353.92
1617.036, 18300.53
1618.965, 18243.63
1620.893, 18185.14
1622.822, 18120.44
1624.750, 18072.46
1626.678, 18019.12
1628.607, 17965.71
1630.535, 17923.37
1632.464, 17865.64
1634.392, 17816.47
1636.321, 17768.55
1638.249, 17718.43
1640.178, 17668.57
1642.106, 17609.21
1644.035, 17537.22
1645.963, 17482.60
1647.892, 17445.31
1649.820, 17418.38
1651.749, 17392.91
1653.677, 17359.98
1655.605, 17315.43
1657.534, 17248.50
1659.462, 17183.65
1661.391, 17124.57
1663.319, 17071.38
1665.248, 17023.83
1667.176, 16982.47
1669.105, 16937.45
1671.033, 16891.84
1672.962, 16851.29
1674.890, 16795.46
1676.819, 16764.85
1678.747, 16706.14
1680.676, 16653.72
1682.604, 16606.84
1684.532, 16567.68
1686.461, 16533.22
1688.389, 16507.26
1690.318, 16471.09
1692.246, 16416.87
1694.175, 16367.26
1696.103, 16323.55
1698.032, 16274.17
1699.960, 16224.71
1701.889, 16184.47
1703.817, 16148.31
1705.746, 16112.68
1707.674, 16085.80
1709.603, 16040.42
1711.531, 15992.24
1713.459, 15949.06
1715.388, 15884.67
1717.316, 15826.58
1719.245, 15776.85
1721.173, 15731.26
1723.102, 15690.41
1725.030, 15644.99
1726.959, 15595.25
1728.887, 15547.57
1730.816, 15497.79
1732.744, 15437.71
1734.673, 15377.41
1736.601, 15321.52
1738.530, 15266.17
1740.458, 15211.77
1742.386, 15160.67
1744.315, 15114.72
1746.243, 15081.17
1748.172, 15044.33
1750.100, 14992.16
1752.029, 14934.59
1753.957, 14871.57
1755.886, 14824.91
1757.814, 14785.40
1759.743, 14728.81
1761.671, 14668.00
1763.600, 14608.96
1765.528, 14557.07
1767.457, 14515.64
1769.385, 14470.16
1771.313, 14424.36
1773.242, 14396.43
1775.170, 14368.25
1777.099, 14322.56
1779.027, 14281.86
1780.956, 14256.09
1782.884, 14207.29
1784.813, 14143.62
1786.741, 14099.91
1788.670, 14063.53
1790.598, 14029.66
1792.527, 13982.80
1794.455, 13940.48
1796.384, 13872.89
1798.312, 13844.14
1800.240, 13793.38
1802.169, 13741.47
1804.097, 13706.17
1806.026, 13672.77
1807.954, 13637.89
1809.883, 13606.10
1811.811, 13565.01
1813.740, 13529.35
1815.668, 13480.89
1817.597, 13433.95
1819.525, 13387.82
1821.454, 13342.57
1823.382, 13298.84
1825.311, 13254.85
1827.239, 13203.46
1829.167, 13153.94
1831.096, 13116.72
1833.024, 13070.58
1834.953, 13014.54
1836.881, 12962.49
1838.810, 12915.39
1840.738, 12881.18
1842.667, 12838.20
1844.595, 12794.91
1846.524, 12745.27
1848.452, 12699.87
1850.381, 12643.32
1852.309, 12596.15
1854.238, 12548.82
1856.166, 12497.50
1858.094, 12455.65
1860.023, 12410.39
1861.951, 12363.16
1863.880, 12321.34
1865.808, 12277.77
1867.737, 12225.25
1869.665, 12174.91
1871.594, 12129.28
1873.522, 12081.63
1875.451, 12033.63
1877.379, 11989.21
1879.308, 11945.38
1881.236, 11901.49
1883.165, 11858.23
1885.093, 11815.70
1887.021, 11768.34
1888.950, 11726.24
1890.878, 11702.60
1892.807, 11674.91
1894.735, 11636.64
1896.664, 11594.02
1898.592, 11549.78
1900.521, 11513.63
1902.449, 11472.91
1904.378, 11422.21
1906.306, 11371.96
1908.235, 11323.81
1910.163, 11269.33
1912.092, 11220.79
1914.020, 11199.03
1915.948, 11167.59
1917.877, 11119.44
1919.805, 11079.53
1921.734, 11045.77
1923.662, 11015.76
1925.591, 10980.53
1927.519, 10947.46
1929.448, 10909.36
1931.376, 10874.91
1933.305, 10831.94
1935.233, 10785.77
1937.162, 10749.45
1939.090, 10715.02
1941.019, 10681.12
1942.947, 10653.02
1944.875, 10621.11
1946.804, 10569.09
1948.732, 10518.78
1950.661, 10479.54
1952.589, 10434.74
1954.518, 10387.47
1956.446, 10344.30
1958.375, 10304.03
1960.303, 10266.33
1962.232, 10231.74
1964.160, 10197.35
1966.089, 10142.90
1968.017, 10094.42
1969.946, 10073.40
1971.874, 10042.23
1973.802, 9996.675
1975.731, 9971.875
1977.659, 9945.066
1979.588, 9886.533
1981.516, 9836.697
1983.445, 9804.574
1985.373, 9767.374
1987.302, 9728.685
1989.230, 9694.344
1991.159, 9662.524
1993.087, 9625.121
1995.016, 9596.040
1996.944, 9553.906
1998.873, 9518.490
2000.801, 9482.020
2002.729, 9438.135
2004.658, 9405.866
2006.586, 9363.481
2008.515, 9312.315
2010.443, 9262.255
2012.372, 9215.160
2014.300, 9190.145
2016.229, 9176.751
2018.157, 9135.749
2020.086, 9086.957
2022.014, 9040.563
2023.943, 9001.266
2025.871, 8967.804
2027.800, 8934.097
2029.728, 8899.047
2031.656, 8870.251
2033.585, 8828.009
2035.513, 8810.239
2037.442, 8784.141
2039.370, 8748.958
2041.299, 8700.335
2043.227, 8651.988
2045.156, 8606.630
2047.084, 8581.253
2049.013, 8554.449
2050.941, 8509.170
2052.870, 8463.885
2054.798, 8422.813
2056.727, 8399.588
2058.655, 8375.307
2060.583, 8335.083
2062.512, 8293.949
2064.440, 8253.628
2066.369, 8209.784
2068.297, 8168.758
2070.226, 8136.664
2072.154, 8102.583
2074.083, 8066.271
2076.011, 8032.171
2077.940, 7999.632
2079.868, 7964.950
2081.797, 7949.123
2083.725, 7943.905
2085.654, 7907.750
2087.582, 7860.130
2089.510, 7810.894
2091.439, 7772.987
2093.367, 7744.722
2095.296, 7717.116
2097.224, 7686.028
2099.153, 7648.321
2101.081, 7608.162
2103.010, 7568.304
2104.938, 7534.308
2106.867, 7504.394
2108.795, 7479.784
2110.724, 7441.893
2112.652, 7400.763
2114.581, 7377.015
2116.509, 7350.762
2118.438, 7314.739
2120.366, 7286.136
2122.294, 7261.865
2124.223, 7240.333
2126.151, 7214.235
2128.080, 7182.307
2130.008, 7138.255
2131.937, 7094.947
2133.865, 7061.611
2135.794, 7042.844
2137.722, 7033.610
2139.651, 7000.235
2141.579, 6958.334
2143.508, 6915.664
2145.436, 6876.798
2147.365, 6842.351
2149.293, 6813.518
2151.221, 6791.921
2153.150, 6763.393
2155.078, 6750.342
2157.007, 6715.469
2158.935, 6692.931
2160.864, 6668.981
2162.792, 6640.381
2164.721, 6604.069
2166.649, 6568.990
2168.578, 6546.131
2170.506, 6522.904
2172.435, 6497.681
2174.363, 6471.290
2176.292, 6438.951
2178.220, 6415.017
2180.148, 6386.734
2182.077, 6356.467
2184.005, 6331.926
2185.934, 6306.851
2187.862, 6280.048
2189.791, 6241.518
2191.719, 6202.236
2193.648, 6175.139
2195.576, 6148.126
2197.505, 6119.221
2199.433, 6091.879
2201.362, 6064.414
2203.290, 6033.800
2205.219, 6006.765
2207.147, 5973.584
2209.075, 5937.869
2211.004, 5905.726
2212.932, 5878.938
2214.861, 5844.077
2216.789, 5816.552
2218.718, 5812.364
2220.646, 5797.948
2222.575, 5772.993
2224.503, 5744.719
2226.432, 5719.057
2228.360, 5689.670
2230.289, 5660.559
2232.217, 5630.107
2234.146, 5600.235
2236.074, 5569.939
2238.002, 5539.290
2239.931, 5510.433
2241.859, 5488.283
2243.788, 5475.257
2245.716, 5452.067
2247.645, 5424.108
2249.573, 5400.761
2251.502, 5378.104
2253.430, 5355.082
2255.359, 5330.174
2257.287, 5307.444
2259.216, 5281.475
2261.144, 5256.727
2263.073, 5230.388
2265.001, 5205.896
2266.929, 5182.100
2268.858, 5157.078
2270.786, 5130.542
2272.715, 5100.798
2274.643, 5059.702
2276.572, 5051.999
2278.500, 5053.542
2280.429, 5021.540
2282.357, 4986.469
2284.286, 4955.021
2286.214, 4937.304
2288.143, 4920.812
2290.071, 4898.978
2292.000, 4879.708
2293.928, 4858.109
2295.856, 4832.858
2297.785, 4813.632
2299.713, 4780.786
2301.642, 4758.349
2303.570, 4735.614
2305.499, 4707.457
2307.427, 4681.866
2309.356, 4659.612
2311.284, 4631.127
2313.213, 4616.192
2315.141, 4581.032
2317.070, 4554.149
2318.998, 4536.414
2320.927, 4526.971
2322.855, 4514.202
2324.783, 4493.292
2326.712, 4459.615
2328.640, 4432.007
2330.569, 4409.040
2332.497, 4385.218
2334.426, 4361.011
2336.354, 4337.443
2338.283, 4320.589
2340.211, 4303.682
2342.140, 4283.975
2344.068, 4255.976
2345.997, 4228.181
2347.925, 4211.481
2349.854, 4191.989
2351.782, 4170.618
2353.710, 4155.712
2355.639, 4131.008
2357.567, 4095.934
2359.496, 4080.152
2361.424, 4070.017
2363.353, 4058.325
2365.281, 4048.987
2367.210, 4034.468
2369.138, 4005.287
2371.067, 3977.678
2372.995, 3954.459
2374.924, 3939.678
2376.852, 3923.096
2378.781, 3902.938
2380.709, 3887.786
2382.637, 3871.535
2384.566, 3850.927
2386.494, 3834.411
2388.423, 3815.992
2390.351, 3789.541
2392.280, 3768.909
2394.208, 3752.850
2396.137, 3737.695
2398.065, 3720.713
2399.994, 3701.042
2401.922, 3676.832
2403.851, 3653.549
2405.779, 3632.756
2407.708, 3612.671
2409.636, 3591.500
2411.564, 3574.723
2413.493, 3555.634
2415.421, 3543.317
2417.350, 3526.302
2419.278, 3514.072
2421.207, 3496.183
2423.135, 3482.403
2425.064, 3462.249
2426.992, 3437.812
2428.921, 3410.100
2430.849, 3385.131
2432.778, 3364.905
2434.706, 3350.408
2436.635, 3333.446
2438.563, 3307.451
2440.491, 3285.335
2442.420, 3267.195
2444.348, 3253.947
2446.277, 3237.780
2448.205, 3219.287
2450.134, 3200.097
2452.062, 3180.625
2453.991, 3161.964
2455.919, 3145.376
2457.848, 3132.102
2459.776, 3114.315
2461.705, 3100.797
2463.633, 3087.552
2465.562, 3072.626
2467.490, 3049.460
2469.418, 3028.258
2471.347, 3013.839
2473.275, 2993.309
2475.204, 2972.923
2477.132, 2956.946
2479.061, 2960.005
2480.989, 2958.190
2482.918, 2917.163
2484.846, 2889.820
2486.775, 2872.653
2488.703, 2851.439
2490.632, 2834.995
2492.560, 2819.972
2494.489, 2801.080
2496.417, 2786.064
2498.345, 2767.448
2500.274, 2754.136
2502.202, 2738.784
2504.131, 2722.913
2506.059, 2710.156
2507.988, 2691.898
2509.916, 2665.365
2511.845, 2652.236
2513.773, 2645.272
2515.702, 2642.481
2517.630, 2624.682
2519.559, 2603.333
2521.487, 2585.253
2523.416, 2576.324
2525.344, 2564.643
2527.272, 2540.161
2529.201, 2519.604
2531.129, 2506.747
2533.058, 2491.082
2534.986, 2489.649
2536.915, 2469.887
2538.843, 2461.810
2540.772, 2452.691
2542.700, 2441.583
2544.629, 2429.886
2546.557, 2414.129
2548.486, 2397.825
2550.414, 2390.044
2552.343, 2380.496
2554.271, 2369.558
2556.199, 2363.136
2558.128, 2349.860
2560.056, 2330.019
2561.985, 2307.777
2563.913, 2288.815
2565.842, 2274.573
2567.770, 2268.079
2569.699, 2258.372
2571.627, 2243.852
2573.556, 2225.314
2575.484, 2209.250
2577.413, 2195.276
2579.341, 2173.406
2581.270, 2160.546
2583.198, 2156.299
2585.126, 2138.244
2587.055, 2124.048
2588.983, 2116.052
2590.912, 2099.659
2592.840, 2082.946
2594.769, 2068.145
2596.697, 2056.637
2598.626, 2042.861
2600.554, 2026.828
2602.483, 2020.074
2604.411, 2008.176
2606.340, 1989.528
2608.268, 1978.772
2610.197, 1965.449
2612.125, 1948.383
2614.053, 1938.749
2615.982, 1925.383
2617.910, 1908.213
2619.839, 1902.948
2621.767, 1894.316
2623.696, 1880.737
2625.624, 1874.246
2627.553, 1860.404
2629.481, 1840.407
2631.410, 1830.249
2633.338, 1817.846
2635.267, 1803.742
2637.195, 1798.168
2639.124, 1791.908
2641.052, 1782.392
2642.980, 1777.681
2644.909, 1760.223
2646.837, 1761.794
2648.766, 1750.779
2650.694, 1733.858
2652.623, 1713.806
2654.551, 1702.002
2656.480, 1686.742
2658.408, 1674.844
2660.337, 1662.274
2662.265, 1651.851
2664.194, 1641.559
2666.122, 1626.959
2668.051, 1618.440
2669.979, 1611.045
2671.907, 1598.760
2673.836, 1592.018
2675.764, 1583.451
2677.693, 1566.825
2679.621, 1556.078
2681.550, 1546.098
2683.478, 1533.411
2685.407, 1524.532
2687.335, 1514.527
2689.264, 1501.559
2691.192, 1491.546
2693.121, 1481.926
2695.049, 1471.172
2696.978, 1455.550
2698.906, 1442.050
2700.834, 1432.473
2702.763, 1425.451
2704.691, 1421.166
2706.620, 1417.258
2708.548, 1408.826
2710.477, 1397.174
2712.405, 1383.179
2714.334, 1366.655
2716.262, 1356.271
2718.191, 1348.191
2720.119, 1334.650
2722.048, 1327.517
2723.976, 1324.627
2725.905, 1313.193
2727.833, 1312.398
2729.761, 1297.054
2731.690, 1286.849
2733.618, 1279.479
2735.547, 1272.330
2737.475, 1264.354
2739.404, 1255.062
2741.332, 1244.754
2743.261, 1235.414
2745.189, 1225.700
2747.118, 1216.564
2749.046, 1206.745
2750.975, 1198.209
2752.903, 1189.426
2754.832, 1179.180
2756.760, 1167.195
2758.688, 1160.020
2760.617, 1151.788
2762.545, 1144.996
2764.474, 1138.037
2766.402, 1132.340
2768.331, 1124.171
2770.259, 1109.718
2772.188, 1104.611
2774.116, 1105.352
2776.045, 1088.497
2777.973, 1081.520
2779.902, 1080.121
2781.830, 1069.371
2783.759, 1064.443
2785.687, 1058.548
2787.615, 1042.475
2789.544, 1032.336
2791.472, 1025.482
2793.401, 1020.335
2795.329, 1012.269
2797.258, 1005.006
2799.186, 998.8776
2801.115, 991.4608
2803.043, 983.0995
2804.972, 974.1270
2806.900, 964.4451
2808.829, 958.2289
2810.757, 958.6602
2812.686, 945.3015
2814.614, 941.2247
2816.542, 934.3915
2818.471, 921.6352
2820.399, 920.4898
2822.328, 913.3365
2824.256, 900.6977
2826.185, 892.4610
2828.113, 888.4088
2830.042, 884.7299
2831.970, 877.4409
2833.899, 870.5768
2835.827, 864.0125
2837.756, 857.2353
2839.684, 849.0322
2841.613, 843.8102
2843.541, 836.6332
2845.469, 829.0125
2847.398, 825.0638
2849.326, 818.6341
2851.255, 798.1465
2853.183, 794.7195
2855.112, 789.5150
2857.040, 773.9084
2858.969, 770.0461
2860.897, 768.5172
2862.826, 765.9207
2864.754, 759.9067
2866.683, 754.1980
2868.611, 748.0460
2870.540, 740.4875
2872.468, 732.0638
2874.396, 728.6526
2876.325, 730.4743
2878.253, 722.9615
2880.182, 715.1312
2882.110, 707.6541
2884.039, 698.5856
2885.967, 689.0890
2887.896, 684.6946
2889.824, 687.2532
2891.753, 685.2629
2893.681, 677.3929
2895.610, 666.8170
2897.538, 663.4778
2899.467, 653.6457
2901.395, 643.3928
2903.323, 640.2186
2905.252, 632.8633
2907.180, 629.9310
2909.109, 632.4084
2911.037, 632.5330
2912.966, 626.1459
2914.894, 617.0903
2916.823, 610.7649
2918.751, 608.4683
2920.680, 604.7131
2922.608, 598.4247
2924.537, 596.3571
2926.465, 592.1898
2928.394, 589.3241
2930.322, 585.6438
2932.250, 581.0693
2934.179, 577.2830
2936.107, 575.3138
2938.036, 571.0092
2939.964, 564.5098
2941.893, 558.3482
2943.821, 556.5663
2945.750, 549.4416
2947.678, 546.0072
2949.607, 549.1815
2951.535, 545.0272
2953.464, 535.7650
2955.392, 526.4796
2957.321, 524.8851
2959.249, 516.8821
2961.177, 511.6017
2963.106, 512.1885
2965.034, 509.6783
2966.963, 501.3458
2968.891, 490.7753
2970.820, 482.9952
2972.748, 481.6035
2974.677, 480.0517
2976.605, 476.0384
2978.534, 474.4637
2980.462, 465.7311
2982.391, 456.2771
2984.319, 455.4968
2986.248, 452.0958
2988.176, 448.8515
2990.104, 446.0883
2992.033, 441.3456
2993.961, 436.8422
2995.890, 433.2273
2997.818, 430.6861
2999.747, 425.9449
3001.675, 423.1019
3003.604, 417.5957
3005.532, 416.5352
3007.461, 412.6904
3009.389, 409.5941
3011.318, 408.3751
3013.246, 403.3804
3015.175, 400.4423
3017.103, 397.7471
3019.031, 391.8176
3020.960, 390.3613
3022.888, 384.6068
3024.817, 377.2836
3026.745, 374.8423
3028.674, 371.8443
3030.602, 370.0695
3032.531, 366.7458
3034.459, 364.9207
3036.388, 360.7666
3038.316, 357.7176
3040.245, 355.1951
3042.173, 352.3004
3044.102, 347.8375
3046.030, 342.0079
3047.958, 335.4820
3049.887, 332.9583
3051.815, 332.3192
3053.744, 331.3304
3055.672, 325.6362
3057.601, 320.0305
3059.529, 313.8542
3061.458, 306.6268
3063.386, 312.6768
3065.315, 313.7487
3067.243, 308.6232
3069.172, 303.1812
3071.100, 303.8014
3073.029, 303.5828
3074.957, 300.0487
3076.885, 294.0212
3078.814, 290.5845
3080.742, 290.0731
3082.671, 291.0236
3084.599, 287.6059
3086.528, 282.1272
3088.456, 279.7575
3090.385, 283.8221
3092.313, 283.8363
3094.242, 276.2450
3096.170, 267.8588
3098.099, 269.6606
3100.027, 267.0815
3101.956, 263.4312
3103.884, 260.2129
3105.813, 258.2719
3107.741, 253.8740
3109.669, 250.0631
3111.598, 248.4290
3113.526, 249.3591
3115.455, 250.5628
3117.383, 249.4223
3119.312, 245.1244
3121.240, 239.4059
3123.169, 236.7369
3125.097, 234.9336
3127.026, 232.3628
3128.954, 230.8214
3130.883, 229.5637
3132.811, 226.7690
3134.740, 221.8917
3136.668, 222.2427
3138.596, 220.6453
3140.525, 218.9433
3142.453, 220.4459
3144.382, 218.8347
3146.310, 216.0077
3148.239, 213.4700
3150.167, 210.6057
3152.096, 208.7289
3154.024, 204.4285
3155.953, 201.8734
3157.881, 199.1729
3159.810, 198.3363
3161.738, 195.2348
3163.667, 196.1625
3165.595, 194.8629
3167.523, 195.3905
3169.452, 191.3134
3171.380, 186.2080
3173.309, 189.1308
3175.237, 188.3819
3177.166, 183.4971
3179.094, 178.4789
3181.023, 179.3330
3182.951, 179.4526
3184.880, 178.5598
3186.808, 176.2942
3188.737, 172.0339
3190.665, 171.8509
3192.594, 168.3989
3194.522, 162.9904
3196.450, 161.6518
3198.379, 159.7330
3200.307, 157.0660
3202.236, 156.1858
3204.164, 160.7719
3206.093, 160.3769
3208.021, 156.8867
3209.950, 152.1878
3211.878, 147.4682
3213.807, 150.7608
3215.735, 148.9864
3217.664, 145.8340
3219.592, 149.2718
3221.521, 139.9833
3223.449, 139.2899
3225.377, 143.4252
3227.306, 144.5637
3229.234, 140.3207
3231.163, 135.6436
3233.091, 133.6209
3235.020, 134.8672
3236.948, 131.4697
3238.877, 136.6078
3240.805, 157.2588
3242.734, 180.7375
3244.662, 143.8638
3246.591, 126.6365
3248.519, 123.3705
3250.448, 124.5822
3252.376, 124.9402
3254.304, 125.1654
3256.233, 120.9986
3258.161, 114.8879
3260.090, 113.1839
3262.018, 116.7005
3263.947, 120.2622
3265.875, 119.7177
3267.804, 119.4735
3269.732, 112.3944
3271.661, 114.2096
3273.589, 113.4755
3275.518, 109.2498
3277.446, 114.9250
3279.375, 109.9506
3281.303, 106.8306
3283.231, 110.8485
3285.160, 111.4402
3287.088, 107.9277
3289.017, 103.7661
3290.945, 102.7107
3292.874, 100.7543
3294.802, 103.7931
3296.731, 101.0148
3298.659, 102.3325
3300.588, 106.3819
3302.516, 104.5301
3304.445, 100.5097
3306.373, 98.13208
3308.302, 98.37739
3310.230, 98.81665
3312.158, 99.51387
3314.087, 97.65149
3316.015, 95.30083
3317.944, 96.98729
3319.872, 99.15874
3321.801, 100.6620
3323.729, 97.96374
3325.658, 90.37614
3327.586, 91.76480
3329.515, 90.00476
3331.443, 90.46606
3333.372, 92.23914
3335.300, 91.26864
3337.229, 88.03770
3339.157, 90.10857
3341.085, 89.04836
3343.014, 85.57077
3344.942, 87.65457
3346.871, 89.16391
3348.799, 87.91899
3350.728, 84.59100
3352.656, 82.18430
3354.585, 82.53916
3356.513, 83.23470
3358.442, 82.22890
3360.370, 83.16801
3362.299, 87.22173
3364.227, 102.1507
3366.156, 87.93204
3368.084, 103.4426
3370.012, 85.46155
3371.941, 79.69286
3373.869, 78.70247
3375.798, 78.40796
3377.726, 77.87809
3379.655, 77.53242
3381.583, 76.88383
3383.512, 76.01649
3385.440, 75.19280
3387.369, 73.96156
3389.297, 72.33392
3391.226, 71.06617
3393.154, 69.57959
3395.083, 68.71903
3397.011, 68.17479
3398.939, 69.31737
3400.868, 68.34396
3402.796, 70.64238
3404.725, 72.44582
3406.653, 69.25648
3408.582, 66.91447
3410.510, 69.32304
3412.439, 71.76537
3414.367, 65.71574
3416.296, 68.20695
3418.224, 71.36580
3420.153, 68.59187
3422.081, 62.71775
3424.010, 69.88703
3425.938, 67.06490
3427.866, 66.39172
3429.795, 68.25788
3431.723, 69.15711
3433.652, 65.16435
3435.580, 65.76589
3437.509, 66.58017
3439.437, 65.18245
3441.366, 65.64854
3443.294, 65.84264
3445.223, 64.60451
3447.151, 65.59667
3449.080, 64.34468
3451.008, 62.06981
3452.937, 59.90126
3454.865, 63.82660
3456.793, 62.44909
3458.722, 56.16477
##END=



