##NAMES=Silver
##RRUFFID=R070463
##IDEAL CHEMISTRY=Ag
##LOCALITY=Tsumeb mine, Tsumeb, Otavi District, Oshikoto, Namibia
##OWNER=RRUFF
##SOURCE=Michael Scott
##DESCRIPTION=Silvery gold metallic blebs, associated with rhobohedral calcite and green prismatic malachite. 
##STATUS=The identification of this mineral is confirmed by single-crystal X-ray diffraction and chemical analysis
##URL=https://www.rruff.net/odr/rruff_sample/R070463
##MEASURED CHEMISTRY=Ag ; (Hg trace)
##DIFFRACTION SAMPLE DESCRIPTION=Single crystal, powder profile is calculated
##CELL PARAMETERS=a: 4.094 b: 4.094 c: 4.094 alpha: 90 beta: 90 gamma: 90 volume: 68.48 crystal system: cubic
##FILETYPE=Raman RAW
##RAMAN WAVELENGTH=532

85.75506, 24.17556
87.68353, 24.70844
89.61199, 22.32214
91.54046, 21.15087
93.46893, 21.86340
95.39739, 23.12150
97.32586, 23.92727
99.25433, 23.57119
101.1828, 24.42485
103.1113, 27.48312
105.0397, 32.80702
106.9682, 37.21959
108.8967, 38.32559
110.8251, 39.82265
112.7536, 44.95650
114.6821, 58.65070
116.6105, 71.26991
118.5390, 78.81596
120.4675, 81.93700
122.3959, 90.02681
124.3244, 108.2782
126.2529, 131.2600
128.1813, 151.2742
130.1098, 164.7594
132.0383, 180.4412
133.9667, 202.1371
135.8952, 232.4195
137.8237, 260.3417
139.7521, 283.9076
141.6806, 304.9586
143.6091, 327.2486
145.5375, 351.3010
147.4660, 373.7689
149.3945, 381.2292
151.3229, 380.3748
153.2514, 382.6870
155.1799, 390.2878
157.1083, 400.0729
159.0368, 407.7090
160.9653, 413.1458
162.8937, 417.3060
164.8222, 419.4848
166.7507, 419.2059
168.6791, 421.9314
170.6076, 430.9965
172.5361, 444.1811
174.4645, 453.5866
176.3930, 457.7611
178.3215, 460.5307
180.2499, 463.4137
182.1784, 466.2553
184.1069, 470.3507
186.0353, 475.9401
187.9638, 482.5722
189.8923, 489.4969
191.8207, 497.0230
193.7492, 504.4831
195.6777, 511.8634
197.6061, 521.3504
199.5346, 527.0700
201.4631, 525.2437
203.3915, 519.0654
205.3200, 517.0707
207.2485, 522.8862
209.1769, 530.6938
211.1054, 537.7522
213.0339, 544.3365
214.9623, 549.6872
216.8908, 552.5009
218.8193, 553.6752
220.7477, 555.7584
222.6762, 559.7661
224.6047, 564.0211
226.5331, 567.9389
228.4616, 571.7756
230.3901, 574.7392
232.3185, 576.1935
234.2470, 576.6102
236.1755, 577.5788
238.1039, 579.6703
240.0324, 581.7573
241.9609, 583.6245
243.8893, 585.6165
245.8178, 585.8149
247.7463, 581.6931
249.6747, 575.4742
251.6032, 573.5887
253.5317, 578.9661
255.4601, 584.9839
257.3886, 589.0533
259.3170, 591.0633
261.2455, 591.0776
263.1740, 587.1111
265.1024, 581.8340
267.0309, 579.7881
268.9594, 584.1411
270.8878, 586.9789
272.8163, 584.5139
274.7448, 573.9508
276.6732, 567.2617
278.6017, 567.1910
280.5302, 569.6466
282.4586, 571.0851
284.3871, 572.3569
286.3156, 571.5045
288.2440, 566.5531
290.1725, 556.4814
292.1010, 548.4984
294.0294, 544.0312
295.9579, 541.1861
297.8864, 538.3076
299.8148, 534.0493
301.7433, 531.5865
303.6718, 532.5403
305.6003, 535.6208
307.5287, 537.4623
309.4572, 539.0162
311.3857, 538.2625
313.3141, 532.6741
315.2426, 517.1003
317.1711, 507.2560
319.0995, 510.3108
321.0280, 519.1726
322.9565, 522.8950
324.8849, 514.8049
326.8134, 507.1977
328.7419, 502.5635
330.6703, 500.6622
332.5988, 498.5422
334.5273, 494.7121
336.4557, 491.4160
338.3842, 490.7059
340.3127, 497.6909
342.2411, 501.6668
344.1696, 500.1539
346.0981, 495.0317
348.0265, 490.4720
349.9550, 486.4637
351.8835, 482.6078
353.8119, 480.2052
355.7404, 480.5032
357.6689, 481.5742
359.5973, 480.5052
361.5258, 477.7305
363.4543, 477.5055
365.3827, 485.1815
367.3112, 491.8278
369.2397, 493.7991
371.1681, 490.8281
373.0966, 487.4259
375.0251, 483.5509
376.9535, 480.4815
378.8820, 478.1489
380.8105, 475.8499
382.7389, 474.2440
384.6674, 475.4327
386.5959, 479.7225
388.5243, 484.0608
390.4528, 487.7393
392.3813, 489.3758
394.3097, 489.3735
396.2382, 487.0931
398.1667, 484.4332
400.0951, 481.2216
402.0236, 479.2264
403.9521, 479.3038
405.8805, 482.9594
407.8090, 486.2784
409.7375, 487.8734
411.6659, 488.2641
413.5944, 490.2027
415.5229, 494.0611
417.4513, 498.6404
419.3798, 503.1459
421.3083, 508.2382
423.2367, 510.5955
425.1652, 507.6930
427.0937, 502.4638
429.0221, 500.7165
430.9506, 505.5590
432.8791, 510.9004
434.8075, 512.8506
436.7360, 511.2903
438.6645, 509.1782
440.5929, 506.5639
442.5214, 504.1602
444.4499, 502.3928
446.3783, 501.2513
448.3068, 502.7879
450.2353, 504.9155
452.1637, 506.5737
454.0922, 508.7708
456.0207, 514.7093
457.9491, 519.0430
459.8776, 518.2724
461.8061, 513.4919
463.7345, 510.4679
465.6630, 509.0155
467.5915, 507.8909
469.5199, 507.2627
471.4484, 507.4487
473.3769, 508.0922
475.3053, 510.2537
477.2338, 512.1652
479.1623, 512.1952
481.0907, 506.1758
483.0192, 501.8253
484.9477, 503.5925
486.8761, 508.7043
488.8046, 510.3556
490.7331, 502.5053
492.6615, 496.5526
494.5900, 497.0344
496.5185, 504.4652
498.4469, 508.7285
500.3754, 508.5178
502.3039, 506.3085
504.2323, 504.3571
506.1608, 504.4041
508.0893, 504.9237
510.0177, 504.0920
511.9462, 502.5736
513.8746, 501.7950
515.8031, 500.9756
517.7316, 500.6556
519.6600, 501.9205
521.5885, 504.5024
523.5170, 505.9205
525.4454, 504.6507
527.3739, 505.5583
529.3024, 511.8272
531.2308, 520.7277
533.1593, 523.1740
535.0878, 516.6627
537.0162, 509.8782
538.9447, 507.7957
540.8732, 510.3090
542.8016, 509.2686
544.7301, 505.9216
546.6586, 503.5784
548.5870, 504.2194
550.5155, 503.8491
552.4440, 502.3632
554.3724, 500.7774
556.3009, 500.5276
558.2294, 500.5441
560.1578, 502.3721
562.0863, 504.8762
564.0148, 507.2187
565.9432, 507.4183
567.8717, 506.8968
569.8002, 507.3533
571.7286, 508.1409
573.6571, 508.4757
575.5856, 507.0522
577.5140, 506.2410
579.4425, 507.9838
581.3710, 511.1415
583.2994, 514.3582
585.2279, 517.0477
587.1564, 518.0001
589.0848, 515.4929
591.0133, 512.5840
592.9418, 514.3044
594.8702, 520.2974
596.7987, 524.6352
598.7272, 525.0479
600.6556, 524.1999
602.5841, 525.0651
604.5126, 526.6232
606.4410, 528.1645
608.3695, 530.1888
610.2980, 533.9261
612.2264, 536.4412
614.1549, 534.6056
616.0834, 531.2390
618.0118, 528.0573
619.9403, 526.3201
621.8688, 525.6276
623.7972, 527.8929
625.7257, 530.3621
627.6542, 529.6002
629.5826, 525.3417
631.5111, 524.6818
633.4396, 532.3499
635.3680, 540.4875
637.2965, 542.3904
639.2250, 536.5986
641.1534, 532.0656
643.0819, 529.8971
645.0104, 530.1827
646.9388, 531.8062
648.8673, 533.6285
650.7958, 536.6194
652.7242, 543.7158
654.6527, 551.7898
656.5812, 553.2458
658.5096, 544.5295
660.4381, 538.1011
662.3666, 540.5789
664.2950, 547.9945
666.2235, 552.0303
668.1520, 549.4865
670.0804, 547.6002
672.0089, 549.2625
673.9374, 552.3417
675.8658, 552.5906
677.7943, 547.6141
679.7228, 544.4687
681.6512, 546.7385
683.5797, 553.5072
685.5082, 556.5408
687.4366, 552.0728
689.3651, 547.2479
691.2936, 546.9846
693.2220, 551.8570
695.1505, 554.4650
697.0790, 551.5538
699.0074, 548.3408
700.9359, 548.5135
702.8644, 551.3220
704.7928, 553.0774
706.7213, 552.6534
708.6498, 552.8345
710.5782, 553.0837
712.5067, 552.5172
714.4352, 551.7928
716.3636, 550.5145
718.2921, 550.0881
720.2206, 551.5309
722.1490, 558.4859
724.0775, 562.0826
726.0060, 559.8965
727.9344, 555.3660
729.8629, 552.5681
731.7914, 551.5497
733.7198, 551.6068
735.6483, 553.4563
737.5768, 555.8190
739.5052, 557.0857
741.4337, 555.6388
743.3622, 554.9420
745.2906, 555.3199
747.2191, 556.8114
749.1476, 559.0792
751.0760, 562.9836
753.0045, 564.8500
754.9330, 561.5683
756.8615, 556.0227
758.7899, 554.2787
760.7184, 559.9023
762.6469, 565.1664
764.5753, 569.2728
766.5038, 571.0334
768.4323, 571.6138
770.3607, 570.9312
772.2892, 570.5475
774.2177, 570.1685
776.1461, 570.0695
778.0746, 570.5262
780.0031, 572.5877
781.9315, 573.3667
783.8600, 570.9609
785.7885, 568.5018
787.7169, 569.6772
789.6454, 577.1403
791.5739, 581.7000
793.5023, 578.9524
795.4308, 571.7778
797.3593, 568.2916
799.2877, 571.2358
801.2162, 574.2745
803.1447, 575.9965
805.0731, 577.7103
807.0016, 578.7397
808.9301, 578.5977
810.8585, 578.3746
812.7870, 578.6152
814.7155, 578.2274
816.6439, 578.6388
818.5724, 581.6116
820.5009, 585.1361
822.4293, 586.2551
824.3578, 583.1519
826.2863, 581.7351
828.2147, 582.2694
830.1432, 582.4949
832.0717, 581.0182
834.0001, 582.6967
835.9286, 586.7776
837.8571, 593.9857
839.7855, 598.1354
841.7140, 600.3334
843.6425, 599.2087
845.5709, 598.5677
847.4994, 599.9976
849.4279, 603.6487
851.3563, 607.4387
853.2848, 608.0115
855.2133, 606.2175
857.1417, 601.4462
859.0702, 600.2233
860.9987, 606.0546
862.9271, 611.0767
864.8556, 608.6436
866.7841, 598.2446
868.7125, 589.8457
870.6410, 588.8748
872.5695, 592.2626
874.4979, 594.9819
876.4264, 596.7129
878.3549, 598.7573
880.2833, 601.4752
882.2118, 602.2325
884.1403, 602.1872
886.0687, 601.6892
887.9972, 602.9505
889.9257, 608.2851
891.8541, 616.4383
893.7826, 617.5439
895.7111, 610.8461
897.6395, 605.9439
899.5680, 607.9334
901.4965, 612.6463
903.4249, 620.2397
905.3534, 626.7877
907.2819, 626.6437
909.2103, 617.4442
911.1388, 610.9611
913.0673, 610.7791
914.9957, 613.0550
916.9242, 614.9358
918.8527, 617.1953
920.7811, 619.9464
922.7096, 623.1402
924.6381, 625.7565
926.5665, 625.8044
928.4950, 623.2101
930.4235, 622.0817
932.3519, 622.8150
934.2804, 624.2012
936.2089, 624.9349
938.1373, 623.9385
940.0658, 619.9403
941.9943, 620.0365
943.9227, 626.7281
945.8512, 633.0334
947.7797, 635.3265
949.7081, 635.0445
951.6366, 635.3810
953.5651, 633.1926
955.4935, 628.4845
957.4220, 625.5513
959.3505, 630.2878
961.2789, 641.7525
963.2074, 646.3538
965.1359, 643.1580
967.0643, 636.2476
968.9928, 632.9034
970.9213, 637.7574
972.8497, 649.1508
974.7782, 659.3118
976.7067, 664.2210
978.6351, 663.9675
980.5636, 660.0280
982.4921, 653.7969
984.4205, 649.1699
986.3490, 649.2405
988.2775, 653.3443
990.2059, 657.2619
992.1344, 654.9594
994.0629, 650.8270
995.9913, 648.2734
997.9198, 647.7454
999.8483, 648.8976
1001.777, 651.5137
1003.705, 653.2496
1005.634, 656.8472
1007.562, 663.7463
1009.491, 669.8372
1011.419, 671.0709
1013.348, 666.3255
1015.276, 662.8163
1017.204, 661.5191
1019.133, 659.6195
1021.061, 656.5620
1022.990, 655.6287
1024.918, 655.7822
1026.847, 653.7025
1028.775, 653.4703
1030.704, 657.5610
1032.632, 665.0186
1034.561, 672.4646
1036.489, 675.9843
1038.418, 680.7965
1040.346, 687.3456
1042.275, 691.4872
1044.203, 688.4075
1046.131, 684.8162
1048.060, 682.8206
1049.988, 679.0745
1051.917, 674.9323
1053.845, 673.2883
1055.774, 679.0659
1057.702, 685.5965
1059.631, 683.8837
1061.559, 681.9069
1063.488, 683.0923
1065.416, 687.5068
1067.345, 690.5463
1069.273, 691.9474
1071.202, 694.4647
1073.130, 698.7142
1075.058, 700.4071
1076.987, 695.8032
1078.915, 690.9659
1080.844, 689.3797
1082.772, 691.1489
1084.701, 695.2866
1086.629, 703.4001
1088.558, 709.3860
1090.486, 707.3708
1092.415, 700.6429
1094.343, 697.7130
1096.272, 701.7690
1098.200, 707.5999
1100.129, 712.7939
1102.057, 712.9568
1103.985, 710.4656
1105.914, 707.4249
1107.842, 709.1896
1109.771, 718.1255
1111.699, 725.3168
1113.628, 726.7339
1115.556, 724.8130
1117.485, 725.6664
1119.413, 730.9891
1121.342, 734.0028
1123.270, 731.1862
1125.199, 727.7189
1127.127, 726.3312
1129.056, 727.3400
1130.984, 726.4080
1132.912, 722.2829
1134.841, 719.7396
1136.769, 721.3964
1138.698, 727.2866
1140.626, 731.0170
1142.555, 731.6852
1144.483, 731.2488
1146.412, 727.7831
1148.340, 724.3648
1150.269, 727.1975
1152.197, 738.5997
1154.126, 746.7911
1156.054, 746.2046
1157.983, 743.9144
1159.911, 743.7141
1161.839, 745.5646
1163.768, 745.9042
1165.696, 743.7582
1167.625, 742.8824
1169.553, 743.8857
1171.482, 745.8932
1173.410, 748.4736
1175.339, 751.1901
1177.267, 755.2490
1179.196, 763.6393
1181.124, 772.1429
1183.053, 772.8424
1184.981, 763.9106
1186.910, 757.1090
1188.838, 755.3126
1190.766, 756.3673
1192.695, 759.7202
1194.623, 765.5353
1196.552, 770.8228
1198.480, 776.2496
1200.409, 779.2934
1202.337, 778.3239
1204.266, 775.2584
1206.194, 772.8693
1208.123, 770.2111
1210.051, 770.0300
1211.980, 774.6254
1213.908, 779.8475
1215.837, 782.6949
1217.765, 783.7004
1219.693, 786.1649
1221.622, 791.7672
1223.550, 796.4263
1225.479, 797.2690
1227.407, 796.6585
1229.336, 798.2547
1231.264, 803.0013
1233.193, 805.2509
1235.121, 801.5681
1237.050, 796.9570
1238.978, 793.2927
1240.907, 791.8518
1242.835, 794.5094
1244.764, 804.9366
1246.692, 813.1733
1248.620, 816.7284
1250.549, 818.3487
1252.477, 819.8981
1254.406, 821.1031
1256.334, 823.2970
1258.263, 827.3024
1260.191, 831.0945
1262.120, 832.7009
1264.048, 833.9921
1265.977, 838.8239
1267.905, 849.3542
1269.834, 856.5015
1271.762, 855.6974
1273.691, 852.0861
1275.619, 848.7745
1277.547, 847.2356
1279.476, 847.8339
1281.404, 851.1050
1283.333, 853.9111
1285.261, 855.0523
1287.190, 856.1731
1289.118, 860.1796
1291.047, 869.3840
1292.975, 874.6314
1294.904, 874.0551
1296.832, 872.7216
1298.761, 872.1420
1300.689, 871.9828
1302.618, 875.5521
1304.546, 883.9208
1306.474, 890.0515
1308.403, 889.3746
1310.331, 889.2675
1312.260, 895.1048
1314.188, 906.2587
1316.117, 915.8072
1318.045, 923.1500
1319.974, 927.5828
1321.902, 928.0440
1323.831, 926.0577
1325.759, 924.3638
1327.688, 920.8010
1329.616, 917.2520
1331.545, 913.1470
1333.473, 911.8531
1335.401, 917.2111
1337.330, 927.8840
1339.258, 931.7826
1341.187, 923.3439
1343.115, 917.1866
1345.044, 917.7850
1346.972, 921.2274
1348.901, 922.4480
1350.829, 919.9369
1352.758, 919.2261
1354.686, 921.5529
1356.615, 923.3979
1358.543, 926.0316
1360.472, 928.4818
1362.400, 925.1680
1364.328, 908.5455
1366.257, 898.5959
1368.185, 910.9590
1370.114, 925.0509
1372.042, 928.0797
1373.971, 924.4148
1375.899, 927.6935
1377.828, 937.8216
1379.756, 942.1270
1381.685, 937.8813
1383.613, 932.1257
1385.542, 926.4901
1387.470, 921.5187
1389.399, 921.6250
1391.327, 926.5073
1393.255, 929.3506
1395.184, 930.6797
1397.112, 933.1568
1399.041, 939.5259
1400.969, 951.1646
1402.898, 961.4413
1404.826, 963.3148
1406.755, 959.9741
1408.683, 952.7572
1410.612, 946.4990
1412.540, 943.5104
1414.469, 942.7350
1416.397, 944.7327
1418.326, 951.1818
1420.254, 954.0726
1422.182, 948.2432
1424.111, 942.3324
1426.039, 943.3405
1427.968, 948.8059
1429.896, 953.0359
1431.825, 958.7892
1433.753, 965.3402
1435.682, 971.0901
1437.610, 972.5289
1439.539, 966.7021
1441.467, 955.8968
1443.396, 952.3997
1445.324, 957.9209
1447.253, 965.9255
1449.181, 974.2050
1451.109, 978.4054
1453.038, 975.6403
1454.966, 966.8750
1456.895, 965.0038
1458.823, 975.3439
1460.752, 981.0008
1462.680, 970.3892
1464.609, 955.9235
1466.537, 956.5662
1468.466, 977.6485
1470.394, 988.5165
1472.323, 979.4190
1474.251, 974.0709
1476.180, 984.0084
1478.108, 998.5277
1480.036, 1002.190
1481.965, 992.9425
1483.893, 983.7431
1485.822, 973.6679
1487.750, 966.0757
1489.679, 963.3109
1491.607, 964.6333
1493.536, 969.5450
1495.464, 977.7255
1497.393, 983.4213
1499.321, 984.3934
1501.250, 982.4955
1503.178, 976.4810
1505.107, 972.8145
1507.035, 980.5198
1508.964, 997.6016
1510.892, 1006.699
1512.820, 1002.500
1514.749, 997.0694
1516.677, 993.0933
1518.606, 992.4757
1520.534, 998.9178
1522.463, 1010.693
1524.391, 1017.393
1526.320, 1016.445
1528.248, 1014.310
1530.177, 1012.797
1532.105, 1010.701
1534.034, 1007.012
1535.962, 1003.184
1537.891, 1005.022
1539.819, 1015.739
1541.747, 1022.515
1543.676, 1017.087
1545.604, 1011.805
1547.533, 1016.090
1549.461, 1026.688
1551.390, 1031.256
1553.318, 1025.822
1555.247, 1024.054
1557.175, 1032.470
1559.104, 1039.729
1561.032, 1040.956
1562.961, 1039.541
1564.889, 1041.223
1566.818, 1047.404
1568.746, 1050.880
1570.674, 1046.886
1572.603, 1045.600
1574.531, 1052.303
1576.460, 1060.330
1578.388, 1063.992
1580.317, 1063.218
1582.245, 1058.450
1584.174, 1039.894
1586.102, 1032.420
1588.031, 1048.140
1589.959, 1063.651
1591.888, 1063.344
1593.816, 1053.368
1595.745, 1048.921
1597.673, 1052.620
1599.601, 1054.479
1601.530, 1056.002
1603.458, 1054.527
1605.387, 1045.247
1607.315, 1035.343
1609.244, 1035.156
1611.172, 1045.679
1613.101, 1053.184
1615.029, 1055.485
1616.958, 1057.569
1618.886, 1062.134
1620.815, 1064.404
1622.743, 1056.714
1624.672, 1043.221
1626.600, 1041.899
1628.528, 1057.966
1630.457, 1069.640
1632.385, 1075.184
1634.314, 1076.389
1636.242, 1071.311
1638.171, 1063.702
1640.099, 1057.659
1642.028, 1053.106
1643.956, 1053.891
1645.885, 1067.164
1647.813, 1072.960
1649.742, 1058.367
1651.670, 1043.579
1653.599, 1045.825
1655.527, 1059.301
1657.455, 1065.768
1659.384, 1065.118
1661.312, 1059.737
1663.241, 1041.860
1665.169, 1029.363
1667.098, 1030.389
1669.026, 1038.188
1670.955, 1046.562
1672.883, 1055.117
1674.812, 1060.753
1676.740, 1062.445
1678.669, 1063.320
1680.597, 1063.770
1682.526, 1063.925
1684.454, 1065.870
1686.382, 1067.195
1688.311, 1061.938
1690.239, 1049.271
1692.168, 1040.912
1694.096, 1039.548
1696.025, 1038.723
1697.953, 1031.900
1699.882, 1029.618
1701.810, 1045.285
1703.739, 1071.645
1705.667, 1083.776
1707.596, 1076.716
1709.524, 1075.797
1711.453, 1091.285
1713.381, 1101.145
1715.309, 1094.843
1717.238, 1083.286
1719.166, 1075.692
1721.095, 1072.021
1723.023, 1072.049
1724.952, 1078.503
1726.880, 1082.267
1728.809, 1082.014
1730.737, 1080.238
1732.666, 1073.649
1734.594, 1068.789
1736.523, 1076.828
1738.451, 1096.227
1740.380, 1103.798
1742.308, 1086.375
1744.236, 1080.191
1746.165, 1098.852
1748.093, 1113.854
1750.022, 1108.740
1751.950, 1096.470
1753.879, 1095.035
1755.807, 1104.204
1757.736, 1106.598
1759.664, 1093.244
1761.593, 1088.153
1763.521, 1097.558
1765.450, 1108.868
1767.378, 1119.512
1769.307, 1127.405
1771.235, 1128.810
1773.163, 1123.798
1775.092, 1119.742
1777.020, 1115.325
1778.949, 1114.642
1780.877, 1123.088
1782.806, 1128.958
1784.734, 1124.276
1786.663, 1117.032
1788.591, 1117.881
1790.520, 1126.117
1792.448, 1129.095
1794.377, 1124.362
1796.305, 1122.601
1798.234, 1127.052
1800.162, 1132.258
1802.090, 1138.306
1804.019, 1142.415
1805.947, 1140.753
1807.876, 1134.650
1809.804, 1130.151
1811.733, 1127.529
1813.661, 1125.267
1815.590, 1122.705
1817.518, 1121.612
1819.447, 1124.159
1821.375, 1127.295
1823.304, 1129.342
1825.232, 1130.107
1827.161, 1126.922
1829.089, 1119.432
1831.017, 1121.727
1832.946, 1141.416
1834.874, 1155.131
1836.803, 1147.478
1838.731, 1139.735
1840.660, 1149.499
1842.588, 1165.708
1844.517, 1169.077
1846.445, 1160.620
1848.374, 1153.013
1850.302, 1145.752
1852.231, 1142.687
1854.159, 1146.866
1856.088, 1152.454
1858.016, 1157.055
1859.944, 1161.664
1861.873, 1169.680
1863.801, 1179.093
1865.730, 1178.459
1867.658, 1160.063
1869.587, 1152.357
1871.515, 1163.839
1873.444, 1173.403
1875.372, 1179.385
1877.301, 1179.304
1879.229, 1162.825
1881.158, 1142.955
1883.086, 1147.756
1885.015, 1179.749
1886.943, 1200.398
1888.871, 1209.743
1890.800, 1207.383
1892.728, 1180.216
1894.657, 1160.252
1896.585, 1165.675
1898.514, 1177.691
1900.442, 1176.155
1902.371, 1168.398
1904.299, 1180.246
1906.228, 1212.504
1908.156, 1226.091
1910.085, 1209.805
1912.013, 1196.838
1913.942, 1197.920
1915.870, 1202.781
1917.798, 1211.792
1919.727, 1217.317
1921.655, 1204.681
1923.584, 1180.181
1925.512, 1173.084
1927.441, 1187.129
1929.369, 1198.494
1931.298, 1204.381
1933.226, 1209.474
1935.155, 1215.949
1937.083, 1220.174
1939.011, 1217.555
1940.940, 1212.786
1942.868, 1213.339
1944.797, 1218.316
1946.725, 1219.833
1948.654, 1217.218
1950.582, 1214.105
1952.511, 1209.995
1954.439, 1206.871
1956.368, 1202.557
1958.296, 1201.942
1960.225, 1210.255
1962.153, 1221.279
1964.082, 1226.419
1966.010, 1227.211
1967.938, 1232.524
1969.867, 1243.730
1971.795, 1244.950
1973.724, 1229.443
1975.652, 1217.925
1977.581, 1216.024
1979.509, 1220.766
1981.438, 1239.253
1983.366, 1256.624
1985.295, 1250.249
1987.223, 1227.974
1989.152, 1221.360
1991.080, 1234.294
1993.009, 1243.409
1994.937, 1246.897
1996.865, 1249.600
1998.794, 1248.153
2000.722, 1250.883
2002.651, 1266.965
2004.579, 1282.960
2006.508, 1289.210
2008.436, 1285.966
2010.365, 1267.945
2012.293, 1236.666
2014.222, 1226.665
2016.150, 1244.000
2018.079, 1257.544
2020.007, 1260.988
2021.936, 1262.127
2023.864, 1259.807
2025.792, 1260.782
2027.721, 1277.147
2029.649, 1293.983
2031.578, 1285.406
2033.506, 1259.588
2035.435, 1254.895
2037.363, 1277.782
2039.292, 1289.177
2041.220, 1277.658
2043.149, 1273.018
2045.077, 1283.894
2047.006, 1293.606
2048.934, 1299.442
2050.863, 1299.416
2052.791, 1284.954
2054.719, 1267.402
2056.648, 1269.917
2058.576, 1288.461
2060.505, 1297.032
2062.433, 1293.920
2064.362, 1290.635
2066.290, 1286.956
2068.219, 1288.307
2070.147, 1301.547
2072.076, 1312.814
2074.004, 1315.705
2075.933, 1314.620
2077.861, 1311.481
2079.790, 1307.701
2081.718, 1305.710
2083.646, 1305.278
2085.575, 1304.858
2087.503, 1301.499
2089.432, 1307.356
2091.360, 1331.451
2093.289, 1345.706
2095.217, 1341.576
2097.146, 1333.221
2099.074, 1323.539
2101.003, 1314.835
2102.931, 1307.525
2104.860, 1303.277
2106.788, 1305.137
2108.717, 1311.999
2110.645, 1321.208
2112.573, 1333.217
2114.502, 1336.201
2116.430, 1321.833
2118.359, 1314.867
2120.287, 1323.793
2122.216, 1331.651
2124.144, 1335.336
2126.073, 1335.188
2128.001, 1327.621
2129.930, 1319.805
2131.858, 1321.621
2133.787, 1328.969
2135.715, 1330.278
2137.644, 1326.461
2139.572, 1323.614
2141.500, 1321.502
2143.429, 1327.796
2145.357, 1349.138
2147.286, 1363.403
2149.214, 1359.768
2151.143, 1355.024
2153.071, 1354.781
2155.000, 1356.273
2156.928, 1359.755
2158.857, 1362.294
2160.785, 1357.893
2162.714, 1349.565
2164.642, 1348.918
2166.571, 1355.641
2168.499, 1356.260
2170.427, 1348.942
2172.356, 1346.106
2174.284, 1350.605
2176.213, 1355.856
2178.141, 1360.371
2180.070, 1364.971
2181.998, 1371.145
2183.927, 1376.295
2185.855, 1376.102
2187.784, 1375.722
2189.712, 1384.693
2191.641, 1397.549
2193.569, 1397.258
2195.498, 1384.204
2197.426, 1380.146
2199.354, 1386.056
2201.283, 1392.975
2203.211, 1402.905
2205.140, 1401.896
2207.068, 1378.672
2208.997, 1362.260
2210.925, 1369.390
2212.854, 1378.287
2214.782, 1377.934
2216.711, 1374.080
2218.639, 1369.018
2220.568, 1365.557
2222.496, 1370.604
2224.425, 1381.177
2226.353, 1380.877
2228.281, 1370.135
2230.210, 1380.774
2232.138, 1417.863
2234.067, 1434.772
2235.995, 1419.673
2237.924, 1404.452
2239.852, 1396.404
2241.781, 1390.699
2243.709, 1384.826
2245.638, 1382.657
2247.566, 1389.567
2249.495, 1397.834
2251.423, 1400.849
2253.352, 1400.385
2255.280, 1397.214
2257.208, 1393.073
2259.137, 1395.473
2261.065, 1403.080
2262.994, 1405.389
2264.922, 1401.494
2266.851, 1399.318
2268.779, 1398.906
2270.708, 1402.751
2272.636, 1417.010
2274.565, 1426.559
2276.493, 1426.122
2278.422, 1424.072
2280.350, 1425.216
2282.279, 1423.958
2284.207, 1413.201
2286.135, 1401.655
2288.064, 1394.536
2289.992, 1394.359
2291.921, 1411.530
2293.849, 1438.222
2295.778, 1444.633
2297.706, 1430.670
2299.635, 1427.945
2301.563, 1441.280
2303.492, 1446.733
2305.420, 1439.695
2307.349, 1439.700
2309.277, 1455.283
2311.206, 1460.565
2313.134, 1440.463
2315.063, 1426.707
2316.991, 1440.300
2318.919, 1454.588
2320.848, 1458.654
2322.776, 1453.187
2324.705, 1426.374
2326.633, 1400.113
2328.562, 1409.331
2330.490, 1439.309
2332.419, 1458.295
2334.347, 1466.614
2336.276, 1462.841
2338.204, 1448.390
2340.133, 1441.026
2342.061, 1441.988
2343.990, 1448.640
2345.918, 1466.797
2347.846, 1476.177
2349.775, 1469.060
2351.703, 1463.531
2353.632, 1463.635
2355.560, 1462.825
2357.489, 1455.567
2359.417, 1452.386
2361.346, 1462.928
2363.274, 1473.509
2365.203, 1473.728
2367.131, 1469.583
2369.060, 1466.425
2370.988, 1463.853
2372.917, 1460.415
2374.845, 1457.599
2376.773, 1459.786
2378.702, 1466.367
2380.630, 1473.628
2382.559, 1480.978
2384.487, 1479.750
2386.416, 1468.561
2388.344, 1461.041
2390.273, 1456.149
2392.201, 1461.660
2394.130, 1488.360
2396.058, 1508.069
2397.987, 1523.836
2399.915, 1522.167
2401.844, 1486.242
2403.772, 1457.845
2405.700, 1456.084
2407.629, 1462.082
2409.557, 1469.601
2411.486, 1476.162
2413.414, 1478.548
2415.343, 1480.437
2417.271, 1486.966
2419.200, 1494.203
2421.128, 1494.651
2423.057, 1491.968
2424.985, 1494.908
2426.914, 1501.753
2428.842, 1507.311
2430.771, 1511.839
2432.699, 1520.214
2434.627, 1533.620
2436.556, 1531.577
2438.484, 1506.858
2440.413, 1493.744
2442.341, 1493.695
2444.270, 1502.074
2446.198, 1523.230
2448.127, 1532.428
2450.055, 1519.043
2451.984, 1508.006
2453.912, 1503.808
2455.841, 1506.000
2457.769, 1521.656
2459.698, 1532.985
2461.626, 1531.394
2463.554, 1526.257
2465.483, 1517.558
2467.411, 1513.229
2469.340, 1524.537
2471.268, 1536.304
2473.197, 1529.318
2475.125, 1519.860
2477.054, 1531.364
2478.982, 1550.715
2480.911, 1558.920
2482.839, 1557.277
2484.768, 1542.974
2486.696, 1523.281
2488.625, 1522.190
2490.553, 1535.747
2492.481, 1541.186
2494.410, 1538.820
2496.338, 1532.778
2498.267, 1521.457
2500.195, 1521.558
2502.124, 1534.442
2504.052, 1541.646
2505.981, 1541.101
2507.909, 1540.552
2509.838, 1541.448
2511.766, 1540.019
2513.695, 1533.164
2515.623, 1528.585
2517.552, 1525.664
2519.480, 1528.243
2521.408, 1539.855
2523.337, 1551.304
2525.265, 1563.086
2527.194, 1568.391
2529.122, 1558.065
2531.051, 1549.973
2532.979, 1551.093
2534.908, 1556.500
2536.836, 1567.248
2538.765, 1575.865
2540.693, 1576.151
2542.622, 1574.408
2544.550, 1573.997
2546.479, 1575.398
2548.407, 1580.192
2550.335, 1586.762
2552.264, 1597.940
2554.192, 1606.251
2556.121, 1597.332
2558.049, 1581.984
2559.978, 1574.617
2561.906, 1574.284
2563.835, 1582.587
2565.763, 1594.603
2567.692, 1598.135
2569.620, 1595.531
2571.549, 1595.550
2573.477, 1597.228
2575.406, 1595.924
2577.334, 1592.191
2579.262, 1588.809
2581.191, 1585.707
2583.119, 1576.816
2585.048, 1562.084
2586.976, 1571.664
2588.905, 1610.531
2590.833, 1612.933
2592.762, 1577.641
2594.690, 1559.885
2596.619, 1563.955
2598.547, 1570.992
2600.476, 1580.735
2602.404, 1587.789
2604.333, 1590.581
2606.261, 1594.779
2608.189, 1600.736
2610.118, 1605.733
2612.046, 1609.189
2613.975, 1612.114
2615.903, 1616.288
2617.832, 1615.895
2619.760, 1605.961
2621.689, 1600.779
2623.617, 1604.119
2625.546, 1605.751
2627.474, 1603.409
2629.403, 1600.250
2631.331, 1593.268
2633.260, 1592.335
2635.188, 1604.295
2637.116, 1613.962
2639.045, 1617.253
2640.973, 1620.125
2642.902, 1626.033
2644.830, 1628.226
2646.759, 1618.322
2648.687, 1616.095
2650.616, 1636.808
2652.544, 1653.838
2654.473, 1655.780
2656.401, 1654.486
2658.330, 1650.275
2660.258, 1647.957
2662.187, 1652.518
2664.115, 1654.213
2666.043, 1643.826
2667.972, 1637.244
2669.900, 1651.593
2671.829, 1658.493
2673.757, 1641.702
2675.686, 1623.873
2677.614, 1613.794
2679.543, 1609.979
2681.471, 1610.934
2683.400, 1617.974
2685.328, 1640.055
2687.257, 1656.015
2689.185, 1650.144
2691.114, 1643.662
2693.042, 1648.528
2694.970, 1657.757
2696.899, 1670.934
2698.827, 1682.166
2700.756, 1686.735
2702.684, 1689.116
2704.613, 1692.221
2706.541, 1692.638
2708.470, 1685.281
2710.398, 1678.724
2712.327, 1678.918
2714.255, 1681.580
2716.184, 1686.867
2718.112, 1690.433
2720.041, 1688.772
2721.969, 1686.348
2723.897, 1686.578
2725.826, 1685.501
2727.754, 1677.634
2729.683, 1671.379
2731.611, 1668.828
2733.540, 1673.695
2735.468, 1695.541
2737.397, 1714.396
2739.325, 1720.744
2741.254, 1718.260
2743.182, 1704.753
2745.111, 1688.849
2747.039, 1668.599
2748.968, 1657.083
2750.896, 1666.824
2752.824, 1678.399
2754.753, 1685.338
2756.681, 1687.384
2758.610, 1677.888
2760.538, 1673.541
2762.467, 1685.343
2764.395, 1694.017
2766.324, 1684.636
2768.252, 1679.994
2770.181, 1697.316
2772.109, 1707.445
2774.038, 1691.557
2775.966, 1687.321
2777.895, 1717.315
2779.823, 1737.247
2781.751, 1723.330
2783.680, 1709.351
2785.608, 1704.736
2787.537, 1699.737
2789.465, 1688.434
2791.394, 1689.453
2793.322, 1716.268
2795.251, 1735.447
2797.179, 1733.102
2799.108, 1733.287
2801.036, 1741.746
2802.965, 1741.465
2804.893, 1725.854
2806.822, 1719.310
2808.750, 1733.260
2810.678, 1739.274
2812.607, 1730.716
2814.535, 1729.374
2816.464, 1738.070
2818.392, 1740.820
2820.321, 1735.012
2822.249, 1725.538
2824.178, 1708.717
2826.106, 1705.586
2828.035, 1717.366
2829.963, 1728.584
2831.892, 1738.629
2833.820, 1748.160
2835.749, 1757.384
2837.677, 1748.002
2839.605, 1720.262
2841.534, 1728.930
2843.462, 1766.315
2845.391, 1787.957
2847.319, 1795.080
2849.248, 1799.903
2851.176, 1802.039
2853.105, 1795.941
2855.033, 1786.608
2856.962, 1791.083
2858.890, 1802.139
2860.819, 1805.786
2862.747, 1803.880
2864.676, 1795.779
2866.604, 1787.721
2868.532, 1791.085
2870.461, 1798.693
2872.389, 1803.314
2874.318, 1807.249
2876.246, 1817.256
2878.175, 1823.139
2880.103, 1810.748
2882.032, 1797.865
2883.960, 1795.570
2885.889, 1797.776
2887.817, 1801.180
2889.746, 1807.253
2891.674, 1819.101
2893.603, 1828.829
2895.531, 1832.578
2897.459, 1835.219
2899.388, 1836.714
2901.316, 1840.644
2903.245, 1850.706
2905.173, 1856.310
2907.102, 1856.288
2909.030, 1850.493
2910.959, 1836.134
2912.887, 1824.823
2914.816, 1816.949
2916.744, 1812.955
2918.673, 1812.659
2920.601, 1818.183
2922.530, 1829.792
2924.458, 1842.691
2926.386, 1856.507
2928.315, 1857.113
2930.243, 1846.373
2932.172, 1828.536
2934.100, 1808.936
2936.029, 1804.707
2937.957, 1810.541
2939.886, 1813.194
2941.814, 1816.535
2943.743, 1831.374
2945.671, 1846.082
2947.600, 1843.816
2949.528, 1837.402
2951.457, 1839.892
2953.385, 1843.650
2955.313, 1843.114
2957.242, 1842.256
2959.170, 1844.318
2961.099, 1844.985
2963.027, 1839.080
2964.956, 1837.793
2966.884, 1847.028
2968.813, 1853.338
2970.741, 1852.175
2972.670, 1849.083
2974.598, 1843.827
2976.527, 1840.776
2978.455, 1841.005
2980.384, 1830.171
2982.312, 1803.036
2984.240, 1802.511
2986.169, 1828.272
2988.097, 1848.653
2990.026, 1862.477
2991.954, 1861.905
2993.883, 1851.908
2995.811, 1843.033
2997.740, 1836.693
2999.668, 1837.436
3001.597, 1840.324
3003.525, 1843.396
3005.454, 1840.581
3007.382, 1814.829
3009.311, 1797.364
3011.239, 1817.038
3013.167, 1834.936
3015.096, 1827.630
3017.024, 1821.387
3018.953, 1825.314
3020.881, 1831.193
3022.810, 1837.551
3024.738, 1847.499
3026.667, 1867.315
3028.595, 1867.327
3030.524, 1842.691
3032.452, 1825.436
3034.381, 1816.589
3036.309, 1821.276
3038.238, 1835.404
3040.166, 1833.423
3042.094, 1822.127
3044.023, 1819.859
3045.951, 1824.994
3047.880, 1839.540
3049.808, 1853.658
3051.737, 1854.194
3053.665, 1850.968
3055.594, 1851.541
3057.522, 1850.402
3059.451, 1840.721
3061.379, 1835.447
3063.308, 1840.444
3065.236, 1848.050
3067.165, 1858.151
3069.093, 1865.576
3071.021, 1867.325
3072.950, 1873.510
3074.878, 1884.537
3076.807, 1889.996
3078.735, 1888.851
3080.664, 1872.399
3082.592, 1848.795
3084.521, 1849.094
3086.449, 1860.653
3088.378, 1858.270
3090.306, 1854.059
3092.235, 1864.610
3094.163, 1874.909
3096.092, 1870.951
3098.020, 1865.759
3099.948, 1868.595
3101.877, 1865.202
3103.805, 1841.628
3105.734, 1831.523
3107.662, 1840.188
3109.591, 1853.929
3111.519, 1872.701
3113.448, 1878.442
3115.376, 1870.843
3117.305, 1872.260
3119.233, 1878.739
3121.162, 1876.470
3123.090, 1869.637
3125.019, 1863.606
3126.947, 1861.105
3128.875, 1870.288
3130.804, 1876.795
3132.732, 1863.123
3134.661, 1855.828
3136.589, 1872.510
3138.518, 1885.188
3140.446, 1886.394
3142.375, 1888.404
3144.303, 1897.848
3146.232, 1891.786
3148.160, 1870.715
3150.089, 1866.318
3152.017, 1875.799
3153.946, 1876.476
3155.874, 1873.511
3157.802, 1882.333
3159.731, 1893.031
3161.659, 1892.232
3163.588, 1890.273
3165.516, 1896.184
3167.445, 1902.521
3169.373, 1908.233
3171.302, 1909.186
3173.230, 1903.968
3175.159, 1890.710
3177.087, 1865.710
3179.016, 1876.174
3180.944, 1922.055
3182.873, 1927.958
3184.801, 1905.253
3186.729, 1911.800
3188.658, 1927.676
3190.586, 1917.252
3192.515, 1900.346
3194.443, 1899.218
3196.372, 1896.596
3198.300, 1878.533
3200.229, 1868.867
3202.157, 1885.470
3204.086, 1893.513
3206.014, 1887.493
3207.943, 1890.035
3209.871, 1902.610
3211.800, 1900.343
3213.728, 1888.387
3215.656, 1907.505
3217.585, 1932.602
3219.513, 1912.541
3221.442, 1882.776
3223.370, 1879.399
3225.299, 1883.654
3227.227, 1886.988
3229.156, 1891.843
3231.084, 1903.410
3233.013, 1905.151
3234.941, 1893.688
3236.870, 1896.566
3238.798, 1914.882
3240.727, 1910.720
3242.655, 1893.240
3244.583, 1898.471
3246.512, 1911.669
3248.440, 1909.723
3250.369, 1907.042
3252.297, 1918.332
3254.226, 1927.636
3256.154, 1929.359
3258.083, 1925.740
3260.011, 1912.358
3261.940, 1911.745
3263.868, 1924.756
3265.797, 1929.277
3267.725, 1925.615
3269.654, 1912.230
3271.582, 1901.449
3273.510, 1928.002
3275.439, 1955.204
3277.367, 1943.091
3279.296, 1930.927
3281.224, 1937.865
3283.153, 1944.563
3285.081, 1948.210
3287.010, 1942.562
3288.938, 1926.564
3290.867, 1928.129
3292.795, 1942.837
3294.724, 1948.062
3296.652, 1945.428
3298.581, 1930.457
3300.509, 1919.139
3302.438, 1923.518
3304.366, 1938.434
3306.294, 1976.184
3308.223, 1991.822
3310.151, 1976.442
3312.080, 1946.706
3314.008, 1902.399
3315.937, 1910.006
3317.865, 1948.796
3319.794, 1955.524
3321.722, 1943.935
3323.651, 1918.923
3325.579, 1907.208
3327.508, 1935.346
3329.436, 1958.914
3331.365, 1960.296
3333.293, 1953.004
3335.221, 1936.725
3337.150, 1934.039
3339.078, 1943.940
3341.007, 1950.364
3342.935, 1956.839
3344.864, 1980.978
3346.792, 1995.906
3348.721, 1962.376
3350.649, 1938.993
3352.578, 1952.350
3354.506, 1964.215
3356.435, 1966.519
3358.363, 1960.276
3360.292, 1947.407
3362.220, 1960.314
3364.148, 1982.346
3366.077, 1966.018
3368.005, 1944.882
3369.934, 1955.179
3371.862, 1971.547
3373.791, 1987.979
3375.719, 1993.303
3377.648, 1985.518
3379.576, 1973.814
3381.505, 1959.863
3383.433, 1954.998
3385.362, 1956.352
3387.290, 1954.519
3389.219, 1954.959
3391.147, 1962.465
3393.075, 1976.055
3395.004, 2000.260
3396.932, 2011.631
3398.861, 1995.484
3400.789, 2000.151
3402.718, 2021.941
3404.646, 2012.704
3406.575, 1989.190
3408.503, 1986.522
3410.432, 1990.185
3412.360, 1987.182
3414.289, 1986.583
3416.217, 1994.702
3418.146, 2001.414
3420.074, 2005.984
3422.002, 2012.318
3423.931, 2017.107
3425.859, 1987.140
3427.788, 1955.676
3429.716, 1988.375
3431.645, 2019.111
3433.573, 1989.669
3435.502, 1967.697
3437.430, 1968.161
3439.359, 1981.742
3441.287, 2008.351
3443.216, 2004.470
3445.144, 1982.266
3447.073, 1965.399
3449.001, 1959.809
3450.929, 1983.270
3452.858, 2000.846
3454.786, 1996.073
3456.715, 1987.765
3458.643, 1976.225
3460.572, 1987.502
3462.500, 2013.919
3464.429, 2021.019
3466.357, 2011.930
3468.286, 1977.323
3470.214, 1951.774
3472.143, 1965.161
3474.071, 1972.919
3476.000, 1966.175
3477.928, 1967.502
3479.856, 1978.278
3481.785, 1996.860
3483.713, 2013.679
3485.642, 2005.847
3487.570, 1995.292
3489.499, 1999.736
3491.427, 2003.684
3493.356, 2004.409
3495.284, 2002.151
3497.213, 1997.447
3499.141, 1989.630
3501.070, 1981.204
3502.998, 1972.284
3504.927, 1971.320
3506.855, 1992.359
3508.783, 2007.976
3510.712, 2008.741
3512.640, 2002.877
3514.569, 1992.354
3516.497, 2016.531
3518.426, 2050.827
3520.354, 2034.365
3522.283, 2010.830
3524.211, 2014.968
3526.140, 2018.707
3528.068, 2009.809
3529.997, 2008.420
3531.925, 2014.224
3533.854, 2014.548
3535.782, 2010.464
3537.710, 1997.831
3539.639, 1991.690
3541.567, 2008.870
3543.496, 2022.220
3545.424, 2025.758
3547.353, 2023.711
3549.281, 2016.413
3551.210, 1997.352
3553.138, 1982.586
3555.067, 2010.083
3556.995, 2035.243
3558.924, 2018.413
3560.852, 2017.851
3562.781, 2045.037
3564.709, 2049.728
3566.637, 2035.093
3568.566, 2031.425
3570.494, 2032.255
3572.423, 2032.170
3574.351, 2030.143
3576.280, 2028.049
3578.208, 2012.561
3580.137, 1977.326
3582.065, 1991.706
3583.994, 2029.034
3585.922, 2010.909
3587.851, 1988.506
3589.779, 2019.173
3591.708, 2037.871
3593.636, 2022.460
3595.564, 2013.705
3597.493, 2013.141
3599.421, 2013.003
3601.350, 2012.375
3603.278, 2007.936
3605.207, 2006.068
3607.135, 2008.090
3609.064, 2020.406
3610.992, 2046.927
3612.921, 2050.300
3614.849, 2038.518
3616.778, 2034.480
3618.706, 2034.669
3620.635, 2038.459
3622.563, 2039.617
3624.491, 2032.644
3626.420, 2033.236
3628.348, 2039.781
3630.277, 2042.120
3632.205, 2041.595
3634.134, 2042.901
3636.062, 2037.681
3637.991, 2007.773
3639.919, 2010.082
3641.848, 2046.047
3643.776, 2049.822
3645.705, 2035.440
3647.633, 2036.849
3649.562, 2035.985
3651.490, 2010.137
3653.418, 2008.994
3655.347, 2042.990
3657.275, 2047.679
3659.204, 2031.414
3661.132, 2026.881
3663.061, 2029.138
3664.989, 2034.061
3666.918, 2041.177
3668.846, 2051.649
3670.775, 2056.332
3672.703, 2053.430
3674.632, 2027.208
3676.560, 2006.245
3678.489, 2030.678
3680.417, 2054.463
3682.345, 2062.939
3684.274, 2054.983
3686.202, 2033.077
3688.131, 2017.492
3690.059, 2010.712
3691.988, 2021.536
3693.916, 2031.113
3695.845, 2028.159
3697.773, 2030.423
3699.702, 2038.502
3701.630, 2044.678
3703.559, 2048.635
3705.487, 2048.647
3707.416, 2048.041
3709.344, 2050.702
3711.272, 2041.238
3713.201, 2021.920
3715.129, 2043.420
3717.058, 2075.566
3718.986, 2060.426
3720.915, 2039.257
3722.843, 2030.315
3724.772, 2026.251
3726.700, 2026.902
3728.629, 2040.386
3730.557, 2055.860
3732.486, 2048.484
3734.414, 2046.675
3736.343, 2077.733
3738.271, 2082.885
3740.199, 2061.703
3742.128, 2045.213
3744.056, 2039.072
3745.985, 2058.245
3747.913, 2077.556
3749.842, 2089.564
3751.770, 2084.815
3753.699, 2065.699
3755.627, 2045.703
3757.556, 2036.027
3759.484, 2061.015
3761.413, 2081.532
3763.341, 2078.625
3765.270, 2068.473
3767.198, 2055.277
3769.126, 2063.678
3771.055, 2076.763
3772.983, 2079.717
3774.912, 2072.603
3776.840, 2049.010
3778.769, 2042.761
3780.697, 2048.313
3782.626, 2040.605
3784.554, 2034.102
3786.483, 2043.847
3788.411, 2046.359
3790.340, 2031.830
3792.268, 2042.672
3794.197, 2069.303
3796.125, 2100.219
3798.053, 2109.115
3799.982, 2071.107
3801.910, 2056.015
3803.839, 2074.189
3805.767, 2075.240
3807.696, 2066.421
3809.624, 2050.584
3811.553, 2049.403
3813.481, 2078.394
3815.410, 2077.821
3817.338, 2050.952
3819.267, 2059.156
3821.195, 2072.750
3823.124, 2056.259
3825.052, 2047.794
3826.980, 2057.415
3828.909, 2059.020
3830.837, 2055.603
3832.766, 2056.409
3834.694, 2061.571
3836.623, 2076.949
3838.551, 2076.087
3840.480, 2056.469
3842.408, 2057.062
3844.337, 2063.404
3846.265, 2052.271
3848.194, 2046.441
3850.122, 2052.558
3852.051, 2069.027
3853.979, 2088.778
3855.907, 2080.237
3857.836, 2072.096
3859.764, 2096.242
3861.693, 2099.216
3863.621, 2076.996
3865.550, 2061.509
3867.478, 2053.871
3869.407, 2060.541
3871.335, 2063.835
3873.264, 2049.889
3875.192, 2046.009
3877.121, 2053.693
3879.049, 2068.136
3880.978, 2080.521
3882.906, 2088.638
3884.834, 2084.649
3886.763, 2065.821
3888.691, 2074.071
3890.620, 2092.996
3892.548, 2097.257
3894.477, 2093.897
3896.405, 2086.423
3898.334, 2083.092
3900.262, 2079.945
3902.191, 2067.602
3904.119, 2063.793
3906.048, 2079.379
3907.976, 2087.374
3909.905, 2092.634
3911.833, 2087.452
3913.761, 2080.460
3915.690, 2094.120
3917.618, 2095.598
3919.547, 2078.804
3921.475, 2073.211
3923.404, 2074.539
3925.332, 2082.346
3927.261, 2084.908
3929.189, 2071.557
3931.118, 2073.644
3933.046, 2087.458
3934.975, 2090.843
3936.903, 2088.674
3938.832, 2081.426
3940.760, 2078.883
3942.688, 2081.673
3944.617, 2084.268
3946.545, 2087.431
3948.474, 2098.484
3950.402, 2098.795
3952.331, 2079.481
3954.259, 2074.371
3956.188, 2076.570
3958.116, 2066.730
3960.045, 2064.135
3961.973, 2077.090
3963.902, 2088.699
3965.830, 2096.574
3967.759, 2103.574
3969.687, 2104.652
3971.615, 2084.748
3973.544, 2081.457
3975.472, 2099.021
3977.401, 2095.127
3979.329, 2079.232
3981.258, 2066.367
3983.186, 2071.868
3985.115, 2092.758
3987.043, 2113.280
3988.972, 2116.085
3990.900, 2089.225
3992.829, 2078.177
3994.757, 2090.822
3996.686, 2115.300
3998.614, 2130.602
4000.542, 2098.273
4002.471, 2073.675
4004.399, 2092.834
4006.328, 2102.375
4008.256, 2103.480
4010.185, 2127.459
4012.113, 2137.754
4014.042, 2110.853
4015.970, 2095.916
4017.899, 2097.564
4019.827, 2097.343
4021.756, 2095.554
4023.684, 2091.807
4025.613, 2083.753
4027.541, 2086.102
4029.469, 2089.628
4031.398, 2097.462
4033.326, 2110.647
4035.255, 2094.333
4037.183, 2078.105
4039.112, 2084.362
4041.040, 2090.196
4042.969, 2105.873
4044.897, 2118.335
4046.826, 2114.835
4048.754, 2101.762
4050.683, 2098.444
4052.611, 2096.511
4054.540, 2098.141
4056.468, 2117.906
4058.396, 2117.111
4060.325, 2109.180
4062.253, 2110.318
4064.182, 2109.466
4066.110, 2103.184
4068.039, 2080.629
4069.967, 2084.743
4071.896, 2121.582
4073.824, 2127.245
4075.753, 2104.276
4077.681, 2099.541
4079.610, 2093.605
4081.538, 2089.455
4083.467, 2097.779
4085.395, 2106.603
4087.323, 2121.264
4089.252, 2119.853
4091.180, 2107.945
4093.109, 2106.696
4095.037, 2118.307
4096.966, 2138.960
4098.894, 2124.898
4100.823, 2100.918
4102.751, 2085.280
4104.680, 2083.662
4106.608, 2114.611
4108.537, 2136.269
4110.465, 2133.932
4112.394, 2119.876
4114.322, 2112.143
4116.250, 2099.235
4118.179, 2095.365
4120.107, 2106.194
4122.036, 2125.818
4123.964, 2131.500
4125.893, 2109.716
4127.821, 2107.246
4129.750, 2105.262
4131.678, 2100.999
4133.606, 2104.825
4135.535, 2108.309
4137.463, 2111.643
4139.392, 2116.948
4141.320, 2118.475
4143.249, 2115.750
4145.177, 2106.623
4147.106, 2110.137
4149.034, 2123.946
4150.963, 2130.708
4152.891, 2130.786
4154.820, 2121.288
4156.748, 2118.825
4158.677, 2125.030
4160.605, 2119.903
4162.534, 2113.623
4164.462, 2118.688
4166.391, 2111.351
4168.319, 2090.760
4170.248, 2079.953
4172.176, 2081.649
4174.104, 2106.554
4176.033, 2114.501
4177.961, 2104.131
4179.890, 2089.858
4181.818, 2082.331
4183.747, 2099.430
4185.675, 2112.006
4187.604, 2116.296
4189.532, 2106.180
4191.460, 2096.320
4193.389, 2107.266
4195.317, 2101.239
4197.246, 2080.114
4199.174, 2082.583
4201.103, 2092.157
4203.031, 2103.087
4204.960, 2108.034
4206.888, 2106.097
4208.817, 2110.613
4210.745, 2114.028
4212.674, 2114.329
4214.602, 2116.707
4216.531, 2119.023
4218.459, 2120.920
4220.388, 2122.277
4222.316, 2123.528
4224.245, 2128.341
4226.173, 2134.792
4228.102, 2146.168
4230.030, 2142.379
4231.958, 2110.111
4233.887, 2103.607
4235.815, 2115.383
4237.744, 2134.134
4239.672, 2137.370
4241.601, 2116.477
4243.529, 2108.360
4245.458, 2106.617
4247.386, 2093.439
4249.314, 2089.884
4251.243, 2100.335
4253.171, 2104.582
4255.100, 2106.670
4257.028, 2112.536
4258.957, 2119.500
4260.885, 2127.187
4262.814, 2141.411
4264.742, 2145.574
4266.671, 2111.460
4268.599, 2109.488
4270.528, 2134.898
4272.456, 2123.670
4274.385, 2112.485
4276.313, 2129.159
4278.242, 2135.337
4280.170, 2131.253
4282.099, 2120.880
4284.027, 2119.470
4285.956, 2135.188
4287.884, 2138.559
4289.813, 2135.221
4291.741, 2141.209
4293.669, 2139.546
4295.598, 2125.870
4297.526, 2115.776
4299.455, 2113.002
4301.383, 2126.637
4303.312, 2133.119
4305.240, 2128.242
4307.168, 2101.806
4309.097, 2088.084
4311.025, 2128.738
4312.954, 2141.436
4314.882, 2129.749
4316.811, 2120.561
4318.739, 2116.550
4320.668, 2120.652
4322.596, 2132.254
4324.525, 2137.596
4326.453, 2097.044
4328.382, 2080.074
4330.310, 2104.794
4332.239, 2112.053
4334.167, 2110.571
4336.096, 2102.273
4338.024, 2112.722
4339.953, 2136.391
4341.881, 2127.779
4343.810, 2109.383
4345.738, 2088.493
4347.667, 2092.406
4349.595, 2106.700
4351.523, 2097.682
4353.452, 2096.771
4355.380, 2111.558
4357.309, 2122.513
4359.237, 2130.730
4361.166, 2137.936
4363.094, 2140.800
4365.022, 2139.634
4366.951, 2140.399
4368.879, 2131.031
4370.808, 2104.952
4372.736, 2095.000
4374.665, 2098.183
4376.593, 2115.368
4378.522, 2110.290
4380.450, 2079.847
4382.379, 2077.722
4384.307, 2090.155
4386.236, 2114.547
4388.164, 2114.352
4390.093, 2099.803
4392.021, 2112.772
4393.950, 2116.250
4395.878, 2088.210
4397.807, 2106.630
4399.735, 2143.100
4401.664, 2173.028
4403.592, 2177.458
4405.521, 2158.276
4407.449, 2132.638
4409.377, 2112.936
4411.306, 2104.370
4413.234, 2126.792
4415.163, 2148.570
4417.091, 2100.337
4419.020, 2092.058
4420.948, 2131.417
4422.876, 2149.491
4424.805, 2150.330
4426.733, 2135.380
4428.662, 2114.480
4430.590, 2099.936
4432.519, 2122.441
4434.447, 2133.439
4436.376, 2122.009
4438.304, 2119.748
4440.233, 2116.565
4442.161, 2103.535
4444.090, 2087.349
4446.018, 2078.577
4447.947, 2114.444
4449.875, 2125.295
4451.804, 2097.267
4453.732, 2107.093
4455.661, 2125.005
4457.589, 2129.271
4459.518, 2121.288
4461.446, 2113.562
4463.375, 2143.533
4465.303, 2148.555
4467.231, 2115.732
4469.160, 2142.647
4471.088, 2156.984
4473.017, 2068.977
4474.945, 2058.759
4476.874, 2099.315
4478.802, 2130.793
4480.730, 2131.372
4482.659, 2099.853
4484.587, 2096.698
4486.516, 2106.186
4488.444, 2120.919
4490.373, 2108.178
4492.301, 2086.051
4494.230, 2088.104
4496.158, 2097.364
4498.087, 2110.063
4500.015, 2126.479
4501.944, 2135.901
4503.872, 2129.679
4505.801, 2126.885
4507.729, 2126.950
4509.658, 2131.579
4511.586, 2122.809
4513.515, 2104.932
4515.443, 2106.052
4517.372, 2118.721
4519.300, 2139.017
4521.229, 2124.113
4523.157, 2098.659
4525.085, 2088.838
4527.014, 2062.441
4528.942, 2039.186
4530.871, 2087.952
4532.799, 2119.615
4534.728, 2114.619
4536.656, 2117.025
4538.584, 2110.393
4540.513, 2082.605
4542.441, 2109.091
4544.370, 2150.347
4546.298, 2153.656
4548.227, 2121.637
4550.155, 2075.475
4552.084, 2095.339
4554.012, 2113.064
4555.941, 2103.608
4557.869, 2114.103
4559.798, 2124.077
4561.726, 2117.661
4563.655, 2114.049
4565.583, 2109.024
4567.512, 2085.843
4569.440, 2082.487
4571.369, 2097.338
4573.297, 2092.593
4575.226, 2088.146
4577.154, 2091.683
4579.083, 2116.215
4581.011, 2130.498
4582.939, 2104.737
4584.868, 2098.396
4586.796, 2104.737
4588.725, 2106.783
4590.653, 2105.493
4592.582, 2098.614
4594.510, 2059.597
4596.438, 2055.154
4598.367, 2118.565
4600.295, 2117.753
4602.224, 2098.950
4604.152, 2092.605
4606.081, 2112.616
4608.009, 2129.190
4609.938, 2082.363
4611.866, 2074.145
4613.795, 2099.795
4615.723, 2095.548
4617.652, 2087.055
4619.580, 2082.113
4621.509, 2083.823
4623.437, 2095.963
4625.366, 2121.805
4627.294, 2116.921
4629.223, 2100.929
4631.151, 2094.321
4633.080, 2101.323
4635.008, 2108.536
4636.937, 2071.842
4638.865, 2073.670
4640.793, 2113.063
4642.722, 2092.821
4644.650, 2077.794
4646.579, 2087.607
4648.507, 2084.899
4650.436, 2073.973
4652.364, 2051.001
4654.292, 2062.880
4656.221, 2078.989
4658.149, 2056.696
4660.078, 2081.389
4662.006, 2122.259
4663.935, 2089.491
4665.863, 2062.071
4667.792, 2058.105
4669.720, 2104.147
4671.649, 2117.863
4673.577, 2075.159
4675.506, 2108.172
4677.434, 2129.048
4679.363, 2092.220
4681.291, 2057.489
4683.220, 2042.829
4685.148, 2074.663
4687.077, 2086.292
4689.005, 2084.198
4690.934, 2079.542
4692.862, 2083.128
4694.791, 2092.537
4696.719, 2101.333
4698.647, 2107.776
4700.576, 2107.820
4702.504, 2063.300
4704.433, 2046.112
4706.361, 2076.330
4708.290, 2066.717
4710.218, 2053.468
4712.146, 2056.333
4714.075, 2071.701
4716.003, 2081.575
4717.932, 2067.672
4719.860, 2063.932
4721.789, 2063.318
4723.717, 2050.126
4725.646, 2058.648
4727.574, 2081.645
4729.503, 2101.511
4731.431, 2114.201
4733.360, 2114.293
4735.288, 2067.238
4737.217, 2064.441
4739.145, 2105.204
4741.074, 2075.743
4743.002, 2062.506
4744.931, 2097.880
4746.859, 2103.908
4748.788, 2093.511
4750.716, 2072.976
4752.645, 2075.315
4754.573, 2075.817
4756.501, 2050.049
4758.430, 2035.731
4760.358, 2041.740
4762.287, 2082.125
4764.215, 2095.038
4766.144, 2084.368
4768.072, 2052.927
4770.000, 2037.437
4771.929, 2040.374
4773.857, 2070.479
4775.786, 2068.668
4777.714, 2047.055
4779.643, 2062.787
4781.571, 2067.348
4783.500, 2056.061
4785.428, 2046.074
4787.357, 2049.889
4789.285, 2065.211
4791.214, 2054.018
4793.142, 2051.688
4795.071, 2066.891
4796.999, 2049.519
4798.928, 2038.426
4800.856, 2048.708
4802.785, 2049.934
4804.713, 2054.755
4806.642, 2070.511
4808.570, 2061.131
4810.499, 2050.461
4812.427, 2054.599
4814.355, 2051.823
4816.284, 2044.942
4818.212, 2035.098
4820.141, 2037.034
4822.069, 2046.101
4823.998, 2060.902
4825.926, 2043.855
4827.854, 2023.875
4829.783, 2032.226
4831.711, 2068.323
4833.640, 2093.395
4835.568, 2050.017
4837.497, 2038.390
4839.425, 2042.128
4841.354, 2019.739
4843.282, 2020.203
4845.211, 2027.681
4847.139, 2002.325
4849.068, 2004.634
4850.996, 2018.694
4852.925, 1993.519
4854.853, 2001.214
4856.782, 2028.072
4858.710, 2024.652
4860.639, 2019.559
4862.567, 2019.299
4864.496, 2029.122
4866.424, 2045.046
4868.353, 2053.064
4870.281, 2006.834
4872.209, 1997.509
4874.138, 2017.990
4876.066, 2009.414
4877.995, 2009.931
4879.923, 2021.022
4881.852, 2031.617
4883.780, 2023.560
4885.708, 2003.764
4887.637, 1997.734
4889.565, 1999.504
4891.494, 2008.350
4893.422, 2037.039
4895.351, 2032.251
4897.279, 2001.851
4899.208, 1996.596
4901.136, 2000.098
4903.065, 2005.443
4904.993, 1998.048
4906.922, 2010.087
4908.850, 2028.935
4910.779, 1990.844
4912.707, 1984.316
4914.636, 2002.766
4916.564, 1991.823
4918.493, 1971.508
4920.421, 1955.925
4922.350, 1976.201
4924.278, 1987.259
4926.207, 1986.373
4928.135, 1983.908
4930.063, 1973.306
4931.992, 1962.203
4933.920, 1971.715
4935.849, 1973.677
4937.777, 1964.246
4939.706, 1933.836
4941.634, 1946.297
4943.563, 1979.714
4945.491, 1992.803
4947.419, 1989.809
4949.348, 1983.107
4951.276, 1990.885
4953.205, 1978.666
4955.133, 1962.897
4957.062, 1971.461
4958.990, 1972.145
4960.919, 1967.840
4962.847, 1961.048
4964.776, 1987.204
4966.704, 2001.709
4968.633, 1956.419
4970.561, 1969.990
4972.490, 1987.463
4974.418, 1962.568
4976.347, 1972.777
4978.275, 1979.284
4980.204, 1959.749
4982.132, 1963.320
4984.061, 1967.538
4985.989, 1959.672
4987.917, 1959.040
4989.846, 1956.315
4991.774, 1950.476
4993.703, 1966.314
4995.631, 1971.003
4997.560, 1956.532
4999.488, 1931.859
5001.417, 1936.091
5003.345, 1963.498
5005.273, 1954.495
5007.202, 1939.012
5009.130, 1932.086
5011.059, 1958.650
5012.987, 1984.285
5014.916, 1993.155
5016.844, 1958.225
5018.773, 1937.070
5020.701, 1931.661
5022.630, 1937.689
5024.558, 1949.321
5026.487, 1947.900
5028.415, 1901.488
5030.344, 1905.267
5032.272, 1920.555
5034.201, 1920.830
5036.129, 1921.029
5038.058, 1923.692
5039.986, 1929.762
5041.915, 1933.705
5043.843, 1942.926
5045.771, 1954.925
5047.700, 1927.427
5049.628, 1898.243
5051.557, 1884.863
5053.485, 1923.161
5055.414, 1932.672
5057.342, 1920.271
5059.271, 1938.843
5061.199, 1907.282
5063.127, 1869.984
5065.056, 1898.659
5066.984, 1904.494
5068.913, 1904.462
5070.841, 1924.802
5072.770, 1903.327
5074.698, 1885.122
5076.627, 1895.572
5078.555, 1915.423
5080.484, 1922.459
5082.412, 1912.624
5084.341, 1905.017
5086.269, 1901.584
5088.198, 1899.606
5090.126, 1891.035
5092.055, 1869.286
5093.983, 1857.570
5095.912, 1904.737
5097.840, 1906.620
5099.769, 1886.028
5101.697, 1873.833
5103.625, 1888.547
5105.554, 1898.972
5107.482, 1886.439
5109.411, 1876.855
5111.339, 1883.499
5113.268, 1903.148
5115.196, 1894.396
5117.125, 1879.266
5119.053, 1866.811
5120.981, 1866.824
5122.910, 1859.019
5124.838, 1856.474
5126.767, 1885.036
5128.695, 1881.648
5130.624, 1872.437
5132.552, 1885.874
5134.481, 1874.282
5136.409, 1856.460
5138.338, 1842.334
5140.266, 1831.771
5142.195, 1829.585
5144.123, 1837.009
5146.052, 1858.343
5147.980, 1872.594
5149.909, 1876.285
5151.837, 1867.583
5153.766, 1852.526
5155.694, 1845.904
5157.623, 1858.064
5159.551, 1836.193
5161.479, 1839.361
5163.408, 1883.082
5165.336, 1878.855
5167.265, 1853.132
5169.193, 1830.484
5171.122, 1864.268
5173.050, 1862.095
5174.979, 1849.848
5176.907, 1876.046
5178.835, 1848.459
5180.764, 1831.059
5182.692, 1870.278
5184.621, 1846.684
5186.549, 1825.802
5188.478, 1825.526
5190.406, 1824.875
5192.335, 1834.430
5194.263, 1838.978
5196.192, 1803.438
5198.120, 1807.977
5200.049, 1821.215
5201.977, 1814.593
5203.906, 1808.388
5205.834, 1798.521
5207.763, 1788.748
5209.691, 1809.272
5211.620, 1817.754
5213.548, 1812.715
5215.477, 1801.705
5217.405, 1803.627
5219.333, 1808.539
5221.262, 1808.036
5223.190, 1791.995
5225.119, 1791.450
5227.047, 1806.877
5228.976, 1784.447
5230.904, 1788.064
5232.833, 1806.123
5234.761, 1800.704
5236.689, 1786.970
5238.618, 1774.773
5240.546, 1770.760
5242.475, 1792.297
5244.403, 1797.624
5246.332, 1782.453
5248.260, 1778.365
5250.189, 1764.483
5252.117, 1756.689
5254.046, 1787.054
5255.974, 1794.866
5257.903, 1790.728
5259.831, 1783.757
5261.760, 1796.451
5263.688, 1785.716
5265.617, 1758.641
5267.545, 1749.822
5269.474, 1758.045
5271.402, 1768.864
5273.331, 1771.136
5275.259, 1749.661
5277.188, 1732.246
5279.116, 1733.063
5281.044, 1774.144
5282.973, 1796.297
5284.901, 1793.776
5286.830, 1764.924
5288.758, 1754.316
5290.687, 1759.238
5292.615, 1771.518
5294.543, 1715.766
5296.472, 1733.988
5298.400, 1787.192
5300.329, 1747.760
5302.257, 1737.219
5304.186, 1745.618
5306.114, 1757.590
5308.043, 1765.580
5309.971, 1752.200
5311.900, 1732.094
5313.828, 1757.825
5315.757, 1738.337
5317.685, 1713.691
5319.614, 1722.363
5321.542, 1715.238
5323.471, 1713.281
5325.399, 1717.071
5327.328, 1697.592
5329.256, 1709.782
5331.185, 1717.125
5333.113, 1680.185
5335.042, 1705.146
5336.970, 1709.768
5338.898, 1685.856
5340.827, 1708.552
5342.755, 1710.853
5344.684, 1701.067
5346.612, 1693.979
5348.541, 1686.237
5350.469, 1701.232
5352.397, 1735.263
5354.326, 1756.126
5356.254, 1726.462
5358.183, 1693.613
5360.111, 1702.558
5362.040, 1681.396
5363.968, 1679.972
5365.897, 1701.914
5367.825, 1701.759
5369.754, 1697.947
5371.682, 1692.951
5373.611, 1687.343
5375.539, 1694.373
5377.468, 1694.508
5379.396, 1682.427
5381.325, 1653.081
5383.253, 1659.062
5385.182, 1671.625
5387.110, 1667.296
5389.039, 1671.457
5390.967, 1660.841
5392.896, 1652.098
5394.824, 1690.316
5396.752, 1690.839
5398.681, 1654.999
5400.609, 1604.608
5402.538, 1632.776
5404.466, 1651.852
5406.395, 1651.472
5408.323, 1639.090
5410.251, 1622.456
5412.180, 1619.273
5414.108, 1632.776
5416.037, 1653.231
5417.965, 1659.467
5419.894, 1659.684
5421.822, 1662.423
5423.751, 1655.351
5425.679, 1621.440
5427.608, 1585.133
5429.536, 1610.896
5431.465, 1615.818
5433.393, 1621.445
5435.322, 1635.552
5437.250, 1602.093
5439.179, 1586.857
5441.107, 1589.675
5443.036, 1596.080
5444.964, 1586.361
5446.893, 1608.429
5448.821, 1649.163
5450.750, 1623.990
5452.678, 1633.378
5454.606, 1640.223
5456.535, 1619.042
5458.463, 1614.086
5460.392, 1600.454
5462.320, 1583.815
5464.249, 1577.298
5466.177, 1598.815
5468.105, 1605.733
5470.034, 1591.058
5471.962, 1571.584
5473.891, 1582.075
5475.819, 1590.451
5477.748, 1577.887
5479.676, 1580.983
5481.605, 1572.681
5483.533, 1562.994
5485.462, 1568.436
5487.390, 1593.397
5489.319, 1609.692
5491.247, 1606.306
5493.176, 1576.016
5495.104, 1577.919
5497.033, 1582.929
5498.961, 1574.963
5500.890, 1558.483
5502.818, 1576.491
5504.747, 1591.063
5506.675, 1568.059
5508.604, 1566.096
5510.532, 1560.417
5512.460, 1546.999
5514.389, 1528.776
5516.317, 1522.071
5518.246, 1531.156
5520.174, 1547.934
5522.103, 1552.309
5524.031, 1559.559
5525.959, 1561.727
5527.888, 1556.624
5529.816, 1558.764
5531.745, 1557.102
5533.673, 1554.338
5535.602, 1552.433
5537.530, 1525.011
5539.459, 1517.769
5541.387, 1522.195
5543.316, 1517.941
5545.244, 1504.615
5547.173, 1512.237
5549.101, 1531.678
5551.030, 1531.604
5552.958, 1550.837
5554.887, 1539.321
5556.815, 1502.934
5558.744, 1524.646
5560.672, 1504.656
5562.601, 1493.496
5564.529, 1508.289
5566.458, 1487.996
5568.386, 1488.109
5570.314, 1495.591
5572.243, 1495.592
5574.171, 1489.167
5576.100, 1487.285
5578.028, 1484.313
5579.957, 1474.523
5581.885, 1478.741
5583.813, 1472.300
5585.742, 1458.797
5587.670, 1447.766
5589.599, 1471.881
5591.527, 1467.105
5593.456, 1452.368
5595.384, 1479.260
5597.313, 1465.419
5599.241, 1469.480
5601.170, 1486.694
5603.098, 1472.100
5605.027, 1483.227
5606.955, 1481.570
5608.884, 1462.410
5610.812, 1453.876
5612.741, 1449.200
5614.669, 1443.700
5616.598, 1440.824
5618.526, 1457.648
5620.455, 1472.231
5622.383, 1473.495
5624.312, 1456.429
5626.240, 1412.305
5628.168, 1423.159
5630.097, 1442.271
5632.025, 1439.604
5633.954, 1415.782
5635.882, 1413.395
5637.811, 1417.829
5639.739, 1418.277
5641.667, 1414.169
5643.596, 1416.469
5645.524, 1427.935
5647.453, 1441.939
5649.381, 1419.257
5651.310, 1418.801
5653.238, 1420.872
5655.167, 1411.607
5657.095, 1401.489
5659.024, 1398.030
5660.952, 1390.874
5662.881, 1378.891
5664.809, 1384.072
5666.738, 1400.288
5668.666, 1402.639
5670.595, 1387.639
5672.523, 1402.190
5674.452, 1405.165
5676.380, 1389.804
5678.309, 1370.208
5680.237, 1421.568
5682.166, 1396.828
5684.094, 1381.863
5686.022, 1402.303
5687.951, 1365.588
5689.879, 1368.759
5691.808, 1382.542
5693.736, 1387.122
5695.665, 1383.349
5697.593, 1375.073
5699.521, 1364.161
5701.450, 1361.579
5703.378, 1392.422
5705.307, 1343.547
5707.235, 1336.635
5709.164, 1375.117
5711.092, 1367.443
5713.021, 1370.144
5714.949, 1349.121
5716.878, 1322.967
5718.806, 1344.161
5720.735, 1344.473
5722.663, 1328.276
5724.592, 1316.016
5726.520, 1329.475
5728.449, 1374.221
5730.377, 1365.694
5732.306, 1333.051
5734.234, 1320.721
5736.163, 1317.197
5738.091, 1326.994
5740.020, 1334.999
5741.948, 1328.377
5743.876, 1296.585
5745.805, 1281.533
5747.733, 1292.681
5749.662, 1319.805
5751.590, 1319.667
5753.519, 1312.671
5755.447, 1310.125
5757.375, 1311.641
5759.304, 1306.552
5761.232, 1303.795
5763.161, 1298.619
5765.089, 1297.136
5767.018, 1310.384
5768.946, 1278.584
5770.875, 1278.901
5772.803, 1293.871
5774.732, 1290.967
5776.660, 1302.104
5778.589, 1295.541
5780.517, 1292.823
5782.446, 1303.601
5784.374, 1291.661
5786.303, 1300.004
5788.231, 1293.829
5790.160, 1275.848
5792.088, 1294.280
5794.017, 1325.390
5795.945, 1329.696
5797.874, 1310.369
5799.802, 1288.760
5801.730, 1266.536
5803.659, 1261.348
5805.587, 1257.724
5807.516, 1244.831
5809.444, 1266.009
5811.373, 1255.787
5813.301, 1246.872
5815.229, 1254.285
5817.158, 1259.208
5819.086, 1282.370
5821.015, 1279.510
5822.943, 1262.633
5824.872, 1266.883
5826.800, 1270.582
5828.729, 1243.643
5830.657, 1230.373
5832.586, 1255.399
5834.514, 1247.551
5836.443, 1234.634
5838.371, 1237.410
5840.300, 1251.581
5842.228, 1251.902
5844.157, 1245.352
5846.085, 1217.872
5848.014, 1208.775
5849.942, 1253.431
5851.871, 1228.437
5853.799, 1237.261
5855.728, 1240.598
5857.656, 1217.240
5859.584, 1205.052
5861.513, 1225.502
5863.441, 1238.308
5865.370, 1238.729
5867.298, 1240.759
5869.227, 1213.948
5871.155, 1209.579
5873.083, 1211.769
5875.012, 1205.762
5876.940, 1203.938
5878.869, 1208.860
5880.797, 1210.981
5882.726, 1201.819
5884.654, 1178.434
5886.583, 1189.534
5888.511, 1230.436
5890.440, 1230.941
5892.368, 1176.003
5894.297, 1169.610
5896.225, 1157.188
5898.154, 1150.296
5900.082, 1159.427
5902.011, 1184.808
5903.939, 1175.996
5905.868, 1188.083
5907.796, 1176.275
5909.725, 1138.957
5911.653, 1171.385
5913.582, 1177.637
5915.510, 1180.877
5917.438, 1185.706
5919.367, 1185.720
5921.295, 1165.874
5923.224, 1148.121
5925.152, 1143.048
5927.081, 1149.270
5929.009, 1158.542
5930.938, 1152.171
5932.866, 1150.688
5934.794, 1153.756
5936.723, 1153.670
5938.651, 1127.052
5940.580, 1155.888
5942.508, 1172.048
5944.437, 1162.488
5946.365, 1146.460
5948.294, 1121.100
5950.222, 1130.943
5952.151, 1135.607
5954.079, 1123.676
5956.008, 1123.393
5957.936, 1149.937
5959.865, 1151.397
5961.793, 1134.696
5963.722, 1120.617
5965.650, 1125.864
5967.579, 1127.568
5969.507, 1119.156
5971.436, 1109.826
5973.364, 1106.470
5975.292, 1079.306
5977.221, 1096.504
5979.149, 1103.102
5981.078, 1099.838
5983.006, 1124.373
5984.935, 1103.920
5986.863, 1098.866
5988.792, 1098.174
5990.720, 1093.090
5992.648, 1092.172
5994.577, 1087.245
5996.505, 1072.285
5998.434, 1073.448
6000.362, 1089.323
6002.291, 1062.995
6004.219, 1090.935
6006.148, 1075.370
6008.076, 1062.761
6010.005, 1094.140
6011.933, 1081.802
6013.862, 1061.794
6015.790, 1047.722
6017.719, 1051.566
6019.647, 1069.913
6021.576, 1033.448
6023.504, 1061.935
6025.433, 1071.033
6027.361, 1054.687
6029.290, 1050.768
6031.218, 1082.738
6033.146, 1076.938
6035.075, 1067.958
6037.003, 1065.231
6038.932, 1058.384
6040.860, 1056.547
6042.789, 1047.557
6044.717, 1042.992
6046.646, 1035.428
6048.574, 1013.114
6050.502, 1042.822
6052.431, 1026.488
6054.359, 1044.135
6056.288, 1063.407
6058.216, 1000.726
6060.145, 1040.261
6062.073, 1012.004
6064.002, 1000.368
6065.930, 1024.300
6067.859, 1042.508
6069.787, 1023.959
6071.716, 1032.794
6073.644, 1029.970
6075.573, 1011.003
6077.501, 996.6885
6079.430, 1001.116
6081.358, 1007.068
6083.287, 1005.522
6085.215, 1003.432
6087.144, 1009.422
6089.072, 1011.978
6091.000, 1004.457
6092.929, 1007.798
6094.857, 1003.975
6096.786, 980.6908
6098.714, 1000.396
6100.643, 1017.688
6102.571, 983.1858
6104.500, 956.9840
6106.428, 975.0929
6108.356, 949.2971
6110.285, 966.2753
6112.213, 993.7578
6114.142, 991.1383
6116.070, 957.2458
6117.999, 935.8235
6119.927, 937.4523
6121.856, 961.1470
6123.784, 975.3768
6125.713, 963.4632
6127.641, 931.5936
6129.570, 974.3979
6131.498, 962.0139
6133.427, 963.8002
6135.355, 973.5029
6137.284, 946.4558
6139.212, 904.7445
6141.141, 922.7179
6143.069, 950.6990
6144.998, 952.9469
6146.926, 934.1103
6148.854, 949.0391
6150.783, 977.0798
6152.711, 958.4868
6154.640, 943.8746
6156.568, 941.7735
6158.497, 905.1137
6160.425, 902.9792
6162.354, 930.6520
6164.282, 930.9582
6166.210, 917.5729
6168.139, 925.3516
6170.067, 918.0416
6171.996, 906.2657
6173.924, 910.2595
6175.853, 923.9830
6177.781, 931.0198
6179.710, 917.3497
6181.638, 926.6465
6183.567, 914.1260
6185.495, 902.7571
6187.424, 900.9919
6189.352, 901.0361
6191.281, 913.3875
6193.209, 906.5125
6195.138, 908.0012
6197.066, 907.9524
6198.995, 898.4905
6200.923, 896.9514
6202.852, 902.4981
6204.780, 907.7441
6206.708, 896.9415
6208.637, 885.0928
6210.565, 891.8448
6212.494, 886.1246
6214.422, 888.6592
6216.351, 879.2852
6218.279, 869.2806
6220.208, 867.9117
6222.136, 869.7708
6224.064, 873.6693
6225.993, 871.3700
6227.921, 869.1638
6229.850, 869.7999
6231.778, 868.7807
6233.707, 850.5099
6235.635, 826.5824
6237.564, 856.9997
6239.492, 878.3790
6241.421, 867.6028
6243.349, 849.9963
6245.278, 856.9613
6247.206, 840.5363
6249.135, 856.3641
6251.063, 848.5931
6252.992, 822.1573
6254.920, 859.6652
6256.849, 839.4422
6258.777, 860.2950
6260.706, 871.7990
6262.634, 849.8101
6264.563, 821.3287
6266.491, 842.8113
6268.419, 841.7639
6270.348, 847.5820
6272.276, 830.7396
6274.205, 818.3239
6276.133, 829.2470
6278.062, 822.3823
6279.990, 839.8354
6281.918, 827.0129
6283.847, 811.1371
6285.775, 805.8897
6287.704, 809.4404
6289.632, 821.4678
6291.561, 844.2886
6293.489, 806.9805
6295.418, 789.0206
6297.346, 809.5691
6299.275, 831.6488
6301.203, 809.3706
6303.132, 800.1219
6305.060, 815.9547
6306.989, 793.4626
6308.917, 769.3471
6310.846, 792.2648
6312.774, 802.8167
6314.703, 809.9169
6316.631, 789.0786
6318.560, 779.3812
6320.488, 796.2831
6322.417, 816.8724
6324.345, 784.2116
6326.273, 760.3340
6328.202, 786.8913
6330.130, 787.0692
6332.059, 779.6526
6333.987, 795.2253
6335.916, 802.6263
6337.844, 779.3847
6339.772, 786.3422
6341.701, 778.5895
6343.629, 761.8589
6345.558, 760.3405
6347.486, 776.9090
6349.415, 758.8237
6351.343, 748.6528
6353.272, 754.9132
6355.200, 763.5547
6357.129, 757.5368
6359.057, 736.2878
6360.986, 765.4258
6362.914, 743.7256
6364.843, 747.6779
6366.771, 756.3007
6368.700, 755.8080
6370.628, 748.6641
6372.557, 721.0609
6374.485, 759.1616
6376.414, 749.0447
6378.342, 750.4815
6380.271, 751.7029
6382.199, 738.2160
6384.127, 735.4617
6386.056, 743.3585
6387.984, 725.6241
6389.913, 722.5005
6391.841, 730.1626
6393.770, 731.4230
6395.698, 723.9973
6397.626, 731.8748
6399.555, 752.4536
6401.483, 723.1548
6403.412, 713.2170
6405.340, 719.9101
6407.269, 721.1479
6409.197, 719.8237
6411.126, 721.3500
6413.054, 708.4158
6414.983, 707.2246
6416.911, 716.7289
6418.840, 715.0295
6420.768, 702.2125
6422.697, 716.9438
6424.625, 706.1133
6426.554, 715.5038
6428.482, 706.2821
6430.411, 694.0164
6432.339, 692.3381
6434.268, 699.9249
6436.196, 719.8271
6438.125, 688.6156
6440.053, 684.5906
6441.981, 690.2722
6443.910, 696.5684
6445.838, 690.8666
6447.767, 665.3146
6449.695, 688.4475
6451.624, 698.7021
6453.552, 694.3046
6455.480, 682.3062
6457.409, 685.4484
6459.337, 696.9693
6461.266, 687.5936
6463.194, 671.0496
6465.123, 697.0660
6467.051, 672.9452
6468.980, 657.5939
6470.908, 660.4821
6472.837, 669.5726
6474.765, 682.7949
6476.694, 673.2746
6478.622, 670.8972
6480.551, 681.5358
6482.479, 660.3719
6484.408, 653.2446
6486.336, 667.5880
6488.265, 656.9256
6490.193, 655.4029
6492.122, 630.3751
6494.050, 641.7146
6495.979, 654.8013
6497.907, 644.6133
6499.835, 629.8771
6501.764, 634.4544
6503.692, 635.8989
6505.621, 616.8139
6507.549, 624.2536
6509.478, 640.2848
6511.406, 642.3871
6513.334, 635.5377
6515.263, 632.2290
6517.191, 631.4960
6519.120, 643.0072
6521.048, 639.4485
6522.977, 642.3470
6524.905, 620.8970
6526.834, 615.5623
6528.762, 634.1780
6530.691, 630.5735
6532.619, 635.2395
6534.548, 627.8179
6536.476, 614.0109
6538.405, 627.8039
6540.333, 627.8182
6542.262, 616.2526
6544.190, 618.4980
6546.119, 616.7108
6548.047, 628.2646
6549.976, 623.0415
6551.904, 637.6933
6553.833, 604.2062
6555.761, 592.8585
6557.689, 614.1522
6559.618, 605.1042
6561.546, 607.2746
6563.475, 594.4046
6565.403, 592.2994
6567.332, 584.8694
6569.260, 576.7137
6571.188, 582.7714
6573.117, 585.5714
6575.045, 561.6891
6576.974, 570.0932
6578.902, 573.9397
6580.831, 564.6050
6582.759, 557.0032
6584.688, 562.9753
6586.616, 555.4893
6588.545, 545.8430
6590.473, 562.3873
6592.402, 545.7649
6594.330, 556.2471
6596.259, 537.0400
6598.187, 544.3518
6600.116, 539.1865
6602.044, 528.3210
6603.973, 523.3433
6605.901, 515.9248
6607.830, 543.1335
6609.758, 517.0424
6611.687, 493.2528
6613.615, 516.9189
6615.543, 530.3386
6617.472, 515.6138
6619.400, 495.1723
6621.329, 489.0656
6623.257, 501.0753
6625.186, 499.5830
##END=



