##NAMES=Sincosite
##RRUFFID=R141155
##IDEAL CHEMISTRY=Ca(VO)_2_(PO_4_)_2_·4H_2_O
##LOCALITY=Ross Hannibal mine, Lawrence County, South Dakota, USA
##OWNER=RRUFF
##SOURCE=Tom Loomis
##DESCRIPTION=Green platy crystals. Crystal exhibits a 2-fold rotation twin around [1 -1 0].
##STATUS=The identification of this mineral has been confirmed by single-crystal X-ray diffraction
##URL=https://www.rruff.net/odr/rruff_sample/R141155
##DIFFRACTION SAMPLE DESCRIPTION=Single crystal, powder profile is calculated
##CELL PARAMETERS=a: 6.318 b: 6.315 c: 6.568 alpha: 106.81 beta: 94 gamma: 90.04 volume: 250.2 crystal system: triclinic
##FILETYPE=Raman Processed
##RAMAN WAVELENGTH=532

100.3281, 308.2571
102.2566, 313.4428
104.1851, 319.3921
106.1135, 327.7323
108.0420, 342.6018
109.9705, 358.0648
111.8989, 375.0565
113.8274, 393.8034
115.7559, 412.9756
117.6843, 434.1581
119.6128, 456.8300
121.5413, 481.3712
123.4697, 508.4716
125.3982, 533.8878
127.3267, 557.3187
129.2551, 578.5438
131.1836, 597.3000
133.1121, 614.0985
135.0405, 626.4510
136.9690, 633.2893
138.8975, 628.5859
140.8259, 624.8074
142.7544, 624.1664
144.6829, 626.4102
146.6113, 628.5284
148.5398, 629.9667
150.4683, 631.3461
152.3967, 633.2778
154.3252, 635.9049
156.2537, 639.1716
158.1821, 643.4145
160.1106, 648.5958
162.0391, 654.0694
163.9675, 658.8041
165.8960, 663.8221
167.8245, 670.8039
169.7529, 679.1857
171.6814, 689.6796
173.6099, 702.5071
175.5383, 718.6027
177.4668, 734.2011
179.3953, 749.2283
181.3237, 763.4362
183.2522, 776.9108
185.1807, 790.6737
187.1091, 802.8946
189.0376, 812.9787
190.9661, 820.7697
192.8945, 826.9982
194.8230, 829.1557
196.7515, 829.7281
198.6799, 834.2791
200.6084, 842.8472
202.5369, 855.8543
204.4653, 874.3973
206.3938, 898.1766
208.3223, 926.6062
210.2507, 960.6531
212.1792, 999.5255
214.1077, 1040.937
216.0361, 1088.043
217.9646, 1135.359
219.8931, 1179.766
221.8215, 1221.697
223.7500, 1260.047
225.6785, 1294.553
227.6069, 1325.185
229.5354, 1353.879
231.4639, 1378.739
233.3923, 1402.988
235.3208, 1428.109
237.2493, 1453.006
239.1777, 1481.705
241.1062, 1514.422
243.0347, 1551.933
244.9631, 1593.619
246.8916, 1638.039
248.8201, 1688.292
250.7485, 1745.471
252.6770, 1806.852
254.6055, 1879.825
256.5339, 1973.408
258.4624, 2082.542
260.3909, 2183.661
262.3193, 2293.809
264.2478, 2381.191
266.1763, 2422.019
268.1047, 2403.920
270.0332, 2353.927
271.9617, 2254.930
273.8901, 2120.077
275.8186, 1991.887
277.7471, 1873.017
279.6755, 1763.481
281.6040, 1666.472
283.5325, 1583.218
285.4609, 1506.579
287.3894, 1439.109
289.3179, 1378.766
291.2463, 1315.148
293.1748, 1243.959
295.1033, 1172.603
297.0317, 1104.533
298.9602, 1038.355
300.8887, 978.8818
302.8171, 927.3997
304.7456, 883.1322
306.6741, 845.2375
308.6025, 814.5855
310.5310, 788.5349
312.4595, 766.6198
314.3879, 749.2114
316.3164, 732.6362
318.2449, 716.3659
320.1733, 700.3981
322.1018, 684.6247
324.0303, 668.9360
325.9587, 653.6623
327.8872, 638.5952
329.8157, 623.4659
331.7441, 610.2451
333.6726, 598.7253
335.6011, 589.1976
337.5295, 581.9874
339.4580, 577.2180
341.3865, 574.2214
343.3149, 572.4301
345.2434, 571.6563
347.1719, 572.8600
349.1003, 575.8686
351.0288, 580.6771
352.9573, 587.3906
354.8857, 596.5005
356.8142, 606.1863
358.7427, 616.0811
360.6711, 626.1936
362.5996, 636.4082
364.5281, 648.0012
366.4565, 658.7164
368.3850, 667.1246
370.3135, 672.5505
372.2419, 677.9063
374.1704, 682.6352
376.0989, 687.5863
378.0273, 695.2177
379.9558, 705.0406
381.8843, 717.9258
383.8127, 733.7399
385.7412, 752.2031
387.6697, 775.0606
389.5981, 802.4847
391.5266, 833.7706
393.4551, 867.9291
395.3835, 905.2992
397.3120, 944.0745
399.2405, 985.5934
401.1689, 1030.375
403.0974, 1066.992
405.0259, 1099.857
406.9543, 1122.825
408.8828, 1131.003
410.8113, 1124.691
412.7397, 1108.572
414.6682, 1081.321
416.5967, 1045.730
418.5251, 1008.595
420.4536, 967.6510
422.3821, 927.3318
424.3105, 888.6909
426.2390, 851.3434
428.1675, 816.8495
430.0959, 785.5738
432.0244, 756.7839
433.9529, 730.3994
435.8813, 706.9453
437.8098, 684.4016
439.7383, 661.6219
441.6667, 639.1740
443.5952, 619.6140
445.5237, 603.4977
447.4521, 590.0287
449.3806, 579.4760
451.3091, 572.0765
453.2375, 565.7253
455.1660, 560.3419
457.0945, 555.8275
459.0229, 552.1192
460.9514, 550.0761
462.8799, 547.9713
464.8083, 545.4360
466.7368, 542.5828
468.6653, 540.0793
470.5938, 538.6487
472.5222, 536.9312
474.4507, 534.1636
476.3792, 529.3578
478.3076, 525.3237
480.2361, 522.1825
482.1646, 519.8679
484.0930, 518.1229
486.0215, 517.0580
487.9500, 516.3849
489.8784, 516.3340
491.8069, 516.8269
493.7354, 516.1932
495.6638, 512.6919
497.5923, 509.5272
499.5208, 508.3297
501.4492, 509.1249
503.3777, 511.0666
505.3062, 514.1735
507.2346, 518.2167
509.1631, 523.0616
511.0916, 528.8718
513.0200, 535.1183
514.9485, 542.2457
516.8770, 549.8597
518.8054, 556.5816
520.7339, 561.5395
522.6624, 566.1891
524.5908, 570.8014
526.5193, 575.2363
528.4478, 580.4814
530.3762, 586.2543
532.3047, 593.0855
534.2332, 601.2740
536.1616, 610.6844
538.0901, 621.9474
540.0186, 635.7474
541.9470, 651.5626
543.8755, 667.5030
545.8040, 683.6457
547.7324, 700.1578
549.6609, 717.7465
551.5894, 737.0014
553.5178, 753.5384
555.4463, 769.4484
557.3748, 781.6996
559.3032, 787.0902
561.2317, 785.6711
563.1602, 781.4615
565.0886, 773.9191
567.0171, 764.3712
568.9456, 754.2143
570.8740, 742.7331
572.8025, 731.4023
574.7310, 721.0418
576.6594, 711.0424
578.5879, 699.8055
580.5164, 686.7075
582.4448, 673.1082
584.3733, 659.1724
586.3018, 644.6860
588.2302, 631.7321
590.1587, 620.4179
592.0872, 610.4651
594.0156, 601.6605
595.9441, 593.9496
597.8726, 587.2550
599.8010, 581.7381
601.7295, 577.0512
603.6580, 572.8345
605.5864, 568.8467
607.5149, 565.5978
609.4434, 563.5922
611.3718, 562.3785
613.3003, 561.0090
615.2288, 559.1705
617.1572, 557.5493
619.0857, 556.3287
621.0142, 555.5507
622.9426, 555.1869
624.8711, 555.3600
626.7996, 555.8342
628.7280, 556.4745
630.6565, 557.2620
632.5850, 558.3029
634.5134, 559.9077
636.4419, 561.5833
638.3704, 562.8674
640.2988, 563.5775
642.2273, 564.2983
644.1558, 564.8936
646.0842, 565.5945
648.0127, 566.7078
649.9412, 568.4750
651.8696, 570.2542
653.7981, 571.8141
655.7266, 573.2863
657.6550, 575.1425
659.5835, 577.5173
661.5120, 580.1988
663.4404, 583.1937
665.3689, 586.5049
667.2974, 590.1262
669.2258, 594.3895
671.1543, 598.6627
673.0828, 602.5397
675.0112, 605.8582
676.9397, 609.4216
678.8682, 613.4141
680.7966, 617.3017
682.7251, 620.8292
684.6536, 623.9944
686.5820, 626.5861
688.5105, 628.5843
690.4390, 630.1708
692.3674, 631.4714
694.2959, 632.5009
696.2244, 633.6003
698.1528, 635.1312
700.0813, 636.7646
702.0098, 638.0642
703.9382, 639.0300
705.8667, 639.6300
707.7952, 639.6706
709.7236, 639.3355
711.6521, 639.1708
713.5806, 639.3911
715.5090, 639.3680
717.4375, 638.8854
719.3660, 637.9639
721.2944, 636.5998
723.2229, 634.4068
725.1514, 632.0410
727.0798, 629.6116
729.0083, 627.1025
730.9368, 624.5536
732.8652, 622.3591
734.7937, 619.6679
736.7222, 615.8031
738.6506, 610.8436
740.5791, 606.4501
742.5076, 602.6923
744.4360, 599.5965
746.3645, 597.5336
748.2930, 596.7444
750.2214, 595.1808
752.1499, 591.8128
754.0784, 588.5088
756.0068, 586.5455
757.9353, 586.1992
759.8638, 585.5081
761.7922, 583.4077
763.7207, 581.4973
765.6492, 581.1670
767.5776, 582.9079
769.5061, 584.2888
771.4346, 584.9294
773.3630, 585.0573
775.2915, 584.7761
777.2200, 583.8490
779.1484, 583.2618
781.0769, 583.4297
783.0054, 583.8792
784.9338, 584.1036
786.8623, 584.0111
788.7908, 584.1130
790.7192, 584.7484
792.6477, 585.5317
794.5762, 585.9389
796.5046, 585.6398
798.4331, 585.9728
800.3616, 587.5876
802.2900, 589.7666
804.2185, 591.5070
806.1470, 592.4244
808.0754, 593.6744
810.0039, 595.4222
811.9324, 597.5818
813.8608, 600.0494
815.7893, 602.9257
817.7178, 605.6671
819.6462, 607.7139
821.5747, 609.6335
823.5032, 612.3636
825.4316, 616.4785
827.3601, 620.5518
829.2886, 624.3076
831.2170, 628.0689
833.1455, 632.1984
835.0740, 636.7397
837.0024, 641.6393
838.9309, 646.9979
840.8594, 652.6309
842.7878, 658.3026
844.7163, 663.6966
846.6448, 669.5098
848.5732, 676.0078
850.5017, 682.8683
852.4302, 689.6254
854.3586, 696.2457
856.2871, 703.0392
858.2156, 709.9905
860.1440, 717.2513
862.0725, 725.0330
864.0010, 734.0560
865.9294, 742.5011
867.8579, 749.7313
869.7864, 756.5102
871.7148, 763.8890
873.6433, 771.9865
875.5718, 779.6263
877.5002, 786.8934
879.4287, 793.2361
881.3572, 798.1205
883.2856, 801.4506
885.2141, 803.5436
887.1426, 804.5780
889.0710, 804.5743
890.9995, 803.3615
892.9280, 800.8996
894.8564, 798.1957
896.7849, 795.1763
898.7134, 792.1877
900.6418, 789.5663
902.5703, 787.4428
904.4988, 784.7901
906.4272, 780.7966
908.3557, 776.6794
910.2842, 773.0884
912.2126, 769.9767
914.1411, 767.4157
916.0696, 765.1552
917.9980, 763.6428
919.9265, 763.2253
921.8550, 763.8676
923.7834, 765.1447
925.7119, 767.0193
927.6404, 769.8125
929.5688, 772.9244
931.4973, 776.4440
933.4258, 784.3049
935.3542, 794.6362
937.2827, 810.6516
939.2112, 831.1716
941.1396, 858.2985
943.0681, 897.9228
944.9966, 950.4460
946.9250, 1016.047
948.8535, 1098.897
950.7820, 1193.798
952.7104, 1286.066
954.6389, 1381.185
956.5674, 1465.988
958.4958, 1535.452
960.4243, 1594.588
962.3528, 1650.046
964.2813, 1698.929
966.2097, 1755.649
968.1382, 1816.609
970.0667, 1892.750
971.9951, 1992.885
973.9236, 2114.016
975.8521, 2270.824
977.7805, 2461.960
979.7090, 2685.994
981.6375, 2944.224
983.5659, 3238.804
985.4944, 3560.930
987.4229, 3969.875
989.3513, 4347.695
991.2798, 4659.067
993.2083, 4899.088
995.1367, 4997.313
997.0652, 4884.566
998.9937, 4700.551
1000.922, 4480.272
1002.851, 4227.096
1004.779, 3962.904
1006.708, 3672.315
1008.636, 3389.647
1010.564, 3109.954
1012.493, 2847.181
1014.421, 2618.354
1016.350, 2425.039
1018.278, 2261.703
1020.207, 2131.132
1022.135, 2028.622
1024.064, 1953.022
1025.992, 1908.257
1027.921, 1881.600
1029.849, 1873.557
1031.778, 1880.134
1033.706, 1899.420
1035.635, 1932.109
1037.563, 1976.875
1039.491, 2045.404
1041.420, 2111.150
1043.348, 2175.481
1045.277, 2228.751
1047.205, 2233.087
1049.134, 2178.599
1051.062, 2085.011
1052.991, 1944.086
1054.919, 1774.603
1056.848, 1608.490
1058.776, 1437.267
1060.705, 1285.009
1062.633, 1153.170
1064.562, 1040.573
1066.490, 947.4273
1068.418, 872.7023
1070.347, 809.9124
1072.275, 760.8385
1074.204, 720.8771
1076.132, 688.2526
1078.061, 662.9316
1079.989, 640.9459
1081.918, 623.2523
1083.846, 608.0522
1085.775, 595.6719
1087.703, 585.5310
1089.632, 576.3807
1091.560, 568.4951
1093.489, 560.8142
1095.417, 553.0023
1097.345, 545.4794
1099.274, 538.6138
1101.202, 532.4567
1103.131, 526.5656
1105.059, 520.9568
1106.988, 515.5245
1108.916, 510.1639
1110.845, 504.8607
1112.773, 499.8562
1114.702, 494.9353
1116.630, 490.4257
1118.559, 486.8737
1120.487, 483.6044
1122.416, 479.2900
1124.344, 473.7047
1126.272, 468.4169
1128.201, 463.5562
1130.129, 459.4031
1132.058, 456.4298
1133.986, 454.6974
1135.915, 452.2533
1137.843, 448.2114
1139.772, 444.1935
1141.700, 440.5700
1143.629, 437.3473
1145.557, 434.6173
1147.486, 432.8174
1149.414, 430.7869
1151.343, 428.0442
1153.271, 425.2196
1155.199, 423.0728
1157.128, 421.6054
1159.056, 419.9276
1160.985, 417.6765
1162.913, 415.4838
1164.842, 413.8391
1166.770, 412.6031
1168.699, 410.7916
1170.627, 407.5263
1172.556, 405.1021
1174.484, 404.4996
1176.413, 404.6274
1178.341, 404.1254
1180.270, 402.7780
1182.198, 401.2774
1184.126, 399.1549
1186.055, 397.2565
1187.983, 396.4110
1189.912, 396.1959
1191.840, 395.1548
1193.769, 393.0005
1195.697, 390.6456
1197.626, 387.9206
1199.554, 385.5185
1201.483, 384.4380
1203.411, 385.2796
1205.340, 385.3271
1207.268, 383.4507
1209.197, 381.6985
1211.125, 381.1881
1213.053, 381.6523
1214.982, 381.5601
1216.910, 380.3885
1218.839, 379.4712
1220.767, 379.6314
1222.696, 379.8223
1224.624, 378.7202
1226.553, 376.3784
1228.481, 374.7310
1230.410, 374.6994
1232.338, 374.6380
1234.267, 373.5087
1236.195, 371.7415
1238.124, 370.8223
1240.052, 371.2833
1241.980, 371.4199
1243.909, 370.7601
1245.837, 369.8510
1247.766, 369.0988
1249.694, 368.5185
1251.623, 368.0763
1253.551, 367.8463
1255.480, 367.6994
1257.408, 367.6899
1259.337, 367.7003
1261.265, 367.4825
1263.194, 366.9703
1265.122, 366.6341
1267.051, 366.6767
1268.979, 366.7949
1270.907, 366.8727
1272.836, 366.9018
1274.764, 366.7779
1276.693, 366.3076
1278.621, 366.0963
1280.550, 366.5522
1282.478, 367.0991
1284.407, 367.1167
1286.335, 366.4529
1288.264, 366.0703
1290.192, 366.0104
1292.121, 366.1396
1294.049, 366.5885
1295.978, 367.1474
1297.906, 367.4134
1299.834, 367.3549
1301.763, 367.2436
1303.691, 367.0528
1305.620, 366.8992
1307.548, 366.9415
1309.477, 367.0772
1311.405, 366.9957
1313.334, 366.6313
1315.262, 366.2387
1317.191, 365.6018
1319.119, 365.2141
1321.048, 365.5768
1322.976, 366.7415
1324.905, 367.5541
1326.833, 367.6991
1328.761, 367.8447
1330.690, 368.0902
1332.618, 368.3936
1334.547, 368.7348
1336.475, 369.1497
1338.404, 369.4503
1340.332, 369.6151
1342.261, 369.7138
1344.189, 369.7058
1346.118, 369.6701
1348.046, 369.7247
1349.975, 369.8596
1351.903, 370.0534
1353.832, 370.0473
1355.760, 370.4294
1357.688, 372.0473
1359.617, 374.2216
1361.545, 375.0917
1363.474, 374.1906
1365.402, 373.4748
1367.331, 373.3207
1369.259, 373.4463
1371.188, 373.7967
1373.116, 374.3251
1375.045, 374.7563
1376.973, 375.1098
1378.902, 375.3307
1380.830, 375.2817
1382.759, 375.2404
1384.687, 375.3783
1386.615, 375.7099
1388.544, 376.3156
1390.472, 377.5654
1392.401, 378.4082
1394.329, 378.3101
1396.258, 377.9444
1398.186, 377.8305
1400.115, 377.9386
1402.043, 378.2560
1403.972, 378.9701
1405.900, 379.4054
1407.829, 379.0798
1409.757, 378.5724
1411.686, 378.4840
1413.614, 378.7809
1415.542, 378.7436
1417.471, 377.9600
1419.399, 377.5776
1421.328, 378.1196
1423.256, 379.0220
1425.185, 379.8773
1427.113, 380.7166
1429.042, 380.8980
1430.970, 379.4511
1432.899, 378.5901
1434.827, 379.2627
1436.756, 380.3855
1438.684, 380.8880
1440.613, 380.7763
1442.541, 380.5093
1444.469, 379.7402
1446.398, 379.3334
1448.326, 379.3930
1450.255, 379.8859
1452.183, 380.9357
1454.112, 382.4676
1456.040, 383.6523
1457.969, 384.2878
1459.897, 384.8514
1461.826, 385.4024
1463.754, 386.0284
1465.683, 386.8658
1467.611, 387.8951
1469.540, 388.9605
1471.468, 390.1596
1473.396, 391.1507
1475.325, 391.4692
1477.253, 391.8430
1479.182, 392.9418
1481.110, 394.5978
1483.039, 395.8672
1484.967, 396.5735
1486.896, 397.2582
1488.824, 397.7754
1490.753, 398.5930
1492.681, 400.1447
1494.610, 402.2984
1496.538, 404.3234
1498.467, 406.3281
1500.395, 407.9318
1502.323, 408.7235
1504.252, 409.5083
1506.180, 410.7040
1508.109, 412.2229
1510.037, 413.8514
1511.966, 415.9408
1513.894, 417.4155
1515.823, 417.4896
1517.751, 417.9339
1519.680, 419.7569
1521.608, 422.2947
1523.537, 424.3478
1525.465, 425.7085
1527.394, 427.5555
1529.322, 430.1969
1531.250, 432.9046
1533.179, 435.7197
1535.107, 438.3206
1537.036, 440.2948
1538.964, 441.6828
1540.893, 442.8002
1542.821, 443.3178
1544.750, 444.3897
1546.678, 446.0941
1548.607, 448.6793
1550.535, 453.5661
1552.464, 459.4729
1554.392, 461.8891
1556.321, 459.7148
1558.249, 458.6420
1560.177, 461.1731
1562.106, 463.5769
1564.034, 463.1004
1565.963, 461.3983
1567.891, 461.3999
1569.820, 463.2671
1571.748, 464.5694
1573.677, 464.5285
1575.605, 464.5956
1577.534, 465.5060
1579.462, 466.6137
1581.391, 467.3988
1583.319, 467.8397
1585.248, 467.7041
1587.176, 466.6598
1589.104, 465.9130
1591.033, 466.2188
1592.961, 466.4959
1594.890, 466.1860
1596.818, 465.3495
1598.747, 464.1187
1600.675, 462.3340
1602.604, 460.7855
1604.532, 459.9229
1606.461, 458.9250
1608.389, 457.4865
1610.318, 455.8851
1612.246, 454.3934
1614.175, 453.0041
1616.103, 451.9189
1618.031, 451.5727
1619.960, 450.5944
1621.888, 448.1482
1623.817, 445.5005
1625.745, 443.3065
1627.674, 441.5131
1629.602, 440.1001
1631.531, 439.6920
1633.459, 438.2148
1635.388, 434.6901
1637.316, 431.5702
1639.245, 430.0063
1641.173, 428.9046
1643.102, 426.9893
1645.030, 424.3141
1646.958, 422.1034
1648.887, 420.4776
1650.815, 419.1401
1652.744, 418.4229
1654.672, 417.5830
1656.601, 415.9781
1658.529, 414.0925
1660.458, 412.9107
1662.386, 412.6365
1664.315, 411.8457
1666.243, 409.9516
1668.172, 408.4308
1670.100, 407.4479
1672.029, 407.0339
1673.957, 407.6510
1675.885, 408.8541
1677.814, 409.1447
1679.742, 408.1929
1681.671, 407.1686
1683.599, 405.6118
1685.528, 404.5526
1687.456, 404.5214
1689.385, 404.9049
1691.313, 405.2759
1693.242, 405.5797
1695.170, 405.4396
1697.099, 404.6376
1699.027, 403.8983
1700.956, 403.4338
1702.884, 402.8542
1704.813, 401.8423
1706.741, 400.7946
1708.669, 400.1379
1710.598, 399.8820
1712.526, 400.0305
1714.455, 401.0682
1716.383, 401.5930
1718.312, 401.0335
1720.240, 400.4821
1722.169, 400.2354
1724.097, 400.3362
1726.026, 401.1203
1727.954, 402.5770
1729.883, 402.9997
1731.811, 401.4960
1733.740, 400.4503
1735.668, 400.3321
1737.596, 400.4032
1739.525, 400.6216
1741.453, 400.7575
1743.382, 400.3449
1745.310, 399.3965
1747.239, 398.7965
1749.167, 398.4595
1751.096, 398.5323
1753.024, 399.0660
1754.953, 399.7968
1756.881, 400.8684
1758.810, 401.8300
1760.738, 402.0043
1762.667, 401.3999
1764.595, 400.8739
1766.523, 400.6326
1768.452, 400.2369
1770.380, 399.5373
1772.309, 398.9321
1774.237, 398.6587
1776.166, 398.5086
1778.094, 398.2549
1780.023, 397.8854
1781.951, 397.3720
1783.880, 396.5352
1785.808, 395.9345
1787.737, 395.5848
1789.665, 395.4692
1791.594, 395.6141
1793.522, 395.9525
1795.450, 396.7652
1797.379, 397.7664
1799.307, 397.1992
1801.236, 394.1093
1803.164, 393.4971
1805.093, 397.9677
1807.021, 401.3355
1808.950, 401.4595
1810.878, 400.6304
1812.807, 400.4818
1814.735, 400.5401
1816.664, 399.2345
1818.592, 396.4022
1820.521, 395.3547
1822.449, 397.0192
1824.377, 398.4427
1826.306, 398.9533
1828.234, 398.8838
1830.163, 398.0672
1832.091, 397.0153
1834.020, 396.4043
1835.948, 396.2032
1837.877, 396.1678
1839.805, 396.3553
1841.734, 396.4771
1843.662, 396.5220
1845.591, 396.4203
1847.519, 395.6065
1849.448, 395.0945
1851.376, 396.7441
1853.304, 399.0490
1855.233, 398.1553
1857.161, 393.9974
1859.090, 390.9536
1861.018, 389.6605
1862.947, 388.9932
1864.875, 388.8291
1866.804, 389.0364
1868.732, 389.5876
1870.661, 390.3976
1872.589, 391.4770
1874.518, 392.7012
1876.446, 393.5011
1878.375, 393.7752
1880.303, 393.7268
1882.231, 393.2145
1884.160, 392.6047
1886.088, 391.9819
1888.017, 391.4229
1889.945, 391.1081
1891.874, 390.9362
1893.802, 390.6000
1895.731, 390.1103
1897.659, 390.0412
1899.588, 390.5063
1901.516, 391.0441
1903.445, 391.4583
1905.373, 392.0192
1907.302, 393.4084
1909.230, 394.3432
1911.158, 393.2686
1913.087, 391.1924
1915.015, 390.7055
1916.944, 391.8792
1918.872, 391.9113
1920.801, 390.0995
1922.729, 389.2625
1924.658, 390.5197
1926.586, 391.7663
1928.515, 392.0299
1930.443, 391.9566
1932.372, 392.0734
1934.300, 392.2528
1936.229, 392.1188
1938.157, 391.7349
1940.085, 391.8984
1942.014, 392.8820
1943.942, 393.5440
1945.871, 393.4824
1947.799, 393.2938
1949.728, 392.9566
1951.656, 392.8276
1953.585, 393.4087
1955.513, 394.3477
1957.442, 394.8779
1959.370, 395.0052
1961.299, 395.2842
1963.227, 395.6212
1965.156, 396.3033
1967.084, 397.9686
1969.012, 399.0221
1970.941, 398.3345
1972.869, 397.6014
1974.798, 398.0905
1976.726, 399.1339
1978.655, 399.7491
1980.583, 399.9715
1982.512, 400.1364
1984.440, 400.3081
1986.369, 400.3117
1988.297, 400.0652
1990.226, 399.9443
1992.154, 400.0312
1994.083, 400.2852
1996.011, 400.7239
1997.939, 401.2110
1999.868, 401.7429
2001.796, 402.1677
2003.725, 401.9779
2005.653, 401.1956
2007.582, 401.0020
2009.510, 401.7123
2011.439, 402.3616
2013.367, 403.0443
2015.296, 403.2714
2017.224, 402.3492
2019.153, 401.4084
2021.081, 401.3359
2023.010, 401.6662
2024.938, 401.6651
2026.866, 401.4337
2028.795, 401.6834
2030.723, 402.6577
2032.652, 403.2768
2034.580, 403.4755
2036.509, 403.4937
2038.437, 403.1954
2040.366, 402.9381
2042.294, 402.7264
2044.223, 402.6429
2046.151, 402.8692
2048.080, 403.1693
2050.008, 403.1231
2051.937, 402.8440
2053.865, 402.9032
2055.793, 403.4220
2057.722, 403.7046
2059.650, 403.5921
2061.579, 403.4611
2063.507, 402.9837
2065.436, 402.9572
2067.364, 404.1971
2069.293, 405.4413
2071.221, 405.6945
2073.150, 405.2231
2075.078, 404.3755
2077.007, 403.2109
2078.935, 402.0886
2080.864, 400.9162
2082.792, 400.8708
2084.720, 402.5841
2086.649, 403.7252
2088.577, 403.5453
2090.506, 403.2818
2092.434, 403.4861
2094.363, 403.7536
2096.291, 403.5918
2098.220, 403.4063
2100.148, 403.8203
2102.077, 404.5952
2104.005, 404.9963
2105.934, 404.9457
2107.862, 404.9273
2109.791, 405.1075
2111.719, 405.0531
2113.647, 405.1072
2115.576, 404.5951
2117.504, 402.5062
2119.433, 401.1111
2121.361, 402.1101
2123.290, 403.6571
2125.218, 404.0549
2127.147, 403.8710
2129.075, 404.1749
2131.004, 404.8040
2132.932, 405.1346
2134.861, 405.1057
2136.789, 405.1192
2138.718, 405.1928
2140.646, 405.3084
2142.574, 405.6870
2144.503, 405.7969
2146.431, 405.0919
2148.360, 404.6288
2150.288, 405.4253
2152.217, 406.3581
2154.145, 406.0608
2156.074, 405.2013
2158.002, 405.2181
2159.931, 405.9560
2161.859, 406.3434
2163.788, 406.3519
2165.716, 406.2907
2167.645, 406.2032
2169.573, 405.9970
2171.501, 405.6400
2173.430, 405.2655
2175.358, 404.6416
2177.287, 404.4305
2179.215, 405.2864
2181.144, 406.3454
2183.072, 406.8392
2185.001, 407.0182
2186.929, 407.4059
2188.858, 407.8104
2190.786, 407.1868
2192.715, 405.5087
2194.643, 405.4931
2196.572, 407.5605
2198.500, 408.8294
2200.428, 408.9355
2202.357, 408.2897
2204.285, 406.3177
2206.214, 404.8462
2208.142, 404.5139
2210.071, 404.9635
2211.999, 406.7314
2213.928, 408.4582
2215.856, 408.5670
2217.785, 407.8293
2219.713, 407.5073
2221.642, 407.6243
2223.570, 408.4084
2225.499, 409.8592
2227.427, 410.5769
2229.355, 410.3638
2231.284, 410.2613
2233.212, 410.3736
2235.141, 410.5260
2237.069, 410.8579
2238.998, 410.8636
2240.926, 410.0522
2242.855, 409.3468
2244.783, 409.5561
2246.712, 409.8535
2248.640, 409.2717
2250.569, 408.5204
2252.497, 408.7598
2254.426, 409.6699
2256.354, 410.1953
2258.282, 410.3914
2260.211, 410.8462
2262.139, 411.5714
2264.068, 411.7150
2265.996, 411.0348
2267.925, 410.3676
2269.853, 409.4189
2271.782, 409.2537
2273.710, 411.0132
2275.639, 412.2569
2277.567, 411.8526
2279.496, 411.1030
2281.424, 410.3729
2283.353, 409.9815
2285.281, 410.6397
2287.209, 411.4789
2289.138, 410.9214
2291.066, 409.7350
2292.995, 410.0628
2294.923, 411.6111
2296.852, 411.7174
2298.780, 410.0425
2300.709, 409.8360
2302.637, 412.2693
2304.566, 413.3227
2306.494, 412.0724
2308.423, 411.4352
2310.351, 412.0405
2312.280, 412.7461
2314.208, 413.5286
2316.136, 413.8172
2318.065, 412.6761
2319.993, 411.7745
2321.922, 412.2635
2323.850, 413.5117
2325.779, 414.3009
2327.707, 415.8477
2329.636, 421.3213
2331.564, 428.7622
2333.493, 432.8368
2335.421, 433.5946
2337.350, 430.7313
2339.278, 424.4706
2341.207, 419.6771
2343.135, 416.7379
2345.063, 414.5968
2346.992, 413.3067
2348.920, 412.4584
2350.849, 412.1478
2352.777, 412.0769
2354.706, 412.4088
2356.634, 412.5910
2358.563, 412.1862
2360.491, 411.8530
2362.420, 412.0381
2364.348, 412.1393
2366.277, 411.5278
2368.205, 410.8907
2370.134, 411.1181
2372.062, 411.6045
2373.990, 411.4167
2375.919, 410.8317
2377.847, 410.3454
2379.776, 410.0352
2381.704, 410.4551
2383.633, 411.5411
2385.561, 411.9366
2387.490, 411.6071
2389.418, 412.0844
2391.347, 413.6140
2393.275, 414.8336
2395.204, 415.4456
2397.132, 415.9740
2399.061, 416.6062
2400.989, 416.9000
2402.917, 416.4320
2404.846, 416.1566
2406.774, 416.0015
2408.703, 416.6689
2410.631, 419.6136
2412.560, 421.9134
2414.488, 420.8644
2416.417, 419.4852
2418.345, 420.3752
2420.274, 422.1057
2422.202, 423.1685
2424.131, 423.9185
2426.059, 424.7640
2427.988, 425.8080
2429.916, 427.5209
2431.844, 429.6286
2433.773, 431.2915
2435.701, 432.5245
2437.630, 433.5129
2439.558, 434.2814
2441.487, 434.4726
2443.415, 433.9446
2445.344, 433.4418
2447.272, 432.8782
2449.201, 432.7871
2451.129, 433.4802
2453.058, 433.3043
2454.986, 431.5965
2456.915, 430.2582
2458.843, 430.0931
2460.771, 429.7455
2462.700, 428.3711
2464.628, 427.4946
2466.557, 428.1831
2468.485, 428.7008
2470.414, 428.2531
2472.342, 427.4787
2474.271, 426.4305
2476.199, 425.5233
2478.128, 425.2258
2480.056, 425.0416
2481.985, 424.2895
2483.913, 423.5475
2485.842, 423.6243
2487.770, 424.1264
2489.698, 424.6378
2491.627, 424.9842
2493.555, 424.5047
2495.484, 423.6529
2497.412, 423.6946
2499.341, 424.4560
2501.269, 425.1675
2503.198, 425.8042
2505.126, 426.0614
2507.055, 425.8970
2508.983, 425.5708
2510.912, 425.0495
2512.840, 424.7891
2514.769, 424.8136
2516.697, 425.1105
2518.625, 425.8407
2520.554, 426.1919
2522.482, 425.8000
2524.411, 425.6246
2526.339, 425.6851
2528.268, 426.0160
2530.196, 426.7220
2532.125, 427.4331
2534.053, 428.2472
2535.982, 428.5577
2537.910, 427.8605
2539.839, 427.1015
2541.767, 426.3398
2543.696, 425.8419
2545.624, 425.5657
2547.552, 425.7868
2549.481, 427.1051
2551.409, 428.2114
2553.338, 428.2906
2555.266, 428.1400
2557.195, 427.9244
2559.123, 428.0965
2561.052, 429.4031
2562.980, 430.7504
2564.909, 431.1559
2566.837, 431.1652
2568.766, 431.0791
2570.694, 431.0313
2572.623, 431.2342
2574.551, 431.4940
2576.479, 431.3926
2578.408, 431.3667
2580.336, 432.5834
2582.265, 434.0681
2584.193, 433.5341
2586.122, 432.1576
2588.050, 432.3039
2589.979, 433.4412
2591.907, 434.5800
2593.836, 435.5994
2595.764, 436.3780
2597.693, 436.7561
2599.621, 435.6092
2601.550, 433.4835
2603.478, 433.3427
2605.406, 434.7188
2607.335, 434.8287
2609.263, 433.9063
2611.192, 434.9139
2613.120, 437.8000
2615.049, 439.6044
2616.977, 440.3132
2618.906, 439.9029
2620.834, 438.4703
2622.763, 438.1324
2624.691, 439.0110
2626.620, 439.5597
2628.548, 439.6360
2630.477, 440.1098
2632.405, 441.1545
2634.333, 441.5656
2636.262, 441.2822
2638.190, 440.9497
2640.119, 440.5728
2642.047, 440.5939
2643.976, 441.2207
2645.904, 441.5834
2647.833, 441.6295
2649.761, 441.5761
2651.690, 441.4397
2653.618, 441.3297
2655.547, 441.1884
2657.475, 441.7107
2659.404, 443.3254
2661.332, 444.4792
2663.260, 444.9726
2665.189, 444.9474
2667.117, 444.0686
2669.046, 444.1570
2670.974, 445.8414
2672.903, 446.4982
2674.831, 445.2822
2676.760, 444.2264
2678.688, 442.9027
2680.617, 443.5299
2682.545, 447.3884
2684.474, 448.8384
2686.402, 446.4232
2688.331, 444.5200
2690.259, 443.7755
2692.188, 444.1691
2694.116, 446.7378
2696.044, 448.3897
2697.973, 448.6249
2699.901, 448.9455
2701.830, 449.6079
2703.758, 450.0889
2705.687, 450.2119
2707.615, 450.2404
2709.544, 449.9385
2711.472, 450.0790
2713.401, 450.8808
2715.329, 451.5074
2717.258, 451.8372
2719.186, 452.0522
2721.115, 452.2646
2723.043, 452.2830
2724.971, 451.6307
2726.900, 452.0490
2728.828, 453.9756
2730.757, 455.6057
2732.685, 456.6659
2734.614, 457.3107
2736.542, 457.2989
2738.471, 457.4185
2740.399, 457.7418
2742.328, 458.1419
2744.256, 458.6855
2746.185, 459.0207
2748.113, 459.0933
2750.042, 459.1916
2751.970, 459.4466
2753.898, 459.4490
2755.827, 459.0247
2757.755, 459.0530
2759.684, 459.6054
2761.612, 460.3607
2763.541, 461.2730
2765.469, 462.6609
2767.398, 464.9483
2769.326, 465.6513
2771.255, 464.4455
2773.183, 464.8450
2775.112, 466.9747
2777.040, 467.8352
2778.969, 467.1209
2780.897, 466.8430
2782.825, 467.0887
2784.754, 467.1647
2786.682, 467.1021
2788.611, 467.4594
2790.539, 468.1984
2792.468, 468.8735
2794.396, 469.4325
2796.325, 469.1066
2798.253, 468.1158
2800.182, 468.8760
2802.110, 470.8387
2804.039, 471.5839
2805.967, 471.4347
2807.896, 471.7305
2809.824, 472.3226
2811.752, 472.5399
2813.681, 472.7098
2815.609, 474.0268
2817.538, 475.7637
2819.466, 476.4109
2821.395, 476.4398
2823.323, 476.2754
2825.252, 476.4239
2827.180, 478.5732
2829.109, 480.7862
2831.037, 479.9939
2832.966, 478.4825
2834.894, 478.6865
2836.823, 479.6966
2838.751, 481.1204
2840.679, 482.2324
2842.608, 482.0182
2844.536, 481.7926
2846.465, 482.5953
2848.393, 483.5982
2850.322, 484.4180
2852.250, 485.0262
2854.179, 485.0410
2856.107, 485.5145
2858.036, 487.3052
2859.964, 488.9870
2861.893, 489.7189
2863.821, 490.5948
2865.750, 492.0704
2867.678, 493.2920
2869.606, 494.0310
2871.535, 494.4764
2873.463, 494.4305
2875.392, 494.6927
2877.320, 495.4430
2879.249, 496.6583
2881.177, 498.5978
2883.106, 499.3346
2885.034, 498.1635
2886.963, 499.1282
2888.891, 503.0278
2890.820, 505.9882
2892.748, 507.9626
2894.677, 508.1588
2896.605, 506.8804
2898.533, 507.9037
2900.462, 510.8534
2902.390, 511.9459
2904.319, 511.8349
2906.247, 513.5768
2908.176, 516.4703
2910.104, 519.1210
2912.033, 521.2909
2913.961, 522.1977
2915.890, 522.6152
2917.818, 523.4781
2919.747, 524.8735
2921.675, 527.2741
2923.604, 529.7502
2925.532, 531.4437
2927.460, 532.8646
2929.389, 534.3214
2931.317, 535.7522
2933.246, 537.1378
2935.174, 538.4944
2937.103, 539.3661
2939.031, 541.0313
2940.960, 544.5411
2942.888, 547.1644
2944.817, 547.7605
2946.745, 549.4535
2948.674, 554.0536
2950.602, 557.1475
2952.531, 558.0652
2954.459, 559.8990
2956.387, 562.8482
2958.316, 565.4620
2960.244, 567.5563
2962.173, 569.6431
2964.101, 571.7131
2966.030, 574.3727
2967.958, 577.4396
2969.887, 580.0467
2971.815, 582.6262
2973.744, 586.4312
2975.672, 590.6553
2977.601, 593.6257
2979.529, 596.1916
2981.458, 599.3346
2983.386, 602.3910
2985.314, 604.3672
2987.243, 606.5644
2989.171, 610.1701
2991.100, 613.8646
2993.028, 617.1110
2994.957, 620.3531
2996.885, 623.8147
2998.814, 627.2189
3000.742, 630.4625
3002.671, 633.8728
3004.599, 637.5737
3006.528, 641.2947
3008.456, 645.0653
3010.385, 648.6766
3012.313, 652.1193
3014.241, 655.7688
3016.170, 659.5859
3018.098, 663.6561
3020.027, 667.7421
3021.955, 671.2548
3023.884, 674.2086
3025.812, 676.5681
3027.741, 678.5544
3029.669, 679.7404
3031.598, 681.4923
3033.526, 685.7253
3035.455, 690.1517
3037.383, 693.6115
3039.312, 696.3828
3041.240, 698.6455
3043.168, 700.1012
3045.097, 699.9909
3047.025, 701.5116
3048.954, 705.8127
3050.882, 709.1592
3052.811, 710.5880
3054.739, 712.4240
3056.668, 714.6094
3058.596, 716.3581
3060.525, 717.5612
3062.453, 717.4976
3064.382, 717.0627
3066.310, 719.6766
3068.239, 723.5856
3070.167, 725.9384
3072.095, 727.3870
3074.024, 728.0071
3075.952, 728.7299
3077.881, 730.3658
3079.809, 732.1447
3081.738, 733.9594
3083.666, 735.5186
3085.595, 736.5812
3087.523, 738.0522
3089.452, 740.2485
3091.380, 742.1375
3093.309, 743.4948
3095.237, 745.0820
3097.166, 746.7975
3099.094, 748.8740
3101.022, 751.2316
3102.951, 754.5000
3104.879, 757.6653
3106.808, 758.0154
3108.736, 757.5692
3110.665, 759.3509
3112.593, 761.4261
3114.522, 761.8907
3116.450, 762.7737
3118.379, 765.5276
3120.307, 768.3350
3122.236, 770.5707
3124.164, 773.2455
3126.093, 776.6589
3128.021, 780.4234
3129.949, 784.6452
3131.878, 786.5709
3133.806, 786.4110
3135.735, 786.7910
3137.663, 787.9564
3139.592, 791.4100
3141.520, 795.4865
3143.449, 797.1357
3145.377, 798.0311
3147.306, 799.5720
3149.234, 801.3270
3151.163, 803.2057
3153.091, 804.7896
3155.020, 805.5936
3156.948, 806.8644
3158.876, 809.0977
3160.805, 811.3431
3162.733, 813.5991
3164.662, 814.6428
3166.590, 814.6410
3168.519, 816.6228
3170.447, 819.9830
3172.376, 822.9367
3174.304, 825.5082
3176.233, 827.6133
3178.161, 829.4791
3180.090, 830.2192
3182.018, 832.5687
3183.947, 839.6101
3185.875, 844.4232
3187.803, 842.7673
3189.732, 842.4158
3191.660, 844.2387
3193.589, 844.8810
3195.517, 844.0821
3197.446, 844.8596
3199.374, 846.8199
3201.303, 847.6702
3203.231, 848.4375
3205.160, 851.9081
3207.088, 855.0306
3209.017, 853.6636
3210.945, 852.2938
3212.874, 853.0148
3214.802, 854.8117
3216.730, 857.5121
3218.659, 860.6795
3220.587, 864.3306
3222.516, 866.2875
3224.444, 866.3146
3226.373, 866.4659
3228.301, 866.7305
3230.230, 866.7531
3232.158, 866.7975
3234.087, 867.3023
3236.015, 867.8297
3237.944, 867.7709
3239.872, 867.6882
3241.801, 867.6668
3243.729, 867.7412
3245.657, 868.0811
3247.586, 868.1530
3249.514, 868.0010
3251.443, 867.3356
3253.371, 866.2424
3255.300, 864.8541
3257.228, 863.5177
3259.157, 863.1308
3261.085, 863.1806
3263.014, 863.5104
3264.942, 863.4547
3266.871, 862.4973
3268.799, 861.1730
3270.728, 859.2631
3272.656, 858.1706
3274.584, 858.5092
3276.513, 856.6469
3278.441, 853.0102
3280.370, 851.3919
3282.298, 851.0936
3284.227, 849.9564
3286.155, 849.3083
3288.084, 852.1484
3290.012, 853.5755
3291.941, 848.9390
3293.869, 844.9623
3295.798, 843.2441
3297.726, 842.2137
3299.655, 841.8583
3301.583, 840.4451
3303.511, 838.1384
3305.440, 836.4733
3307.368, 835.3224
3309.297, 834.6350
3311.225, 834.0325
3313.154, 833.2318
3315.082, 832.2784
3317.011, 831.4336
3318.939, 830.0175
3320.868, 827.5851
3322.796, 826.3196
3324.725, 826.3100
3326.653, 825.1659
3328.582, 823.0427
3330.510, 820.6016
3332.438, 818.4595
3334.367, 817.7478
3336.295, 817.3750
3338.224, 816.7045
3340.152, 815.8761
3342.081, 814.7513
3344.009, 813.9672
3345.938, 813.8481
3347.866, 812.0164
3349.795, 809.0346
3351.723, 808.5932
3353.652, 809.2076
3355.580, 807.6324
3357.509, 806.1020
3359.437, 807.1112
3361.365, 807.4581
3363.294, 804.1199
3365.222, 803.3427
3367.151, 805.9969
3369.079, 806.9620
3371.008, 806.0615
3372.936, 805.9514
3374.865, 805.8878
3376.793, 803.4677
3378.722, 801.3627
3380.650, 802.9445
3382.579, 804.1825
3384.507, 803.4890
3386.436, 802.5624
3388.364, 801.5365
3390.292, 801.3365
3392.221, 801.7872
3394.149, 801.5762
3396.078, 801.0879
3398.006, 800.4777
3399.935, 800.8943
3401.863, 804.1390
3403.792, 806.6986
3405.720, 806.4677
3407.649, 806.6098
3409.577, 807.3955
3411.506, 807.6420
3413.434, 807.5466
3415.363, 808.5504
3417.291, 810.1592
3419.219, 812.0983
3421.148, 813.3684
3423.076, 812.4639
3425.005, 812.1006
3426.933, 813.0873
3428.862, 813.8640
3430.790, 814.3708
3432.719, 813.4974
3434.647, 811.9667
3436.576, 811.5519
3438.504, 811.7578
3440.433, 812.6183
3442.361, 812.7128
3444.290, 810.7755
3446.218, 809.4988
3448.146, 809.5208
3450.075, 808.0925
3452.003, 805.5164
3453.932, 804.9338
3455.860, 804.5659
3457.789, 800.8128
3459.717, 796.6160
3461.646, 793.6752
3463.574, 791.7379
3465.503, 791.2188
3467.431, 788.6220
3469.360, 783.6617
3471.288, 781.8201
3473.217, 781.1290
3475.145, 776.5186
3477.073, 770.6475
3479.002, 765.1263
3480.930, 760.5383
3482.859, 757.3840
3484.787, 753.7643
3486.716, 749.3575
3488.644, 744.9159
3490.573, 740.3925
3492.501, 735.8688
3494.430, 731.0309
3496.358, 725.1871
3498.287, 719.6321
3500.215, 715.0414
3502.144, 710.6074
3504.072, 706.3713
3506.000, 700.7852
3507.929, 694.5872
3509.857, 690.6605
3511.786, 687.0629
3513.714, 681.0571
3515.643, 675.3030
3517.571, 670.8567
3519.500, 667.6130
3521.428, 665.6267
3523.357, 662.0788
3525.285, 657.2001
3527.214, 651.3975
3529.142, 646.0247
3531.071, 643.1083
3532.999, 639.9062
3534.927, 634.5841
3536.856, 630.6472
3538.784, 628.4305
3540.713, 624.6537
3542.641, 620.0021
3544.570, 617.3279
3546.498, 614.6436
3548.427, 609.3134
3550.355, 604.8044
3552.284, 602.3353
3554.212, 599.9608
3556.141, 597.4499
3558.069, 593.4161
3559.998, 588.8035
3561.926, 585.5670
3563.854, 583.1817
3565.783, 581.6452
3567.711, 580.0955
3569.640, 578.4759
3571.568, 575.0799
3573.497, 570.0560
3575.425, 567.2571
3577.354, 565.3861
3579.282, 562.6479
3581.211, 559.8602
3583.139, 557.5749
3585.068, 555.1890
3586.996, 552.5354
3588.925, 549.8582
3590.853, 547.0969
3592.781, 544.2025
3594.710, 541.0825
3596.638, 537.0216
3598.567, 533.9106
3600.495, 533.0052
3602.424, 531.6332
3604.352, 529.6531
3606.281, 527.0248
3608.209, 524.0438
3610.138, 520.7681
3612.066, 518.1459
3613.995, 517.0175
3615.923, 515.9847
3617.852, 514.8705
3619.780, 513.1899
3621.708, 511.1391
3623.637, 509.2704
3625.565, 507.7206
3627.494, 506.4997
3629.422, 505.7976
3631.351, 506.7009
3633.279, 504.9532
3635.208, 500.9985
3637.136, 499.7485
3639.065, 499.7757
3640.993, 498.8791
3642.922, 497.4345
3644.850, 494.8986
3646.779, 493.5922
3648.707, 493.6928
3650.635, 492.9811
3652.564, 491.8414
3654.492, 491.6412
3656.421, 491.3446
3658.349, 490.0674
3660.278, 488.7923
3662.206, 487.7262
3664.135, 486.6118
3666.063, 485.5624
3667.992, 484.9948
3669.920, 484.8163
3671.849, 485.2383
3673.777, 485.1815
3675.706, 484.2086
3677.634, 483.4594
3679.563, 482.9476
3681.491, 481.7665
3683.419, 480.8026
3685.348, 481.6992
3687.276, 481.9502
3689.205, 479.8926
3691.133, 479.3581
3693.062, 480.3191
3694.990, 479.5425
3696.919, 478.1889
3698.847, 478.0951
3700.776, 478.1469
3702.704, 477.7098
3704.633, 477.6422
3706.561, 477.9341
3708.490, 478.2338
3710.418, 478.0289
3712.346, 475.7274
3714.275, 473.8999
3716.203, 474.2018
3718.132, 474.9186
3720.060, 475.8369
3721.989, 475.4693
3723.917, 474.3993
3725.846, 473.3864
3727.774, 472.6909
3729.703, 472.5050
3731.631, 472.5322
3733.560, 472.6908
3735.488, 472.9979
3737.417, 473.2163
3739.345, 472.6578
3741.273, 472.4687
3743.202, 474.1880
3745.130, 473.9624
3747.059, 471.9100
3748.987, 471.5686
3750.916, 471.8897
3752.844, 470.7874
3754.773, 470.0065
3756.701, 470.3718
3758.630, 471.3246
3760.558, 472.6039
3762.487, 472.9056
3764.415, 472.5885
3766.344, 472.1487
3768.272, 471.3988
3770.200, 469.7191
3772.129, 469.8100
3774.057, 471.2213
3775.986, 470.8022
3777.914, 470.0150
3779.843, 470.4861
3781.771, 470.9177
3783.700, 470.5735
3785.628, 471.2143
3787.557, 472.3687
3789.485, 472.4130
3791.414, 472.1570
3793.342, 472.3841
3795.271, 472.1891
3797.199, 471.2474
3799.127, 470.9380
3801.056, 470.9935
3802.984, 470.7533
3804.913, 470.6039
3806.841, 470.9289
3808.770, 470.6043
3810.698, 469.4521
3812.627, 469.8056
3814.555, 470.8834
3816.484, 472.1776
3818.412, 472.1931
3820.341, 469.9039
3822.269, 469.4165
3824.198, 470.6379
3826.126, 471.2040
3828.054, 471.3099
3829.983, 470.8551
3831.911, 470.5842
3833.840, 470.6739
3835.768, 470.9390
3837.697, 471.3591
3839.625, 472.1774
3841.554, 472.6301
3843.482, 471.9648
3845.411, 471.8233
3847.339, 472.3474
3849.268, 471.9890
3851.196, 471.1593
3853.125, 469.7134
3855.053, 469.7475
3856.981, 472.1017
3858.910, 472.8986
3860.838, 472.4265
3862.767, 472.4079
3864.695, 472.7196
3866.624, 473.5586
3868.552, 473.9333
3870.481, 473.7907
3872.409, 474.1949
3874.338, 474.5339
3876.266, 473.4231
3878.195, 472.6917
3880.123, 473.2480
3882.052, 473.9337
3883.980, 474.6617
3885.908, 475.3600
3887.837, 475.7016
3889.765, 475.4063
3891.694, 474.8736
3893.622, 474.1897
3895.551, 475.4190
3897.479, 476.9423
3899.408, 476.1412
3901.336, 475.3290
3903.265, 475.1579
3905.193, 475.2691
3907.122, 475.8836
3909.050, 478.6485
3910.979, 480.5994
3912.907, 479.6237
3914.835, 478.4842
3916.764, 477.6618
3918.692, 479.4027
3920.621, 481.3967
3922.549, 480.8560
3924.478, 480.5421
3926.406, 481.0672
3928.335, 480.3312
3930.263, 479.2479
3932.192, 480.0164
3934.120, 480.6821
3936.049, 480.0201
3937.977, 480.3372
3939.906, 481.3348
3941.834, 481.7175
3943.762, 481.5871
3945.691, 480.7665
3947.619, 480.5532
3949.548, 481.0201
3951.476, 481.4593
3953.405, 481.8925
3955.333, 482.2573
3957.262, 482.8930
3959.190, 483.9440
3961.119, 485.2216
3963.047, 486.0778
3964.976, 484.7967
3966.904, 484.2643
3968.833, 485.6122
3970.761, 485.2159
3972.689, 483.7924
3974.618, 484.4911
3976.546, 485.1971
3978.475, 484.4807
3980.403, 484.7177
3982.332, 485.7753
3984.260, 485.7196
3986.189, 485.3336
3988.117, 485.0204
3990.046, 485.1341
3991.974, 485.6497
3993.903, 486.7291
3995.831, 487.1975
3997.760, 485.1352
3999.688, 484.2209
4001.616, 485.4493
4003.545, 486.5589
4005.473, 487.2204
4007.402, 486.4648
4009.330, 486.1611
4011.259, 486.8978
4013.187, 487.4576
4015.116, 487.7473
4017.044, 487.4757
4018.973, 487.3687
4020.901, 487.6721
4022.830, 487.5620
4024.758, 487.4061
4026.687, 489.2467
4028.615, 489.8636
4030.543, 486.4185
4032.472, 486.3475
4034.400, 488.5351
4036.329, 488.2805
4038.257, 487.7997
4040.186, 488.4672
4042.114, 488.3353
4044.043, 487.6672
4045.971, 487.9236
4047.900, 488.9841
4049.828, 491.3031
4051.757, 491.1757
4053.685, 488.8432
4055.614, 487.4177
4057.542, 486.6555
4059.470, 486.4532
4061.399, 487.0010
4063.327, 488.2462
4065.256, 489.9792
4067.184, 491.2165
4069.113, 491.1866
4071.041, 490.1122
4072.970, 488.4797
4074.898, 488.9597
4076.827, 489.8174
4078.755, 489.5586
4080.684, 489.9186
4082.612, 491.0592
4084.541, 493.0507
4086.469, 494.0730
4088.397, 492.1968
4090.326, 490.0979
4092.254, 488.4051
4094.183, 490.2211
4096.111, 491.8928
4098.040, 489.6671
4099.968, 488.3306
4101.896, 488.2146
4103.825, 488.7339
4105.754, 488.8958
4107.682, 487.5546
4109.610, 487.6732
4111.539, 489.0753
4113.468, 489.7926
4115.396, 490.1289
4117.324, 490.2737
4119.253, 490.1664
4121.182, 490.0591
4123.110, 491.0494
4125.038, 492.7804
4126.967, 495.5616
4128.896, 496.6197
4130.824, 496.1361
4132.752, 494.9598
4134.681, 494.0646
4136.609, 494.0291
4138.538, 494.4890
4140.466, 495.1799
4142.395, 495.4082
4144.323, 495.6947
4146.251, 496.3685
4148.180, 495.5388
4150.108, 494.5853
4152.037, 496.9566
4153.965, 498.3127
4155.894, 497.4466
4157.822, 498.9134
4159.751, 500.5884
4161.679, 497.9826
4163.607, 497.2409
4165.536, 499.4908
4167.465, 500.1777
4169.393, 499.9672
4171.321, 499.3475
4173.250, 499.3685
4175.179, 500.2030
4177.107, 501.7821
4179.035, 502.8580
4180.964, 501.8826
4182.893, 501.6908
4184.821, 502.2603
4186.749, 501.8734
4188.678, 501.7201
4190.606, 502.8161
4192.535, 503.6978
4194.463, 504.1767
4196.392, 503.5780
4198.320, 503.3441
4200.249, 504.3196
4202.177, 503.8823
4204.105, 503.0594
4206.034, 503.6886
4207.962, 504.2258
4209.891, 504.2891
4211.819, 503.3481
4213.748, 502.9394
4215.676, 505.1911
4217.604, 506.3427
4219.533, 506.2165
4221.462, 506.5563
4223.390, 506.9213
4225.318, 507.0695
4227.247, 507.3382
4229.176, 507.8022
4231.104, 508.6645
4233.032, 509.1637
4234.961, 508.9740
4236.890, 508.4638
4238.818, 508.0866
4240.746, 508.2698
4242.675, 508.4599
##END=



