##NAMES=Sklodowskite
##RRUFFID=R050445
##IDEAL CHEMISTRY=Mg(UO_2_)_2_(SiO_3_OH)_2_·6H_2_O
##LOCALITY=Mina las Animas, Santa Eulalia, Chihuahua, Mexico
##OWNER=RRUFF
##SOURCE=Peter Megaw
##DESCRIPTION=Mass of transparent yellow flat fibers
##STATUS=The identification of this mineral has been confirmed by single-crystal X-ray diffraction
##URL=https://www.rruff.net/odr/rruff_sample/R050445
##DIFFRACTION SAMPLE DESCRIPTION=Single crystal, powder profile is calculated
##CELL PARAMETERS=a: 17.368 b: 7.045 c: 6.604 alpha: 90 beta: 105.92 gamma: 90 volume: 777.1 crystal system: monoclinic
##FILETYPE=Raman RAW
##RAMAN WAVELENGTH=532

141.5282, 6466.738
143.4566, 6512.914
145.3851, 6553.075
147.3136, 6586.583
149.2420, 6613.423
151.1705, 6638.355
153.0990, 6662.989
155.0274, 6687.136
156.9559, 6709.799
158.8844, 6730.710
160.8128, 6752.289
162.7413, 6775.849
164.6698, 6806.130
166.5982, 6831.347
168.5267, 6847.114
170.4552, 6857.437
172.3836, 6869.608
174.3121, 6881.159
176.2406, 6895.490
178.1690, 6913.818
180.0975, 6935.348
182.0260, 6958.962
183.9544, 6985.641
185.8829, 7014.743
187.8114, 7043.631
189.7398, 7075.160
191.6683, 7104.476
193.5968, 7127.932
195.5252, 7145.456
197.4537, 7163.652
199.3822, 7184.900
201.3106, 7207.004
203.2391, 7226.538
205.1676, 7242.883
207.0960, 7256.755
209.0245, 7267.880
210.9530, 7275.335
212.8814, 7282.913
214.8099, 7290.492
216.7384, 7298.897
218.6668, 7308.485
220.5953, 7316.675
222.5238, 7329.760
224.4522, 7350.849
226.3807, 7387.349
228.3092, 7419.688
230.2376, 7445.444
232.1661, 7467.298
234.0946, 7489.350
236.0230, 7511.173
237.9515, 7533.534
239.8800, 7555.622
241.8084, 7575.821
243.7369, 7602.560
245.6654, 7641.921
247.5938, 7688.514
249.5223, 7733.535
251.4508, 7772.616
253.3792, 7815.571
255.3077, 7870.510
257.2362, 7936.261
259.1646, 7993.178
261.0931, 8031.366
263.0216, 8060.322
264.9500, 8092.228
266.8785, 8130.885
268.8070, 8166.135
270.7354, 8193.221
272.6639, 8212.334
274.5924, 8231.285
276.5208, 8251.438
278.4493, 8272.102
280.3778, 8291.745
282.3062, 8310.156
284.2347, 8328.792
286.1632, 8349.094
288.0916, 8371.794
290.0201, 8392.409
291.9486, 8410.346
293.8770, 8426.987
295.8055, 8443.239
297.7340, 8459.081
299.6624, 8473.721
301.5909, 8484.430
303.5194, 8493.037
305.4478, 8508.451
307.3763, 8539.624
309.3048, 8567.752
311.2332, 8583.154
313.1617, 8578.473
315.0902, 8581.238
317.0186, 8599.674
318.9471, 8625.319
320.8756, 8642.850
322.8040, 8645.334
324.7325, 8650.491
326.6610, 8665.134
328.5894, 8691.986
330.5179, 8714.965
332.4464, 8729.764
334.3748, 8742.690
336.3033, 8758.949
338.2318, 8779.481
340.1602, 8802.588
342.0887, 8830.622
344.0172, 8862.637
345.9456, 8889.488
347.8741, 8905.486
349.8026, 8921.717
351.7310, 8944.229
353.6595, 8977.798
355.5880, 9007.540
357.5164, 9028.081
359.4449, 9045.047
361.3734, 9068.498
363.3018, 9101.715
365.2303, 9138.240
367.1588, 9177.299
369.0872, 9220.429
371.0157, 9258.622
372.9442, 9285.771
374.8727, 9311.566
376.8011, 9343.924
378.7296, 9388.036
380.6581, 9427.957
382.5865, 9455.594
384.5150, 9475.554
386.4435, 9505.925
388.3719, 9554.283
390.3004, 9603.287
392.2289, 9644.608
394.1573, 9672.981
396.0858, 9710.006
398.0143, 9764.077
399.9427, 9820.221
401.8712, 9861.639
403.7997, 9877.994
405.7281, 9903.842
407.6566, 9953.901
409.5851, 10025.46
411.5135, 10081.97
413.4420, 10112.05
415.3705, 10139.54
417.2989, 10179.04
419.2274, 10235.88
421.1559, 10282.75
423.0843, 10308.42
425.0128, 10324.74
426.9413, 10352.62
428.8697, 10394.85
430.7982, 10439.62
432.7267, 10482.29
434.6551, 10522.18
436.5836, 10562.09
438.5121, 10604.45
440.4405, 10643.32
442.3690, 10675.64
444.2975, 10702.89
446.2259, 10732.09
448.1544, 10766.05
450.0829, 10803.84
452.0113, 10843.97
453.9398, 10886.58
455.8683, 10931.91
457.7967, 10981.11
459.7252, 11035.16
461.6537, 11091.85
463.5821, 11153.11
465.5106, 11211.54
467.4391, 11265.37
469.3675, 11315.82
471.2960, 11367.55
473.2245, 11420.55
475.1529, 11472.49
477.0814, 11521.73
479.0099, 11566.21
480.9383, 11608.55
482.8668, 11653.89
484.7953, 11708.84
486.7237, 11762.22
488.6522, 11814.22
490.5807, 11857.29
492.5091, 11890.75
494.4376, 11911.83
496.3661, 11944.33
498.2945, 11996.94
500.2230, 12049.01
502.1515, 12089.40
504.0799, 12116.87
506.0084, 12145.58
507.9369, 12182.63
509.8653, 12222.75
511.7938, 12252.72
513.7223, 12261.77
515.6508, 12277.14
517.5792, 12315.62
519.5077, 12368.33
521.4362, 12410.91
523.3646, 12429.20
525.2931, 12446.39
527.2216, 12470.42
529.1500, 12502.49
531.0785, 12532.51
533.0070, 12559.98
534.9354, 12581.48
536.8639, 12600.73
538.7924, 12621.75
540.7208, 12640.59
542.6493, 12649.84
544.5778, 12650.52
546.5062, 12657.78
548.4347, 12677.62
550.3632, 12702.10
552.2916, 12720.51
554.2201, 12729.57
556.1486, 12732.97
558.0770, 12725.13
560.0055, 12723.56
561.9340, 12738.06
563.8624, 12764.75
565.7909, 12781.72
567.7194, 12777.80
569.6478, 12773.29
571.5763, 12773.41
573.5048, 12776.51
575.4332, 12775.13
577.3617, 12780.05
579.2902, 12794.11
581.2186, 12802.20
583.1471, 12798.73
585.0756, 12786.77
587.0040, 12771.61
588.9325, 12758.33
590.8610, 12753.96
592.7894, 12763.99
594.7179, 12769.22
596.6464, 12753.51
598.5748, 12716.10
600.5033, 12696.52
602.4318, 12721.56
604.3602, 12756.15
606.2887, 12770.23
608.2172, 12759.54
610.1456, 12748.53
612.0741, 12750.24
614.0026, 12759.37
615.9310, 12765.55
617.8595, 12766.78
619.7880, 12761.46
621.7164, 12754.54
623.6449, 12745.34
625.5734, 12730.81
627.5018, 12708.82
629.4303, 12695.64
631.3588, 12689.66
633.2872, 12684.03
635.2157, 12676.38
637.1442, 12667.36
639.0726, 12664.38
641.0011, 12670.09
642.9296, 12679.90
644.8580, 12685.83
646.7865, 12687.57
648.7150, 12685.03
650.6434, 12672.46
652.5719, 12650.65
654.5004, 12637.72
656.4288, 12641.50
658.3573, 12647.74
660.2858, 12650.88
662.2142, 12650.14
664.1427, 12641.58
666.0712, 12622.05
667.9996, 12610.37
669.9281, 12607.05
671.8566, 12607.86
673.7850, 12604.14
675.7135, 12604.64
677.6420, 12607.33
679.5704, 12612.05
681.4989, 12620.86
683.4274, 12634.38
685.3558, 12631.47
687.2843, 12617.27
689.2128, 12606.30
691.1412, 12606.67
693.0697, 12604.37
694.9982, 12588.62
696.9266, 12570.23
698.8551, 12564.31
700.7836, 12585.30
702.7120, 12605.35
704.6405, 12604.55
706.5690, 12590.67
708.4974, 12588.05
710.4259, 12609.61
712.3544, 12632.81
714.2828, 12644.39
716.2113, 12650.87
718.1398, 12665.64
720.0682, 12690.29
721.9967, 12714.34
723.9252, 12738.24
725.8536, 12768.00
727.7821, 12809.79
729.7106, 12861.18
731.6390, 12914.59
733.5675, 12967.88
735.4960, 13023.51
737.4244, 13088.10
739.3529, 13142.46
741.2814, 13195.51
743.2098, 13265.36
745.1383, 13349.73
747.0668, 13427.95
748.9952, 13505.54
750.9237, 13587.21
752.8522, 13664.27
754.7806, 13732.43
756.7091, 13799.36
758.6376, 13882.50
760.5660, 13988.21
762.4945, 14114.79
764.4230, 14256.63
766.3514, 14410.30
768.2799, 14573.11
770.2084, 14721.36
772.1368, 14858.62
774.0653, 14994.01
775.9938, 15134.93
777.9222, 15240.69
779.8507, 15312.62
781.7792, 15342.44
783.7076, 15329.91
785.6361, 15282.14
787.5646, 15188.90
789.4930, 15039.98
791.4215, 14848.70
793.3500, 14646.83
795.2784, 14450.49
797.2069, 14255.54
799.1354, 14065.31
801.0638, 13886.39
802.9923, 13727.71
804.9208, 13594.26
806.8492, 13492.24
808.7777, 13391.01
810.7062, 13281.17
812.6346, 13171.91
814.5631, 13093.57
816.4916, 13017.61
818.4200, 12944.88
820.3485, 12880.33
822.2770, 12825.37
824.2054, 12774.13
826.1339, 12734.68
828.0624, 12705.85
829.9908, 12681.65
831.9193, 12651.74
833.8478, 12617.80
835.7762, 12583.26
837.7047, 12555.65
839.6332, 12537.86
841.5616, 12519.80
843.4901, 12485.66
845.4186, 12448.00
847.3470, 12418.02
849.2755, 12391.45
851.2040, 12360.01
853.1324, 12328.87
855.0609, 12303.79
856.9894, 12279.49
858.9178, 12258.64
860.8463, 12243.91
862.7748, 12233.14
864.7032, 12219.82
866.6317, 12211.61
868.5602, 12214.85
870.4886, 12223.70
872.4171, 12227.92
874.3456, 12216.77
876.2740, 12204.13
878.2025, 12193.39
880.1310, 12186.69
882.0594, 12184.70
883.9879, 12181.63
885.9164, 12175.43
887.8448, 12167.45
889.7733, 12158.29
891.7018, 12145.99
893.6302, 12135.24
895.5587, 12138.09
897.4872, 12153.19
899.4156, 12164.38
901.3441, 12155.10
903.2726, 12151.15
905.2010, 12165.19
907.1295, 12188.40
909.0580, 12204.71
910.9865, 12209.52
912.9149, 12215.06
914.8434, 12229.62
916.7719, 12249.44
918.7003, 12263.03
920.6288, 12265.80
922.5573, 12264.11
924.4857, 12265.29
926.4142, 12267.77
928.3427, 12278.55
930.2711, 12303.39
932.1996, 12333.77
934.1281, 12357.01
936.0565, 12384.93
937.9850, 12414.74
939.9135, 12443.15
941.8419, 12465.06
943.7704, 12481.24
945.6989, 12492.87
947.6273, 12502.91
949.5558, 12513.24
951.4843, 12529.22
953.4127, 12549.82
955.3412, 12568.78
957.2697, 12596.25
959.1981, 12635.79
961.1266, 12678.37
963.0551, 12720.17
964.9835, 12766.87
966.9120, 12820.90
968.8405, 12877.83
970.7689, 12907.22
972.6974, 12903.58
974.6259, 12873.04
976.5543, 12821.39
978.4828, 12753.54
980.4113, 12680.00
982.3397, 12597.97
984.2682, 12513.85
986.1967, 12428.77
988.1251, 12355.18
990.0536, 12295.65
991.9821, 12252.98
993.9105, 12209.97
995.8390, 12164.18
997.7675, 12118.04
999.6959, 12075.82
1001.624, 12037.41
1003.553, 12000.43
1005.481, 11967.29
1007.410, 11939.20
1009.338, 11914.16
1011.267, 11892.44
1013.195, 11873.10
1015.124, 11855.55
1017.052, 11842.24
1018.981, 11833.87
1020.909, 11830.71
1022.838, 11831.11
1024.766, 11830.28
1026.694, 11828.78
1028.623, 11831.84
1030.551, 11844.59
1032.480, 11849.85
1034.408, 11847.56
1036.337, 11837.19
1038.265, 11819.19
1040.194, 11797.07
1042.122, 11777.91
1044.051, 11763.32
1045.979, 11756.22
1047.908, 11756.15
1049.836, 11757.25
1051.765, 11757.87
1053.693, 11754.93
1055.621, 11757.96
1057.550, 11775.35
1059.478, 11789.79
1061.407, 11784.34
1063.335, 11765.11
1065.264, 11749.44
1067.192, 11738.85
1069.121, 11728.96
1071.049, 11718.99
1072.978, 11711.26
1074.906, 11711.17
1076.835, 11726.96
1078.763, 11735.41
1080.692, 11730.21
1082.620, 11719.69
1084.548, 11708.91
1086.477, 11699.80
1088.405, 11692.52
1090.334, 11686.05
1092.262, 11679.47
1094.191, 11678.22
1096.119, 11683.31
1098.048, 11685.85
1099.976, 11679.15
1101.905, 11678.62
1103.833, 11693.40
1105.762, 11718.65
1107.690, 11734.89
1109.619, 11733.28
1111.547, 11738.61
1113.475, 11757.47
1115.404, 11777.73
1117.332, 11793.04
1119.261, 11802.58
1121.189, 11797.48
1123.118, 11768.80
1125.046, 11738.17
1126.975, 11718.34
1128.903, 11706.90
1130.832, 11694.17
1132.760, 11680.67
1134.689, 11671.82
1136.617, 11666.46
1138.546, 11667.60
1140.474, 11675.24
1142.402, 11686.17
1144.331, 11704.62
1146.259, 11738.03
1148.188, 11766.58
1150.116, 11775.10
1152.045, 11767.47
1153.973, 11766.34
1155.902, 11781.05
1157.830, 11792.78
1159.759, 11795.77
1161.687, 11794.46
1163.616, 11795.93
1165.544, 11801.48
1167.473, 11807.68
1169.401, 11814.35
1171.329, 11820.51
1173.258, 11826.05
1175.186, 11830.63
1177.115, 11831.94
1179.043, 11827.70
1180.972, 11825.23
1182.900, 11826.29
1184.829, 11831.75
1186.757, 11843.30
1188.686, 11861.60
1190.614, 11880.67
1192.543, 11903.23
1194.471, 11921.11
1196.400, 11926.98
1198.328, 11920.05
1200.256, 11917.05
1202.185, 11927.44
1204.113, 11934.06
1206.042, 11929.45
1207.970, 11921.02
1209.899, 11922.29
1211.827, 11934.52
1213.756, 11951.08
1215.684, 11970.26
1217.613, 11991.38
1219.541, 12013.18
1221.470, 12033.33
1223.398, 12049.25
1225.327, 12061.40
1227.255, 12065.26
1229.183, 12053.57
1231.112, 12037.78
1233.040, 12034.28
1234.969, 12054.69
1236.897, 12063.14
1238.826, 12050.74
1240.754, 12037.21
1242.683, 12030.54
1244.611, 12032.60
1246.540, 12043.15
1248.468, 12064.16
1250.397, 12076.83
1252.325, 12072.53
1254.254, 12062.23
1256.182, 12049.21
1258.110, 12032.47
1260.039, 12030.13
1261.967, 12063.60
1263.896, 12091.56
1265.824, 12089.14
1267.753, 12068.89
1269.681, 12068.98
1271.610, 12109.20
1273.538, 12137.90
1275.467, 12147.33
1277.395, 12149.27
1279.324, 12151.96
1281.252, 12153.23
1283.181, 12145.50
1285.109, 12122.72
1287.037, 12103.91
1288.966, 12098.68
1290.894, 12101.40
1292.823, 12104.98
1294.751, 12109.34
1296.680, 12115.76
1298.608, 12129.00
1300.537, 12137.79
1302.465, 12133.75
1304.394, 12121.08
1306.322, 12112.67
1308.251, 12110.00
1310.179, 12106.38
1312.108, 12100.74
1314.036, 12096.95
1315.964, 12100.37
1317.893, 12107.03
1319.821, 12103.64
1321.750, 12085.37
1323.678, 12071.19
1325.607, 12064.58
1327.535, 12063.97
1329.464, 12068.59
1331.392, 12075.20
1333.321, 12082.54
1335.249, 12092.46
1337.178, 12100.36
1339.106, 12101.47
1341.035, 12096.65
1342.963, 12091.80
1344.891, 12088.79
1346.820, 12074.10
1348.748, 12033.51
1350.677, 11999.56
1352.605, 11990.99
1354.534, 11997.51
1356.462, 11996.95
1358.391, 11996.13
1360.319, 11995.20
1362.248, 11986.05
1364.176, 11975.33
1366.105, 11969.33
1368.033, 11967.53
1369.962, 11959.13
1371.890, 11938.38
1373.818, 11921.75
1375.747, 11918.29
1377.675, 11916.93
1379.604, 11911.66
1381.532, 11900.19
1383.461, 11888.26
1385.389, 11885.64
1387.318, 11880.19
1389.246, 11853.60
1391.175, 11827.43
1393.103, 11826.90
1395.032, 11851.98
1396.960, 11861.56
1398.889, 11837.01
1400.817, 11815.33
1402.745, 11810.78
1404.674, 11814.98
1406.602, 11819.64
1408.531, 11823.73
1410.459, 11822.69
1412.388, 11815.96
1414.316, 11814.51
1416.245, 11818.68
1418.173, 11820.26
1420.102, 11812.99
1422.030, 11799.16
1423.959, 11795.28
1425.887, 11820.46
1427.816, 11821.11
1429.744, 11769.18
1431.672, 11703.05
1433.601, 11666.23
1435.529, 11653.33
1437.458, 11635.29
1439.386, 11610.86
1441.315, 11588.90
1443.243, 11567.71
1445.172, 11551.15
1447.100, 11546.64
1449.029, 11551.03
1450.957, 11553.10
1452.886, 11554.73
1454.814, 11549.80
1456.743, 11529.52
1458.671, 11507.84
1460.599, 11498.59
1462.528, 11497.60
1464.456, 11490.09
1466.385, 11478.44
1468.313, 11460.41
1470.242, 11430.93
1472.170, 11403.60
1474.099, 11393.22
1476.027, 11397.90
1477.956, 11393.24
1479.884, 11376.71
1481.813, 11361.20
1483.741, 11345.34
1485.670, 11331.02
1487.598, 11321.18
1489.526, 11312.54
1491.455, 11296.99
1493.383, 11276.39
1495.312, 11251.84
1497.240, 11217.99
1499.169, 11187.78
1501.097, 11178.60
1503.026, 11186.58
1504.954, 11178.06
1506.883, 11140.65
1508.811, 11114.55
1510.740, 11114.21
1512.668, 11120.19
1514.597, 11123.76
1516.525, 11123.47
1518.453, 11112.46
1520.382, 11084.96
1522.310, 11057.41
1524.239, 11038.02
1526.167, 11018.96
1528.096, 10995.98
1530.024, 10969.55
1531.953, 10942.06
1533.881, 10916.99
1535.810, 10898.91
1537.738, 10885.49
1539.667, 10882.36
1541.595, 10900.96
1543.524, 10920.45
1545.452, 10913.96
1547.380, 10880.64
1549.309, 10857.23
1551.237, 10852.62
1553.166, 10844.37
1555.094, 10825.09
1557.023, 10803.27
1558.951, 10785.03
1560.880, 10772.60
1562.808, 10769.22
1564.737, 10783.24
1566.665, 10786.82
1568.594, 10765.31
1570.522, 10739.93
1572.451, 10718.09
1574.379, 10701.56
1576.307, 10695.68
1578.236, 10708.69
1580.164, 10709.86
1582.093, 10697.66
1584.021, 10678.33
1585.950, 10644.62
1587.878, 10610.08
1589.807, 10595.67
1591.735, 10602.09
1593.664, 10586.41
1595.592, 10528.76
1597.521, 10484.83
1599.449, 10469.98
1601.378, 10465.58
1603.306, 10460.70
1605.234, 10457.05
1607.163, 10457.88
1609.091, 10461.17
1611.020, 10467.30
1612.948, 10480.38
1614.877, 10485.05
1616.805, 10469.62
1618.734, 10444.89
1620.662, 10425.64
1622.591, 10411.70
1624.519, 10393.30
1626.448, 10370.52
1628.376, 10345.89
1630.305, 10319.03
1632.233, 10293.60
1634.161, 10276.98
1636.090, 10264.33
1638.018, 10239.50
1639.947, 10200.94
1641.875, 10177.07
1643.804, 10184.37
1645.732, 10186.88
1647.661, 10152.60
1649.589, 10116.02
1651.518, 10123.74
1653.446, 10162.55
1655.375, 10168.75
1657.303, 10126.59
1659.232, 10095.92
1661.160, 10103.32
1663.089, 10111.84
1665.017, 10101.89
1666.945, 10081.81
1668.874, 10063.24
1670.802, 10046.80
1672.731, 10032.25
1674.659, 10019.25
1676.588, 10008.58
1678.516, 10005.86
1680.445, 9999.141
1682.373, 9972.366
1684.302, 9935.992
1686.230, 9916.323
1688.159, 9915.435
1690.087, 9908.187
1692.016, 9889.728
1693.944, 9868.078
1695.872, 9847.229
1697.801, 9825.145
1699.729, 9798.703
1701.658, 9770.268
1703.586, 9746.457
1705.515, 9727.947
1707.443, 9713.855
1709.372, 9707.954
1711.300, 9699.846
1713.229, 9674.853
1715.157, 9651.396
1717.086, 9654.049
1719.014, 9675.053
1720.943, 9679.400
1722.871, 9661.375
1724.799, 9641.266
1726.728, 9622.756
1728.656, 9604.650
1730.585, 9588.478
1732.513, 9573.311
1734.442, 9557.707
1736.370, 9542.867
1738.299, 9530.846
1740.227, 9520.744
1742.156, 9516.916
1744.084, 9529.578
1746.013, 9533.487
1747.941, 9505.192
1749.870, 9466.402
1751.798, 9446.743
1753.726, 9443.191
1755.655, 9434.672
1757.583, 9419.635
1759.512, 9405.582
1761.440, 9396.406
1763.369, 9386.104
1765.297, 9364.056
1767.226, 9343.806
1769.154, 9348.057
1771.083, 9371.291
1773.011, 9379.518
1774.940, 9368.928
1776.868, 9353.833
1778.797, 9330.085
1780.725, 9310.357
1782.653, 9303.135
1784.582, 9299.106
1786.510, 9289.052
1788.439, 9273.162
1790.367, 9253.728
1792.296, 9230.380
1794.224, 9206.846
1796.153, 9181.907
1798.081, 9160.559
1800.010, 9143.676
1801.938, 9132.037
1803.867, 9131.741
1805.795, 9136.608
1807.724, 9123.979
1809.652, 9085.493
1811.580, 9060.248
1813.509, 9060.126
1815.437, 9057.945
1817.366, 9044.519
1819.294, 9032.842
1821.223, 9033.846
1823.151, 9041.106
1825.080, 9043.018
1827.008, 9038.820
1828.937, 9023.043
1830.865, 8979.090
1832.794, 8947.736
1834.722, 8943.726
1836.651, 8939.297
1838.579, 8924.644
1840.507, 8903.205
1842.436, 8873.300
1844.364, 8838.239
1846.293, 8827.237
1848.221, 8852.698
1850.150, 8859.103
1852.078, 8826.229
1854.007, 8797.262
1855.935, 8789.221
1857.864, 8783.163
1859.792, 8762.592
1861.721, 8734.619
1863.649, 8717.817
1865.578, 8712.215
1867.506, 8700.417
1869.434, 8678.844
1871.363, 8661.821
1873.291, 8656.412
1875.220, 8652.564
1877.148, 8647.183
1879.077, 8639.692
1881.005, 8624.182
1882.934, 8605.221
1884.862, 8602.365
1886.791, 8616.945
1888.719, 8618.687
1890.648, 8595.525
1892.576, 8577.635
1894.505, 8586.184
1896.433, 8591.822
1898.361, 8571.660
1900.290, 8543.420
1902.218, 8535.917
1904.147, 8546.342
1906.075, 8540.096
1908.004, 8506.062
1909.932, 8489.771
1911.861, 8510.705
1913.789, 8523.609
1915.718, 8511.688
1917.646, 8490.885
1919.575, 8468.436
1921.503, 8446.419
1923.432, 8430.986
1925.360, 8422.784
1927.288, 8407.060
1929.217, 8381.138
1931.145, 8358.556
1933.074, 8343.430
1935.002, 8330.159
1936.931, 8315.004
1938.859, 8304.643
1940.788, 8306.959
1942.716, 8314.790
1944.645, 8315.122
1946.573, 8307.517
1948.502, 8294.565
1950.430, 8272.506
1952.359, 8261.158
1954.287, 8266.186
1956.216, 8275.865
1958.144, 8298.124
1960.073, 8310.844
1962.001, 8293.700
1963.929, 8262.877
1965.858, 8240.087
1967.786, 8224.912
1969.715, 8211.083
1971.643, 8196.809
1973.572, 8190.462
1975.500, 8200.676
1977.429, 8202.811
1979.357, 8188.929
1981.286, 8166.897
1983.214, 8133.657
1985.143, 8101.232
1987.071, 8089.651
1989.000, 8093.312
1990.928, 8082.443
1992.856, 8050.573
1994.785, 8032.568
1996.713, 8033.383
1998.642, 8037.225
2000.570, 8048.145
2002.499, 8052.382
2004.427, 8040.038
2006.356, 8024.143
2008.284, 8016.659
2010.213, 8012.147
2012.141, 7995.081
2014.070, 7968.491
2015.998, 7962.822
2017.927, 7984.066
2019.855, 7990.866
2021.783, 7967.788
2023.712, 7948.781
2025.640, 7953.445
2027.569, 7955.139
2029.497, 7937.655
2031.426, 7910.464
2033.354, 7879.837
2035.283, 7849.260
2037.211, 7831.647
2039.140, 7829.029
2041.068, 7828.003
2042.997, 7832.311
2044.925, 7832.143
2046.854, 7822.073
2048.782, 7813.899
2050.710, 7811.630
2052.639, 7808.969
2054.567, 7802.139
2056.496, 7791.448
2058.424, 7774.505
2060.353, 7754.716
2062.281, 7747.109
2064.210, 7751.693
2066.138, 7739.109
2068.067, 7700.833
2069.995, 7674.245
2071.924, 7675.857
2073.852, 7675.917
2075.781, 7662.659
2077.709, 7647.470
2079.637, 7637.983
2081.566, 7630.292
2083.494, 7617.101
2085.423, 7600.977
2087.351, 7592.217
2089.280, 7590.813
2091.208, 7590.813
2093.137, 7596.367
2095.065, 7585.968
2096.994, 7548.487
2098.922, 7513.646
2100.851, 7494.000
2102.779, 7475.200
2104.708, 7445.992
2106.636, 7418.983
2108.564, 7408.247
2110.493, 7407.749
2112.421, 7407.161
2114.350, 7406.046
2116.278, 7398.625
2118.207, 7381.818
2120.135, 7371.388
2122.064, 7371.712
2123.992, 7371.065
2125.921, 7366.572
2127.849, 7360.640
2129.778, 7352.392
2131.706, 7342.864
2133.635, 7336.410
2135.563, 7326.298
2137.491, 7298.406
2139.420, 7262.250
2141.348, 7247.863
2143.277, 7253.764
2145.205, 7253.320
2147.134, 7244.888
2149.062, 7232.164
2150.991, 7213.944
2152.919, 7193.407
2154.848, 7164.864
2156.776, 7141.419
2158.705, 7128.042
2160.633, 7121.569
2162.562, 7127.419
2164.490, 7134.075
2166.418, 7123.255
2168.347, 7101.119
2170.275, 7087.571
2172.204, 7082.013
2174.132, 7071.992
2176.061, 7056.187
2177.989, 7043.315
2179.918, 7034.402
2181.846, 7028.157
2183.775, 7030.152
2185.703, 7023.944
2187.632, 6993.322
2189.560, 6964.220
2191.489, 6957.515
2193.417, 6956.419
2195.345, 6940.817
2197.274, 6919.353
2199.202, 6912.206
2201.131, 6917.280
2203.059, 6912.298
2204.988, 6896.370
2206.916, 6881.878
2208.845, 6868.441
2210.773, 6857.245
2212.702, 6849.268
2214.630, 6838.725
2216.559, 6821.879
2218.487, 6806.075
2220.416, 6800.000
2222.344, 6792.249
2224.272, 6770.665
2226.201, 6747.621
2228.129, 6740.405
2230.058, 6741.322
2231.986, 6730.752
2233.915, 6709.823
2235.843, 6697.017
2237.772, 6692.097
2239.700, 6685.609
2241.629, 6676.699
2243.557, 6668.815
2245.486, 6665.849
2247.414, 6655.220
2249.343, 6624.176
2251.271, 6598.096
2253.199, 6592.927
2255.128, 6586.428
2257.056, 6560.986
2258.985, 6532.214
2260.913, 6515.385
2262.842, 6506.212
2264.770, 6499.660
2266.699, 6494.637
2268.627, 6487.425
2270.556, 6477.720
2272.484, 6459.754
2274.413, 6431.879
2276.341, 6416.239
2278.270, 6420.033
2280.198, 6418.932
2282.126, 6407.915
2284.055, 6393.850
2285.983, 6373.767
2287.912, 6356.645
2289.840, 6347.925
2291.769, 6340.475
2293.697, 6332.907
2295.626, 6322.349
2297.554, 6307.607
2299.483, 6287.570
2301.411, 6253.759
2303.340, 6215.846
2305.268, 6201.569
2307.197, 6208.378
2309.125, 6208.618
2311.053, 6201.196
2312.982, 6193.907
2314.910, 6186.805
2316.839, 6177.575
2318.767, 6164.847
2320.696, 6151.505
2322.624, 6136.681
2324.553, 6123.779
2326.481, 6112.556
2328.410, 6105.824
2330.338, 6111.084
2332.267, 6113.821
2334.195, 6105.690
2336.124, 6089.386
2338.052, 6062.886
2339.980, 6033.468
2341.909, 6012.300
2343.837, 5996.981
2345.766, 5981.882
2347.694, 5967.062
2349.623, 5952.331
2351.551, 5937.610
2353.480, 5918.496
2355.408, 5892.633
2357.337, 5876.334
2359.265, 5880.173
2361.194, 5872.839
2363.122, 5839.995
2365.051, 5820.642
2366.979, 5832.331
2368.907, 5834.152
2370.836, 5804.497
2372.764, 5780.477
2374.693, 5783.858
2376.621, 5792.921
2378.550, 5800.046
2380.478, 5798.786
2382.407, 5776.841
2384.335, 5748.128
2386.264, 5731.112
2388.192, 5721.521
2390.121, 5712.637
2392.049, 5703.797
2393.978, 5688.540
2395.906, 5669.021
2397.834, 5656.860
2399.763, 5651.563
2401.691, 5643.759
2403.620, 5631.762
2405.548, 5618.913
2407.477, 5606.282
2409.405, 5591.462
2411.334, 5575.986
2413.262, 5557.003
2415.191, 5528.760
2417.119, 5513.479
2419.048, 5526.817
2420.976, 5535.181
2422.905, 5521.799
2424.833, 5501.403
2426.761, 5474.576
2428.690, 5449.978
2430.618, 5432.038
2432.547, 5420.795
2434.475, 5425.525
2436.404, 5430.340
2438.332, 5412.483
2440.261, 5385.349
2442.189, 5368.927
2444.118, 5359.558
2446.046, 5348.183
2447.975, 5335.365
2449.903, 5324.729
2451.832, 5315.657
2453.760, 5306.784
2455.688, 5297.870
2457.617, 5287.495
2459.545, 5275.819
2461.474, 5262.254
2463.402, 5246.485
2465.331, 5233.740
2467.259, 5225.980
2469.188, 5218.340
2471.116, 5210.542
2473.045, 5201.671
2474.973, 5191.904
2476.902, 5178.913
2478.830, 5159.839
2480.759, 5141.779
2482.687, 5128.221
2484.615, 5115.281
2486.544, 5100.589
2488.472, 5087.582
2490.401, 5078.883
2492.329, 5072.435
2494.258, 5067.587
2496.186, 5063.076
2498.115, 5060.458
2500.043, 5054.376
2501.972, 5036.436
2503.900, 5014.028
2505.829, 4995.128
2507.757, 4980.022
2509.686, 4971.251
2511.614, 4966.452
2513.542, 4962.193
2515.471, 4956.083
2517.399, 4931.861
2519.328, 4896.386
2521.256, 4882.396
2523.185, 4887.793
2525.113, 4889.819
2527.042, 4887.696
2528.970, 4881.580
2530.899, 4871.476
2532.827, 4855.308
2534.756, 4831.563
2536.684, 4812.935
2538.613, 4800.724
2540.541, 4790.397
2542.469, 4781.224
2544.398, 4776.152
2546.326, 4783.852
2548.255, 4780.593
2550.183, 4757.883
2552.112, 4737.402
2554.040, 4718.331
2555.969, 4709.848
2557.897, 4719.917
2559.826, 4725.197
2561.754, 4716.131
2563.683, 4702.804
2565.611, 4683.919
2567.540, 4668.459
2569.468, 4664.921
2571.396, 4659.041
2573.325, 4643.583
2575.253, 4627.415
2577.182, 4614.712
2579.110, 4603.608
2581.039, 4591.174
2582.967, 4582.094
2584.896, 4584.493
2586.824, 4585.934
2588.753, 4572.923
2590.681, 4557.802
2592.610, 4551.308
2594.538, 4547.497
2596.467, 4542.554
2598.395, 4535.049
2600.323, 4521.594
2602.252, 4506.458
2604.180, 4495.652
2606.109, 4487.196
2608.037, 4479.590
2609.966, 4471.215
2611.894, 4457.594
2613.823, 4442.430
2615.751, 4431.534
2617.680, 4424.387
2619.608, 4423.233
2621.537, 4423.557
2623.465, 4410.795
2625.394, 4390.037
2627.322, 4374.983
2629.250, 4364.813
2631.179, 4357.774
2633.107, 4352.741
2635.036, 4345.733
2636.964, 4336.710
2638.893, 4325.379
2640.821, 4312.022
2642.750, 4295.197
2644.678, 4277.112
2646.607, 4271.151
2648.535, 4275.974
2650.464, 4273.783
2652.392, 4264.788
2654.321, 4251.911
2656.249, 4235.509
2658.177, 4224.212
2660.106, 4217.490
2662.034, 4208.159
2663.963, 4195.660
2665.891, 4191.622
2667.820, 4196.976
2669.748, 4192.061
2671.677, 4176.408
2673.605, 4163.739
2675.534, 4154.601
2677.462, 4146.838
2679.391, 4140.919
2681.319, 4133.613
2683.248, 4125.173
2685.176, 4114.511
2687.104, 4100.706
2689.033, 4099.247
2690.961, 4110.346
2692.890, 4105.718
2694.818, 4081.247
2696.747, 4062.926
2698.675, 4051.270
2700.604, 4049.296
2702.532, 4059.228
2704.461, 4052.835
2706.389, 4028.900
2708.318, 4017.654
2710.246, 4023.644
2712.175, 4016.370
2714.103, 3990.824
2716.031, 3976.257
2717.960, 3973.861
2719.888, 3964.635
2721.817, 3947.613
2723.745, 3943.842
2725.674, 3957.229
2727.602, 3954.109
2729.531, 3930.636
2731.459, 3911.788
2733.388, 3897.675
2735.316, 3894.397
2737.245, 3901.932
2739.173, 3894.944
2741.102, 3870.007
2743.030, 3857.798
2744.958, 3858.769
2746.887, 3866.886
2748.815, 3881.075
2750.744, 3881.897
2752.672, 3869.328
2754.601, 3858.950
2756.529, 3851.606
2758.458, 3849.607
2760.386, 3853.250
2762.315, 3839.840
2764.243, 3812.596
2766.172, 3797.056
2768.100, 3792.715
2770.029, 3793.133
2771.957, 3796.383
2773.885, 3785.771
2775.814, 3764.025
2777.742, 3748.702
2779.671, 3739.179
2781.599, 3731.782
2783.528, 3726.646
2785.456, 3727.490
2787.385, 3730.620
2789.313, 3723.565
2791.242, 3708.410
2793.170, 3685.572
2795.099, 3664.575
2797.027, 3676.489
2798.956, 3700.147
2800.884, 3683.449
2802.813, 3647.972
2804.741, 3636.746
2806.669, 3636.432
2808.598, 3624.389
2810.526, 3609.548
2812.455, 3605.956
2814.383, 3606.119
2816.312, 3600.001
2818.240, 3591.887
2820.169, 3585.356
2822.097, 3580.813
2824.026, 3581.525
2825.954, 3580.349
2827.883, 3568.248
2829.811, 3554.175
2831.740, 3546.620
2833.668, 3538.907
2835.596, 3525.631
2837.525, 3513.259
2839.453, 3504.663
2841.382, 3500.481
2843.310, 3506.273
2845.239, 3508.154
2847.167, 3496.609
2849.096, 3487.250
2851.024, 3491.057
2852.953, 3490.068
2854.881, 3473.175
2856.810, 3459.809
2858.738, 3455.884
2860.667, 3452.130
2862.595, 3449.045
2864.523, 3440.074
2866.452, 3415.859
2868.380, 3401.967
2870.309, 3401.453
2872.237, 3403.298
2874.166, 3406.593
2876.094, 3406.125
2878.023, 3400.707
2879.951, 3391.927
2881.880, 3378.561
2883.808, 3376.907
2885.737, 3386.297
2887.665, 3375.674
2889.594, 3346.184
2891.522, 3334.237
2893.450, 3337.807
2895.379, 3340.926
2897.307, 3343.332
2899.236, 3346.374
2901.164, 3347.232
2903.093, 3337.331
2905.021, 3321.840
2906.950, 3310.375
2908.878, 3302.309
2910.807, 3298.631
2912.735, 3295.999
2914.664, 3292.027
2916.592, 3285.579
2918.521, 3273.230
2920.449, 3260.610
2922.377, 3252.313
2924.306, 3244.755
2926.234, 3233.972
2928.163, 3225.973
2930.091, 3227.868
2932.020, 3226.399
2933.948, 3216.710
2935.877, 3204.667
2937.805, 3189.643
2939.734, 3178.955
2941.662, 3178.763
2943.591, 3174.494
2945.519, 3163.301
2947.448, 3157.746
2949.376, 3159.921
2951.304, 3159.807
2953.233, 3156.388
2955.161, 3149.191
2957.090, 3138.091
2959.018, 3132.267
2960.947, 3130.479
2962.875, 3125.815
2964.804, 3118.505
2966.732, 3111.768
2968.661, 3102.916
2970.589, 3080.177
2972.518, 3055.392
2974.446, 3047.501
2976.375, 3047.066
2978.303, 3045.089
2980.231, 3042.261
2982.160, 3041.394
2984.088, 3036.609
2986.017, 3018.075
2987.945, 3003.052
2989.874, 3003.585
2991.802, 3002.365
2993.731, 2991.402
2995.659, 2986.639
2997.588, 2999.251
2999.516, 2999.346
3001.445, 2974.000
3003.373, 2956.189
3005.302, 2947.142
3007.230, 2946.777
3009.158, 2955.108
3011.087, 2953.299
3013.015, 2941.431
3014.944, 2931.688
3016.872, 2923.919
3018.801, 2919.354
3020.729, 2915.689
3022.658, 2905.595
3024.586, 2895.130
3026.515, 2894.961
3028.443, 2898.593
3030.372, 2904.361
3032.300, 2904.537
3034.229, 2887.788
3036.157, 2872.144
3038.085, 2867.875
3040.014, 2864.031
3041.942, 2856.970
3043.871, 2849.240
3045.799, 2841.113
3047.728, 2833.072
3049.656, 2825.219
3051.585, 2819.868
3053.513, 2817.787
3055.442, 2813.244
3057.370, 2806.175
3059.299, 2805.616
3061.227, 2808.800
3063.156, 2805.090
3065.084, 2796.260
3067.012, 2785.977
3068.941, 2774.304
3070.869, 2758.009
3072.798, 2745.285
3074.726, 2748.205
3076.655, 2750.011
3078.583, 2733.410
3080.512, 2723.494
3082.440, 2733.219
3084.369, 2738.761
3086.297, 2731.739
3088.226, 2723.900
3090.154, 2716.080
3092.083, 2712.387
3094.011, 2713.161
3095.939, 2707.333
3097.868, 2694.704
3099.796, 2679.352
3101.725, 2664.355
3103.653, 2666.786
3105.582, 2675.238
3107.510, 2669.912
3109.439, 2659.619
3111.367, 2655.260
3113.296, 2650.083
3115.224, 2638.132
3117.153, 2626.606
3119.081, 2617.938
3121.010, 2612.074
3122.938, 2608.373
3124.866, 2608.997
3126.795, 2615.617
3128.723, 2615.323
3130.652, 2605.916
3132.580, 2598.208
3134.509, 2592.047
3136.437, 2584.707
3138.366, 2576.863
3140.294, 2568.924
3142.223, 2562.836
3144.151, 2563.222
3146.080, 2565.310
3148.008, 2566.292
3149.937, 2564.963
3151.865, 2559.078
3153.793, 2553.149
3155.722, 2548.705
3157.650, 2543.377
3159.579, 2535.461
3161.507, 2531.835
3163.436, 2533.916
3165.364, 2528.823
3167.293, 2517.653
3169.221, 2509.448
3171.150, 2504.089
3173.078, 2502.921
3175.007, 2502.075
3176.935, 2494.530
3178.864, 2486.347
3180.792, 2480.046
3182.720, 2479.996
3184.649, 2496.534
3186.577, 2499.438
3188.506, 2470.358
3190.434, 2454.101
3192.363, 2460.042
3194.291, 2465.034
3196.220, 2467.978
3198.148, 2461.802
3200.077, 2449.094
3202.005, 2437.312
3203.934, 2429.965
3205.862, 2438.172
3207.791, 2449.190
3209.719, 2452.673
3211.647, 2451.365
3213.576, 2445.348
3215.504, 2438.583
3217.433, 2432.859
3219.361, 2425.094
3221.290, 2412.710
3223.218, 2407.750
3225.147, 2409.889
3227.075, 2410.335
3229.004, 2408.731
3230.932, 2405.005
3232.861, 2400.283
3234.789, 2399.094
3236.718, 2395.229
3238.646, 2380.094
3240.574, 2365.241
3242.503, 2353.430
3244.431, 2351.142
3246.360, 2364.018
3248.288, 2375.340
3250.217, 2384.658
3252.145, 2380.307
3254.074, 2364.754
3256.002, 2358.508
3257.931, 2357.182
3259.859, 2346.580
3261.788, 2335.769
3263.716, 2337.715
3265.645, 2340.175
3267.573, 2333.293
3269.501, 2327.596
3271.430, 2326.046
3273.358, 2325.588
3275.287, 2326.021
3277.215, 2326.765
3279.144, 2327.630
3281.072, 2319.128
3283.001, 2306.188
3284.929, 2301.414
3286.858, 2302.118
3288.786, 2307.279
3290.715, 2311.916
3292.643, 2311.369
3294.572, 2311.617
3296.500, 2316.834
3298.428, 2316.090
3300.357, 2306.935
3302.285, 2307.040
3304.214, 2316.400
3306.142, 2312.446
3308.071, 2300.252
3309.999, 2290.942
3311.928, 2284.273
3313.856, 2281.644
3315.785, 2279.456
3317.713, 2277.290
3319.642, 2272.472
3321.570, 2259.563
3323.499, 2257.285
3325.427, 2267.102
3327.355, 2266.048
3329.284, 2256.032
3331.212, 2258.041
3333.141, 2262.583
3335.069, 2245.490
3336.998, 2229.142
3338.926, 2237.138
3340.855, 2243.306
3342.783, 2239.002
3344.712, 2226.184
3346.640, 2200.276
3348.569, 2194.380
3350.497, 2208.232
3352.426, 2208.928
3354.354, 2199.716
3356.282, 2183.927
3358.211, 2169.438
3360.139, 2165.092
3362.068, 2164.713
3363.996, 2168.459
3365.925, 2167.176
3367.853, 2157.724
3369.782, 2150.554
3371.710, 2146.746
3373.639, 2144.816
3375.567, 2143.370
3377.496, 2135.526
3379.424, 2126.436
3381.353, 2120.850
3383.281, 2117.105
3385.209, 2113.741
3387.138, 2112.457
3389.066, 2114.359
3390.995, 2116.051
3392.923, 2117.632
3394.852, 2117.748
3396.780, 2115.427
3398.709, 2103.887
3400.637, 2093.464
3402.566, 2101.926
3404.494, 2107.795
3406.423, 2096.143
3408.351, 2088.541
3410.280, 2089.325
3412.208, 2090.634
3414.136, 2091.537
3416.065, 2086.103
3417.993, 2078.461
3419.922, 2080.412
3421.850, 2084.137
3423.779, 2083.132
3425.707, 2080.530
3427.636, 2076.624
3429.564, 2075.344
3431.493, 2078.271
3433.421, 2077.948
3435.350, 2074.569
3437.278, 2069.352
3439.207, 2063.709
3441.135, 2059.095
3443.063, 2056.103
3444.992, 2054.524
3446.920, 2055.731
3448.849, 2063.698
3450.777, 2062.891
3452.706, 2053.844
3454.634, 2061.836
3456.563, 2078.877
3458.491, 2086.963
3460.420, 2086.564
3462.348, 2071.690
3464.277, 2062.538
3466.205, 2074.799
3468.134, 2079.593
3470.062, 2074.023
3471.990, 2073.841
3473.919, 2078.197
3475.847, 2081.459
3477.776, 2083.504
3479.704, 2085.561
3481.633, 2084.198
3483.561, 2073.042
3485.490, 2070.486
3487.418, 2082.509
3489.347, 2085.078
3491.275, 2078.804
3493.204, 2076.898
3495.132, 2078.113
3497.061, 2081.691
3498.989, 2084.784
3500.917, 2085.187
3502.846, 2085.046
3504.774, 2084.178
3506.703, 2085.679
3508.631, 2089.240
3510.560, 2092.033
3512.488, 2092.400
3514.417, 2085.358
3516.345, 2076.740
3518.274, 2067.212
3520.202, 2065.405
3522.131, 2079.059
3524.059, 2076.850
3525.988, 2060.115
3527.916, 2053.657
3529.844, 2053.497
3531.773, 2055.772
3533.701, 2053.282
3535.630, 2036.472
3537.558, 2023.876
3539.487, 2020.249
3541.415, 2014.891
3543.344, 2006.529
3545.272, 1986.455
3547.201, 1963.809
3549.129, 1952.112
3551.058, 1945.998
3552.986, 1948.066
3554.915, 1940.142
3556.843, 1917.487
3558.771, 1900.994
3560.700, 1890.056
3562.628, 1874.495
3564.557, 1854.928
3566.485, 1826.033
3568.414, 1805.463
3570.342, 1805.887
3572.271, 1794.935
3574.199, 1762.799
3576.128, 1744.528
3578.056, 1735.517
3579.985, 1722.657
3581.913, 1707.950
3583.842, 1693.861
3585.770, 1677.821
3587.698, 1657.745
3589.627, 1640.354
3591.555, 1626.060
3593.484, 1613.995
3595.412, 1603.929
3597.341, 1597.358
3599.269, 1589.456
3601.198, 1575.765
3603.126, 1564.792
3605.055, 1560.199
3606.983, 1549.981
3608.912, 1536.616
3610.840, 1533.600
3612.769, 1531.065
3614.697, 1512.261
3616.625, 1498.305
3618.554, 1503.533
3620.482, 1502.571
3622.411, 1494.407
3624.339, 1488.403
3626.268, 1482.397
3628.196, 1467.826
3630.125, 1455.931
3632.053, 1457.529
3633.982, 1456.102
3635.910, 1449.157
3637.839, 1434.790
3639.767, 1416.953
3641.696, 1412.147
3643.624, 1411.487
3645.552, 1406.381
3647.481, 1402.074
3649.409, 1400.855
3651.338, 1398.644
3653.266, 1395.013
3655.195, 1389.758
3657.123, 1383.141
3659.052, 1374.574
3660.980, 1366.701
3662.909, 1357.908
3664.837, 1361.092
3666.766, 1376.189
3668.694, 1369.676
3670.623, 1351.334
3672.551, 1341.764
3674.479, 1336.577
3676.408, 1335.703
3678.336, 1332.722
3680.265, 1326.666
3682.193, 1319.832
3684.122, 1313.870
3686.050, 1315.455
3687.979, 1317.809
3689.907, 1316.220
3691.836, 1312.650
3693.764, 1307.743
3695.693, 1298.344
3697.621, 1287.305
3699.550, 1288.587
3701.478, 1292.384
3703.406, 1289.895
3705.335, 1285.586
3707.263, 1280.271
3709.192, 1276.505
3711.120, 1273.849
3713.049, 1268.932
3714.977, 1263.686
3716.906, 1259.203
3718.834, 1257.365
3720.763, 1259.008
3722.691, 1261.167
3724.620, 1262.419
3726.548, 1253.429
3728.477, 1243.427
3730.405, 1243.373
3732.333, 1243.185
3734.262, 1239.863
3736.190, 1235.378
3738.119, 1230.839
3740.047, 1233.064
3741.976, 1235.745
3743.904, 1233.198
3745.833, 1226.373
3747.761, 1214.395
3749.690, 1210.527
3751.618, 1212.638
3753.547, 1201.661
3755.475, 1192.438
3757.404, 1205.382
3759.332, 1210.307
3761.260, 1198.995
3763.189, 1189.733
3765.117, 1184.107
3767.046, 1185.132
3768.974, 1187.314
3770.903, 1186.131
3772.831, 1184.121
3774.760, 1181.732
3776.688, 1180.655
3778.617, 1180.316
3780.545, 1179.369
3782.474, 1177.439
3784.402, 1173.530
3786.331, 1170.912
3788.259, 1170.027
3790.188, 1160.826
3792.116, 1149.873
3794.044, 1154.606
3795.973, 1159.068
3797.901, 1153.181
3799.830, 1147.291
3801.758, 1142.393
3803.687, 1139.882
3805.615, 1138.777
3807.544, 1139.084
3809.472, 1137.608
3811.401, 1129.414
3813.329, 1132.335
3815.258, 1142.056
3817.186, 1134.583
3819.115, 1120.468
3821.043, 1105.843
3822.971, 1100.805
3824.900, 1112.402
3826.828, 1117.981
3828.757, 1118.934
3830.685, 1120.230
3832.614, 1118.413
3834.542, 1110.571
3836.471, 1103.093
3838.399, 1097.052
3840.328, 1086.886
3842.256, 1079.879
3844.185, 1092.815
3846.113, 1101.137
3848.042, 1094.848
3849.970, 1092.636
3851.898, 1094.396
3853.827, 1091.053
3855.755, 1085.522
3857.684, 1079.710
3859.612, 1073.218
3861.541, 1065.944
3863.469, 1062.262
3865.398, 1062.542
3867.326, 1071.273
3869.255, 1075.430
3871.183, 1065.839
3873.112, 1064.994
3875.040, 1071.812
3876.969, 1059.838
3878.897, 1045.598
3880.825, 1045.787
3882.754, 1052.496
3884.682, 1062.778
3886.611, 1063.961
3888.539, 1059.379
3890.468, 1050.812
3892.396, 1045.771
3894.325, 1052.342
3896.253, 1049.967
3898.182, 1040.376
3900.110, 1034.525
3902.039, 1031.277
3903.967, 1033.273
3905.896, 1032.863
3907.824, 1027.657
3909.752, 1022.726
3911.681, 1018.702
3913.609, 1024.015
3915.538, 1027.559
3917.466, 1020.986
3919.395, 1018.975
3921.323, 1020.854
3923.252, 1009.908
3925.180, 1000.715
3927.109, 1010.947
3929.037, 1014.471
3930.966, 1005.987
3932.894, 1003.445
3934.823, 1003.383
3936.751, 999.8026
3938.679, 996.1449
3940.608, 996.0736
3942.536, 996.1226
3944.465, 992.3218
3946.393, 985.6813
3948.322, 982.8741
3950.250, 986.0295
3952.179, 983.2469
3954.107, 978.7438
3956.036, 978.9578
3957.964, 979.2743
3959.893, 978.4083
3961.821, 972.5931
3963.750, 966.5355
3965.678, 968.4544
3967.606, 969.3944
3969.535, 968.3670
3971.463, 967.2505
3973.392, 962.6091
3975.320, 961.5414
3977.249, 959.2772
3979.177, 950.4384
3981.106, 949.6642
3983.034, 952.9772
3984.963, 949.1207
3986.891, 944.9215
3988.820, 946.0044
3990.748, 943.0784
3992.677, 938.2769
3994.605, 943.4406
3996.533, 947.8472
3998.462, 940.9897
4000.390, 934.4150
4002.319, 934.7141
4004.247, 932.8131
4006.176, 932.0790
4008.104, 927.3527
4010.033, 922.4816
4011.961, 924.1056
4013.890, 923.5530
4015.818, 919.5192
4017.747, 912.5195
4019.675, 910.1039
4021.604, 910.2660
4023.532, 910.0423
4025.460, 913.7961
4027.389, 916.3966
4029.317, 914.3198
4031.246, 908.5032
4033.174, 905.6329
4035.103, 903.4022
4037.031, 901.1417
4038.960, 900.8806
4040.888, 898.4662
4042.817, 894.7826
4044.745, 893.0767
4046.674, 889.4561
4048.602, 885.3854
4050.531, 884.2523
4052.459, 885.6056
4054.387, 886.8102
4056.316, 885.9254
4058.244, 885.0200
4060.173, 885.7832
4062.101, 881.5500
4064.030, 871.9632
4065.958, 871.8532
4067.887, 875.7286
4069.815, 874.9497
4071.744, 874.7524
4073.672, 876.2093
4075.601, 868.4003
4077.529, 858.8464
4079.458, 859.5648
4081.386, 860.6570
4083.314, 859.4489
4085.243, 860.7986
4087.171, 861.5469
4089.100, 855.9954
4091.028, 851.4647
4092.957, 850.9189
4094.885, 852.1587
4096.814, 851.8602
4098.742, 845.4751
4100.671, 841.7189
4102.599, 842.9841
4104.528, 839.7026
4106.456, 834.5583
4108.385, 836.0093
4110.313, 836.1808
4112.242, 830.6865
4114.170, 829.1511
4116.099, 829.6481
4118.027, 825.4899
4119.956, 821.8460
4121.884, 823.0764
4123.813, 817.7479
4125.741, 809.8156
4127.669, 809.8636
4129.598, 812.7534
4131.526, 816.9675
4133.455, 813.5029
4135.383, 806.7202
4137.312, 810.1678
4139.240, 811.4866
4141.168, 805.2459
4143.097, 801.7489
4145.025, 801.2896
4146.954, 804.6526
4148.882, 803.4319
4150.811, 793.6522
4152.739, 788.9088
4154.668, 789.3144
4156.596, 788.7504
4158.525, 789.7401
4160.453, 795.8325
4162.382, 797.0974
4164.310, 793.9755
4166.239, 788.4808
4168.167, 783.8893
4170.096, 780.4586
4172.024, 779.5704
4173.953, 780.2519
4175.881, 775.8668
4177.810, 770.3209
4179.738, 765.8369
4181.667, 768.1047
4183.595, 771.9763
4185.523, 770.5955
4187.452, 767.1646
4189.380, 761.2374
4191.309, 764.6301
4193.237, 769.5129
4195.166, 760.4833
4197.094, 754.1077
4199.022, 755.7396
4200.951, 754.6023
4202.879, 751.4028
4204.808, 751.0474
4206.736, 752.5035
4208.665, 754.1935
4210.593, 749.9540
4212.522, 743.7355
4214.450, 739.7575
4216.379, 738.1410
4218.307, 738.5775
4220.236, 734.1709
4222.164, 732.4183
4224.093, 744.1001
4226.021, 747.7324
4227.950, 741.6940
4229.878, 736.0452
4231.807, 730.9238
4233.735, 726.2167
4235.664, 725.1539
4237.592, 727.1708
4239.521, 729.3099
4241.449, 730.3590
4243.377, 729.9484
4245.306, 723.6665
4247.234, 715.0720
4249.163, 716.7511
4251.091, 718.9267
4253.020, 717.9692
4254.948, 710.6907
4256.876, 703.1407
4258.805, 710.0763
4260.733, 713.0392
4262.662, 706.5800
4264.590, 703.1132
4266.519, 701.6890
4268.447, 701.3805
4270.376, 701.5271
4272.304, 701.8676
4274.233, 695.6513
4276.161, 692.9866
4278.090, 705.6620
4280.018, 703.7571
4281.947, 689.4603
4283.875, 684.8444
4285.804, 684.7010
4287.732, 686.9348
4289.661, 693.1342
4291.589, 699.2125
4293.518, 695.7570
4295.446, 689.8086
4297.375, 683.1752
4299.303, 680.7356
4301.231, 679.4283
4303.160, 674.8370
4305.088, 674.5696
4307.017, 678.8331
4308.945, 676.8104
4310.874, 671.7236
4312.802, 664.5067
4314.730, 662.9576
4316.659, 664.9811
4318.587, 661.3245
4320.516, 662.4622
4322.444, 672.1727
4324.373, 669.0866
4326.301, 661.2957
4328.230, 661.5912
4330.158, 658.5605
4332.087, 651.3532
4334.015, 646.8197
4335.944, 646.8585
4337.872, 654.6089
4339.801, 652.3964
4341.729, 643.9719
4343.658, 642.9796
4345.586, 645.3602
4347.515, 649.6107
4349.443, 648.7028
4351.372, 646.4088
4353.300, 649.4163
4355.229, 646.7634
4357.157, 638.8469
4359.085, 637.4913
4361.014, 637.1695
4362.942, 634.3948
4364.871, 630.4359
4366.799, 627.7076
4368.728, 631.8015
4370.656, 636.4060
4372.584, 639.6984
4374.513, 636.5395
4376.441, 631.5607
4378.370, 629.5814
4380.298, 625.7794
4382.227, 621.3517
4384.155, 622.8615
4386.084, 624.1330
4388.012, 622.3549
4389.941, 625.2296
4391.869, 626.3151
4393.798, 614.0932
4395.726, 611.1440
4397.655, 618.0521
4399.583, 616.4644
4401.512, 614.6777
4403.440, 617.0798
4405.369, 610.2374
4407.297, 600.8323
4409.226, 599.7699
4411.154, 602.7287
4413.083, 607.7485
4415.011, 610.3561
4416.939, 608.0221
4418.868, 597.5998
4420.796, 594.0262
4422.725, 595.5897
4424.653, 598.9604
4426.582, 600.5593
4428.510, 599.8642
4430.438, 603.3840
4432.367, 603.7562
4434.295, 592.1807
4436.224, 593.1537
4438.152, 599.2446
4440.081, 592.1302
4442.009, 588.2344
4443.938, 590.6774
4445.866, 590.8327
4447.795, 587.4920
4449.723, 578.6884
4451.652, 580.8206
4453.580, 586.7789
4455.509, 581.5018
4457.437, 575.2704
4459.366, 570.9462
4461.294, 574.0870
4463.223, 576.4997
4465.151, 572.1202
4467.080, 569.7479
4469.008, 568.8324
4470.937, 567.0074
4472.865, 570.8553
4474.793, 579.0176
4476.722, 572.3090
4478.650, 563.6165
4480.579, 558.3133
4482.507, 559.6933
4484.436, 562.8903
4486.364, 561.9382
4488.292, 563.2042
4490.221, 565.8002
4492.149, 563.4652
4494.078, 560.2556
4496.006, 557.6777
4497.935, 556.7095
4499.863, 556.3769
4501.792, 556.0485
4503.720, 555.5741
4505.649, 553.8682
4507.577, 545.4152
4509.506, 542.8629
4511.434, 548.3968
4513.363, 548.0302
4515.291, 545.7847
4517.220, 543.6829
4519.148, 543.5936
4521.077, 544.8958
4523.005, 547.5293
4524.934, 548.2650
4526.862, 546.4219
4528.791, 539.8573
4530.719, 535.7206
4532.647, 537.0094
4534.576, 537.5749
4536.504, 538.1390
4538.433, 539.6003
4540.361, 538.8740
4542.290, 536.7485
4544.218, 534.7321
4546.146, 532.8829
4548.075, 530.7922
4550.003, 524.8694
4551.932, 522.3676
4553.860, 526.7679
4555.789, 529.7021
4557.717, 530.4435
4559.646, 527.5461
4561.574, 526.0184
4563.503, 525.6722
4565.431, 525.2305
4567.360, 525.8365
4569.288, 527.3823
4571.217, 530.3229
4573.145, 528.7947
4575.074, 520.5449
4577.002, 517.3267
4578.931, 516.5179
4580.859, 515.6235
4582.788, 515.3787
4584.716, 515.2946
4586.645, 515.0675
4588.573, 511.6701
4590.501, 505.8843
4592.430, 502.3808
4594.358, 503.1334
4596.287, 508.1628
4598.215, 508.5288
4600.144, 507.0048
4602.072, 505.5872
4604.000, 502.6701
4605.929, 501.3140
4607.857, 507.1865
4609.786, 509.6909
4611.714, 508.9714
4613.643, 509.3071
4615.571, 507.6966
4617.500, 504.0633
4619.428, 501.9810
4621.357, 501.0703
4623.285, 501.6429
4625.214, 498.1842
4627.142, 494.5457
4629.071, 494.2276
4630.999, 492.1226
4632.928, 489.8839
4634.856, 490.9190
4636.785, 491.9393
4638.713, 492.3541
4640.642, 492.4963
4642.570, 490.2741
4644.499, 485.6591
4646.427, 486.1451
4648.355, 485.4668
4650.284, 481.1076
4652.212, 481.8802
4654.141, 481.7060
4656.069, 474.3940
4657.998, 473.4417
4659.926, 475.0899
4661.854, 473.0297
4663.783, 471.3506
4665.711, 471.0310
4667.640, 474.2407
4669.568, 476.6193
4671.497, 477.1223
4673.425, 473.8510
4675.354, 472.8956
4677.282, 476.1998
4679.211, 474.5919
4681.139, 469.7557
4683.068, 462.1860
4684.996, 467.0929
4686.925, 471.7918
4688.853, 464.4084
4690.782, 461.3727
4692.710, 462.2189
4694.639, 465.4808
4696.567, 470.0542
4698.496, 473.3415
4700.424, 468.6640
4702.353, 464.8812
4704.281, 462.9534
4706.209, 461.3675
4708.138, 457.1983
4710.066, 450.2580
4711.995, 446.6361
4713.923, 447.1814
4715.852, 452.0417
4717.780, 454.9682
4719.708, 457.1093
4721.637, 459.3569
4723.565, 459.8800
4725.494, 457.3731
4727.422, 448.9183
4729.351, 449.3015
4731.279, 451.6367
4733.208, 445.5492
4735.136, 445.2396
4737.065, 447.8980
4738.993, 445.4912
4740.922, 442.6991
4742.850, 440.8450
4744.779, 442.0505
4746.707, 443.8218
4748.636, 445.0728
4750.564, 443.5251
4752.493, 441.9032
4754.421, 441.0276
4756.350, 439.9338
4758.278, 440.9559
4760.207, 444.4955
4762.135, 445.0858
4764.063, 443.3095
4765.992, 439.2956
4767.920, 441.0051
4769.849, 442.1433
4771.777, 438.2382
4773.706, 435.7752
4775.634, 436.3018
4777.563, 441.9102
4779.491, 441.0413
4781.419, 436.0550
4783.348, 429.6882
4785.276, 421.8306
4787.205, 417.6323
4789.133, 426.5952
4791.062, 426.0939
4792.990, 421.5804
4794.919, 428.4249
4796.847, 431.4414
4798.776, 430.3681
4800.704, 428.5947
4802.633, 423.9073
4804.561, 418.3362
4806.490, 417.3013
4808.418, 418.5435
4810.347, 421.5525
4812.275, 429.6046
4814.204, 427.4437
4816.132, 416.6852
4818.061, 415.9320
4819.989, 413.7376
4821.917, 408.9731
4823.846, 418.9369
4825.774, 423.4266
4827.703, 418.6201
4829.631, 414.1751
4831.560, 413.0370
4833.488, 415.4527
4835.417, 408.0645
4837.345, 404.1287
4839.273, 407.2303
4841.202, 408.3485
4843.130, 406.2520
4845.059, 400.4700
4846.987, 398.4971
4848.916, 400.1155
4850.844, 404.7708
4852.773, 407.9182
4854.701, 409.7023
4856.630, 410.3544
4858.558, 409.1275
4860.487, 405.7957
4862.415, 400.6437
4864.344, 401.8030
4866.272, 403.8315
4868.201, 403.7352
4870.129, 398.0871
4872.058, 395.2276
4873.986, 399.0190
4875.915, 400.2959
4877.843, 400.4300
4879.771, 400.5163
4881.700, 396.6542
4883.628, 394.1843
4885.557, 395.6389
4887.485, 389.6180
4889.414, 386.7802
4891.342, 393.4310
4893.271, 390.7743
4895.199, 389.7817
4897.127, 395.8396
4899.056, 395.2555
4900.984, 393.8591
4902.913, 394.5676
4904.841, 383.9175
4906.770, 377.9661
4908.698, 384.4778
4910.627, 386.4928
4912.555, 385.3880
4914.484, 382.2835
4916.412, 382.5643
4918.341, 383.9086
4920.269, 385.3174
4922.198, 389.6482
4924.126, 389.7553
4926.055, 384.2997
4927.983, 380.5916
4929.912, 381.6236
4931.840, 387.0108
4933.769, 383.1173
4935.697, 382.3471
4937.625, 385.4857
4939.554, 377.7253
4941.482, 371.6171
4943.411, 371.0765
4945.339, 380.8304
4947.268, 385.4016
4949.196, 382.0565
4951.125, 371.7867
4953.053, 364.7743
4954.981, 363.0574
4956.910, 369.4608
4958.838, 370.0208
4960.767, 366.6127
4962.695, 369.2371
4964.624, 364.6339
4966.552, 358.0342
4968.481, 361.9339
4970.409, 365.6600
4972.338, 367.1362
4974.266, 364.5715
4976.195, 364.7460
4978.123, 365.1372
4980.052, 361.6779
4981.980, 360.0995
4983.909, 360.6961
4985.837, 364.1491
4987.766, 358.8987
4989.694, 353.5546
4991.623, 354.1292
4993.551, 362.4111
4995.479, 367.6922
4997.408, 364.2296
4999.336, 359.7464
5001.265, 355.0621
5003.193, 351.2782
5005.122, 354.6265
5007.050, 356.4475
5008.979, 354.7022
5010.907, 352.8573
5012.835, 351.4776
5014.764, 351.3820
5016.692, 356.6642
5018.621, 354.0498
5020.549, 347.7765
5022.478, 350.6505
5024.406, 351.1728
5026.335, 349.9373
5028.263, 349.6317
5030.192, 346.7725
5032.120, 344.5395
5034.049, 346.8697
5035.977, 345.4825
5037.906, 344.4781
5039.834, 346.6835
5041.763, 347.8767
5043.691, 343.2159
5045.620, 332.8783
5047.548, 335.2697
5049.477, 341.0030
5051.405, 345.9808
5053.333, 347.0271
5055.262, 346.6644
5057.190, 344.6071
5059.119, 337.0291
5061.047, 332.9082
5062.976, 332.8604
5064.904, 337.7524
5066.833, 337.4562
5068.761, 335.9274
5070.689, 337.7993
5072.618, 339.4196
5074.546, 337.5716
5076.475, 330.3223
5078.403, 328.7218
5080.332, 331.5429
5082.260, 336.7823
5084.189, 330.5382
5086.117, 330.6084
5088.046, 335.8285
5089.974, 326.5593
5091.903, 325.7485
5093.831, 330.6410
5095.760, 329.6010
5097.688, 328.1824
5099.617, 327.4143
5101.545, 327.6490
5103.474, 331.8191
5105.402, 333.9697
5107.331, 329.9901
5109.259, 326.6943
5111.188, 324.6248
5113.116, 323.8770
5115.044, 324.4108
5116.973, 323.0323
5118.901, 321.1255
5120.830, 324.6848
5122.758, 325.2158
5124.687, 323.0590
5126.615, 319.5821
5128.543, 320.1293
5130.472, 319.5524
5132.400, 314.2600
5134.329, 312.4052
5136.257, 315.7028
5138.186, 323.0962
5140.114, 322.4155
5142.043, 321.4925
5143.971, 321.9854
5145.900, 324.1348
5147.828, 321.0480
5149.757, 317.3288
5151.685, 321.0501
5153.614, 318.9051
5155.542, 315.2789
5157.471, 313.1012
5159.399, 310.0580
5161.328, 310.5623
5163.256, 314.0061
5165.185, 311.1459
5167.113, 309.9381
5169.042, 311.3267
5170.970, 315.5559
5172.898, 310.4326
5174.827, 307.2374
5176.755, 316.2960
5178.684, 315.2721
5180.612, 312.8517
5182.541, 313.2559
5184.469, 311.1220
5186.397, 307.2720
5188.326, 303.7159
5190.254, 303.9634
5192.183, 310.9363
5194.111, 316.6002
5196.040, 311.6529
5197.968, 312.2423
5199.897, 310.9434
5201.825, 304.5773
5203.754, 307.1338
5205.682, 305.7384
5207.611, 301.8842
5209.539, 309.5237
5211.468, 306.6365
5213.396, 300.6866
5215.325, 303.3154
5217.253, 301.2813
5219.182, 298.9572
5221.110, 298.6384
5223.039, 301.1342
5224.967, 304.5419
5226.896, 307.2162
5228.824, 307.5395
5230.752, 300.7824
5232.681, 294.2746
5234.609, 295.2209
5236.538, 295.6738
5238.466, 295.2238
5240.395, 294.2530
5242.323, 295.3402
5244.251, 293.6048
5246.180, 291.4580
5248.108, 296.0759
5250.037, 293.7599
5251.965, 289.7087
5253.894, 288.1779
5255.822, 293.9760
5257.751, 295.9320
5259.679, 292.2506
5261.608, 285.5673
5263.536, 286.9840
5265.465, 290.4360
5267.393, 287.9044
5269.322, 283.0617
5271.250, 285.7298
5273.179, 295.2939
5275.107, 284.2191
5277.036, 283.6732
5278.964, 290.2669
5280.893, 289.5417
5282.821, 285.5941
5284.750, 284.7998
5286.678, 290.1315
5288.606, 286.9029
5290.535, 285.9479
5292.463, 287.3872
5294.392, 285.6018
5296.320, 281.7139
5298.249, 280.0392
5300.177, 284.3305
5302.105, 286.4691
5304.034, 285.9650
5305.962, 283.1823
5307.891, 278.7565
5309.819, 277.5211
5311.748, 278.8118
5313.676, 281.4720
5315.605, 277.0081
5317.533, 276.3459
5319.462, 280.5160
5321.390, 275.3222
5323.319, 274.6339
5325.247, 276.8862
5327.176, 278.2098
5329.104, 274.6348
5331.033, 273.2081
5332.961, 275.8167
5334.890, 278.7722
5336.818, 277.0142
5338.747, 273.3920
5340.675, 271.6544
5342.604, 274.5281
5344.532, 273.8450
5346.460, 270.0667
5348.389, 279.7152
5350.317, 277.9261
5352.246, 271.3754
5354.174, 270.6612
5356.103, 268.6844
5358.031, 269.6743
5359.959, 273.6755
5361.888, 276.2437
5363.816, 272.5870
5365.745, 269.0218
5367.673, 271.5634
5369.602, 270.3141
5371.530, 268.3198
5373.459, 266.3046
5375.387, 261.1548
5377.316, 264.2046
5379.244, 267.5030
5381.173, 264.7091
5383.101, 265.3809
5385.030, 265.1421
5386.958, 263.6732
5388.887, 262.6012
5390.815, 262.3665
5392.744, 262.1211
5394.672, 261.3169
5396.601, 259.3429
5398.529, 260.3587
5400.458, 262.1718
5402.386, 260.6438
5404.314, 264.6541
5406.243, 266.1111
5408.171, 263.0287
5410.100, 262.3712
5412.028, 262.5398
5413.957, 262.4509
5415.885, 261.3806
5417.813, 257.1407
5419.742, 257.4778
5421.670, 259.6693
5423.599, 252.4751
5425.527, 255.6530
5427.456, 260.0549
5429.384, 259.0239
5431.313, 252.2339
5433.241, 250.8043
5435.170, 253.7326
5437.098, 257.8134
5439.027, 254.6376
5440.955, 255.5777
5442.884, 260.8638
5444.812, 260.3877
5446.741, 257.0895
5448.669, 253.0002
5450.598, 249.6515
5452.526, 250.5805
5454.455, 252.6012
5456.383, 253.6916
5458.312, 251.8997
5460.240, 251.1761
5462.168, 250.7521
5464.097, 250.3986
5466.025, 250.4990
5467.954, 250.4686
5469.882, 250.3036
5471.811, 249.8988
5473.739, 247.1556
5475.667, 249.9379
5477.596, 251.8248
5479.524, 242.1779
5481.453, 237.1147
5483.381, 238.4516
5485.310, 243.3598
5487.238, 245.0367
5489.167, 247.5318
5491.095, 247.0737
5493.024, 242.8472
5494.952, 240.6991
5496.881, 240.2792
5498.809, 241.0262
5500.738, 242.5379
5502.666, 245.7003
5504.595, 246.0981
5506.523, 244.4633
5508.452, 243.3578
5510.380, 242.9680
5512.309, 245.1714
5514.237, 247.7552
5516.166, 244.0020
5518.094, 236.8278
5520.022, 234.0496
5521.951, 238.2419
5523.879, 241.3992
5525.808, 239.3357
5527.736, 237.7873
5529.665, 241.0595
5531.593, 234.6416
5533.521, 231.5416
5535.450, 232.1428
5537.378, 233.2815
5539.307, 229.3226
5541.235, 231.2730
5543.164, 236.0263
5545.092, 230.1748
5547.021, 226.5038
5548.949, 224.8622
5550.878, 225.4557
5552.806, 231.0879
5554.735, 229.0592
5556.663, 226.0340
5558.592, 230.8532
5560.520, 269.9420
5562.449, 254.6740
5564.377, 230.1662
5566.306, 234.2397
5568.234, 230.7088
5570.163, 229.2310
5572.091, 230.1761
5574.020, 232.0658
5575.948, 228.1569
5577.876, 226.7321
5579.805, 227.5413
5581.733, 227.7116
5583.662, 223.7817
5585.590, 220.8585
5587.519, 220.4655
5589.447, 222.5511
5591.375, 227.3718
5593.304, 229.1023
5595.232, 227.3614
5597.161, 225.5313
5599.089, 222.0683
5601.018, 221.0997
5602.946, 221.8322
5604.875, 217.5547
5606.803, 216.5215
5608.732, 217.3693
5610.660, 219.1127
5612.589, 222.0755
5614.517, 224.3335
5616.446, 222.5163
5618.374, 217.3933
5620.303, 216.9992
5622.231, 216.7543
5624.160, 217.6718
5626.088, 219.5813
5628.017, 217.2632
5629.945, 216.9257
5631.874, 216.6192
5633.802, 215.4920
5635.730, 218.3670
5637.659, 212.4795
5639.587, 207.9320
5641.516, 210.7524
5643.444, 213.5308
5645.373, 215.5503
5647.301, 216.5493
5649.229, 216.5224
5651.158, 216.8598
5653.086, 209.8174
5655.015, 205.6050
5656.943, 209.5242
5658.872, 211.3560
5660.800, 207.0222
5662.729, 205.4243
5664.657, 210.6169
5666.586, 213.2730
5668.514, 214.1206
5670.443, 211.1623
5672.371, 205.9097
5674.300, 209.5291
5676.228, 212.5613
5678.157, 212.8008
5680.085, 210.2025
5682.014, 205.3585
5683.942, 206.7887
5685.871, 206.3615
5687.799, 202.5402
5689.728, 207.8378
5691.656, 209.9518
5693.584, 207.6745
5695.513, 203.2755
5697.441, 202.3358
5699.370, 202.3305
5701.298, 204.0733
5703.227, 206.3031
5705.155, 205.7851
5707.083, 201.5845
5709.012, 198.8325
5710.940, 198.7655
5712.869, 199.9811
5714.797, 204.1034
5716.726, 201.9665
5718.654, 197.3701
5720.583, 200.3845
5722.511, 202.2409
5724.440, 199.6889
5726.368, 196.2542
5728.297, 196.6468
5730.225, 195.8490
5732.154, 195.6226
5734.082, 195.9522
5736.011, 196.2391
5737.939, 194.7489
5739.868, 193.4214
5741.796, 192.0561
5743.725, 191.6432
5745.653, 199.2779
5747.582, 200.8947
5749.510, 197.7401
5751.438, 193.1096
5753.367, 191.3300
5755.295, 195.7784
5757.224, 196.1665
5759.152, 192.1487
5761.081, 190.6221
5763.009, 190.6396
5764.938, 192.7231
5766.866, 194.1258
5768.794, 191.6720
5770.723, 189.7167
5772.651, 188.1405
5774.580, 189.6746
5776.508, 193.8122
5778.437, 183.6406
5780.365, 187.3962
5782.294, 191.5550
5784.222, 188.9972
5786.151, 189.2542
5788.079, 191.2791
5790.008, 191.3257
5791.936, 188.9780
5793.865, 186.0237
5795.793, 183.4892
5797.722, 183.8320
5799.650, 186.5182
5801.579, 190.0490
5803.507, 190.3008
5805.436, 187.7874
5807.364, 185.6948
5809.292, 185.5269
5811.221, 185.4741
5813.149, 178.6060
5815.078, 181.5953
5817.006, 188.9444
5818.935, 178.5866
5820.863, 180.3456
5822.792, 182.4948
5824.720, 181.2651
5826.648, 177.9314
5828.577, 181.6835
5830.505, 181.0913
5832.434, 180.2121
5834.362, 181.6174
5836.291, 181.0370
5838.219, 181.9337
5840.148, 180.3707
5842.076, 177.2604
5844.005, 176.6292
5845.933, 176.8266
5847.862, 175.3551
5849.790, 174.9587
5851.719, 177.4571
5853.647, 178.5156
5855.576, 176.4301
5857.504, 174.8836
5859.433, 176.1972
5861.361, 181.2824
5863.290, 173.6978
5865.218, 175.0300
5867.146, 179.5856
5869.075, 177.4342
5871.003, 175.9381
5872.932, 173.0856
5874.860, 174.4590
5876.789, 177.7183
5878.717, 172.1320
5880.646, 172.8310
5882.574, 171.9733
5884.502, 170.6872
5886.431, 171.9350
5888.359, 171.8179
5890.288, 169.2274
5892.216, 169.0581
5894.145, 171.8106
5896.073, 173.0836
5898.002, 174.0586
5899.930, 172.7327
5901.859, 169.5529
5903.787, 166.1298
5905.716, 168.1706
5907.644, 163.6044
5909.573, 164.9343
5911.501, 172.1535
5913.430, 174.7054
5915.358, 166.9310
5917.287, 163.0640
5919.215, 164.3460
5921.144, 167.9282
5923.072, 169.7975
5925.000, 167.4835
5926.929, 168.6167
5928.857, 171.3702
5930.786, 170.3972
5932.714, 167.3610
5934.643, 165.9813
5936.571, 163.9918
5938.500, 162.5392
5940.428, 166.9366
5942.356, 162.6895
5944.285, 162.5275
5946.213, 166.1485
5948.142, 169.0182
5950.070, 164.0558
5951.999, 165.9330
5953.927, 165.8887
5955.856, 163.3976
5957.784, 162.7794
5959.713, 166.1852
5961.641, 164.5394
5963.570, 159.6724
5965.498, 157.1932
5967.427, 166.8143
5969.355, 162.5430
5971.284, 159.4171
5973.212, 160.9496
5975.141, 163.7047
5977.069, 155.0159
5978.998, 157.5114
5980.926, 161.3961
5982.854, 163.1980
5984.783, 162.6910
5986.711, 155.9289
5988.640, 157.6639
5990.568, 155.9020
5992.497, 153.9411
5994.425, 161.2578
5996.354, 153.3471
5998.282, 155.4055
6000.210, 156.8617
6002.139, 155.5782
6004.067, 158.7516
6005.996, 157.7312
6007.924, 153.3748
6009.853, 150.6104
6011.781, 151.5022
6013.710, 154.3987
6015.638, 146.7320
6017.567, 153.0477
6019.495, 157.4927
6021.424, 151.8512
6023.352, 151.1396
6025.281, 156.3241
6027.209, 154.8840
6029.138, 150.6564
6031.066, 150.0452
6032.995, 155.6419
6034.923, 149.6470
6036.852, 149.9933
6038.780, 152.5803
6040.708, 151.0921
6042.637, 149.2593
6044.565, 151.1905
6046.494, 149.6371
6048.422, 147.4672
6050.351, 147.1684
6052.279, 143.0170
6054.208, 147.6853
6056.136, 150.8097
6058.064, 149.1767
6059.993, 145.5939
6061.921, 148.7765
6063.850, 149.2259
6065.778, 146.4987
6067.707, 143.9806
6069.635, 144.0251
6071.564, 145.9543
6073.492, 146.9444
6075.421, 144.4593
6077.349, 141.7304
6079.278, 141.3015
6081.206, 142.1163
6083.135, 140.6510
6085.063, 144.4071
6086.992, 146.4783
6088.920, 143.0141
6090.849, 139.6884
6092.777, 142.1176
6094.706, 142.2189
6096.634, 142.0095
6098.563, 141.6069
6100.491, 136.5389
6102.419, 143.8295
6104.348, 141.9971
6106.276, 138.1385
6108.205, 136.9597
6110.133, 136.2457
6112.062, 138.0582
6113.990, 134.4473
6115.918, 133.0835
6117.847, 135.4414
6119.775, 138.0280
6121.704, 140.0887
6123.632, 137.1700
6125.561, 134.9358
6127.489, 135.4824
6129.418, 137.3492
6131.346, 135.1535
6133.275, 134.9621
6135.203, 133.6127
6137.132, 133.6296
6139.060, 135.6311
6140.989, 134.5853
6142.917, 136.4059
6144.846, 136.2131
6146.774, 136.0953
6148.703, 135.4865
6150.631, 131.7204
6152.560, 135.8547
6154.488, 135.1798
6156.417, 132.6133
6158.345, 131.4163
6160.273, 132.7517
6162.202, 138.0129
6164.130, 129.0789
6166.059, 127.8260
6167.987, 132.3443
6169.916, 134.4325
6171.844, 130.3387
6173.772, 128.9534
6175.701, 130.5408
6177.629, 128.0648
6179.558, 125.7221
6181.486, 130.7934
6183.415, 129.2633
6185.343, 131.1686
6187.272, 132.4513
6189.200, 133.5411
6191.129, 133.8162
6193.057, 128.1809
6194.986, 128.1046
6196.914, 131.8171
6198.843, 130.7769
6200.771, 127.3980
6202.700, 129.2907
6204.628, 131.8294
6206.557, 123.0923
6208.485, 123.3781
6210.414, 127.0559
6212.342, 125.8743
6214.271, 123.7153
6216.199, 126.1888
6218.127, 126.7978
6220.056, 123.6722
6221.984, 122.5600
6223.913, 127.6021
6225.841, 127.6588
6227.770, 125.1179
6229.698, 123.6876
6231.626, 125.6187
6233.555, 126.9923
6235.483, 121.1712
6237.412, 119.6017
6239.340, 118.8236
6241.269, 120.0358
6243.197, 121.6734
6245.126, 121.1666
6247.054, 116.7118
6248.983, 121.3334
6250.911, 119.7111
6252.840, 121.6146
6254.768, 124.5076
6256.697, 121.3966
6258.625, 119.4192
6260.554, 117.7533
6262.482, 117.9329
6264.411, 119.8552
6266.339, 119.4383
6268.268, 113.4595
6270.196, 115.4337
6272.125, 116.6322
6274.053, 116.7925
6275.981, 117.8811
6277.910, 119.2192
6279.838, 118.0252
6281.767, 112.3249
6283.695, 114.2703
6285.624, 116.9604
6287.552, 116.8480
6289.480, 115.5274
6291.409, 116.0579
6293.337, 109.2813
6295.266, 116.2658
6297.194, 119.3054
6299.123, 118.0191
6301.051, 115.4263
6302.980, 111.1248
6304.908, 116.0029
6306.837, 109.6698
6308.765, 114.9662
6310.694, 118.0726
6312.622, 112.6356
6314.551, 113.7516
6316.479, 114.3256
6318.408, 117.2504
6320.336, 112.8007
6322.265, 110.3750
6324.193, 112.5408
6326.122, 110.5300
6328.050, 112.2695
6329.979, 111.1037
6331.907, 111.8370
6333.835, 114.2401
6335.764, 114.8441
6337.692, 110.7656
6339.621, 105.1054
6341.549, 108.7773
6343.478, 107.4060
6345.406, 107.5571
6347.334, 107.6720
6349.263, 103.0157
6351.191, 109.0080
6353.120, 107.7647
6355.048, 107.9013
6356.977, 110.5245
6358.905, 109.5682
6360.834, 104.4021
6362.762, 105.8850
6364.691, 106.8490
6366.619, 106.8907
6368.548, 105.9909
6370.476, 105.4182
6372.405, 105.9604
6374.333, 107.0540
6376.262, 107.1261
6378.190, 105.2142
6380.119, 101.9674
6382.047, 102.7036
6383.976, 105.5569
6385.904, 105.4680
6387.833, 104.9458
6389.761, 101.8073
6391.689, 103.3082
6393.618, 104.7850
6395.546, 105.5455
6397.475, 105.8451
6399.403, 103.4335
6401.332, 103.1943
6403.260, 103.7257
6405.188, 102.6011
6407.117, 102.8190
6409.045, 104.0582
6410.974, 104.3191
6412.902, 106.0776
6414.831, 101.0538
6416.759, 100.4200
6418.688, 101.2213
6420.616, 100.8182
6422.545, 100.4032
6424.473, 102.1050
6426.402, 100.2420
6428.330, 99.15117
6430.259, 99.25209
6432.187, 100.9146
6434.116, 101.3940
6436.044, 99.42374
6437.973, 98.36314
6439.901, 98.30415
6441.830, 98.39518
6443.758, 98.25929
6445.687, 97.98144
6447.615, 96.33627
6449.543, 94.77450
6451.472, 100.0505
6453.400, 98.68564
6455.329, 97.49435
6457.257, 95.63686
6459.186, 97.10486
6461.114, 100.0584
6463.042, 99.34614
6464.971, 97.37894
6466.899, 93.73734
6468.828, 94.79851
6470.756, 92.98356
6472.685, 94.84975
6474.613, 97.36201
6476.542, 93.16368
6478.470, 98.86848
6480.399, 96.16055
6482.327, 97.99436
6484.256, 97.01398
6486.184, 95.34931
6488.113, 93.85091
6490.041, 92.14661
6491.970, 95.77200
6493.898, 91.61916
6495.827, 94.14247
6497.755, 91.73012
6499.684, 89.55984
6501.612, 91.35176
6503.541, 94.89565
6505.469, 98.01788
6507.397, 93.25084
6509.326, 91.80767
6511.254, 94.35873
6513.183, 96.61216
6515.111, 94.37388
6517.040, 90.05319
6518.968, 91.01433
6520.896, 92.88203
6522.825, 93.67015
6524.753, 92.73492
6526.682, 93.60564
6528.610, 91.66365
6530.539, 88.69490
6532.467, 91.91146
6534.396, 95.04749
6536.324, 93.17177
6538.253, 90.23070
6540.181, 92.48787
6542.110, 93.34541
6544.038, 91.35939
6545.967, 88.58392
6547.895, 84.08677
6549.824, 91.31065
6551.752, 90.84285
6553.681, 91.04066
6555.609, 87.18709
6557.538, 87.12608
6559.466, 90.81773
6561.395, 90.11456
6563.323, 89.11575
6565.251, 86.82507
6567.180, 86.42343
6569.108, 88.97945
6571.037, 88.15177
6572.965, 87.02065
6574.894, 88.33772
6576.822, 88.61421
6578.750, 87.18884
6580.679, 86.65197
6582.607, 83.23759
6584.536, 84.23340
6586.464, 85.15575
6588.393, 84.26969
6590.321, 84.19392
6592.250, 86.38420
6594.178, 86.74855
6596.107, 83.22849
6598.035, 84.95013
6599.964, 87.06530
6601.892, 88.44978
6603.821, 87.27306
6605.749, 83.71177
6607.678, 81.84545
6609.606, 84.15589
6611.535, 79.37090
6613.463, 80.85898
6615.392, 82.80844
6617.320, 83.48302
6619.249, 82.11412
6621.177, 80.22069
6623.105, 80.60420
6625.034, 81.16388
6626.962, 84.49029
6628.891, 80.49944
6630.819, 87.63746
##END=



