##NAMES=Skutterudite
##RRUFFID=R100195
##IDEAL CHEMISTRY=CoAs_3_
##LOCALITY=Skutterud, Norway
##OWNER=RRUFF
##SOURCE=Royal Ontario Museum
##DESCRIPTION=Massive silver metallic associated with quartz
##STATUS=The identification of this mineral is confirmed by single-crystal X-ray diffraction and chemical analysis
##URL=https://www.rruff.net/odr/rruff_sample/R100195
##MEASURED CHEMISTRY=(Co_0.90_Fe_0.08_Ni_0.05_)(As_2.97_S_0.03_)
##DIFFRACTION SAMPLE DESCRIPTION=Single crystal, powder profile is calculated
##CELL PARAMETERS=a: 8.207 b: 8.207 c: 8.207 alpha: 90 beta: 90 gamma: 90 volume: 552.78 crystal system: cubic
##FILETYPE=Raman RAW
##RAMAN WAVELENGTH=780

159.1152, 153.6396
161.0437, 154.3564
162.9722, 157.0616
164.9006, 159.2011
166.8291, 159.7094
168.7576, 159.8448
170.6860, 160.9734
172.6145, 162.9110
174.5430, 164.2865
176.4714, 163.0949
178.3999, 164.1401
180.3284, 169.7233
182.2568, 175.9392
184.1853, 180.7623
186.1138, 184.0908
188.0422, 185.2799
189.9707, 183.6960
191.8992, 180.8514
193.8276, 175.3429
195.7561, 170.2019
197.6846, 166.8811
199.6130, 164.8179
201.5415, 163.6100
203.4700, 163.7461
205.3984, 162.6455
207.3269, 159.7617
209.2554, 156.7032
211.1838, 153.4851
213.1123, 150.7292
215.0408, 149.0132
216.9692, 148.2979
218.8977, 147.7888
220.8262, 147.1545
222.7546, 147.6299
224.6831, 150.2552
226.6116, 152.9462
228.5400, 154.9503
230.4685, 156.1228
232.3970, 155.8555
234.3254, 153.7464
236.2539, 152.4888
238.1824, 152.6817
240.1108, 152.5559
242.0393, 151.0932
243.9678, 149.2425
245.8962, 147.8022
247.8247, 146.6980
249.7532, 145.3663
251.6816, 143.8501
253.6101, 141.9291
255.5386, 139.2212
257.4670, 136.5556
259.3955, 134.1301
261.3240, 132.0721
263.2524, 130.8100
265.1809, 130.2704
267.1094, 129.1783
269.0378, 126.9541
270.9663, 125.6789
272.8948, 126.8156
274.8232, 128.2180
276.7517, 128.4193
278.6802, 127.9245
280.6086, 128.0066
282.5371, 128.6502
284.4656, 129.4238
286.3940, 130.5059
288.3225, 131.2530
290.2510, 131.3661
292.1794, 131.1969
294.1079, 130.9587
296.0364, 130.6942
297.9648, 130.5187
299.8933, 130.4457
301.8218, 130.4032
303.7502, 130.5838
305.6787, 130.5247
307.6072, 129.8404
309.5356, 129.0490
311.4641, 128.8124
313.3926, 128.8909
315.3210, 128.6460
317.2495, 128.0374
319.1780, 127.0829
321.1064, 125.3576
323.0349, 123.8804
324.9634, 123.2342
326.8918, 122.8115
328.8203, 121.9698
330.7488, 120.8441
332.6772, 119.9565
334.6057, 119.4982
336.5342, 118.8551
338.4626, 117.6373
340.3911, 116.7283
342.3196, 116.8419
344.2480, 117.0331
346.1765, 116.4219
348.1050, 115.1904
350.0334, 114.1951
351.9619, 113.3019
353.8904, 113.0499
355.8188, 113.9736
357.7473, 114.6608
359.6758, 114.5534
361.6042, 114.1586
363.5327, 113.8683
365.4612, 113.6096
367.3896, 113.1072
369.3181, 112.2284
371.2466, 111.6580
373.1750, 111.3932
375.1035, 111.4111
377.0320, 111.8658
378.9604, 112.3940
380.8889, 112.8727
382.8174, 113.2282
384.7458, 113.2371
386.6743, 112.8772
388.6028, 112.8701
390.5313, 113.3035
392.4597, 113.7509
394.3882, 114.4101
396.3167, 114.5661
398.2451, 113.4877
400.1736, 112.1239
402.1021, 111.6044
404.0305, 111.7167
405.9590, 111.2161
407.8875, 110.0604
409.8159, 109.2553
411.7444, 108.8822
413.6729, 109.0157
415.6013, 110.4486
417.5298, 111.5358
419.4583, 110.9919
421.3867, 109.5616
423.3152, 108.5701
425.2437, 107.9486
427.1721, 107.2092
429.1006, 106.2505
431.0291, 105.6215
432.9575, 105.6743
434.8860, 105.7741
436.8145, 105.7943
438.7429, 105.7256
440.6714, 105.6215
442.5999, 105.3989
444.5283, 104.7021
446.4568, 103.6124
448.3853, 103.2410
450.3137, 104.1158
452.2422, 104.5354
454.1707, 103.9120
456.0991, 103.1810
458.0276, 102.4384
459.9561, 101.9577
461.8845, 102.3500
463.8130, 103.0898
465.7415, 103.0520
467.6699, 102.2036
469.5984, 101.4711
471.5269, 100.8308
473.4553, 100.5342
475.3838, 100.8521
477.3123, 101.1731
479.2407, 101.0107
481.1692, 100.9720
483.0977, 101.9766
485.0261, 103.3380
486.9546, 103.5931
488.8831, 102.6319
490.8115, 101.9148
492.7400, 101.4707
494.6685, 101.3031
496.5969, 101.5779
498.5254, 101.8935
500.4539, 102.2427
502.3823, 102.4511
504.3108, 102.3781
506.2393, 102.1050
508.1677, 101.6774
510.0962, 101.1134
512.0247, 100.8107
513.9531, 100.9843
515.8816, 100.7300
517.8101, 99.81975
519.7385, 98.99660
521.6670, 98.49403
523.5955, 98.08788
525.5239, 97.61729
527.4524, 97.21484
529.3809, 97.02609
531.3093, 97.01102
533.2378, 97.01828
535.1663, 97.03917
537.0947, 97.25632
539.0232, 97.60925
540.9517, 98.48648
542.8801, 100.2010
544.8086, 101.8718
546.7371, 103.3924
548.6655, 104.4645
550.5940, 105.0237
552.5225, 104.9662
554.4509, 103.9274
556.3794, 102.1593
558.3079, 100.4784
560.2363, 98.89390
562.1648, 97.87418
564.0933, 97.54885
566.0217, 97.17626
567.9502, 96.45103
569.8787, 95.95150
571.8071, 96.15469
573.7356, 96.25872
575.6641, 95.60583
577.5925, 94.77911
579.5210, 94.49216
581.4495, 94.57238
583.3779, 94.48606
585.3064, 94.29716
587.2349, 94.64338
589.1633, 95.73685
591.0918, 96.22671
593.0203, 95.46135
594.9487, 94.87062
596.8772, 94.68615
598.8057, 94.78138
600.7341, 95.42312
602.6626, 96.00740
604.5911, 95.83372
606.5195, 95.36105
608.4480, 95.45630
610.3765, 95.84571
612.3049, 95.36221
614.2334, 93.85091
616.1619, 93.13962
618.0903, 93.94273
620.0188, 94.25089
621.9473, 93.34380
623.8757, 92.86507
625.8042, 93.72187
627.7327, 94.42428
629.6611, 93.88859
631.5896, 93.15164
633.5181, 93.17159
635.4465, 93.55173
637.3750, 93.66730
639.3035, 93.56408
641.2319, 93.55408
643.1604, 93.69637
645.0889, 93.54607
647.0173, 92.84407
648.9458, 92.53582
650.8743, 92.86064
652.8027, 93.14515
654.7312, 93.24461
656.6597, 93.21758
658.5881, 92.94555
660.5166, 92.72755
662.4451, 92.67480
664.3735, 92.85886
666.3020, 93.63490
668.2305, 94.65044
670.1589, 94.80161
672.0874, 94.15252
674.0159, 93.95581
675.9443, 94.29256
677.8728, 94.04484
679.8013, 92.93026
681.7297, 92.47810
683.6582, 93.24242
685.5867, 93.91829
687.5151, 94.13644
689.4436, 94.03972
691.3721, 93.39525
693.3005, 92.82850
695.2290, 92.92688
697.1575, 93.20272
699.0859, 92.88761
701.0144, 92.39693
702.9429, 92.92902
704.8713, 94.13808
706.7998, 94.17661
708.7283, 93.15646
710.6567, 92.59574
712.5852, 92.62316
714.5137, 92.90395
716.4421, 93.56313
718.3706, 93.90330
720.2991, 93.53066
722.2275, 93.21311
724.1560, 93.11636
726.0845, 93.14682
728.0129, 93.20747
729.9414, 93.44324
731.8699, 94.24410
733.7983, 95.03325
735.7268, 94.92751
737.6553, 94.46020
739.5837, 94.57801
741.5122, 95.09165
743.4407, 95.53694
745.3691, 95.87844
747.2976, 95.80515
749.2261, 95.20144
751.1545, 95.01767
753.0830, 95.57081
755.0115, 95.89024
756.9399, 95.76285
758.8684, 95.66395
760.7969, 95.50036
762.7253, 95.60325
764.6538, 96.32928
766.5823, 96.99308
768.5107, 97.36708
770.4392, 97.45235
772.3677, 96.98103
774.2961, 96.48698
776.2246, 96.49511
778.1531, 96.74955
780.0815, 96.96938
782.0100, 97.10722
783.9385, 96.89808
785.8669, 96.45892
787.7954, 96.54790
789.7239, 97.16903
791.6523, 98.51771
793.5808, 101.0555
795.5093, 101.7829
797.4377, 100.1203
799.3662, 99.32076
801.2947, 99.98817
803.2231, 100.3457
805.1516, 99.86728
807.0801, 99.58175
809.0085, 99.95893
810.9370, 100.2541
812.8655, 99.90152
814.7939, 99.79768
816.7224, 100.5205
818.6509, 101.4377
820.5793, 102.4746
822.5078, 103.1719
824.4363, 102.6863
826.3647, 101.9714
828.2932, 102.3456
830.2217, 103.3178
832.1501, 104.1706
834.0786, 104.8211
836.0071, 104.9101
837.9355, 104.5827
839.8640, 104.5391
841.7925, 104.7090
843.7209, 104.6447
845.6494, 104.3286
847.5779, 103.7432
849.5063, 102.8733
851.4348, 102.0652
853.3633, 101.3415
855.2917, 100.7433
857.2202, 100.1581
859.1487, 100.1210
861.0771, 101.5482
863.0056, 101.8570
864.9341, 99.66239
866.8625, 97.92696
868.7910, 97.90579
870.7195, 97.49100
872.6479, 95.27615
874.5764, 93.52933
876.5049, 93.65320
878.4333, 94.07405
880.3618, 94.14135
882.2903, 93.81835
884.2188, 92.83945
886.1472, 91.71587
888.0757, 90.81351
890.0042, 90.09299
891.9326, 89.51192
893.8611, 89.08504
895.7896, 89.09465
897.7180, 89.09390
899.6465, 88.03765
901.5750, 86.51414
903.5034, 86.07653
905.4319, 86.32114
907.3604, 85.67017
909.2888, 84.40453
911.2173, 84.34664
913.1458, 85.32186
915.0742, 84.94273
917.0027, 83.20554
918.9312, 82.52260
920.8596, 83.01050
922.7881, 83.01671
924.7166, 82.43422
926.6450, 82.13847
928.5735, 82.21668
930.5020, 81.86713
932.4304, 80.88223
934.3589, 80.88927
936.2874, 82.29435
938.2158, 82.75022
940.1443, 81.74451
942.0728, 81.16540
944.0012, 81.42502
945.9297, 81.59581
947.8582, 81.58614
949.7866, 81.01702
951.7151, 79.45061
953.6436, 78.61066
955.5720, 79.26168
957.5005, 79.71905
959.4290, 79.39741
961.3574, 79.11571
963.2859, 79.18502
965.2144, 79.17164
967.1428, 78.84964
969.0713, 78.58848
970.9998, 78.57142
972.9282, 78.51990
974.8567, 78.10327
976.7852, 78.00326
978.7136, 78.99142
980.6421, 79.58030
982.5706, 78.66230
984.4990, 77.87275
986.4275, 78.19450
988.3560, 78.55635
990.2844, 78.36594
992.2129, 78.11398
994.1414, 78.27040
996.0698, 78.18509
997.9983, 77.01865
999.9268, 76.08712
1001.855, 76.24430
1003.784, 76.88516
1005.712, 78.18051
1007.641, 79.05618
1009.569, 78.50237
1011.498, 77.59706
1013.426, 76.78979
1015.354, 76.33241
1017.283, 76.74416
1019.211, 77.16101
1021.140, 76.91116
1023.068, 76.47070
1024.997, 75.89769
1026.925, 75.65968
1028.854, 76.46365
1030.782, 77.26995
1032.711, 77.17669
1034.639, 76.93192
1036.568, 77.29243
1038.496, 77.46357
1040.425, 76.49531
1042.353, 75.58083
1044.281, 75.60018
1046.210, 75.96909
1048.138, 76.59090
1050.067, 77.02035
1051.995, 76.72790
1053.924, 76.41489
1055.852, 76.65292
1057.781, 76.90213
1059.709, 76.97878
1061.638, 76.72045
1063.566, 75.60658
1065.495, 74.69828
1067.423, 75.01669
1069.352, 75.24751
1071.280, 74.16180
1073.208, 73.40145
1075.137, 74.27414
1077.065, 75.15666
1078.994, 75.19999
1080.922, 75.01411
1082.851, 75.01136
1084.779, 74.67850
1086.708, 73.16382
1088.636, 72.22009
1090.565, 72.89915
1092.493, 73.79585
1094.422, 74.60808
1096.350, 75.17885
1098.279, 75.48294
1100.207, 75.48241
1102.135, 75.13221
1104.064, 74.52547
1105.992, 73.23140
1107.921, 72.47141
1109.849, 72.84199
1111.778, 73.18202
1113.706, 73.15315
1115.635, 73.33408
1117.563, 74.28992
1119.492, 74.50685
1121.420, 73.11816
1123.349, 72.54096
1125.277, 73.59276
1127.206, 73.92268
1129.134, 72.93567
1131.063, 72.52040
1132.991, 73.04297
1134.919, 73.17635
1136.848, 72.78284
1138.776, 72.35969
1140.705, 71.80877
1142.633, 71.89317
1144.562, 72.76466
1146.490, 72.50730
1148.419, 71.09441
1150.347, 71.23596
1152.276, 72.76015
1154.204, 72.97337
1156.133, 72.18658
1158.061, 72.46375
1159.990, 73.44410
1161.918, 73.74638
1163.846, 73.60345
1165.775, 73.79314
1167.703, 73.93276
1169.632, 72.84010
1171.560, 71.53237
1173.489, 71.72262
1175.417, 72.56226
1177.346, 73.44358
1179.274, 73.89291
1181.203, 72.96015
1183.131, 71.99201
1185.060, 72.06620
1186.988, 72.47713
1188.917, 72.95101
1190.845, 73.37907
1192.773, 73.73447
1194.702, 73.99859
1196.630, 74.39809
1198.559, 74.17027
1200.487, 72.46220
1202.416, 71.88791
1204.344, 73.60303
1206.273, 74.36205
1208.201, 73.33276
1210.130, 72.79283
1212.058, 73.07867
1213.987, 73.61157
1215.915, 74.34581
1217.844, 74.26824
1219.772, 73.45144
1221.700, 74.09042
1223.629, 75.85109
1225.557, 76.13136
1227.486, 75.29235
1229.414, 74.71091
1231.343, 74.37350
1233.271, 74.34541
1235.200, 74.35098
1237.128, 73.76889
1239.057, 73.17297
1240.985, 73.06792
1242.914, 73.48827
1244.842, 74.89220
1246.771, 76.21664
1248.699, 76.75286
1250.627, 76.97879
1252.556, 77.35891
1254.484, 77.04882
1256.413, 74.83847
1258.341, 73.89905
1260.270, 75.79335
1262.198, 76.80629
1264.127, 75.94828
1266.055, 75.88484
1267.984, 77.07441
1269.912, 77.38082
1271.841, 76.74437
1273.769, 76.77119
1275.698, 77.35693
1277.626, 77.77587
1279.554, 77.95130
1281.483, 77.37130
1283.411, 76.57664
1285.340, 76.63372
1287.268, 77.06052
1289.197, 77.44100
1291.125, 77.68607
1293.054, 77.56479
1294.982, 77.52457
1296.911, 77.73074
1298.839, 78.19150
1300.768, 79.03168
1302.696, 79.78382
1304.625, 80.39706
1306.553, 80.52885
1308.481, 80.08476
1310.410, 79.66316
1312.338, 79.34160
1314.267, 79.49102
1316.195, 80.00588
1318.124, 80.06534
1320.052, 79.80347
1321.981, 79.65538
1323.909, 79.53490
1325.838, 79.22728
1327.766, 78.93185
1329.695, 78.83286
1331.623, 78.90603
1333.552, 79.31458
1335.480, 79.59785
1337.408, 79.58479
1339.337, 79.32890
1341.265, 78.51168
1343.194, 78.20326
1345.122, 78.68423
1347.051, 78.84989
1348.979, 78.62048
1350.908, 78.66501
1352.836, 78.93932
1354.765, 79.03642
1356.693, 78.97231
1358.622, 78.71650
1360.550, 78.43993
1362.479, 78.33546
1364.407, 78.39039
1366.335, 78.77550
1368.264, 79.01231
1370.192, 78.83839
1372.121, 78.43771
1374.049, 77.61744
1375.978, 77.36693
1377.906, 78.31136
1379.835, 77.76536
1381.763, 75.30925
1383.692, 75.67391
1385.620, 78.25488
1387.549, 78.77792
1389.477, 77.98342
1391.406, 77.23988
1393.334, 76.76153
1395.262, 77.04052
1397.191, 77.37483
1399.119, 77.18042
1401.048, 77.19915
1402.976, 77.97645
1404.905, 77.94434
1406.833, 76.55601
1408.762, 75.88182
1410.690, 76.17655
1412.619, 76.35772
1414.547, 76.43373
1416.476, 76.94190
1418.404, 77.60483
1420.333, 77.84890
1422.261, 77.76113
1424.189, 77.05049
1426.118, 76.63244
1428.046, 77.68194
1429.975, 78.17812
1431.903, 77.07738
1433.832, 76.58521
1435.760, 77.15221
1437.689, 77.05412
1439.617, 76.25613
1441.546, 76.03117
1443.474, 76.19831
1445.403, 75.99663
1447.331, 75.63037
1449.260, 75.29459
1451.188, 75.09112
1453.116, 75.12011
1455.045, 75.27049
1456.973, 75.53831
1458.902, 75.82495
1460.830, 76.27263
1462.759, 76.19755
1464.687, 75.53629
1466.616, 75.37612
1468.544, 75.57528
1470.473, 75.61438
1472.401, 75.33821
1474.330, 73.97741
1476.258, 72.97434
1478.187, 73.61280
1480.115, 74.44186
1482.043, 75.11152
1483.972, 75.06945
1485.900, 73.92764
1487.829, 73.35151
1489.757, 73.37835
1491.686, 73.80554
1493.614, 74.30485
1495.543, 73.58739
1497.471, 72.72182
1499.400, 73.21311
1501.328, 73.76112
1503.257, 73.73392
1505.185, 73.47745
1507.114, 72.94030
1509.042, 73.36433
1510.970, 74.89632
1512.899, 74.62966
1514.827, 73.24625
1516.756, 73.93008
1518.684, 75.27920
1520.613, 75.30099
1522.541, 74.74226
1524.470, 73.58117
1526.398, 73.09986
1528.327, 73.83752
1530.255, 74.29647
1532.184, 74.29269
1534.112, 74.01553
1536.041, 73.55537
1537.969, 73.14828
1539.897, 72.81284
1541.826, 72.34643
1543.754, 72.30279
1545.683, 73.64947
1547.611, 74.41879
1549.540, 73.67774
1551.468, 73.57480
1553.397, 74.25998
1555.325, 73.78506
1557.254, 72.71851
1559.182, 73.43782
1561.111, 74.61872
1563.039, 74.69907
1564.968, 74.55984
1566.896, 74.70324
1568.824, 74.78255
1570.753, 74.69717
1572.681, 74.63170
1574.610, 74.56963
1576.538, 73.61642
1578.467, 72.32968
1580.395, 72.00682
1582.324, 72.14952
1584.252, 72.66688
1586.181, 72.77811
1588.109, 71.92666
1590.038, 71.66674
1591.966, 72.40948
1593.895, 71.80492
1595.823, 70.44816
1597.751, 71.03381
1599.680, 72.20035
1601.608, 72.17421
1603.537, 72.08524
1605.465, 72.53468
1607.394, 72.60709
1609.322, 72.10327
1611.251, 71.11327
1613.179, 69.85310
1615.108, 69.39330
1617.036, 69.52272
1618.965, 70.50095
1620.893, 70.94218
1622.822, 69.57224
1624.750, 68.71223
1626.678, 68.86368
1628.607, 68.45789
1630.535, 67.55491
1632.464, 67.38751
1634.392, 67.54400
1636.321, 67.33406
1638.249, 67.16042
1640.178, 67.64170
1642.106, 67.41575
1644.035, 66.10460
1645.963, 65.46507
1647.892, 65.43371
1649.820, 64.85921
1651.749, 64.39417
1653.677, 65.38065
1655.605, 66.24328
1657.534, 65.93146
1659.462, 65.40478
1661.391, 64.73124
1663.319, 64.43126
1665.248, 64.45724
1667.176, 64.77574
1669.105, 64.87886
1671.033, 63.94049
1672.962, 63.07442
1674.890, 62.89624
1676.819, 62.57156
1678.747, 61.89192
1680.676, 62.42783
1682.604, 63.59133
1684.532, 63.49231
1686.461, 63.17936
1688.389, 63.68096
1690.318, 63.70317
1692.246, 62.68691
1694.175, 61.84719
1696.103, 61.31515
1698.032, 61.55268
1699.960, 62.15917
1701.889, 62.62449
1703.817, 62.83964
1705.746, 62.70330
1707.674, 62.51800
1709.603, 62.33838
1711.531, 62.33997
1713.459, 62.23032
1715.388, 60.46217
1717.316, 59.01008
1719.245, 60.29238
1721.173, 61.44527
1723.102, 61.78917
1725.030, 62.21342
1726.959, 62.61969
1728.887, 61.89803
1730.816, 60.72927
1732.744, 59.72038
1734.673, 59.23447
1736.601, 59.53107
1738.530, 60.15226
1740.458, 60.98215
1742.386, 61.07215
1744.315, 60.65630
1746.243, 60.16986
1748.172, 59.51583
1750.100, 58.04743
1752.029, 57.90980
1753.957, 59.45711
1755.886, 59.99417
1757.814, 59.79682
1759.743, 59.60926
1761.671, 59.42145
1763.600, 59.12876
1765.528, 59.08260
1767.457, 59.61102
1769.385, 58.77747
1771.313, 57.28831
1773.242, 58.04973
1775.170, 59.05199
1777.099, 58.71827
1779.027, 58.25054
1780.956, 57.97567
1782.884, 57.42268
1784.813, 56.86078
1786.741, 57.90348
1788.670, 58.74718
1790.598, 57.60491
1792.527, 57.07244
1794.455, 57.97924
1796.384, 57.95053
1798.312, 57.19840
1800.240, 56.44719
1802.169, 56.25671
1804.097, 57.61849
1806.026, 57.99080
1807.954, 56.75562
1809.883, 56.69834
1811.811, 57.36732
1813.740, 56.97485
1815.668, 56.35926
1817.597, 56.08676
1819.525, 56.03938
1821.454, 56.20006
1823.382, 56.79459
1825.311, 57.23212
1827.239, 55.73777
1829.167, 54.27077
1831.096, 54.16402
1833.024, 54.55256
1834.953, 55.30353
1836.881, 55.59871
1838.810, 55.52016
1840.738, 55.29633
1842.667, 54.73854
1844.595, 53.19148
1846.524, 52.99868
1848.452, 53.97408
1850.381, 53.71856
1852.309, 53.06749
1854.238, 52.70835
1856.166, 52.93915
1858.094, 54.34259
1860.023, 54.86591
1861.951, 54.55516
1863.880, 52.89699
1865.808, 51.72308
1867.737, 52.84038
1869.665, 53.29239
1871.594, 52.39663
1873.522, 52.32042
1875.451, 52.56672
1877.379, 52.20882
1879.308, 51.57137
1881.236, 50.55677
1883.165, 50.73785
1885.093, 51.95510
1887.021, 52.42187
1888.950, 52.29561
1890.878, 51.47845
1892.807, 50.94035
1894.735, 50.91722
1896.664, 50.24067
1898.592, 49.55075
1900.521, 50.91191
1902.449, 51.96678
1904.378, 51.49017
1906.306, 51.58071
1908.235, 52.28967
1910.163, 52.48120
1912.092, 52.11170
1914.020, 50.60932
1915.948, 49.74923
1917.877, 49.84392
1919.805, 50.13851
1921.734, 50.29192
1923.662, 49.46948
1925.591, 48.90171
1927.519, 49.35899
1929.448, 49.15079
1931.376, 48.57776
1933.305, 49.79692
1935.233, 50.76412
1937.162, 49.15137
1939.090, 48.42965
1941.019, 48.98422
1942.947, 48.90093
1944.875, 48.32556
1946.804, 46.99087
1948.732, 46.45466
1950.661, 47.58925
1952.589, 48.10307
1954.518, 48.25215
1956.446, 48.85026
1958.375, 48.99578
1960.303, 47.99665
1962.232, 47.52877
1964.160, 47.53571
1966.089, 47.29202
1968.017, 46.80368
1969.946, 45.86390
1971.874, 45.65988
1973.802, 46.34993
1975.731, 47.62989
1977.659, 48.57688
1979.588, 48.19238
1981.516, 47.04936
1983.445, 45.29998
1985.373, 44.82840
1987.302, 45.10708
1989.230, 45.54831
1991.159, 45.62480
1993.087, 45.16462
1995.016, 46.01106
1996.944, 47.13461
1998.873, 45.78149
2000.801, 44.70055
2002.729, 44.92772
2004.658, 45.24049
2006.586, 45.41784
2008.515, 45.05960
2010.443, 44.73729
2012.372, 44.83862
2014.300, 44.53884
2016.229, 44.03318
2018.157, 44.23507
2020.086, 44.54464
2022.014, 44.66612
2023.943, 44.31263
2025.871, 43.68439
2027.800, 43.91852
2029.728, 44.26303
2031.656, 44.18604
2033.585, 43.98569
2035.513, 43.71489
2037.442, 43.41525
2039.370, 43.40817
2041.299, 44.62492
2043.227, 43.60886
2045.156, 40.60626
2047.084, 40.36217
2049.013, 41.30139
2050.941, 42.51927
2052.870, 43.34144
2054.798, 43.65757
2056.727, 43.21094
2058.655, 42.24323
2060.583, 40.67445
2062.512, 40.12286
2064.440, 40.69298
2066.369, 41.82442
2068.297, 42.36804
2070.226, 41.34571
2072.154, 40.63104
2074.083, 40.49161
2076.011, 41.01831
2077.940, 41.31066
2079.868, 40.59383
2081.797, 40.59184
2083.725, 41.17223
2085.654, 40.78480
2087.582, 40.34784
2089.510, 40.45170
2091.439, 40.46043
2093.367, 40.38974
2095.296, 40.72936
2097.224, 40.53484
2099.153, 39.06262
2101.081, 38.53981
2103.010, 38.88327
2104.938, 39.97545
2106.867, 40.33662
2108.795, 39.15099
2110.724, 38.66154
2112.652, 38.64867
2114.581, 38.59948
2116.509, 38.65800
2118.438, 38.92022
2120.366, 38.64689
2122.294, 38.16961
2124.223, 37.94713
2126.151, 37.56974
2128.080, 36.96500
2130.008, 37.05113
2131.937, 37.31971
2133.865, 37.22510
2135.794, 37.67727
2137.722, 38.57719
2139.651, 38.65938
2141.579, 37.95461
2143.508, 36.17014
2145.436, 36.25603
2147.365, 37.45606
2149.293, 36.89073
2151.221, 36.08350
2153.150, 35.56820
2155.078, 36.02953
2157.007, 36.64745
2158.935, 35.62054
2160.864, 35.18533
2162.792, 35.72543
2164.721, 35.86787
2166.649, 35.79442
2168.578, 35.51604
2170.506, 36.12773
2172.435, 37.23263
2174.363, 36.20777
2176.292, 35.41628
2178.220, 36.38328
2180.148, 35.79672
2182.077, 34.50407
2184.005, 34.68500
2185.934, 35.17990
2187.862, 35.65030
2189.791, 34.73746
2191.719, 33.72417
2193.648, 34.29723
2195.576, 34.44569
2197.505, 33.99205
2199.433, 32.89108
2201.362, 32.16139
2203.290, 32.65172
2205.219, 32.90337
2207.147, 33.18639
2209.075, 34.14661
2211.004, 35.10888
2212.932, 35.89523
2214.861, 35.21986
2216.789, 34.03830
2218.718, 32.93666
2220.646, 32.86628
2222.575, 33.35842
2224.503, 32.38794
2226.432, 31.56045
2228.360, 31.45682
2230.289, 32.60817
2232.217, 33.75180
2234.146, 33.32272
2236.074, 32.47071
2238.002, 31.51620
2239.931, 30.84666
2241.859, 30.92138
2243.788, 32.00712
2245.716, 31.19238
2247.645, 29.82150
2249.573, 30.45784
2251.502, 30.87700
2253.430, 30.84812
2255.359, 31.63230
2257.287, 31.91975
2259.216, 30.76553
2261.144, 30.36829
2263.073, 30.55616
2265.001, 31.12043
2266.929, 30.88121
2268.858, 29.89885
2270.786, 30.24890
2272.715, 30.74557
2274.643, 30.53179
2276.572, 30.45499
2278.500, 30.54659
2280.429, 31.03539
2282.357, 30.92817
2284.286, 30.17490
2286.214, 29.97470
2288.143, 29.87079
2290.071, 29.57596
2292.000, 29.40180
2293.928, 29.46079
2295.856, 30.10791
2297.785, 30.07882
2299.713, 29.32151
2301.642, 28.53205
2303.570, 28.10291
2305.499, 28.21969
2307.427, 29.04775
2309.356, 29.72515
2311.284, 29.22814
2313.213, 28.90230
2315.141, 28.88338
2317.070, 29.27212
2318.998, 28.87206
2320.927, 27.50026
2322.855, 28.03472
2324.783, 28.65248
2326.712, 27.77341
2328.640, 28.47543
2330.569, 29.57810
2332.497, 27.66987
2334.426, 27.38019
2336.354, 28.83626
2338.283, 28.49813
2340.211, 27.44582
2342.140, 26.14716
2344.068, 26.58354
2345.997, 27.50144
2347.925, 27.61121
2349.854, 27.19479
2351.782, 26.51528
2353.710, 25.82567
2355.639, 26.05891
2357.567, 27.20115
2359.496, 26.97513
2361.424, 26.57433
2363.353, 26.63483
2365.281, 27.10048
2367.210, 27.49898
2369.138, 27.31424
2371.067, 27.04909
2372.995, 26.66422
2374.924, 25.69036
2376.852, 25.15418
2378.781, 25.27246
2380.709, 25.65012
2382.637, 26.24362
2384.566, 27.05868
2386.494, 26.20857
2388.423, 25.11672
2390.351, 25.05747
2392.280, 25.47536
2394.208, 26.01848
2396.137, 26.31395
2398.065, 25.96866
2399.994, 25.20382
2401.922, 25.44965
2403.851, 25.37225
2405.779, 24.64266
2407.708, 24.27908
2409.636, 24.46048
2411.564, 25.35441
2413.493, 25.21254
2415.421, 24.58278
2417.350, 24.03241
2419.278, 23.78245
2421.207, 23.95325
2423.135, 25.14739
2425.064, 25.28317
2426.992, 24.39027
2428.921, 23.79422
2430.849, 23.82618
2432.778, 24.51092
2434.706, 23.25716
2436.635, 22.37729
2438.563, 23.71592
2440.491, 23.99509
2442.420, 23.54017
2444.348, 22.45081
2446.277, 21.96703
2448.205, 21.88494
2450.134, 21.81271
2452.062, 21.72937
2453.991, 21.65498
2455.919, 21.54728
2457.848, 22.05161
2459.776, 22.93230
2461.705, 21.40796
2463.633, 21.00115
2465.562, 22.72082
2467.490, 22.62906
2469.418, 22.40962
2471.347, 22.89319
2473.275, 22.47466
2475.204, 21.80884
2477.132, 21.41956
2479.061, 21.18881
2480.989, 21.12157
2482.918, 21.36357
2484.846, 21.15417
2486.775, 20.71031
2488.703, 20.47537
2490.632, 20.27349
2492.560, 20.32069
2494.489, 21.60711
2496.417, 21.62487
2498.345, 20.50818
2500.274, 20.29325
2502.202, 20.40737
2504.131, 20.59165
2506.059, 20.25095
2507.988, 20.01512
2509.916, 20.11676
2511.845, 20.39817
2513.773, 20.28703
2515.702, 19.37981
2517.630, 18.67636
2519.559, 18.57101
2521.487, 19.51802
2523.416, 19.43991
2525.344, 19.16571
2527.272, 19.39907
2529.201, 19.83861
2531.129, 20.00775
2533.058, 19.39801
2534.986, 19.67461
2536.915, 20.02615
2538.843, 19.20533
2540.772, 18.69365
2542.700, 18.63558
2544.629, 19.20703
2546.557, 19.11802
2548.486, 18.57348
2550.414, 18.04613
2552.343, 18.31513
2554.271, 19.08670
2556.199, 19.50754
2558.128, 19.73046
2560.056, 19.88421
2561.985, 20.46349
2563.913, 20.18710
2565.842, 19.27697
2567.770, 18.90490
2569.699, 19.27281
2571.627, 19.76619
2573.556, 17.98893
2575.484, 16.78630
2577.413, 16.74827
2579.341, 18.23935
2581.270, 18.76576
2583.198, 18.04796
2585.126, 17.36417
2587.055, 17.09808
2588.983, 17.17199
2590.912, 16.37059
2592.840, 16.20023
2594.769, 16.85615
2596.697, 17.11099
2598.626, 16.97794
2600.554, 16.44593
2602.483, 14.84046
2604.411, 14.84877
2606.340, 16.72677
2608.268, 17.74948
2610.197, 18.06945
2612.125, 17.64355
2614.053, 15.47299
2615.982, 14.76000
2617.910, 15.83812
2619.839, 16.21063
2621.767, 16.24980
2623.696, 16.13802
2625.624, 16.20209
2627.553, 16.20446
2629.481, 16.07957
2631.410, 15.65805
2633.338, 15.88047
2635.267, 16.36827
2637.195, 15.03464
2639.124, 15.15641
2641.052, 16.38636
2642.980, 16.45406
2644.909, 15.65429
2646.837, 14.58556
2648.766, 14.19670
2650.694, 14.49174
2652.623, 15.22424
2654.551, 16.23931
2656.480, 16.27535
2658.408, 15.82514
2660.337, 15.95795
2662.265, 15.31182
2664.194, 14.18585
2666.122, 12.91228
2668.051, 13.42107
2669.979, 14.45722
2671.907, 14.68484
2673.836, 14.24463
2675.764, 13.91497
2677.693, 14.26551
2679.621, 13.86395
2681.550, 13.47277
2683.478, 13.58831
2685.407, 13.93707
2687.335, 13.79235
2689.264, 12.98235
2691.192, 13.10436
2693.121, 12.94456
2695.049, 12.19409
2696.978, 11.76171
2698.906, 11.84191
2700.834, 12.34459
2702.763, 13.01542
2704.691, 12.94781
2706.620, 12.41403
2708.548, 12.49581
2710.477, 13.10915
2712.405, 13.98493
2714.334, 15.05947
2716.262, 14.36088
2718.191, 13.13564
2720.119, 13.35936
2722.048, 13.08399
2723.976, 12.86990
2725.905, 13.62865
2727.833, 12.14502
2729.761, 11.15546
2731.690, 12.48994
2733.618, 10.80100
2735.547, 10.31615
2737.475, 12.31716
2739.404, 12.28957
2741.332, 12.74664
2743.261, 13.57211
2745.189, 11.44248
2747.118, 10.25814
2749.046, 10.49651
2750.975, 12.22699
2752.903, 11.59694
2754.832, 10.55828
2756.760, 11.68962
2758.688, 11.38562
2760.617, 11.30311
2762.545, 12.53004
2764.474, 11.88616
2766.402, 11.30639
2768.331, 11.38417
2770.259, 10.30599
2772.188, 10.03067
2774.116, 10.62376
2776.045, 11.05799
2777.973, 10.19695
2779.902, 9.197942
2781.830, 10.38295
2783.759, 11.19942
2785.687, 11.51009
2787.615, 11.33048
2789.544, 10.58625
2791.472, 10.08470
2793.401, 10.19259
2795.329, 9.341464
2797.258, 9.281991
2799.186, 9.964040
2801.115, 9.477626
2803.043, 9.037396
2804.972, 9.107721
2806.900, 10.16732
2808.829, 10.09929
2810.757, 9.688391
2812.686, 9.672118
2814.614, 10.33606
2816.542, 10.37687
2818.471, 9.477172
2820.399, 9.240188
2822.328, 9.144910
2824.256, 9.066426
2826.185, 8.965918
2828.113, 9.152433
2830.042, 9.581940
2831.970, 10.24422
2833.899, 8.546262
2835.827, 7.482259
2837.756, 8.323063
2839.684, 9.909727
2841.613, 9.831377
2843.541, 8.500679
2845.469, 8.268275
2847.398, 7.766821
2849.326, 7.448733
2851.255, 8.313842
2853.183, 8.320123
2855.112, 8.079366
2857.040, 7.932134
2858.969, 7.797442
2860.897, 7.742723
2862.826, 7.725172
2864.754, 7.507731
2866.683, 8.444289
2868.611, 9.021803
2870.540, 7.813760
2872.468, 7.614835
2874.396, 8.026632
2876.325, 8.521692
2878.253, 7.050236
2880.182, 7.110745
2882.110, 7.933381
2884.039, 7.149078
2885.967, 7.612898
2887.896, 8.559237
2889.824, 9.199507
2891.753, 7.916341
2893.681, 8.122911
2895.610, 9.512916
2897.538, 8.346691
2899.467, 7.240743
2901.395, 6.732099
2903.323, 7.029653
2905.252, 8.263505
2907.180, 8.463664
2909.109, 7.421059
2911.037, 7.070646
2912.966, 6.825158
2914.894, 6.808195
2916.823, 7.425181
2918.751, 7.984018
2920.680, 8.122243
2922.608, 7.777950
2924.537, 7.903321
2926.465, 7.689675
2928.394, 7.288699
2930.322, 7.143397
2932.250, 7.048331
2934.179, 7.055780
2936.107, 7.118613
2938.036, 6.081255
2939.964, 6.059500
2941.893, 6.947503
2943.821, 7.878443
2945.750, 8.236508
2947.678, 8.199862
2949.607, 7.993039
2951.535, 8.407749
2953.464, 7.414332
2955.392, 5.646663
2957.321, 4.775735
2959.249, 4.594712
2961.177, 5.293519
2963.106, 6.525064
2965.034, 5.828130
2966.963, 6.034523
2968.891, 6.937807
2970.820, 7.570148
2972.748, 6.835740
2974.677, 6.373000
2976.605, 6.545862
2978.534, 5.155868
2980.462, 4.798024
2982.391, 5.481821
2984.319, 7.087990
2986.248, 5.809258
2988.176, 5.107187
2990.104, 5.622843
2992.033, 5.305192
2993.961, 5.875665
2995.890, 6.080217
2997.818, 4.911066
2999.747, 4.462743
3001.675, 4.700800
3003.604, 5.221499
3005.532, 5.400000
3007.461, 5.087509
3009.389, 5.149687
3011.318, 5.655515
3013.246, 4.552141
3015.175, 4.376688
3017.103, 4.843596
3019.031, 5.188450
3020.960, 4.963316
3022.888, 4.381898
3024.817, 3.869902
3026.745, 4.092564
3028.674, 5.370495
3030.602, 5.895705
3032.531, 4.985773
3034.459, 5.144885
3036.388, 4.767204
3038.316, 4.252136
3040.245, 4.416222
3042.173, 5.102623
3044.102, 5.431640
3046.030, 4.991954
3047.958, 3.316777
3049.887, 2.871836
3051.815, 2.988648
3053.744, 3.193900
3055.672, 3.862598
3057.601, 3.937117
3059.529, 3.615884
3061.458, 3.271723
3063.386, 3.827902
3065.315, 4.307518
3067.243, 4.230400
3069.172, 3.315838
3071.100, 2.151871
3073.029, 2.902492
3074.957, 4.969589
3076.885, 4.080888
3078.814, 4.576465
3080.742, 4.206104
3082.671, 2.518793
3084.599, 4.959117
3086.528, 4.719887
3088.456, 3.464210
3090.385, 3.621608
3092.313, 3.566127
3094.242, 3.703239
3096.170, 3.796632
3098.099, 3.160023
3100.027, 4.435893
3101.956, 4.769103
3103.884, 4.061184
3105.813, 3.835021
3107.741, 4.104871
3109.669, 4.329731
3111.598, 4.503218
3113.526, 5.443830
3115.455, 5.205966
3117.383, 3.970582
3119.312, 2.501889
3121.240, 3.496711
3123.169, 2.190529
3125.097, 1.547471
3127.026, 3.347188
3128.954, 3.538101
3130.883, 3.145070
3132.811, 3.473975
3134.740, 4.920751
3136.668, 2.897725
3138.596, 2.664469
3140.525, 3.565201
3142.453, 3.561517
3144.382, 1.625593
3146.310, 1.534129
3148.239, 2.736170
3150.167, 3.331809
3152.096, 5.239261
3154.024, 4.778228
3155.953, 3.019526
3157.881, 3.123630
3159.810, 1.920783
3161.738, 1.863716
3163.667, 2.489272
3165.595, 1.849036
3167.523, 2.851006
3169.452, 3.297192
3171.380, 2.836987
3173.309, 2.162112
3175.237, 2.696418
3177.166, 3.043926
3179.094, 2.781660
3181.023, 2.116294
3182.951, 1.991121
3184.880, 2.366443
3186.808, 2.809029
3188.737, 2.714340
3190.665, 2.431597
3192.594, 2.725327
3194.522, 3.171029
3196.450, 2.756241
3198.379, 2.135539
3200.307, 2.313274
3202.236, 2.904037
3204.164, 2.947242
3206.093, 2.740736
3208.021, 1.123343
3209.950, -0.1270451
3211.878, 1.799800
3213.807, 2.582619
3215.735, 2.515850
3217.664, 2.646869
3219.592, 4.087763
3221.521, 1.850142
3223.449, 2.429995
3225.377, 3.294461
3227.306, 1.209711
3229.234, 3.171524
3231.163, 2.230275
3233.091, 1.132803
3235.020, 2.369180
3236.948, 2.827147
3238.877, 2.121786
3240.805, 1.154375
3242.734, 0.6531980
3244.662, 1.300020
3246.591, 1.585375
3248.519, 1.417447
3250.448, 1.278743
3252.376, 2.331213
3254.304, 2.858974
3256.233, 2.251458
3258.161, 1.606550
3260.090, 3.129327
3262.018, 1.841634
3263.947, 0.9840683
3265.875, 1.059757
3267.804, 1.457131
3269.732, 0.5162676
3271.661, 0.4765895
3273.589, 0.5240228
3275.518, -6.8414897E-02
3277.446, 1.034611
3279.375, 3.087764
3281.303, 3.668177
3283.231, 2.445167
3285.160, 2.232948
3287.088, 1.382606
3289.017, 1.895433
3290.945, 3.196889
3292.874, 3.103263
3294.802, 3.059296
3296.731, 2.916735
3298.659, 2.412459
3300.588, 1.649414
3302.516, 2.598809
3304.445, 2.783764
3306.373, 2.351662
3308.302, 1.761255
3310.230, 1.157195
3312.158, 1.937433
3314.087, 1.312980
3316.015, 0.2778504
3317.944, 1.893325
3319.872, 1.765207
3321.801, 2.686889
3323.729, 3.160439
3325.658, 1.807631
3327.586, 1.801598
3329.515, 2.336508
3331.443, 2.381539
3333.372, 1.519256
3335.300, -0.2400795
3337.229, 0.6620566
3339.157, 1.360538
3341.085, 1.503317
3343.014, 1.565060
3344.942, 0.3886868
3346.871, 1.711782
3348.799, 2.433324
3350.728, 1.958939
3352.656, 3.449680
3354.585, 0.9622751
3356.513, 1.319280
3358.442, 3.086166
3360.370, 2.652011
3362.299, 1.651568
3364.227, 0.8967960
3366.156, 1.236049
3368.084, 2.274426
3370.012, 2.432369
3371.941, 2.927840
3373.869, 2.061653
3375.798, 1.392839
3377.726, 2.362362
3379.655, 2.515465
3381.583, 1.339471
3383.512, 1.107264
3385.440, 1.712173
3387.369, 1.278334
3389.297, -0.3597390
3391.226, 0.7030357
3393.154, 1.486397
3395.083, 0.4346717
3397.011, 0.8296233
3398.939, 2.223694
3400.868, 2.281627
3402.796, 1.754430
3404.725, 1.945357
3406.653, 0.5620529
3408.582, 1.613110
3410.510, 2.137255
3412.439, 1.765684
3414.367, 2.311041
3416.296, 0.7207842
3418.224, 1.842646
3420.153, 1.985836
3422.081, 0.3209603
3424.010, 3.016501
3425.938, 1.905653
3427.866, 2.114705
3429.795, 2.802777
3431.723, 2.105520
3433.652, 0.2475302
3435.580, 2.451671
3437.509, 1.888328
3439.437, 0.5723779
3441.366, 2.596304
3443.294, 2.075487
3445.223, 2.034200
3447.151, 1.466835
3449.080, 0.8029920
3451.008, 1.171172
3452.937, -0.5017143
3454.865, 0.2750812
3456.793, 0.6578582
3458.722, 7.9743788E-02
##END=



