##NAMES=Sodalite
##RRUFFID=R060354
##IDEAL CHEMISTRY=Na_4_(Si_3_Al_3_)O_12_Cl
##LOCALITY=Koksha Valley, Badakshan Province, Afghanistan
##OWNER=RRUFF
##SOURCE=Herb Obodda
##DESCRIPTION=Pale purple transparent fragment
##STATUS=The identification of this mineral has been confirmed by X-ray diffraction and chemical analysis
##URL=https://www.rruff.net/odr/rruff_sample/R060354
##MEASURED CHEMISTRY=(Na_0.99_K_0.01_)_8_Al_6.00_Si_6.00_O_24_Cl_2.00_
##DIFFRACTION SAMPLE DESCRIPTION=Powder
##CELL PARAMETERS=a: 8.88144 b: 8.88144 c: 8.88144 alpha: 90 beta: 90 gamma: 90 volume: 700.56 crystal system: cubic
##FILETYPE=Raman RAW
##RAMAN WAVELENGTH=532

157.7947, 1601.350
159.7231, 1747.385
161.6516, 1880.906
163.5801, 2000.122
165.5085, 2093.492
167.4370, 2099.524
169.3655, 2069.606
171.2939, 2035.266
173.2224, 1995.174
175.1509, 1950.588
177.0793, 1908.469
179.0078, 1868.739
180.9363, 1832.331
182.8647, 1802.281
184.7932, 1777.763
186.7217, 1757.787
188.6501, 1741.456
190.5786, 1728.270
192.5071, 1716.915
194.4355, 1705.680
196.3640, 1695.583
198.2925, 1688.023
200.2209, 1683.494
202.1494, 1680.225
204.0779, 1677.058
206.0063, 1673.713
207.9348, 1671.586
209.8633, 1670.031
211.7918, 1669.845
213.7202, 1671.552
215.6487, 1675.938
217.5772, 1681.443
219.5056, 1687.426
221.4341, 1693.959
223.3626, 1702.222
225.2910, 1713.906
227.2195, 1726.929
229.1480, 1739.137
231.0764, 1748.393
233.0049, 1758.408
234.9334, 1769.645
236.8618, 1782.063
238.7903, 1796.581
240.7188, 1812.010
242.6472, 1829.874
244.5757, 1852.383
246.5042, 1879.153
248.4326, 1910.570
250.3611, 1949.529
252.2896, 1995.622
254.2180, 2036.946
256.1465, 2076.623
258.0750, 2109.322
260.0034, 2131.207
261.9319, 2142.936
263.8604, 2144.461
265.7888, 2132.967
267.7173, 2109.780
269.6458, 2083.889
271.5742, 2052.250
273.5027, 2021.886
275.4312, 1996.807
277.3596, 1978.449
279.2881, 1966.548
281.2166, 1961.795
283.1450, 1963.516
285.0735, 1969.683
287.0020, 1985.149
288.9304, 1998.181
290.8589, 2003.670
292.7874, 1999.188
294.7158, 1987.476
296.6443, 1962.645
298.5728, 1931.631
300.5012, 1902.547
302.4297, 1877.204
304.3582, 1853.852
306.2866, 1832.866
308.2151, 1815.334
310.1436, 1800.696
312.0720, 1789.959
314.0005, 1782.311
315.9290, 1776.801
317.8574, 1773.258
319.7859, 1769.970
321.7144, 1767.750
323.6428, 1766.697
325.5713, 1765.760
327.4998, 1762.203
329.4282, 1760.839
331.3567, 1764.133
333.2852, 1774.833
335.2137, 1782.549
337.1421, 1785.493
339.0706, 1785.908
340.9991, 1786.552
342.9275, 1787.617
344.8560, 1787.957
346.7845, 1787.547
348.7129, 1786.820
350.6414, 1786.396
352.5699, 1785.336
354.4983, 1784.606
356.4268, 1784.988
358.3553, 1789.580
360.2837, 1794.266
362.2122, 1797.760
364.1407, 1800.589
366.0691, 1804.525
367.9976, 1811.609
369.9261, 1818.774
371.8545, 1824.366
373.7830, 1826.728
375.7115, 1829.152
377.6399, 1831.556
379.5684, 1834.236
381.4969, 1837.410
383.4253, 1841.863
385.3538, 1845.273
387.2823, 1847.456
389.2107, 1849.006
391.1392, 1850.713
393.0677, 1851.252
394.9961, 1853.358
396.9246, 1858.458
398.8531, 1868.021
400.7815, 1876.930
402.7100, 1885.635
404.6385, 1895.327
406.5669, 1906.693
408.4954, 1919.057
410.4239, 1929.304
412.3523, 1935.463
414.2808, 1938.060
416.2093, 1942.870
418.1377, 1950.456
420.0662, 1960.771
421.9947, 1973.196
423.9231, 1986.385
425.8516, 2003.053
427.7801, 2023.464
429.7085, 2048.707
431.6370, 2078.985
433.5655, 2115.497
435.4939, 2154.009
437.4224, 2189.454
439.3509, 2224.924
441.2793, 2278.773
443.2078, 2341.326
445.1363, 2426.716
447.0647, 2538.901
448.9932, 2678.751
450.9217, 2855.818
452.8501, 3101.970
454.7786, 3373.172
456.7071, 3632.371
458.6355, 3893.121
460.5640, 4078.996
462.4925, 4148.641
464.4209, 4099.397
466.3494, 3983.895
468.2779, 3779.114
470.2063, 3554.902
472.1348, 3314.210
474.0633, 3090.955
475.9917, 2893.628
477.9202, 2729.838
479.8487, 2593.979
481.7771, 2482.758
483.7056, 2397.585
485.6341, 2328.013
487.5625, 2278.819
489.4910, 2241.413
491.4195, 2209.127
493.3479, 2180.577
495.2764, 2155.673
497.2049, 2135.097
499.1333, 2118.069
501.0618, 2102.184
502.9903, 2086.204
504.9187, 2071.876
506.8472, 2059.554
508.7757, 2050.455
510.7041, 2043.849
512.6326, 2039.888
514.5610, 2037.221
516.4895, 2035.208
518.4180, 2033.976
520.3464, 2032.023
522.2749, 2028.377
524.2034, 2023.756
526.1318, 2020.333
528.0603, 2018.641
529.9888, 2017.694
531.9172, 2017.675
533.8457, 2018.360
535.7742, 2018.829
537.7026, 2019.096
539.6311, 2018.975
541.5596, 2017.942
543.4880, 2015.282
545.4165, 2013.905
547.3450, 2015.555
549.2734, 2017.510
551.2019, 2017.594
553.1304, 2014.623
555.0588, 2012.157
556.9873, 2011.181
558.9158, 2011.761
560.8442, 2012.224
562.7727, 2011.959
564.7012, 2012.443
566.6296, 2014.770
568.5581, 2017.243
570.4866, 2018.955
572.4150, 2020.542
574.3435, 2022.641
576.2720, 2025.261
578.2004, 2027.738
580.1289, 2030.404
582.0574, 2033.236
583.9859, 2036.501
585.9144, 2040.491
587.8428, 2045.910
589.7713, 2050.257
591.6998, 2052.550
593.6282, 2053.927
595.5567, 2055.379
597.4852, 2056.958
599.4136, 2058.646
601.3421, 2060.945
603.2706, 2062.702
605.1990, 2063.495
607.1275, 2064.907
609.0560, 2065.996
610.9844, 2066.731
612.9129, 2066.672
614.8414, 2066.495
616.7698, 2065.747
618.6983, 2065.683
620.6268, 2066.877
622.5552, 2069.235
624.4837, 2070.316
626.4122, 2068.869
628.3406, 2067.418
630.2691, 2067.114
632.1976, 2067.962
634.1260, 2068.726
636.0545, 2069.806
637.9830, 2070.458
639.9114, 2070.558
641.8399, 2070.266
643.7684, 2069.932
645.6968, 2069.641
647.6253, 2069.421
649.5538, 2069.004
651.4822, 2067.437
653.4107, 2067.458
655.3392, 2069.888
657.2676, 2073.619
659.1961, 2076.947
661.1246, 2079.795
663.0530, 2081.446
664.9815, 2080.885
666.9100, 2079.746
668.8384, 2079.705
670.7669, 2081.828
672.6954, 2084.007
674.6238, 2086.216
676.5523, 2088.379
678.4808, 2090.124
680.4092, 2090.674
682.3377, 2092.108
684.2662, 2095.656
686.1946, 2100.705
688.1231, 2104.240
690.0516, 2105.318
691.9800, 2106.120
693.9085, 2106.897
695.8370, 2107.888
697.7654, 2109.885
699.6939, 2114.016
701.6224, 2117.738
703.5508, 2119.815
705.4793, 2120.079
707.4078, 2120.807
709.3362, 2122.172
711.2647, 2123.909
713.1932, 2125.989
715.1216, 2128.437
717.0501, 2131.288
718.9786, 2134.384
720.9070, 2138.339
722.8355, 2143.786
724.7640, 2150.988
726.6924, 2157.199
728.6209, 2162.369
730.5494, 2166.444
732.4778, 2169.441
734.4063, 2171.618
736.3348, 2172.432
738.2632, 2171.852
740.1917, 2169.467
742.1202, 2164.852
744.0486, 2156.550
745.9771, 2149.429
747.9056, 2143.749
749.8340, 2139.846
751.7625, 2138.061
753.6910, 2139.417
755.6194, 2140.299
757.5479, 2139.667
759.4764, 2138.114
761.4048, 2137.085
763.3333, 2137.550
765.2618, 2139.024
767.1902, 2141.552
769.1187, 2143.878
771.0472, 2146.248
772.9756, 2148.905
774.9041, 2150.860
776.8326, 2151.235
778.7610, 2151.191
780.6895, 2152.266
782.6180, 2154.724
784.5464, 2156.428
786.4749, 2156.948
788.4034, 2157.181
790.3318, 2156.959
792.2603, 2155.905
794.1888, 2154.882
796.1172, 2153.792
798.0457, 2152.865
799.9742, 2153.221
801.9026, 2155.042
803.8311, 2156.669
805.7596, 2157.554
807.6880, 2158.371
809.6165, 2159.291
811.5450, 2160.815
813.4734, 2161.849
815.4019, 2164.285
817.3304, 2166.519
819.2589, 2168.756
821.1873, 2170.793
823.1158, 2172.331
825.0443, 2173.216
826.9727, 2174.140
828.9012, 2174.501
830.8297, 2174.095
832.7581, 2174.574
834.6866, 2177.292
836.6151, 2179.124
838.5435, 2179.069
840.4720, 2178.507
842.4005, 2178.334
844.3289, 2178.177
846.2574, 2177.541
848.1859, 2178.114
850.1143, 2179.932
852.0428, 2182.240
853.9713, 2184.703
855.8997, 2188.479
857.8282, 2192.509
859.7567, 2196.091
861.6851, 2198.677
863.6136, 2199.794
865.5421, 2199.453
867.4705, 2199.150
869.3990, 2199.378
871.3275, 2198.849
873.2559, 2196.332
875.1844, 2194.085
877.1129, 2193.294
879.0413, 2193.460
880.9698, 2192.781
882.8983, 2190.616
884.8267, 2187.800
886.7552, 2186.491
888.6837, 2187.819
890.6121, 2189.401
892.5406, 2189.661
894.4691, 2190.399
896.3975, 2192.951
898.3260, 2195.481
900.2545, 2197.874
902.1829, 2201.347
904.1114, 2205.789
906.0399, 2208.812
907.9683, 2206.926
909.8968, 2204.674
911.8253, 2203.041
913.7537, 2204.175
915.6822, 2207.666
917.6107, 2211.953
919.5391, 2215.274
921.4676, 2217.349
923.3961, 2219.304
925.3245, 2221.529
927.2530, 2223.503
929.1815, 2226.105
931.1099, 2229.290
933.0384, 2232.650
934.9669, 2236.419
936.8953, 2240.594
938.8238, 2244.567
940.7523, 2248.597
942.6807, 2254.977
944.6092, 2264.655
946.5377, 2277.837
948.4661, 2291.682
950.3946, 2305.879
952.3231, 2321.608
954.2515, 2338.392
956.1800, 2359.344
958.1085, 2388.380
960.0369, 2420.688
961.9654, 2452.992
963.8939, 2485.583
965.8223, 2517.032
967.7508, 2542.187
969.6793, 2565.792
971.6077, 2592.397
973.5362, 2622.483
975.4647, 2662.633
977.3931, 2727.035
979.3216, 2801.438
981.2501, 2874.303
983.1785, 2941.191
985.1070, 2978.182
987.0355, 2973.039
988.9639, 2939.927
990.8924, 2878.088
992.8209, 2786.974
994.7493, 2690.352
996.6778, 2604.613
998.6063, 2529.945
1000.535, 2469.724
1002.463, 2422.503
1004.392, 2385.101
1006.320, 2356.410
1008.249, 2334.914
1010.177, 2320.021
1012.106, 2313.761
1014.034, 2309.031
1015.962, 2300.695
1017.891, 2288.171
1019.819, 2277.733
1021.748, 2274.953
1023.676, 2273.970
1025.605, 2272.902
1027.533, 2272.461
1029.462, 2275.256
1031.390, 2279.020
1033.319, 2282.308
1035.247, 2285.782
1037.176, 2288.883
1039.104, 2290.485
1041.032, 2290.146
1042.961, 2291.388
1044.889, 2298.146
1046.818, 2307.817
1048.746, 2317.623
1050.675, 2325.987
1052.603, 2338.031
1054.532, 2352.054
1056.460, 2361.913
1058.389, 2367.433
1060.317, 2370.214
1062.246, 2370.087
1064.174, 2364.283
1066.103, 2353.801
1068.031, 2341.769
1069.959, 2330.004
1071.888, 2318.816
1073.816, 2306.091
1075.745, 2292.714
1077.673, 2281.935
1079.602, 2273.867
1081.530, 2267.207
1083.459, 2260.836
1085.387, 2255.074
1087.316, 2249.925
1089.244, 2246.114
1091.173, 2244.159
1093.101, 2243.478
1095.030, 2242.553
1096.958, 2241.489
1098.887, 2239.460
1100.815, 2235.981
1102.744, 2231.559
1104.672, 2227.493
1106.600, 2223.604
1108.529, 2222.119
1110.457, 2223.531
1112.386, 2225.765
1114.314, 2227.132
1116.243, 2227.448
1118.171, 2227.453
1120.100, 2227.230
1122.028, 2229.172
1123.957, 2233.515
1125.885, 2238.859
1127.814, 2242.922
1129.742, 2246.414
1131.671, 2247.927
1133.599, 2244.507
1135.527, 2238.275
1137.456, 2233.680
1139.384, 2233.197
1141.313, 2232.071
1143.241, 2229.313
1145.170, 2226.297
1147.098, 2223.896
1149.027, 2221.998
1150.955, 2219.985
1152.884, 2217.390
1154.812, 2215.257
1156.741, 2215.699
1158.669, 2218.531
1160.598, 2220.541
1162.526, 2219.952
1164.454, 2218.986
1166.383, 2220.495
1168.311, 2223.135
1170.240, 2224.475
1172.168, 2223.871
1174.097, 2224.052
1176.025, 2225.869
1177.954, 2227.144
1179.882, 2226.857
1181.811, 2225.497
1183.739, 2224.669
1185.668, 2224.950
1187.596, 2226.016
1189.525, 2227.568
1191.453, 2228.035
1193.381, 2228.525
1195.310, 2229.548
1197.238, 2231.263
1199.167, 2232.373
1201.095, 2233.331
1203.024, 2235.479
1204.952, 2238.688
1206.881, 2240.427
1208.809, 2239.824
1210.738, 2238.365
1212.666, 2236.421
1214.595, 2233.573
1216.523, 2231.505
1218.452, 2231.147
1220.380, 2231.099
1222.308, 2230.191
1224.237, 2229.452
1226.165, 2231.045
1228.094, 2233.513
1230.022, 2234.181
1231.951, 2231.681
1233.879, 2230.936
1235.808, 2232.850
1237.736, 2235.483
1239.665, 2238.237
1241.593, 2241.313
1243.522, 2242.313
1245.450, 2239.483
1247.379, 2236.550
1249.307, 2235.996
1251.235, 2237.812
1253.164, 2238.940
1255.092, 2239.054
1257.021, 2239.598
1258.949, 2241.615
1260.878, 2242.864
1262.806, 2242.160
1264.735, 2240.603
1266.663, 2239.903
1268.592, 2240.288
1270.520, 2239.923
1272.449, 2238.557
1274.377, 2237.771
1276.306, 2237.728
1278.234, 2238.040
1280.162, 2238.101
1282.091, 2236.921
1284.019, 2237.669
1285.948, 2242.278
1287.876, 2248.108
1289.805, 2250.759
1291.733, 2249.252
1293.662, 2249.081
1295.590, 2252.027
1297.519, 2255.624
1299.447, 2258.298
1301.376, 2259.757
1303.304, 2259.143
1305.233, 2255.582
1307.161, 2253.019
1309.089, 2253.988
1311.018, 2255.278
1312.946, 2254.894
1314.875, 2253.174
1316.803, 2252.910
1318.732, 2254.778
1320.660, 2256.821
1322.589, 2257.984
1324.517, 2259.434
1326.446, 2262.724
1328.374, 2268.050
1330.303, 2271.857
1332.231, 2273.773
1334.160, 2274.512
1336.088, 2273.889
1338.016, 2272.923
1339.945, 2273.019
1341.873, 2274.464
1343.802, 2275.160
1345.730, 2274.347
1347.659, 2273.388
1349.587, 2272.633
1351.516, 2272.132
1353.444, 2272.380
1355.373, 2273.471
1357.301, 2274.942
1359.230, 2277.039
1361.158, 2278.848
1363.087, 2279.726
1365.015, 2279.777
1366.943, 2280.049
1368.872, 2281.011
1370.800, 2281.696
1372.729, 2282.575
1374.657, 2282.943
1376.586, 2281.258
1378.514, 2278.008
1380.443, 2278.243
1382.371, 2283.872
1384.300, 2288.684
1386.228, 2290.887
1388.157, 2291.442
1390.085, 2290.617
1392.014, 2288.712
1393.942, 2287.754
1395.870, 2288.494
1397.799, 2288.847
1399.727, 2288.660
1401.656, 2287.538
1403.584, 2284.429
1405.513, 2279.495
1407.441, 2277.151
1409.370, 2278.744
1411.298, 2281.510
1413.227, 2285.777
1415.155, 2290.339
1417.084, 2293.355
1419.012, 2293.933
1420.941, 2294.136
1422.869, 2293.175
1424.797, 2292.987
1426.726, 2293.480
1428.654, 2294.908
1430.583, 2299.187
1432.511, 2307.535
1434.440, 2312.174
1436.368, 2310.565
1438.297, 2308.716
1440.225, 2308.098
1442.154, 2308.137
1444.082, 2308.013
1446.011, 2307.642
1447.939, 2308.663
1449.868, 2312.294
1451.796, 2315.591
1453.724, 2317.572
1455.653, 2318.180
1457.581, 2317.785
1459.510, 2316.501
1461.438, 2314.528
1463.367, 2311.128
1465.295, 2309.203
1467.224, 2310.578
1469.152, 2313.209
1471.081, 2314.837
1473.009, 2315.013
1474.938, 2316.353
1476.866, 2320.387
1478.795, 2322.311
1480.723, 2319.728
1482.651, 2316.405
1484.580, 2315.176
1486.508, 2315.486
1488.437, 2316.128
1490.365, 2318.381
1492.294, 2320.354
1494.222, 2320.790
1496.151, 2321.672
1498.079, 2324.683
1500.008, 2328.788
1501.936, 2331.344
1503.865, 2332.421
1505.793, 2332.445
1507.722, 2331.423
1509.650, 2329.619
1511.578, 2326.422
1513.507, 2322.987
1515.435, 2322.834
1517.364, 2326.878
1519.292, 2329.344
1521.221, 2328.079
1523.149, 2326.463
1525.078, 2325.814
1527.006, 2325.901
1528.935, 2325.525
1530.863, 2324.574
1532.792, 2325.605
1534.720, 2329.889
1536.649, 2333.018
1538.577, 2333.134
1540.505, 2332.535
1542.434, 2332.263
1544.362, 2331.746
1546.291, 2331.638
1548.219, 2332.644
1550.148, 2333.719
1552.076, 2333.174
1554.005, 2332.998
1555.933, 2335.517
1557.862, 2339.990
1559.790, 2341.692
1561.719, 2339.853
1563.647, 2337.540
1565.576, 2334.336
1567.504, 2332.183
1569.432, 2332.502
1571.361, 2334.540
1573.289, 2336.827
1575.218, 2339.625
1577.146, 2341.625
1579.075, 2340.712
1581.003, 2341.375
1582.932, 2345.831
1584.860, 2351.184
1586.789, 2354.670
1588.717, 2356.230
1590.646, 2356.422
1592.574, 2354.438
1594.503, 2352.103
1596.431, 2348.360
1598.359, 2345.570
1600.288, 2346.366
1602.216, 2349.260
1604.145, 2349.959
1606.073, 2347.639
1608.002, 2346.615
1609.930, 2347.683
1611.859, 2348.755
1613.787, 2348.496
1615.716, 2348.227
1617.644, 2349.865
1619.573, 2353.315
1621.501, 2355.111
1623.430, 2353.106
1625.358, 2353.597
1627.286, 2361.139
1629.215, 2367.681
1631.143, 2366.914
1633.072, 2362.143
1635.000, 2360.832
1636.929, 2363.363
1638.857, 2366.419
1640.786, 2370.255
1642.714, 2373.726
1644.643, 2376.995
1646.571, 2379.251
1648.500, 2379.038
1650.428, 2376.758
1652.357, 2375.202
1654.285, 2374.487
1656.214, 2374.025
1658.142, 2373.671
1660.070, 2373.926
1661.999, 2376.143
1663.927, 2378.777
1665.856, 2379.301
1667.784, 2378.009
1669.713, 2377.436
1671.641, 2377.695
1673.570, 2378.905
1675.498, 2381.654
1677.427, 2384.854
1679.355, 2387.573
1681.284, 2390.266
1683.212, 2394.211
1685.141, 2399.357
1687.069, 2402.576
1688.997, 2402.400
1690.926, 2402.134
1692.854, 2402.364
1694.783, 2403.304
1696.711, 2406.719
1698.640, 2410.867
1700.568, 2410.042
1702.497, 2403.398
1704.425, 2399.758
1706.354, 2402.147
1708.282, 2404.488
1710.211, 2404.497
1712.139, 2403.534
1714.068, 2402.257
1715.996, 2401.322
1717.924, 2402.974
1719.853, 2408.042
1721.781, 2412.023
1723.710, 2413.538
1725.638, 2414.623
1727.567, 2414.102
1729.495, 2414.323
1731.424, 2418.818
1733.352, 2425.896
1735.281, 2429.653
1737.209, 2429.517
1739.138, 2428.169
1741.066, 2425.590
1742.995, 2423.447
1744.923, 2423.521
1746.851, 2424.255
1748.780, 2423.734
1750.708, 2422.419
1752.637, 2422.138
1754.565, 2423.002
1756.494, 2423.505
1758.422, 2422.073
1760.351, 2421.589
1762.279, 2423.971
1764.208, 2426.990
1766.136, 2428.646
1768.065, 2429.184
1769.993, 2429.505
1771.922, 2429.770
1773.850, 2429.833
1775.778, 2428.788
1777.707, 2429.011
1779.635, 2432.854
1781.564, 2436.731
1783.492, 2436.799
1785.421, 2434.254
1787.349, 2433.162
1789.278, 2433.550
1791.206, 2434.906
1793.135, 2438.315
1795.063, 2441.146
1796.992, 2442.306
1798.920, 2443.453
1800.849, 2446.204
1802.777, 2449.763
1804.705, 2452.435
1806.634, 2454.282
1808.562, 2455.122
1810.491, 2453.190
1812.419, 2452.958
1814.348, 2455.534
1816.276, 2458.769
1818.205, 2461.184
1820.133, 2463.476
1822.062, 2467.141
1823.990, 2472.018
1825.919, 2475.182
1827.847, 2477.059
1829.776, 2476.654
1831.704, 2471.692
1833.632, 2468.152
1835.561, 2468.899
1837.489, 2471.302
1839.418, 2471.816
1841.346, 2478.062
1843.275, 2478.052
1845.203, 2491.573
1847.132, 2502.013
1849.060, 2509.816
1850.989, 2512.006
1852.917, 2502.716
1854.846, 2493.219
1856.774, 2489.542
1858.703, 2489.077
1860.631, 2488.431
1862.559, 2487.623
1864.488, 2486.313
1866.416, 2484.396
1868.345, 2483.073
1870.273, 2483.397
1872.202, 2483.149
1874.130, 2479.696
1876.059, 2477.239
1877.987, 2479.902
1879.916, 2485.642
1881.844, 2490.915
1883.773, 2495.472
1885.701, 2497.110
1887.630, 2493.977
1889.558, 2492.396
1891.486, 2495.139
1893.415, 2497.895
1895.343, 2498.926
1897.272, 2499.031
1899.200, 2499.125
1901.129, 2499.312
1903.057, 2499.238
1904.986, 2498.934
1906.914, 2499.892
1908.843, 2503.061
1910.771, 2506.082
1912.700, 2507.612
1914.628, 2509.537
1916.557, 2512.241
1918.485, 2515.765
1920.413, 2520.673
1922.342, 2526.496
1924.270, 2531.349
1926.199, 2535.612
1928.127, 2538.121
1930.056, 2537.925
1931.984, 2538.101
1933.913, 2539.859
1935.841, 2541.353
1937.770, 2540.734
1939.698, 2539.904
1941.627, 2542.437
1943.555, 2546.786
1945.484, 2544.966
1947.412, 2536.255
1949.340, 2532.747
1951.269, 2538.003
1953.197, 2542.335
1955.126, 2542.824
1957.054, 2542.434
1958.983, 2542.280
1960.911, 2542.530
1962.840, 2542.893
1964.768, 2543.759
1966.697, 2546.523
1968.625, 2551.077
1970.554, 2555.143
1972.482, 2558.859
1974.411, 2560.668
1976.339, 2558.794
1978.267, 2556.971
1980.196, 2556.901
1982.124, 2557.701
1984.053, 2558.448
1985.981, 2559.867
1987.910, 2563.850
1989.838, 2570.519
1991.767, 2574.582
1993.695, 2574.625
1995.624, 2575.145
1997.552, 2576.432
1999.481, 2577.844
2001.409, 2579.409
2003.338, 2580.906
2005.266, 2582.839
2007.194, 2584.403
2009.123, 2583.733
2011.051, 2581.775
2012.980, 2582.049
2014.908, 2584.615
2016.837, 2587.039
2018.765, 2589.031
2020.694, 2591.316
2022.622, 2594.929
2024.551, 2598.022
2026.479, 2599.073
2028.408, 2600.420
2030.336, 2604.866
2032.265, 2610.196
2034.193, 2611.965
2036.121, 2610.318
2038.050, 2609.539
2039.978, 2609.656
2041.907, 2610.175
2043.835, 2611.684
2045.764, 2613.048
2047.692, 2613.507
2049.621, 2615.327
2051.549, 2621.355
2053.478, 2627.429
2055.406, 2627.957
2057.334, 2634.586
2059.263, 2631.854
2061.191, 2641.925
2063.120, 2647.204
2065.049, 2646.675
2066.977, 2646.648
2068.906, 2648.414
2070.834, 2649.965
2072.762, 2652.290
2074.691, 2652.953
2076.619, 2648.942
2078.548, 2645.244
2080.476, 2647.032
2082.405, 2651.485
2084.333, 2653.470
2086.262, 2653.401
2088.190, 2654.575
2090.119, 2657.116
2092.047, 2660.415
2093.976, 2664.027
2095.904, 2669.146
2097.833, 2677.168
2099.761, 2683.710
2101.689, 2686.112
2103.618, 2687.154
2105.546, 2688.454
2107.475, 2689.760
2109.403, 2691.131
2111.332, 2692.684
2113.260, 2694.327
2115.189, 2696.322
2117.117, 2697.898
2119.046, 2698.063
2120.974, 2700.414
2122.903, 2706.340
2124.831, 2711.808
2126.760, 2716.652
2128.688, 2719.805
2130.616, 2719.768
2132.545, 2719.206
2134.473, 2720.502
2136.402, 2722.778
2138.330, 2724.365
2140.259, 2725.492
2142.187, 2727.384
2144.116, 2729.832
2146.044, 2730.678
2147.973, 2728.996
2149.901, 2729.847
2151.830, 2736.459
2153.758, 2742.119
2155.687, 2745.669
2157.615, 2747.725
2159.543, 2746.282
2161.472, 2745.387
2163.400, 2747.812
2165.329, 2752.557
2167.257, 2760.270
2169.186, 2769.028
2171.114, 2769.566
2173.043, 2762.337
2174.971, 2760.091
2176.900, 2764.883
2178.828, 2768.532
2180.757, 2769.262
2182.685, 2771.508
2184.614, 2777.097
2186.542, 2782.658
2188.470, 2785.681
2190.399, 2788.494
2192.327, 2793.550
2194.256, 2798.568
2196.184, 2800.384
2198.113, 2804.122
2200.041, 2806.778
2201.970, 2808.219
2203.898, 2811.172
2205.827, 2811.849
2207.755, 2813.002
2209.684, 2814.508
2211.612, 2817.485
2213.541, 2823.473
2215.469, 2827.828
2217.397, 2828.315
2219.326, 2828.307
2221.254, 2827.997
2223.183, 2829.198
2225.111, 2834.938
2227.040, 2841.391
2228.968, 2842.006
2230.897, 2848.216
2232.825, 2853.096
2234.754, 2855.860
2236.682, 2862.428
2238.611, 2864.574
2240.539, 2865.190
2242.468, 2864.027
2244.396, 2864.109
2246.324, 2866.758
2248.253, 2868.439
2250.181, 2866.083
2252.110, 2865.941
2254.038, 2873.079
2255.967, 2880.058
2257.895, 2881.427
2259.824, 2881.599
2261.752, 2884.661
2263.681, 2889.290
2265.609, 2892.924
2267.538, 2896.181
2269.466, 2902.421
2271.395, 2905.229
2273.323, 2908.654
2275.251, 2913.666
2277.180, 2915.321
2279.108, 2921.451
2281.037, 2927.377
2282.965, 2934.000
2284.894, 2938.023
2286.822, 2935.923
2288.751, 2935.398
2290.679, 2940.347
2292.608, 2945.653
2294.536, 2948.095
2296.465, 2950.161
2298.393, 2954.202
2300.322, 2958.859
2302.250, 2962.793
2304.178, 2965.922
2306.107, 2967.889
2308.035, 2968.910
2309.964, 2969.607
2311.892, 2969.710
2313.821, 2972.587
2315.749, 2974.112
2317.678, 2976.139
2319.606, 2981.039
2321.535, 2982.009
2323.463, 2989.315
2325.392, 2995.196
2327.320, 2996.962
2329.249, 2998.149
2331.177, 2999.753
2333.105, 3002.294
2335.034, 3006.081
2336.962, 3010.661
2338.891, 3015.699
2340.819, 3020.708
2342.748, 3025.137
2344.676, 3028.849
2346.605, 3031.944
2348.533, 3034.465
2350.462, 3037.112
2352.390, 3037.740
2354.319, 3041.186
2356.247, 3043.092
2358.176, 3044.523
2360.104, 3047.942
2362.032, 3047.376
2363.961, 3048.845
2365.889, 3051.007
2367.818, 3053.462
2369.746, 3057.414
2371.675, 3065.469
2373.603, 3071.286
2375.532, 3068.788
2377.460, 3068.949
2379.389, 3080.820
2381.317, 3093.783
2383.246, 3099.380
2385.174, 3101.577
2387.103, 3103.603
2389.031, 3105.355
2390.959, 3106.897
2392.888, 3108.480
2394.816, 3111.548
2396.745, 3113.116
2398.673, 3117.089
2400.602, 3116.826
2402.530, 3119.726
2404.459, 3120.461
2406.387, 3121.834
2408.316, 3125.539
2410.244, 3126.120
2412.173, 3133.280
2414.101, 3138.944
2416.030, 3141.993
2417.958, 3144.874
2419.886, 3148.987
2421.815, 3151.423
2423.743, 3149.092
2425.672, 3148.254
2427.600, 3151.450
2429.529, 3156.723
2431.457, 3164.004
2433.386, 3172.204
2435.314, 3181.578
2437.243, 3190.335
2439.171, 3195.199
2441.100, 3199.220
2443.028, 3206.810
2444.957, 3214.441
2446.885, 3215.602
2448.813, 3220.072
2450.742, 3215.067
2452.670, 3220.324
2454.599, 3218.756
2456.527, 3211.907
2458.456, 3215.352
2460.384, 3228.688
2462.313, 3235.370
2464.241, 3234.112
2466.170, 3237.509
2468.098, 3246.988
2470.027, 3256.098
2471.955, 3262.651
2473.884, 3270.081
2475.812, 3280.187
2477.740, 3285.473
2479.669, 3283.555
2481.597, 3281.570
2483.526, 3282.281
2485.454, 3283.223
2487.383, 3283.272
2489.311, 3285.158
2491.240, 3290.613
2493.168, 3297.580
2495.097, 3305.994
2497.025, 3313.588
2498.954, 3316.729
2500.882, 3319.806
2502.811, 3325.670
2504.739, 3332.258
2506.667, 3338.263
2508.596, 3343.563
2510.524, 3349.392
2512.453, 3354.209
2514.381, 3355.174
2516.310, 3354.167
2518.238, 3352.868
2520.167, 3352.911
2522.095, 3358.254
2524.024, 3367.512
2525.952, 3377.171
2527.881, 3386.557
2529.809, 3394.316
2531.738, 3400.239
2533.666, 3403.230
2535.594, 3403.458
2537.523, 3405.749
2539.451, 3410.505
2541.380, 3418.428
2543.308, 3429.820
2545.237, 3442.868
2547.165, 3458.035
2549.094, 3472.328
2551.022, 3487.162
2552.951, 3496.072
2554.879, 3498.088
2556.808, 3496.242
2558.736, 3489.377
2560.665, 3485.654
2562.593, 3488.010
2564.521, 3490.815
2566.450, 3491.223
2568.378, 3494.445
2570.307, 3503.435
2572.235, 3511.423
2574.164, 3517.290
2576.092, 3521.166
2578.021, 3520.168
2579.949, 3522.922
2581.878, 3537.389
2583.806, 3550.216
2585.735, 3555.156
2587.663, 3557.977
2589.592, 3559.339
2591.520, 3562.075
2593.448, 3569.938
2595.377, 3575.802
2597.305, 3573.612
2599.234, 3569.412
2601.162, 3564.920
2603.091, 3563.093
2605.019, 3568.827
2606.948, 3575.964
2608.876, 3579.454
2610.805, 3582.374
2612.733, 3586.343
2614.662, 3592.509
2616.590, 3602.698
2618.519, 3614.670
2620.447, 3627.158
2622.375, 3637.852
2624.304, 3642.083
2626.232, 3643.673
2628.161, 3647.395
2630.089, 3652.701
2632.018, 3659.913
2633.946, 3667.848
2635.875, 3675.489
2637.803, 3681.852
2639.732, 3683.551
2641.660, 3683.115
2643.589, 3685.088
2645.517, 3689.204
2647.446, 3695.811
2649.374, 3703.621
2651.302, 3709.114
2653.231, 3713.644
2655.159, 3722.507
2657.088, 3724.713
2659.016, 3734.889
2660.945, 3731.786
2662.873, 3732.920
2664.802, 3737.736
2666.730, 3745.460
2668.659, 3755.023
2670.587, 3761.531
2672.516, 3765.739
2674.444, 3770.255
2676.373, 3775.428
2678.301, 3784.123
2680.229, 3794.908
2682.158, 3803.183
2684.086, 3808.826
2686.015, 3809.299
2687.943, 3815.054
2689.872, 3818.783
2691.800, 3820.702
2693.729, 3826.586
2695.657, 3828.983
2697.586, 3830.694
2699.514, 3832.257
2701.443, 3836.289
2703.371, 3842.812
2705.300, 3850.925
2707.228, 3860.252
2709.156, 3869.358
2711.085, 3877.554
2713.013, 3881.742
2714.942, 3882.802
2716.870, 3887.930
2718.799, 3896.475
2720.727, 3906.042
2722.656, 3916.054
2724.584, 3923.375
2726.513, 3928.621
2728.441, 3933.205
2730.370, 3937.495
2732.298, 3942.269
2734.227, 3948.050
2736.155, 3960.502
2738.083, 3963.538
2740.012, 3979.246
2741.940, 3975.682
2743.869, 3979.040
2745.797, 3987.400
2747.726, 3994.124
2749.654, 4000.270
2751.583, 4009.516
2753.511, 4020.318
2755.440, 4029.419
2757.368, 4036.690
2759.297, 4040.939
2761.225, 4043.772
2763.154, 4050.342
2765.082, 4057.834
2767.010, 4058.997
2768.939, 4057.963
2770.867, 4060.818
2772.796, 4067.230
2774.724, 4079.493
2776.653, 4092.405
2778.581, 4095.002
2780.510, 4104.252
2782.438, 4103.063
2784.367, 4113.354
2786.295, 4116.548
2788.224, 4118.196
2790.152, 4125.720
2792.081, 4134.971
2794.009, 4141.240
2795.938, 4147.290
2797.866, 4155.923
2799.794, 4164.510
2801.723, 4170.747
2803.651, 4175.155
2805.580, 4178.458
2807.508, 4179.566
2809.437, 4176.098
2811.365, 4173.750
2813.294, 4175.577
2815.222, 4181.943
2817.151, 4198.277
2819.079, 4211.959
2821.008, 4214.834
2822.936, 4217.958
2824.865, 4225.696
2826.793, 4234.319
2828.721, 4242.238
2830.650, 4249.555
2832.578, 4256.267
2834.507, 4261.787
2836.435, 4265.808
2838.364, 4269.725
2840.292, 4274.404
2842.221, 4279.624
2844.149, 4287.119
2846.078, 4292.820
2848.006, 4296.315
2849.935, 4298.683
2851.863, 4299.710
2853.792, 4300.147
2855.720, 4306.214
2857.648, 4314.008
2859.577, 4319.706
2861.505, 4333.998
2863.434, 4344.463
2865.362, 4351.795
2867.291, 4355.578
2869.219, 4360.505
2871.148, 4366.372
2873.076, 4371.371
2875.005, 4375.958
2876.933, 4383.409
2878.862, 4388.328
2880.790, 4393.845
2882.719, 4400.267
2884.647, 4405.063
2886.575, 4411.298
2888.504, 4418.349
2890.432, 4424.614
2892.361, 4426.483
2894.289, 4427.609
2896.218, 4432.434
2898.146, 4440.609
2900.075, 4455.097
2902.003, 4468.259
2903.932, 4471.959
2905.860, 4472.880
2907.789, 4472.557
2909.717, 4475.491
2911.646, 4486.540
2913.574, 4497.751
2915.502, 4508.439
2917.431, 4514.880
2919.359, 4509.801
2921.288, 4512.063
2923.216, 4528.072
2925.145, 4543.172
2927.073, 4554.416
2929.002, 4561.838
2930.930, 4569.436
2932.859, 4574.100
2934.787, 4576.112
2936.716, 4581.102
2938.644, 4586.372
2940.573, 4584.585
2942.501, 4596.676
2944.429, 4603.508
2946.358, 4605.528
2948.286, 4609.340
2950.215, 4614.767
2952.143, 4620.765
2954.072, 4628.048
2956.000, 4640.426
2957.929, 4646.650
2959.857, 4660.070
2961.786, 4664.237
2963.714, 4674.478
2965.643, 4685.081
2967.571, 4690.819
2969.500, 4693.906
2971.428, 4693.503
2973.356, 4695.206
2975.285, 4704.039
2977.213, 4712.813
2979.142, 4719.186
2981.070, 4724.279
2982.999, 4727.682
2984.927, 4732.007
2986.856, 4738.056
2988.784, 4743.423
2990.713, 4746.056
2992.641, 4751.940
2994.570, 4761.268
2996.498, 4770.513
2998.427, 4779.557
3000.355, 4790.962
3002.283, 4797.838
3004.212, 4805.357
3006.140, 4812.178
3008.069, 4816.764
3009.997, 4822.675
3011.926, 4826.484
3013.854, 4831.352
3015.783, 4843.456
3017.711, 4856.810
3019.640, 4866.537
3021.568, 4873.712
3023.497, 4877.161
3025.425, 4880.266
3027.354, 4883.455
3029.282, 4888.458
3031.210, 4894.486
3033.139, 4904.737
3035.067, 4909.971
3036.996, 4917.097
3038.924, 4927.646
3040.853, 4932.994
3042.781, 4932.432
3044.710, 4939.701
3046.638, 4942.599
3048.567, 4947.947
3050.495, 4954.585
3052.424, 4961.750
3054.352, 4975.383
3056.281, 4986.358
3058.209, 4998.140
3060.137, 5018.595
3062.066, 5037.352
3063.994, 5041.896
3065.923, 5044.779
3067.851, 5055.219
3069.780, 5063.483
3071.708, 5064.397
3073.637, 5067.570
3075.565, 5077.902
3077.494, 5084.007
3079.422, 5088.908
3081.351, 5093.515
3083.279, 5095.512
3085.208, 5099.606
3087.136, 5102.825
3089.064, 5107.939
3090.993, 5114.409
3092.921, 5120.688
3094.850, 5129.227
3096.778, 5139.063
3098.707, 5147.193
3100.635, 5146.581
3102.564, 5146.407
3104.492, 5154.073
3106.421, 5165.024
3108.349, 5179.642
3110.278, 5192.858
3112.206, 5202.079
3114.135, 5211.202
3116.063, 5220.291
3117.991, 5229.695
3119.920, 5239.790
3121.848, 5241.758
3123.777, 5236.111
3125.705, 5236.435
3127.634, 5242.034
3129.562, 5251.468
3131.491, 5262.194
3133.419, 5269.802
3135.348, 5275.767
3137.276, 5281.317
3139.205, 5286.462
3141.133, 5290.166
3143.062, 5295.954
3144.990, 5306.398
3146.918, 5317.058
3148.847, 5326.960
3150.775, 5337.425
3152.704, 5348.959
3154.632, 5357.639
3156.561, 5363.634
3158.489, 5374.564
3160.418, 5388.173
3162.346, 5395.700
3164.275, 5399.564
3166.203, 5403.653
3168.132, 5408.107
3170.060, 5413.450
3171.989, 5419.490
3173.917, 5429.554
3175.845, 5435.274
3177.774, 5442.474
3179.702, 5451.619
3181.631, 5454.918
3183.559, 5468.826
3185.488, 5474.167
3187.416, 5482.158
3189.345, 5491.955
3191.273, 5499.319
3193.202, 5504.626
3195.130, 5509.988
3197.059, 5514.542
3198.987, 5517.442
3200.916, 5520.184
3202.844, 5525.587
3204.772, 5529.614
3206.701, 5530.069
3208.629, 5532.549
3210.558, 5537.610
3212.486, 5548.682
3214.415, 5556.893
3216.343, 5577.499
3218.272, 5583.227
3220.200, 5598.564
3222.129, 5618.335
3224.057, 5629.681
3225.986, 5636.367
3227.914, 5641.171
3229.843, 5647.348
3231.771, 5653.942
3233.699, 5658.659
3235.628, 5668.852
3237.556, 5670.279
3239.485, 5680.502
3241.413, 5689.576
3243.342, 5697.053
3245.270, 5707.073
3247.199, 5718.020
3249.127, 5719.526
3251.056, 5720.165
3252.984, 5742.401
3254.913, 5765.111
3256.841, 5769.456
3258.770, 5768.162
3260.698, 5762.409
3262.626, 5765.242
3264.555, 5782.130
3266.483, 5793.334
3268.412, 5794.692
3270.340, 5794.928
3272.269, 5794.743
3274.197, 5802.088
3276.126, 5812.890
3278.054, 5816.849
3279.983, 5822.885
3281.911, 5846.845
3283.840, 5866.720
3285.768, 5863.483
3287.697, 5867.026
3289.625, 5885.565
3291.553, 5902.124
3293.482, 5914.386
3295.410, 5918.413
3297.339, 5915.625
3299.267, 5915.752
3301.196, 5918.603
3303.124, 5924.753
3305.053, 5931.553
3306.981, 5934.572
3308.910, 5940.374
3310.838, 5953.781
3312.767, 5964.973
3314.695, 5970.400
3316.624, 5976.301
3318.552, 5983.010
3320.480, 5989.157
3322.409, 5995.960
3324.337, 6010.398
3326.266, 6026.024
3328.194, 6031.933
3330.123, 6036.228
3332.051, 6044.720
3333.980, 6053.070
3335.908, 6060.895
3337.837, 6065.041
3339.765, 6064.120
3341.694, 6065.861
3343.622, 6070.353
3345.551, 6074.479
3347.479, 6079.627
3349.407, 6088.223
3351.336, 6098.798
3353.264, 6110.851
3355.193, 6121.396
3357.121, 6125.722
3359.050, 6133.359
3360.978, 6146.000
3362.907, 6152.412
3364.835, 6152.917
3366.764, 6162.078
3368.692, 6174.770
3370.621, 6173.499
3372.549, 6171.744
3374.478, 6183.925
3376.406, 6197.838
3378.334, 6208.441
3380.263, 6215.639
3382.191, 6217.615
3384.120, 6222.729
3386.048, 6231.136
3387.977, 6245.018
3389.905, 6259.388
3391.834, 6261.113
3393.762, 6260.700
3395.691, 6268.925
3397.619, 6280.425
3399.548, 6295.347
3401.476, 6309.183
3403.405, 6322.106
3405.333, 6324.905
3407.261, 6337.109
3409.190, 6332.220
3411.118, 6353.432
3413.047, 6368.894
3414.975, 6378.096
3416.904, 6377.327
3418.832, 6376.897
3420.761, 6380.192
3422.689, 6387.713
3424.618, 6391.026
3426.546, 6406.417
3428.475, 6407.315
3430.403, 6421.084
3432.332, 6438.527
3434.260, 6448.930
3436.188, 6454.110
3438.117, 6452.037
3440.045, 6454.701
3441.974, 6470.702
3443.902, 6478.756
3445.831, 6479.183
3447.759, 6475.220
3449.688, 6472.680
3451.616, 6486.562
3453.545, 6505.498
3455.473, 6521.713
3457.402, 6533.720
3459.330, 6540.709
3461.259, 6543.353
3463.187, 6542.092
3465.115, 6545.912
3467.044, 6554.281
3468.972, 6563.576
3470.901, 6573.798
3472.829, 6585.958
3474.758, 6595.801
3476.686, 6600.281
3478.615, 6602.003
3480.543, 6601.123
3482.472, 6599.203
3484.400, 6597.850
3486.329, 6610.225
3488.257, 6625.959
3490.186, 6627.629
3492.114, 6629.104
3494.042, 6641.333
3495.971, 6648.646
3497.899, 6642.873
3499.828, 6645.280
3501.756, 6655.478
3503.685, 6674.953
3505.613, 6695.305
3507.542, 6701.451
3509.470, 6704.634
3511.399, 6713.985
3513.327, 6720.956
3515.256, 6722.041
3517.184, 6726.903
3519.113, 6735.865
3521.041, 6746.479
3522.969, 6759.681
3524.898, 6782.303
3526.826, 6800.864
3528.755, 6802.772
3530.683, 6804.236
3532.612, 6808.390
3534.540, 6814.006
3536.469, 6820.396
3538.397, 6822.354
3540.326, 6821.706
3542.254, 6819.713
3544.183, 6820.467
3546.111, 6828.437
3548.040, 6837.330
3549.968, 6845.931
3551.896, 6853.983
3553.825, 6861.312
3555.753, 6871.635
3557.682, 6880.885
3559.610, 6881.107
3561.539, 6885.171
3563.467, 6903.460
3565.396, 6914.151
3567.324, 6911.160
3569.253, 6921.357
3571.181, 6939.982
3573.110, 6949.257
3575.038, 6953.848
3576.967, 6956.483
3578.895, 6959.837
3580.823, 6963.672
3582.752, 6978.584
3584.680, 6983.964
3586.609, 6989.033
3588.537, 7002.773
3590.466, 7002.042
3592.394, 7008.696
3594.323, 7026.183
3596.251, 7041.117
3598.180, 7047.522
3600.108, 7057.953
3602.037, 7071.237
3603.965, 7082.157
3605.894, 7091.154
3607.822, 7096.249
3609.750, 7104.107
3611.679, 7113.918
3613.607, 7131.456
3615.536, 7134.068
3617.464, 7141.460
3619.393, 7151.065
3621.321, 7153.107
3623.250, 7158.162
3625.178, 7176.401
3627.107, 7189.484
3629.035, 7190.258
3630.964, 7200.273
3632.892, 7217.558
3634.821, 7233.166
3636.749, 7242.884
3638.677, 7237.327
3640.606, 7235.104
3642.534, 7247.158
3644.463, 7255.668
3646.391, 7260.288
3648.320, 7268.875
3650.248, 7279.083
3652.177, 7284.820
3654.105, 7294.156
3656.034, 7317.274
3657.962, 7334.574
3659.891, 7344.310
3661.819, 7337.207
3663.748, 7348.899
3665.676, 7338.783
3667.604, 7353.914
3669.533, 7344.943
3671.461, 7343.492
3673.390, 7355.833
3675.318, 7370.052
3677.247, 7383.725
3679.175, 7388.314
3681.104, 7390.625
3683.032, 7394.800
3684.961, 7402.128
3686.889, 7412.893
3688.818, 7426.538
3690.746, 7440.881
3692.675, 7443.274
3694.603, 7441.532
3696.531, 7440.923
3698.460, 7447.216
3700.388, 7463.368
3702.317, 7483.295
3704.245, 7503.430
3706.174, 7502.859
3708.102, 7496.857
3710.031, 7507.776
3711.959, 7515.872
3713.888, 7511.663
3715.816, 7512.168
3717.745, 7517.968
3719.673, 7516.738
3721.602, 7514.307
3723.530, 7519.392
3725.458, 7524.659
3727.387, 7522.505
3729.315, 7534.101
3731.244, 7557.617
3733.172, 7573.417
3735.101, 7583.351
3737.029, 7589.426
3738.958, 7594.253
3740.886, 7599.349
3742.815, 7607.202
3744.743, 7617.601
3746.672, 7618.612
3748.600, 7619.704
3750.529, 7633.772
3752.457, 7647.894
3754.385, 7655.542
3756.314, 7661.236
3758.242, 7664.962
3760.171, 7669.051
3762.099, 7673.677
3764.028, 7680.740
3765.956, 7686.198
3767.885, 7687.705
3769.813, 7693.422
3771.742, 7702.438
3773.670, 7708.674
3775.599, 7716.519
3777.527, 7733.780
3779.456, 7744.240
3781.384, 7743.303
3783.313, 7734.477
3785.241, 7725.925
3787.169, 7745.231
3789.098, 7765.295
3791.026, 7764.276
3792.955, 7769.986
3794.883, 7788.852
3796.812, 7798.915
3798.740, 7803.325
3800.669, 7804.983
3802.597, 7810.781
3804.526, 7815.501
3806.454, 7833.457
3808.383, 7830.101
3810.311, 7836.909
3812.240, 7851.044
3814.168, 7875.568
3816.096, 7892.692
3818.025, 7894.624
3819.953, 7896.399
3821.882, 7898.442
3823.810, 7898.524
3825.739, 7896.898
3827.667, 7894.076
3829.596, 7890.835
3831.524, 7888.071
3833.453, 7887.214
3835.381, 7890.961
3837.310, 7903.663
3839.238, 7923.437
3841.167, 7930.818
3843.095, 7942.444
3845.023, 7953.375
3846.952, 7955.448
3848.880, 7961.439
3850.809, 7959.748
3852.737, 7961.664
3854.666, 7971.912
3856.594, 7971.315
3858.523, 7966.921
3860.451, 7992.729
3862.380, 8017.524
3864.308, 8013.817
3866.237, 8014.165
3868.165, 8021.636
3870.094, 8024.804
3872.022, 8028.220
3873.950, 8044.107
3875.879, 8062.154
3877.807, 8077.581
3879.736, 8089.438
3881.664, 8098.485
3883.593, 8106.843
3885.521, 8117.888
3887.450, 8124.556
3889.378, 8146.173
3891.307, 8140.436
3893.235, 8144.408
3895.164, 8155.147
3897.092, 8172.534
3899.021, 8188.047
3900.949, 8197.498
3902.877, 8214.925
3904.806, 8237.265
3906.734, 8256.680
3908.663, 8269.840
3910.591, 8277.553
3912.520, 8276.327
3914.448, 8285.089
3916.377, 8278.021
3918.305, 8294.497
3920.234, 8293.562
3922.162, 8301.842
3924.091, 8323.892
3926.019, 8342.794
3927.948, 8359.213
3929.876, 8370.223
3931.804, 8375.852
3933.733, 8376.089
3935.661, 8378.991
3937.590, 8387.248
3939.518, 8405.710
3941.447, 8422.821
3943.375, 8436.428
3945.304, 8447.294
3947.232, 8456.876
3949.161, 8461.083
3951.089, 8469.053
3953.018, 8472.666
3954.946, 8475.033
3956.875, 8477.026
3958.803, 8490.493
3960.731, 8509.521
3962.660, 8521.281
3964.588, 8530.739
3966.517, 8541.433
3968.445, 8557.608
3970.374, 8576.941
3972.302, 8582.931
3974.231, 8598.146
3976.159, 8599.613
3978.088, 8615.529
3980.016, 8625.291
3981.945, 8624.818
3983.873, 8624.810
3985.802, 8631.055
3987.730, 8639.952
3989.658, 8655.532
3991.587, 8666.127
3993.515, 8671.870
3995.444, 8677.654
3997.372, 8691.114
3999.301, 8703.331
4001.229, 8716.593
4003.158, 8733.817
4005.086, 8745.257
4007.015, 8757.350
4008.943, 8767.093
4010.872, 8776.782
4012.800, 8779.536
4014.729, 8792.799
4016.657, 8801.296
4018.585, 8806.156
4020.514, 8821.137
4022.442, 8837.568
4024.371, 8843.569
4026.299, 8853.337
4028.228, 8858.419
4030.156, 8866.214
4032.085, 8880.004
4034.013, 8883.215
4035.942, 8892.906
4037.870, 8911.225
4039.799, 8914.311
4041.727, 8916.548
4043.656, 8932.265
4045.584, 8945.925
4047.512, 8951.061
4049.441, 8950.063
4051.369, 8949.118
4053.298, 8960.365
4055.226, 8972.861
4057.155, 8976.875
4059.083, 8984.985
4061.012, 8997.530
4062.940, 9005.571
4064.869, 9016.146
4066.797, 9027.068
4068.726, 9032.819
4070.654, 9040.755
4072.583, 9052.112
4074.511, 9060.943
4076.439, 9069.417
4078.368, 9073.204
4080.296, 9075.755
4082.225, 9078.531
4084.153, 9082.166
4086.082, 9090.187
4088.010, 9097.340
4089.939, 9102.226
4091.867, 9113.828
4093.796, 9128.893
4095.724, 9145.231
4097.653, 9150.548
4099.581, 9149.606
4101.510, 9150.381
4103.438, 9153.147
4105.367, 9153.661
4107.295, 9163.328
4109.224, 9160.649
4111.152, 9168.817
4113.081, 9180.138
4115.009, 9190.329
4116.938, 9201.638
4118.866, 9212.845
4120.794, 9218.223
4122.723, 9224.666
4124.651, 9240.729
4126.580, 9244.929
4128.508, 9240.405
4130.437, 9249.933
4132.365, 9263.000
4134.293, 9270.558
4136.222, 9281.038
4138.150, 9289.196
4140.079, 9299.061
4142.007, 9303.281
4143.936, 9308.688
4145.864, 9313.663
4147.793, 9318.954
4149.721, 9318.454
4151.650, 9321.397
4153.578, 9335.918
4155.507, 9351.232
4157.435, 9364.337
4159.364, 9369.646
4161.292, 9373.887
4163.221, 9381.437
4165.149, 9384.801
4167.078, 9382.921
4169.006, 9386.188
4170.935, 9394.483
4172.863, 9397.268
4174.792, 9413.862
4176.720, 9412.186
4178.648, 9421.799
4180.577, 9434.495
4182.505, 9451.838
4184.434, 9452.060
4186.362, 9441.667
4188.291, 9458.405
4190.219, 9471.540
4192.147, 9457.491
4194.076, 9460.535
4196.004, 9475.720
4197.933, 9477.139
4199.861, 9481.093
4201.790, 9495.926
4203.718, 9496.373
4205.647, 9495.026
4207.575, 9526.203
4209.504, 9543.808
4211.432, 9527.431
4213.361, 9536.448
4215.289, 9556.590
4217.218, 9558.518
4219.146, 9553.271
4221.075, 9544.792
4223.003, 9549.385
4224.932, 9561.037
4226.860, 9574.670
4228.789, 9582.329
4230.717, 9581.464
4232.646, 9586.776
4234.574, 9593.987
4236.502, 9594.785
4238.431, 9597.667
4240.359, 9603.896
4242.288, 9601.283
4244.216, 9596.266
4246.145, 9599.527
4248.073, 9584.225
4250.001, 9584.271
4251.930, 9590.011
4253.858, 9595.420
4255.787, 9595.736
4257.715, 9605.759
4259.644, 9617.951
4261.572, 9606.616
4263.501, 9595.723
4265.429, 9594.063
4267.358, 9611.950
4269.286, 9633.143
4271.215, 9624.121
4273.143, 9626.454
4275.072, 9646.073
4277.000, 9636.130
4278.929, 9617.885
4280.857, 9614.402
4282.786, 9611.610
4284.714, 9608.144
4286.643, 9608.770
4288.571, 9612.112
4290.500, 9618.572
4292.428, 9619.706
4294.356, 9616.587
4296.285, 9614.089
4298.213, 9609.584
4300.142, 9601.359
4302.070, 9615.036
4303.999, 9632.170
4305.927, 9622.638
4307.855, 9609.567
4309.784, 9598.403
4311.712, 9589.754
4313.641, 9585.391
4315.569, 9586.478
4317.498, 9592.729
4319.426, 9599.999
4321.355, 9591.189
4323.283, 9586.393
4325.212, 9596.510
4327.140, 9594.872
4329.069, 9587.685
4330.997, 9587.178
4332.926, 9589.971
4334.854, 9595.140
4336.783, 9603.597
4338.711, 9606.646
4340.640, 9593.493
4342.568, 9578.881
4344.497, 9567.216
4346.425, 9570.650
4348.354, 9576.331
4350.282, 9579.344
4352.210, 9576.216
4354.139, 9570.828
4356.067, 9563.459
4357.996, 9572.316
4359.924, 9598.732
4361.853, 9602.041
4363.781, 9593.213
4365.709, 9577.297
4367.638, 9568.710
4369.566, 9567.734
4371.495, 9572.861
4373.423, 9576.609
4375.352, 9575.510
4377.280, 9575.786
4379.209, 9575.157
4381.137, 9571.050
4383.066, 9567.065
4384.994, 9564.709
4386.923, 9570.804
4388.851, 9568.743
4390.780, 9568.163
4392.708, 9552.920
4394.637, 9561.441
4396.565, 9545.743
4398.494, 9533.744
4400.422, 9529.324
4402.351, 9524.233
4404.279, 9520.612
4406.208, 9521.359
4408.136, 9514.782
4410.064, 9516.013
4411.993, 9511.630
4413.921, 9515.239
4415.850, 9514.547
4417.778, 9512.271
4419.707, 9512.719
4421.635, 9522.400
4423.563, 9520.797
4425.492, 9511.221
4427.420, 9503.772
4429.349, 9495.966
4431.277, 9487.982
4433.206, 9487.803
4435.134, 9487.638
4437.063, 9480.801
4438.991, 9477.206
4440.920, 9474.657
4442.848, 9463.073
4444.777, 9461.031
4446.705, 9452.447
4448.634, 9458.041
4450.562, 9440.423
4452.491, 9428.901
4454.419, 9429.710
4456.348, 9436.152
4458.276, 9428.519
4460.205, 9428.527
4462.133, 9440.378
4464.062, 9448.643
4465.990, 9451.575
4467.918, 9447.354
4469.847, 9446.246
4471.775, 9441.594
4473.704, 9412.965
4475.632, 9399.111
4477.561, 9403.347
4479.489, 9397.362
4481.417, 9390.990
4483.346, 9389.382
4485.274, 9393.862
4487.203, 9395.168
4489.131, 9389.383
4491.060, 9368.571
4492.988, 9376.810
4494.917, 9370.691
4496.845, 9364.144
4498.774, 9363.295
4500.702, 9358.562
4502.631, 9351.572
4504.559, 9343.182
4506.488, 9339.331
4508.416, 9338.636
4510.345, 9336.324
4512.273, 9331.767
4514.202, 9333.834
4516.130, 9329.739
4518.059, 9335.394
4519.987, 9336.854
4521.916, 9335.620
4523.844, 9329.703
4525.772, 9313.083
4527.701, 9303.192
4529.629, 9300.778
4531.558, 9292.208
4533.486, 9288.311
4535.415, 9292.357
4537.343, 9294.948
4539.271, 9292.294
4541.200, 9279.009
4543.128, 9275.590
4545.057, 9276.944
4546.985, 9268.069
4548.914, 9265.495
4550.842, 9270.318
4552.771, 9265.806
4554.699, 9257.210
4556.628, 9246.770
4558.556, 9239.991
4560.485, 9235.558
4562.413, 9232.451
4564.342, 9230.161
4566.270, 9225.330
4568.199, 9206.795
4570.127, 9199.024
4572.056, 9204.709
4573.984, 9206.422
4575.913, 9203.479
4577.841, 9194.574
4579.770, 9188.658
4581.698, 9182.791
4583.626, 9173.498
4585.555, 9174.137
4587.483, 9167.886
4589.412, 9168.681
4591.340, 9160.512
4593.269, 9157.030
4595.197, 9151.803
4597.125, 9166.675
4599.054, 9150.006
4600.982, 9156.590
4602.911, 9164.696
4604.839, 9160.154
4606.768, 9154.592
4608.696, 9144.354
4610.625, 9122.255
4612.553, 9098.936
4614.482, 9081.462
4616.410, 9087.575
4618.339, 9089.088
4620.267, 9079.904
4622.196, 9086.262
4624.124, 9083.279
4626.053, 9060.900
4627.981, 9045.425
4629.910, 9035.835
4631.838, 9030.697
4633.767, 9026.154
4635.695, 9021.165
4637.624, 9015.714
4639.552, 9005.841
4641.480, 8995.210
4643.409, 8999.342
4645.337, 8996.213
4647.266, 8982.572
4649.194, 8971.799
4651.123, 8962.635
4653.051, 8954.452
4654.979, 8946.171
4656.908, 8937.704
4658.836, 8933.671
4660.765, 8925.802
4662.693, 8923.843
4664.622, 8928.080
4666.550, 8916.222
4668.479, 8897.420
4670.407, 8895.960
4672.336, 8898.956
4674.264, 8902.142
4676.193, 8898.386
4678.121, 8890.517
4680.050, 8879.264
4681.978, 8865.698
4683.907, 8852.688
4685.835, 8842.728
4687.764, 8841.276
4689.692, 8843.763
4691.621, 8847.434
4693.549, 8835.426
4695.478, 8824.328
4697.406, 8820.968
4699.334, 8809.941
4701.263, 8806.237
4703.191, 8794.182
4705.120, 8785.478
4707.048, 8777.382
4708.977, 8759.174
4710.905, 8746.578
4712.833, 8741.481
4714.762, 8736.064
4716.690, 8731.344
4718.619, 8727.412
4720.547, 8717.886
4722.476, 8706.037
4724.404, 8693.376
4726.333, 8701.730
4728.261, 8706.978
4730.190, 8687.712
4732.118, 8688.314
4734.047, 8687.232
4735.975, 8648.338
4737.904, 8636.076
4739.832, 8639.661
4741.761, 8636.998
4743.689, 8624.811
4745.618, 8609.245
4747.546, 8603.360
4749.475, 8600.738
4751.403, 8599.021
4753.332, 8598.534
4755.260, 8595.897
4757.188, 8590.714
4759.117, 8586.994
4761.045, 8569.521
4762.974, 8575.506
4764.902, 8565.297
4766.831, 8558.168
4768.759, 8561.202
4770.688, 8556.616
4772.616, 8544.598
4774.544, 8522.705
4776.473, 8540.120
4778.401, 8553.494
4780.330, 8529.394
4782.258, 8513.848
4784.187, 8509.183
4786.115, 8496.324
4788.044, 8506.942
4789.972, 8489.823
4791.901, 8494.878
4793.829, 8502.755
4795.758, 8500.057
4797.686, 8491.051
4799.615, 8480.160
4801.543, 8461.979
4803.472, 8446.613
4805.400, 8430.157
4807.329, 8417.826
4809.257, 8416.644
4811.186, 8408.907
4813.114, 8398.491
4815.042, 8406.006
4816.971, 8403.848
4818.899, 8390.604
4820.828, 8379.521
4822.756, 8364.177
4824.685, 8347.999
4826.613, 8347.657
4828.542, 8343.888
4830.470, 8333.096
4832.398, 8332.730
4834.327, 8317.487
4836.255, 8324.311
4838.184, 8317.118
4840.112, 8310.300
4842.041, 8307.282
4843.969, 8298.235
4845.898, 8288.782
4847.826, 8281.049
4849.755, 8277.312
4851.683, 8269.698
4853.612, 8256.317
4855.540, 8248.217
4857.469, 8247.315
4859.397, 8251.402
4861.326, 8242.781
4863.254, 8229.087
4865.183, 8214.286
4867.111, 8212.799
4869.040, 8206.068
4870.968, 8189.295
4872.896, 8190.510
4874.825, 8185.527
4876.753, 8164.922
4878.682, 8164.143
4880.610, 8155.024
4882.539, 8128.585
4884.467, 8113.163
4886.396, 8107.129
4888.324, 8108.751
4890.252, 8109.707
4892.181, 8113.303
4894.109, 8118.532
4896.038, 8099.028
4897.966, 8074.123
4899.895, 8054.116
4901.823, 8054.489
4903.752, 8053.151
4905.680, 8042.943
4907.609, 8043.994
4909.537, 8047.742
4911.466, 8048.229
4913.394, 8033.736
4915.323, 8014.987
4917.251, 7997.156
4919.180, 7989.331
4921.108, 7972.249
4923.037, 7969.322
4924.965, 7955.330
4926.894, 7961.643
4928.822, 7958.725
4930.750, 7948.652
4932.679, 7929.734
4934.607, 7908.319
4936.536, 7910.583
4938.464, 7906.217
4940.393, 7893.382
4942.321, 7888.156
4944.250, 7883.189
4946.178, 7877.750
4948.106, 7873.865
4950.035, 7865.419
4951.963, 7854.106
4953.892, 7843.386
4955.820, 7837.253
4957.749, 7830.667
4959.677, 7812.580
4961.606, 7811.948
4963.534, 7815.673
4965.463, 7797.727
4967.391, 7790.249
4969.320, 7783.124
4971.248, 7761.818
4973.177, 7756.559
4975.105, 7751.813
4977.034, 7730.634
4978.962, 7725.741
4980.891, 7721.874
4982.819, 7706.630
4984.748, 7700.075
4986.676, 7694.878
4988.604, 7686.698
4990.533, 7675.758
4992.461, 7676.767
4994.390, 7652.433
4996.318, 7638.615
4998.247, 7629.619
5000.175, 7623.475
5002.104, 7621.414
5004.032, 7619.202
5005.960, 7613.596
5007.889, 7596.214
5009.817, 7583.985
5011.746, 7575.957
5013.674, 7558.891
5015.603, 7556.154
5017.531, 7559.022
5019.460, 7546.506
5021.388, 7535.849
5023.317, 7530.378
5025.245, 7515.432
5027.174, 7511.808
5029.102, 7488.354
5031.031, 7489.548
5032.959, 7474.664
5034.888, 7463.956
5036.816, 7469.946
5038.745, 7452.421
5040.673, 7434.508
5042.602, 7425.150
5044.530, 7420.963
5046.458, 7418.283
5048.387, 7413.577
5050.315, 7392.580
5052.244, 7381.194
5054.172, 7377.190
5056.101, 7363.026
5058.029, 7359.039
5059.958, 7357.371
5061.886, 7344.515
5063.814, 7330.834
5065.743, 7319.442
5067.671, 7311.825
5069.600, 7312.725
5071.528, 7308.545
5073.457, 7291.443
5075.385, 7273.711
5077.314, 7262.474
5079.242, 7259.098
5081.171, 7249.704
5083.099, 7238.944
5085.028, 7228.530
5086.956, 7219.826
5088.885, 7210.021
5090.813, 7202.692
5092.742, 7196.832
5094.670, 7198.534
5096.599, 7183.998
5098.527, 7176.982
5100.456, 7163.493
5102.384, 7150.879
5104.313, 7144.503
5106.241, 7131.220
5108.169, 7116.963
5110.098, 7104.466
5112.026, 7094.282
5113.955, 7101.570
5115.883, 7088.948
5117.812, 7086.964
5119.740, 7076.614
5121.668, 7074.482
5123.597, 7066.576
5125.525, 7056.508
5127.454, 7045.633
5129.382, 7034.471
5131.311, 7025.850
5133.239, 7015.048
5135.168, 7001.466
5137.096, 6993.443
5139.025, 6983.220
5140.953, 6974.167
5142.882, 6966.881
5144.810, 6957.863
5146.739, 6951.784
5148.667, 6943.748
5150.596, 6931.783
5152.524, 6919.496
5154.453, 6909.872
5156.381, 6912.087
5158.310, 6909.281
5160.238, 6897.117
5162.167, 6875.342
5164.095, 6868.085
5166.023, 6865.896
5167.952, 6841.717
5169.880, 6839.304
5171.809, 6841.225
5173.737, 6830.616
5175.666, 6822.653
5177.594, 6811.503
5179.522, 6795.557
5181.451, 6785.224
5183.379, 6770.878
5185.308, 6759.146
5187.236, 6748.079
5189.165, 6735.792
5191.093, 6734.199
5193.022, 6722.701
5194.950, 6725.241
5196.879, 6726.603
5198.807, 6718.553
5200.736, 6694.625
5202.664, 6681.120
5204.593, 6675.058
5206.521, 6647.737
5208.450, 6649.376
5210.378, 6658.345
5212.307, 6643.711
5214.235, 6638.308
5216.164, 6635.776
5218.092, 6631.331
5220.021, 6607.771
5221.949, 6592.332
5223.877, 6584.722
5225.806, 6569.212
5227.734, 6561.350
5229.663, 6558.334
5231.591, 6557.163
5233.520, 6544.115
5235.448, 6532.264
5237.376, 6525.298
5239.305, 6515.106
5241.233, 6500.454
5243.162, 6487.963
5245.090, 6492.952
5247.019, 6487.396
5248.947, 6472.327
5250.876, 6451.403
5252.804, 6449.493
5254.733, 6438.259
5256.661, 6418.676
5258.590, 6421.332
5260.518, 6418.560
5262.447, 6408.671
5264.375, 6393.556
5266.304, 6378.963
5268.232, 6368.377
5270.161, 6363.090
5272.089, 6364.755
5274.018, 6356.048
5275.946, 6340.074
5277.875, 6325.340
5279.803, 6322.335
5281.731, 6314.786
5283.660, 6293.850
5285.588, 6273.131
5287.517, 6257.101
5289.445, 6247.327
5291.374, 6244.776
5293.302, 6247.409
5295.230, 6244.975
5297.159, 6228.195
5299.087, 6217.905
5301.016, 6212.511
5302.944, 6208.725
5304.873, 6198.454
5306.801, 6184.773
5308.730, 6171.247
5310.658, 6161.178
5312.587, 6142.524
5314.515, 6123.490
5316.444, 6110.413
5318.372, 6118.045
5320.301, 6114.048
5322.229, 6101.021
5324.158, 6087.135
5326.086, 6068.189
5328.015, 6055.404
5329.943, 6050.976
5331.872, 6040.557
5333.800, 6039.400
5335.729, 6040.082
5337.657, 6031.610
5339.585, 6008.618
5341.514, 5987.588
5343.442, 5973.468
5345.371, 5958.037
5347.299, 5938.536
5349.228, 5921.264
5351.156, 5913.692
5353.084, 5904.567
5355.013, 5907.104
5356.941, 5892.515
5358.870, 5892.754
5360.798, 5871.253
5362.727, 5856.942
5364.655, 5849.708
5366.584, 5852.611
5368.512, 5850.167
5370.441, 5840.608
5372.369, 5838.305
5374.298, 5823.767
5376.226, 5803.148
5378.155, 5784.295
5380.083, 5781.768
5382.012, 5776.896
5383.940, 5765.124
5385.869, 5759.939
5387.797, 5744.532
5389.726, 5741.626
5391.654, 5724.275
5393.583, 5711.796
5395.511, 5702.948
5397.439, 5697.332
5399.368, 5695.561
5401.296, 5685.557
5403.225, 5671.690
5405.153, 5658.854
5407.082, 5643.058
5409.010, 5638.932
5410.938, 5612.708
5412.867, 5605.515
5414.795, 5598.739
5416.724, 5596.773
5418.652, 5597.698
5420.581, 5596.357
5422.509, 5573.657
5424.438, 5552.931
5426.366, 5548.858
5428.295, 5550.372
5430.223, 5543.276
5432.152, 5529.036
5434.080, 5512.688
5436.009, 5504.836
5437.937, 5497.419
5439.866, 5488.158
5441.794, 5482.347
5443.723, 5461.364
5445.651, 5443.431
5447.580, 5441.501
5449.508, 5425.496
5451.437, 5413.452
5453.365, 5409.697
5455.293, 5416.180
5457.222, 5394.112
5459.150, 5381.091
5461.079, 5381.890
5463.007, 5362.028
5464.936, 5342.427
5466.864, 5331.364
5468.792, 5330.333
5470.721, 5316.257
5472.649, 5307.060
5474.578, 5299.653
5476.506, 5285.200
5478.435, 5269.947
5480.363, 5258.483
5482.292, 5251.155
5484.220, 5244.348
5486.149, 5243.993
5488.077, 5241.643
5490.006, 5232.159
5491.934, 5216.045
5493.863, 5204.575
5495.791, 5195.028
5497.720, 5183.035
5499.648, 5175.185
5501.577, 5160.330
5503.505, 5143.781
5505.434, 5137.799
5507.362, 5126.809
5509.291, 5136.729
5511.219, 5114.669
5513.147, 5115.405
5515.076, 5113.702
5517.004, 5105.548
5518.933, 5091.048
5520.861, 5077.404
5522.790, 5063.197
5524.718, 5050.585
5526.646, 5041.236
5528.575, 5030.196
5530.503, 5018.370
5532.432, 5003.637
5534.360, 4982.726
5536.289, 4992.779
5538.217, 4993.380
5540.146, 4975.923
5542.074, 4952.335
5544.003, 4931.265
5545.931, 4923.864
5547.860, 4910.526
5549.788, 4911.639
5551.717, 4898.989
5553.645, 4892.287
5555.574, 4889.461
5557.502, 4878.846
5559.431, 4866.888
5561.359, 4859.297
5563.288, 4846.451
5565.216, 4835.446
5567.145, 4823.904
5569.073, 4813.813
5571.001, 4810.899
5572.930, 4796.179
5574.858, 4789.243
5576.787, 4783.810
5578.715, 4766.962
5580.644, 4756.333
5582.572, 4753.339
5584.500, 4751.266
5586.429, 4739.333
5588.357, 4727.808
5590.286, 4713.388
5592.214, 4698.686
5594.143, 4695.647
5596.071, 4678.677
5598.000, 4671.833
5599.928, 4660.766
5601.857, 4654.150
5603.785, 4638.796
5605.714, 4627.036
5607.642, 4616.981
5609.571, 4612.142
5611.499, 4593.939
5613.428, 4578.959
5615.356, 4575.174
5617.285, 4570.184
5619.213, 4567.190
5621.142, 4558.674
5623.070, 4543.088
5624.999, 4541.732
5626.927, 4531.459
5628.855, 4511.116
5630.784, 4487.828
5632.712, 4492.497
5634.641, 4478.471
5636.569, 4462.566
5638.498, 4459.097
5640.426, 4454.477
5642.354, 4443.824
5644.283, 4431.232
5646.211, 4420.831
5648.140, 4417.816
5650.068, 4404.085
5651.997, 4394.371
5653.925, 4386.447
5655.854, 4374.246
5657.782, 4373.290
5659.711, 4372.740
5661.639, 4363.700
5663.568, 4357.056
5665.496, 4334.700
5667.425, 4335.317
5669.353, 4314.902
5671.282, 4301.266
5673.210, 4298.329
5675.139, 4287.249
5677.067, 4276.583
5678.996, 4267.707
5680.924, 4253.292
5682.853, 4246.495
5684.781, 4232.823
5686.709, 4224.370
5688.638, 4218.889
5690.566, 4215.822
5692.495, 4209.647
5694.423, 4182.943
5696.352, 4177.428
5698.280, 4171.177
5700.208, 4157.854
5702.137, 4154.252
5704.065, 4141.614
5705.994, 4131.091
5707.922, 4124.106
5709.851, 4112.871
5711.779, 4096.662
5713.708, 4085.137
5715.636, 4080.407
5717.565, 4069.573
5719.493, 4072.489
5721.422, 4060.782
5723.350, 4054.985
5725.279, 4060.396
5727.207, 4043.346
5729.136, 4020.476
5731.064, 4004.480
5732.993, 4001.130
5734.921, 3994.548
5736.850, 3981.863
5738.778, 3971.838
5740.707, 3969.089
5742.635, 3967.417
5744.563, 3947.723
5746.492, 3931.925
5748.420, 3928.810
5750.349, 3923.628
5752.277, 3915.030
5754.206, 3907.864
5756.134, 3899.810
5758.063, 3881.626
5759.991, 3882.410
5761.919, 3862.856
5763.848, 3839.882
5765.776, 3847.885
5767.705, 3836.758
5769.633, 3818.172
5771.562, 3808.030
5773.490, 3798.916
5775.419, 3794.944
5777.347, 3784.473
5779.276, 3778.226
5781.204, 3771.322
5783.133, 3760.038
5785.061, 3747.095
5786.990, 3737.457
5788.918, 3730.628
5790.847, 3720.640
5792.775, 3719.196
5794.704, 3716.114
5796.632, 3705.916
5798.561, 3687.750
5800.489, 3685.210
5802.417, 3676.816
5804.346, 3667.409
5806.274, 3662.772
5808.203, 3659.035
5810.131, 3651.482
5812.060, 3642.935
5813.988, 3617.475
5815.917, 3623.410
5817.845, 3609.385
5819.773, 3601.461
5821.702, 3597.632
5823.630, 3586.211
5825.559, 3581.567
5827.487, 3570.870
5829.416, 3558.071
5831.344, 3547.142
5833.273, 3534.218
5835.201, 3538.759
5837.130, 3536.346
5839.058, 3521.520
5840.987, 3503.155
5842.915, 3504.226
5844.844, 3505.230
5846.772, 3495.580
5848.701, 3489.434
5850.629, 3468.411
5852.558, 3465.919
5854.486, 3456.575
5856.415, 3441.774
5858.343, 3433.148
5860.271, 3425.492
5862.200, 3416.724
5864.128, 3410.615
5866.057, 3404.081
5867.985, 3397.265
5869.914, 3391.094
5871.842, 3381.508
5873.771, 3370.897
5875.699, 3370.516
5877.627, 3362.699
5879.556, 3351.396
5881.484, 3340.008
5883.413, 3330.993
5885.341, 3326.950
5887.270, 3313.676
5889.198, 3307.478
5891.127, 3292.847
5893.055, 3290.236
5894.984, 3283.823
5896.912, 3273.670
5898.841, 3268.205
5900.769, 3270.568
5902.698, 3253.401
5904.626, 3237.573
5906.555, 3232.616
5908.483, 3232.484
5910.412, 3222.321
5912.340, 3216.361
5914.269, 3211.013
5916.197, 3204.470
5918.125, 3195.282
5920.054, 3179.430
5921.982, 3173.252
5923.911, 3154.520
5925.839, 3155.868
5927.768, 3150.998
5929.696, 3144.596
5931.625, 3145.406
5933.553, 3134.428
5935.481, 3110.882
5937.410, 3103.644
5939.338, 3094.164
5941.267, 3086.909
5943.195, 3083.244
5945.124, 3081.224
5947.052, 3072.336
5948.981, 3067.834
5950.909, 3056.337
5952.838, 3039.376
5954.766, 3025.934
5956.695, 3023.212
5958.623, 3017.091
5960.552, 3011.941
5962.480, 3008.938
5964.409, 3003.309
5966.337, 3007.267
5968.266, 2994.956
5970.194, 2981.969
5972.123, 2977.590
5974.051, 2958.345
5975.979, 2946.724
5977.908, 2955.483
5979.836, 2965.210
5981.765, 2959.352
5983.693, 2966.029
5985.622, 2962.135
5987.550, 2935.252
5989.479, 2906.969
5991.407, 2902.793
5993.335, 2878.213
5995.264, 2872.518
5997.192, 2863.127
5999.121, 2847.239
6001.049, 2842.219
6002.978, 2836.121
6004.906, 2835.255
6006.835, 2832.172
6008.763, 2826.082
6010.692, 2825.756
6012.620, 2812.612
6014.549, 2800.869
6016.477, 2791.309
6018.406, 2784.038
6020.334, 2776.032
6022.263, 2777.456
6024.191, 2766.018
6026.120, 2761.026
6028.048, 2761.373
6029.977, 2740.714
6031.905, 2732.766
6033.833, 2728.760
6035.762, 2721.260
6037.690, 2710.815
6039.619, 2714.664
6041.547, 2701.260
6043.476, 2689.232
6045.404, 2677.580
6047.333, 2662.978
6049.261, 2655.646
6051.189, 2649.779
6053.118, 2649.080
6055.046, 2646.590
6056.975, 2639.164
6058.903, 2633.755
6060.832, 2623.898
6062.760, 2614.469
6064.689, 2606.179
6066.617, 2597.196
6068.546, 2594.737
6070.474, 2580.776
6072.403, 2576.039
6074.331, 2568.786
6076.260, 2552.390
6078.188, 2552.957
6080.117, 2545.881
6082.045, 2537.012
6083.974, 2529.140
6085.902, 2523.498
6087.831, 2522.015
6089.759, 2512.577
6091.688, 2505.876
6093.616, 2497.389
6095.544, 2485.801
6097.473, 2476.439
6099.401, 2468.567
6101.330, 2465.235
6103.258, 2461.611
6105.187, 2459.581
6107.115, 2450.583
6109.043, 2441.766
6110.972, 2432.438
6112.900, 2425.027
6114.829, 2416.577
6116.757, 2411.853
6118.686, 2400.991
6120.614, 2395.504
6122.543, 2391.919
6124.471, 2387.238
6126.400, 2380.163
6128.328, 2369.956
6130.257, 2365.984
6132.185, 2357.404
6134.114, 2348.344
6136.042, 2342.351
6137.971, 2335.843
6139.899, 2329.659
6141.828, 2323.084
6143.756, 2316.550
6145.685, 2310.164
6147.613, 2303.745
6149.542, 2298.050
6151.470, 2292.638
6153.398, 2290.008
6155.327, 2284.476
6157.255, 2271.549
6159.184, 2260.579
6161.112, 2257.342
6163.041, 2247.542
6164.969, 2239.021
6166.897, 2236.039
6168.826, 2230.698
6170.754, 2224.523
6172.683, 2219.723
6174.611, 2212.821
6176.540, 2205.050
6178.468, 2199.928
6180.397, 2197.118
6182.325, 2182.203
6184.254, 2176.480
6186.182, 2174.006
6188.111, 2165.319
6190.039, 2160.009
6191.968, 2154.327
6193.896, 2147.448
6195.825, 2139.162
6197.753, 2135.347
6199.682, 2132.444
6201.610, 2118.591
6203.539, 2122.693
6205.467, 2118.551
6207.396, 2098.815
6209.324, 2078.037
6211.252, 2087.648
6213.181, 2084.398
6215.109, 2083.531
6217.038, 2080.686
6218.966, 2071.398
6220.895, 2057.552
6222.823, 2053.874
6224.751, 2043.848
6226.680, 2038.460
6228.608, 2034.423
6230.537, 2025.850
6232.465, 2019.441
6234.394, 2012.642
6236.322, 2004.911
6238.251, 2000.520
6240.179, 1996.433
6242.108, 1990.721
6244.036, 1991.181
6245.965, 1986.275
6247.893, 1981.262
6249.822, 1972.270
6251.750, 1966.706
6253.679, 1966.350
6255.607, 1952.270
6257.536, 1947.414
6259.464, 1942.047
6261.393, 1942.170
6263.321, 1936.337
6265.250, 1936.371
6267.178, 1927.098
6269.106, 1923.387
6271.035, 1916.270
6272.963, 1912.294
6274.892, 1909.612
6276.820, 1899.874
6278.749, 1884.373
6280.677, 1877.950
6282.605, 1874.072
6284.534, 1868.425
6286.462, 1862.646
6288.391, 1859.464
6290.319, 1848.834
6292.248, 1854.407
6294.176, 1841.437
6296.105, 1830.466
6298.033, 1831.120
6299.962, 1829.351
6301.890, 1820.968
6303.819, 1813.269
6305.747, 1808.551
6307.676, 1801.118
6309.604, 1792.147
6311.533, 1788.411
6313.461, 1786.903
6315.390, 1782.084
6317.318, 1800.295
6319.247, 1790.620
6321.175, 1767.335
6323.104, 1782.265
6325.032, 1767.240
6326.960, 1749.147
6328.889, 1735.172
6330.817, 1732.018
6332.746, 1732.314
6334.674, 1725.215
6336.603, 1714.339
6338.531, 1724.289
6340.459, 1707.660
6342.388, 1698.838
6344.316, 1699.376
6346.245, 1694.372
6348.173, 1692.801
6350.102, 1694.206
6352.030, 1681.537
6353.959, 1679.117
6355.887, 1675.667
6357.816, 1663.572
6359.744, 1660.688
6361.673, 1657.323
6363.601, 1653.595
6365.530, 1649.257
6367.458, 1642.792
6369.387, 1637.088
6371.315, 1635.624
6373.244, 1625.960
6375.172, 1621.303
6377.101, 1609.152
6379.029, 1605.777
6380.958, 1602.985
6382.886, 1592.274
6384.814, 1594.654
6386.743, 1590.698
6388.671, 1582.610
6390.600, 1575.944
6392.528, 1574.398
6394.457, 1573.507
6396.385, 1567.504
6398.313, 1568.927
6400.242, 1556.095
6402.170, 1549.314
6404.099, 1549.917
6406.027, 1544.618
6407.956, 1533.337
6409.884, 1539.537
6411.813, 1527.411
6413.741, 1514.147
6415.670, 1511.369
6417.598, 1503.815
6419.527, 1511.397
6421.455, 1499.696
6423.384, 1497.187
6425.312, 1500.636
6427.241, 1488.134
6429.169, 1486.791
6431.098, 1487.014
6433.026, 1478.882
6434.955, 1472.198
6436.883, 1468.166
6438.812, 1459.517
6440.740, 1458.091
6442.668, 1451.999
6444.597, 1455.060
6446.525, 1443.288
6448.454, 1444.642
6450.382, 1441.986
6452.311, 1445.897
6454.239, 1435.685
6456.167, 1425.996
6458.096, 1421.631
6460.024, 1418.597
6461.953, 1417.616
6463.881, 1412.276
6465.810, 1408.393
6467.738, 1402.389
6469.667, 1394.992
6471.595, 1388.890
6473.524, 1386.574
6475.452, 1388.287
6477.381, 1380.366
6479.309, 1379.164
6481.238, 1375.886
6483.166, 1365.061
6485.095, 1360.527
6487.023, 1364.640
6488.952, 1355.959
6490.880, 1354.498
6492.809, 1351.958
6494.737, 1345.215
6496.666, 1344.476
6498.594, 1337.445
6500.522, 1331.736
6502.451, 1321.952
6504.379, 1316.201
6506.308, 1311.715
6508.236, 1310.464
6510.165, 1312.193
6512.093, 1310.868
6514.021, 1305.313
6515.950, 1297.155
6517.878, 1296.786
6519.807, 1289.394
6521.735, 1290.718
6523.664, 1285.480
6525.592, 1278.113
6527.521, 1270.986
6529.449, 1265.000
6531.378, 1261.201
6533.306, 1256.340
6535.235, 1256.886
6537.163, 1253.516
6539.092, 1253.062
6541.020, 1246.641
6542.949, 1237.419
6544.877, 1236.971
6546.806, 1233.280
6548.734, 1235.847
6550.663, 1225.986
6552.591, 1224.523
6554.520, 1222.137
6556.448, 1216.058
6558.376, 1212.264
6560.305, 1212.967
6562.233, 1211.377
6564.162, 1204.983
6566.090, 1201.806
6568.019, 1196.248
6569.947, 1192.927
6571.875, 1188.892
6573.804, 1183.665
6575.732, 1182.623
6577.661, 1176.148
6579.589, 1175.668
6581.518, 1177.545
6583.446, 1173.684
6585.375, 1166.365
6587.303, 1163.414
6589.232, 1164.164
6591.160, 1155.024
6593.089, 1151.590
6595.017, 1139.637
6596.946, 1138.661
6598.874, 1138.599
6600.803, 1140.020
6602.731, 1139.581
6604.660, 1133.060
6606.588, 1126.778
6608.517, 1125.824
6610.445, 1122.495
6612.374, 1121.505
6614.302, 1118.687
6616.230, 1112.850
6618.159, 1107.392
6620.087, 1105.917
6622.016, 1108.155
6623.944, 1102.609
6625.873, 1099.068
6627.801, 1094.435
6629.729, 1089.358
##END=



