##NAMES=Sogdianite
##RRUFFID=R050648
##IDEAL CHEMISTRY=KZr_2_Li_3_Si_12_O_30_
##LOCALITY=Dara-i-Pioz, Tadjikistan
##OWNER=RRUFF
##SOURCE=Dmitri Belakyovski
##DESCRIPTION=Purple tabular fragment, used in the Geiger & Grodzicki (2012) study
##STATUS=The identification of this mineral has been confirmed by X-ray diffraction and chemical analysis
##URL=https://www.rruff.net/odr/rruff_sample/R050648
##MEASURED CHEMISTRY=([box]_1.13_Na_0.87_)K_1.00_Li_3.00_(Zr_0.76_Fe^3+^_0.73_Ti_0.37_Al_0.14_)Si_12.00_O_30_ ; Li not measured but estimated by difference and charge balance.
##DIFFRACTION SAMPLE DESCRIPTION=Powder
##CELL PARAMETERS=a: 10.0439 b: 10.0439 c: 14.2089 alpha: 90 beta: 90 gamma: 120 volume: 1241.3 crystal system: hexagonal
##FILETYPE=Raman RAW
##RAMAN WAVELENGTH=532

85.98978, 1773.869
87.91824, 1500.455
89.84671, 1331.331
91.77518, 1351.880
93.70364, 1451.248
95.63211, 1531.327
97.56058, 1601.942
99.48904, 1635.361
101.4175, 1604.203
103.3460, 1465.089
105.2744, 1428.542
107.2029, 1486.329
109.1314, 1658.836
111.0598, 1942.400
112.9883, 2120.845
114.9168, 2633.967
116.8452, 3686.687
118.7737, 5294.562
120.7022, 7160.031
122.6306, 9531.309
124.5591, 12130.16
126.4876, 14322.14
128.4160, 15820.31
130.3445, 17221.70
132.2730, 18693.33
134.2014, 20167.42
136.1299, 21972.41
138.0584, 24394.17
139.9868, 27185.88
141.9153, 29585.04
143.8438, 31706.89
145.7722, 33281.75
147.7007, 34255.52
149.6292, 33917.83
151.5576, 31931.92
153.4861, 29321.94
155.4146, 26426.11
157.3430, 23808.22
159.2715, 21442.21
161.2000, 19311.11
163.1284, 17452.99
165.0569, 15765.71
166.9854, 14440.60
168.9138, 13586.66
170.8423, 13103.66
172.7708, 12670.78
174.6992, 12295.09
176.6277, 11943.71
178.5562, 11590.66
180.4846, 11229.33
182.4131, 10873.83
184.3416, 10508.40
186.2701, 10142.27
188.1985, 9823.837
190.1270, 9543.374
192.0555, 9307.854
193.9839, 9114.912
195.9124, 8987.631
197.8409, 8861.004
199.7693, 8706.141
201.6978, 8548.015
203.6263, 8452.570
205.5547, 8482.513
207.4832, 8525.931
209.4117, 8521.111
211.3401, 8428.965
213.2686, 8351.132
215.1971, 8283.307
217.1255, 8233.160
219.0540, 8221.124
220.9825, 8282.879
222.9109, 8352.462
224.8394, 8385.623
226.7679, 8360.346
228.6963, 8407.130
230.6248, 8596.518
232.5533, 8886.725
234.4817, 9146.009
236.4102, 9337.238
238.3387, 9536.097
240.2671, 9756.248
242.1956, 9980.357
244.1241, 10306.79
246.0525, 10762.43
247.9810, 11313.54
249.9095, 11908.48
251.8379, 12566.56
253.7664, 13266.40
255.6949, 13999.18
257.6233, 14808.85
259.5518, 15526.41
261.4803, 16072.30
263.4087, 16539.36
265.3372, 17047.71
267.2657, 17587.67
269.1941, 18174.82
271.1226, 18875.38
273.0511, 19741.89
274.9795, 20352.14
276.9080, 20714.75
278.8365, 20849.76
280.7649, 20735.26
282.6934, 20238.49
284.6219, 19597.48
286.5503, 18792.64
288.4788, 17834.08
290.4073, 16942.14
292.3357, 16150.60
294.2642, 15448.21
296.1927, 14865.56
298.1211, 14406.32
300.0496, 14111.44
301.9781, 13973.51
303.9065, 13971.18
305.8350, 14084.73
307.7635, 14430.66
309.6919, 14839.29
311.6204, 15235.94
313.5489, 15606.21
315.4773, 16044.27
317.4058, 16523.19
319.3343, 17114.84
321.2627, 17912.33
323.1912, 18946.93
325.1197, 20147.17
327.0481, 21628.86
328.9766, 23353.73
330.9051, 24961.28
332.8336, 26447.09
334.7620, 27681.65
336.6905, 28512.61
338.6190, 28910.98
340.5474, 29006.71
342.4759, 28581.38
344.4044, 27724.17
346.3328, 26677.08
348.2613, 25412.83
350.1898, 24013.37
352.1182, 22608.62
354.0467, 21230.95
355.9752, 20042.01
357.9036, 19145.34
359.8321, 18450.89
361.7606, 17866.86
363.6890, 17380.67
365.6175, 16999.09
367.5460, 16714.76
369.4744, 16509.71
371.4029, 16358.14
373.3314, 16268.92
375.2598, 16238.30
377.1883, 16266.27
379.1168, 16372.89
381.0452, 16432.91
382.9737, 16443.38
384.9022, 16416.31
386.8306, 16354.47
388.7591, 16164.98
390.6876, 15926.26
392.6160, 15673.07
394.5445, 15439.21
396.4730, 15314.41
398.4014, 15352.67
400.3299, 15495.30
402.2584, 15710.80
404.1868, 16011.13
406.1153, 16477.93
408.0438, 17025.93
409.9722, 17635.53
411.9007, 18299.17
413.8292, 18965.55
415.7576, 19792.04
417.6861, 20813.56
419.6146, 22047.06
421.5430, 23428.66
423.4715, 25183.92
425.4000, 27085.91
427.3284, 28952.33
429.2569, 30709.91
431.1854, 32749.30
433.1138, 34852.88
435.0423, 37286.13
436.9708, 40539.27
438.8992, 44766.89
440.8277, 49424.64
442.7562, 54527.69
444.6846, 60268.50
446.6131, 65066.95
448.5416, 69091.15
450.4700, 71897.97
452.3985, 72961.14
454.3270, 71684.41
456.2554, 69022.89
458.1839, 65092.34
460.1124, 60331.70
462.0408, 54987.93
463.9693, 49874.14
465.8978, 45217.22
467.8262, 41177.54
469.7547, 37776.18
471.6832, 34952.09
473.6116, 32626.42
475.5401, 30547.60
477.4686, 28656.82
479.3970, 26865.47
481.3255, 25152.55
483.2540, 23461.74
485.1824, 21869.06
487.1109, 20473.84
489.0394, 19369.08
490.9678, 18437.19
492.8963, 17691.26
494.8248, 17058.26
496.7532, 16471.34
498.6817, 15951.02
500.6102, 15413.27
502.5386, 14814.88
504.4671, 14147.23
506.3956, 13526.50
508.3240, 12940.59
510.2525, 12426.51
512.1810, 12008.20
514.1094, 11739.44
516.0379, 11485.32
517.9664, 11178.67
519.8948, 10853.91
521.8233, 10589.48
523.7518, 10429.57
525.6802, 10282.75
527.6087, 10104.57
529.5372, 9913.512
531.4656, 9789.945
533.3941, 9771.997
535.3226, 9741.306
537.2510, 9644.029
539.1795, 9478.018
541.1080, 9329.736
543.0364, 9266.333
544.9649, 9221.130
546.8934, 9150.573
548.8218, 9011.762
550.7503, 8892.450
552.6788, 8806.935
554.6072, 8711.686
556.5357, 8545.325
558.4642, 8356.718
560.3926, 8243.647
562.3211, 8218.680
564.2496, 8212.237
566.1780, 8163.446
568.1065, 8089.421
570.0350, 8042.198
571.9634, 8039.565
573.8919, 8063.797
575.8204, 8101.008
577.7488, 8176.661
579.6773, 8262.963
581.6058, 8338.340
583.5342, 8393.607
585.4627, 8488.479
587.3912, 8654.182
589.3196, 8855.771
591.2481, 9088.384
593.1766, 9319.190
595.1050, 9478.757
597.0335, 9527.936
598.9620, 9584.719
600.8904, 9772.519
602.8189, 10059.51
604.7474, 10232.28
606.6758, 10197.16
608.6043, 10084.29
610.5328, 10021.26
612.4612, 10038.17
614.3897, 10030.02
616.3182, 9958.030
618.2466, 9845.118
620.1751, 9747.983
622.1036, 9720.100
624.0320, 9719.769
625.9605, 9695.737
627.8890, 9661.738
629.8174, 9744.163
631.7459, 10013.29
633.6744, 10285.07
635.6028, 10532.75
637.5313, 10703.62
639.4598, 10754.70
641.3882, 10655.41
643.3167, 10480.89
645.2452, 10236.50
647.1736, 9956.869
649.1021, 9665.237
651.0306, 9326.192
652.9590, 8997.793
654.8875, 8729.493
656.8160, 8544.588
658.7444, 8366.411
660.6729, 8176.672
662.6014, 8008.123
664.5298, 7896.863
666.4583, 7841.346
668.3868, 7772.320
670.3152, 7648.518
672.2437, 7522.063
674.1722, 7442.499
676.1006, 7426.617
678.0291, 7388.235
679.9576, 7305.806
681.8860, 7214.279
683.8145, 7135.236
685.7430, 7066.062
687.6714, 7031.210
689.5999, 7066.301
691.5284, 7110.692
693.4568, 7103.993
695.3853, 7054.101
697.3138, 7003.644
699.2422, 6936.065
701.1707, 6859.560
703.0992, 6844.174
705.0276, 6957.279
706.9561, 7043.688
708.8846, 7033.002
710.8130, 6955.005
712.7415, 6920.233
714.6700, 6946.868
716.5984, 6961.676
718.5269, 6915.839
720.4554, 6847.848
722.3839, 6828.085
724.3123, 6900.067
726.2408, 6976.536
728.1693, 7040.175
730.0977, 7103.128
732.0262, 7172.954
733.9547, 7265.357
735.8831, 7331.935
737.8116, 7345.664
739.7401, 7315.505
741.6685, 7296.378
743.5970, 7276.163
745.5255, 7281.352
747.4539, 7331.026
749.3824, 7435.203
751.3109, 7547.570
753.2393, 7689.857
755.1678, 7807.327
757.0963, 7877.739
759.0247, 7899.225
760.9532, 7898.320
762.8817, 7854.755
764.8101, 7810.726
766.7386, 7786.345
768.6671, 7779.370
770.5955, 7770.118
772.5240, 7755.927
774.4525, 7741.577
776.3809, 7724.263
778.3094, 7699.809
780.2379, 7700.440
782.1663, 7741.658
784.0948, 7791.690
786.0233, 7823.228
787.9517, 7836.103
789.8802, 7885.573
791.8087, 7993.807
793.7371, 8129.215
795.6656, 8273.259
797.5941, 8425.286
799.5225, 8579.539
801.4510, 8707.982
803.3795, 8864.379
805.3079, 9102.122
807.2364, 9422.462
809.1649, 9702.784
811.0933, 9864.855
813.0218, 10049.10
814.9503, 10342.09
816.8787, 10758.33
818.8072, 11154.29
820.7357, 11572.95
822.6641, 11927.35
824.5926, 12174.10
826.5211, 12294.52
828.4495, 12344.46
830.3780, 12352.95
832.3065, 12288.64
834.2349, 12117.09
836.1634, 11828.74
838.0919, 11487.24
840.0203, 11041.38
841.9488, 10600.46
843.8773, 10203.72
845.8057, 9886.120
847.7342, 9628.256
849.6627, 9425.911
851.5911, 9247.854
853.5196, 9109.882
855.4481, 9014.666
857.3765, 8913.519
859.3050, 8746.568
861.2335, 8638.918
863.1619, 8650.347
865.0904, 8705.859
867.0189, 8728.480
868.9473, 8743.788
870.8758, 8761.156
872.8043, 8727.866
874.7327, 8657.822
876.6612, 8656.476
878.5897, 8811.291
880.5181, 8933.813
882.4466, 8956.286
884.3751, 8937.370
886.3035, 8982.815
888.2320, 9098.718
890.1605, 9213.521
892.0889, 9300.296
894.0174, 9398.019
895.9459, 9502.801
897.8743, 9581.825
899.8028, 9704.509
901.7313, 9897.981
903.6597, 10178.57
905.5882, 10501.96
907.5167, 10833.95
909.4451, 11211.86
911.3736, 11662.90
913.3021, 12181.70
915.2305, 12700.11
917.1590, 13214.24
919.0875, 13810.95
921.0159, 14529.42
922.9444, 15307.48
924.8729, 16137.64
926.8013, 17045.05
928.7298, 18004.13
930.6583, 18996.88
932.5867, 20019.44
934.5152, 21114.71
936.4437, 22298.32
938.3721, 23510.02
940.3006, 24710.90
942.2291, 25969.75
944.1575, 27326.23
946.0860, 28714.79
948.0145, 30117.33
949.9429, 31561.37
951.8714, 32940.16
953.7999, 34169.24
955.7283, 35360.21
957.6568, 36533.02
959.5853, 37676.17
961.5137, 38751.88
963.4422, 39736.59
965.3707, 40697.47
967.2991, 41690.16
969.2276, 42681.82
971.1561, 43639.91
973.0845, 44562.11
975.0130, 45494.63
976.9415, 46404.79
978.8699, 47337.82
980.7984, 48359.23
982.7269, 49526.49
984.6553, 50650.25
986.5838, 51803.27
988.5123, 52922.55
990.4407, 53764.44
992.3692, 54320.56
994.2977, 54617.84
996.2261, 54548.11
998.1546, 54101.81
1000.083, 53298.34
1002.012, 52063.82
1003.940, 50511.14
1005.868, 48777.37
1007.797, 46942.42
1009.725, 44882.04
1011.654, 42538.86
1013.582, 40042.34
1015.511, 37395.49
1017.439, 34758.89
1019.368, 32343.72
1021.296, 30128.89
1023.225, 28033.97
1025.153, 26049.55
1027.082, 24280.55
1029.010, 22798.66
1030.939, 21458.53
1032.867, 20228.78
1034.796, 19151.10
1036.724, 18161.54
1038.652, 17109.94
1040.581, 16105.76
1042.509, 15229.90
1044.438, 14433.11
1046.366, 13706.52
1048.295, 13104.57
1050.223, 12691.66
1052.152, 12390.67
1054.080, 12142.80
1056.009, 11933.84
1057.937, 11771.47
1059.866, 11678.89
1061.794, 11646.40
1063.723, 11700.85
1065.651, 11800.07
1067.579, 11902.81
1069.508, 11993.16
1071.436, 12105.52
1073.365, 12281.11
1075.293, 12477.45
1077.222, 12662.39
1079.150, 12820.73
1081.079, 12955.63
1083.007, 13062.22
1084.936, 13196.52
1086.864, 13339.11
1088.793, 13434.19
1090.721, 13478.93
1092.650, 13580.30
1094.578, 13785.61
1096.506, 13995.83
1098.435, 14164.60
1100.363, 14324.14
1102.292, 14534.96
1104.220, 14843.23
1106.149, 15255.89
1108.077, 15656.00
1110.006, 15992.23
1111.934, 16254.67
1113.863, 16459.04
1115.791, 16637.58
1117.720, 16751.52
1119.648, 16719.00
1121.577, 16662.00
1123.505, 16715.89
1125.433, 16926.71
1127.362, 17272.78
1129.290, 17761.67
1131.219, 18283.82
1133.147, 18734.43
1135.076, 19065.62
1137.004, 19248.26
1138.933, 19279.08
1140.861, 19177.88
1142.790, 18910.08
1144.718, 18535.31
1146.647, 18004.48
1148.575, 17322.85
1150.504, 16652.33
1152.432, 16043.62
1154.360, 15531.59
1156.289, 15064.37
1158.217, 14583.66
1160.146, 14052.07
1162.074, 13538.58
1164.003, 13093.24
1165.931, 12690.43
1167.860, 12332.11
1169.788, 11993.35
1171.717, 11638.27
1173.645, 11265.39
1175.574, 10907.67
1177.502, 10652.04
1179.431, 10556.02
1181.359, 10600.77
1183.287, 10604.44
1185.216, 10490.19
1187.144, 10380.72
1189.073, 10381.40
1191.001, 10368.14
1192.930, 10205.90
1194.858, 9880.442
1196.787, 9644.353
1198.715, 9523.291
1200.644, 9382.108
1202.572, 9225.666
1204.501, 9088.197
1206.429, 9042.332
1208.358, 9127.220
1210.286, 9175.742
1212.214, 9164.279
1214.143, 9121.055
1216.071, 9045.429
1218.000, 8926.247
1219.928, 8886.049
1221.857, 9000.602
1223.785, 9085.560
1225.714, 9094.914
1227.642, 9062.979
1229.571, 9000.646
1231.499, 8837.959
1233.428, 8711.232
1235.356, 8725.940
1237.285, 8795.842
1239.213, 8817.486
1241.141, 8776.682
1243.070, 8722.825
1244.998, 8642.517
1246.927, 8562.297
1248.855, 8497.536
1250.784, 8456.548
1252.712, 8446.818
1254.641, 8484.438
1256.569, 8465.324
1258.498, 8287.315
1260.426, 8124.073
1262.355, 8152.106
1264.283, 8338.512
1266.212, 8425.629
1268.140, 8321.177
1270.068, 8258.796
1271.997, 8282.061
1273.925, 8326.288
1275.854, 8385.564
1277.782, 8497.406
1279.711, 8588.257
1281.639, 8617.874
1283.568, 8623.589
1285.496, 8657.751
1287.425, 8732.294
1289.353, 8754.309
1291.282, 8682.170
1293.210, 8612.254
1295.139, 8588.995
1297.067, 8563.743
1298.995, 8563.172
1300.924, 8594.782
1302.852, 8590.710
1304.781, 8506.808
1306.709, 8434.754
1308.638, 8434.403
1310.566, 8493.016
1312.495, 8548.504
1314.423, 8590.526
1316.352, 8520.377
1318.280, 8215.035
1320.209, 7980.623
1322.137, 7959.532
1324.066, 8062.872
1325.994, 8073.827
1327.922, 7909.410
1329.851, 7820.301
1331.779, 7888.759
1333.708, 7972.123
1335.636, 7978.659
1337.565, 7918.355
1339.493, 7872.717
1341.422, 7847.997
1343.350, 7826.417
1345.279, 7782.004
1347.207, 7756.416
1349.136, 7795.949
1351.064, 7867.517
1352.993, 7875.642
1354.921, 7786.641
1356.849, 7743.917
1358.778, 7781.866
1360.706, 7844.577
1362.635, 7931.529
1364.563, 8057.275
1366.492, 8139.897
1368.420, 8135.161
1370.349, 8129.152
1372.277, 8147.729
1374.206, 8184.969
1376.134, 8205.438
1378.063, 8194.580
1379.991, 8199.937
1381.920, 8262.395
1383.848, 8294.797
1385.776, 8251.136
1387.705, 8169.056
1389.633, 8096.643
1391.562, 8035.271
1393.490, 7985.466
1395.419, 7933.309
1397.347, 7912.110
1399.276, 7955.494
1401.204, 8037.693
1403.133, 8126.206
1405.061, 8224.437
1406.990, 8280.690
1408.918, 8232.385
1410.847, 8212.228
1412.775, 8326.537
1414.703, 8493.475
1416.632, 8524.188
1418.560, 8351.176
1420.489, 8239.099
1422.417, 8245.513
1424.346, 8268.812
1426.274, 8253.017
1428.203, 8227.259
1430.131, 8264.465
1432.060, 8407.668
1433.988, 8524.613
1435.917, 8585.830
1437.845, 8654.080
1439.774, 8781.179
1441.702, 8927.703
1443.630, 8994.839
1445.559, 8962.595
1447.487, 8993.959
1449.416, 9189.273
1451.344, 9352.969
1453.273, 9363.477
1455.201, 9292.889
1457.130, 9258.395
1459.058, 9261.928
1460.987, 9260.522
1462.915, 9248.902
1464.844, 9232.464
1466.772, 9222.381
1468.701, 9200.335
1470.629, 9137.737
1472.557, 9033.003
1474.486, 8921.583
1476.414, 8766.352
1478.343, 8662.044
1480.271, 8688.783
1482.200, 8769.352
1484.128, 8778.130
1486.057, 8687.813
1487.985, 8629.426
1489.914, 8593.816
1491.842, 8603.420
1493.771, 8718.552
1495.699, 8853.761
1497.628, 8890.442
1499.556, 8804.843
1501.484, 8727.794
1503.413, 8665.502
1505.341, 8608.562
1507.270, 8544.584
1509.198, 8498.473
1511.127, 8492.247
1513.055, 8518.772
1514.984, 8546.423
1516.912, 8570.443
1518.841, 8603.782
1520.769, 8648.604
1522.698, 8702.367
1524.626, 8797.114
1526.555, 8899.151
1528.483, 8882.567
1530.411, 8715.206
1532.340, 8626.024
1534.268, 8716.810
1536.197, 8805.410
1538.125, 8771.538
1540.054, 8691.729
1541.982, 8697.847
1543.911, 8803.665
1545.839, 8859.345
1547.768, 8809.120
1549.696, 8746.005
1551.625, 8711.091
1553.553, 8702.936
1555.482, 8695.225
1557.410, 8681.152
1559.339, 8668.856
1561.267, 8638.782
1563.195, 8651.302
1565.124, 8777.501
1567.052, 8907.475
1568.981, 8948.908
1570.909, 8918.017
1572.838, 8948.046
1574.766, 9083.826
1576.695, 9203.317
1578.623, 9280.870
1580.552, 9318.510
1582.480, 9308.359
1584.409, 9280.430
1586.337, 9258.075
1588.266, 9232.125
1590.194, 9247.807
1592.122, 9312.438
1594.051, 9394.000
1595.979, 9448.246
1597.908, 9555.654
1599.836, 9837.322
1601.765, 10267.38
1603.693, 10556.29
1605.622, 10669.01
1607.550, 10694.02
1609.479, 10582.92
1611.407, 10440.08
1613.336, 10329.80
1615.264, 10154.03
1617.193, 10054.25
1619.121, 9796.280
1621.049, 9579.327
1622.978, 9395.457
1624.906, 9261.576
1626.835, 9200.093
1628.763, 9173.893
1630.692, 9152.132
1632.620, 9137.361
1634.549, 9143.079
1636.477, 9180.845
1638.406, 9211.330
1640.334, 9255.165
1642.263, 9263.802
1644.191, 9174.168
1646.120, 9054.629
1648.048, 9007.239
1649.976, 9035.580
1651.905, 9097.783
1653.833, 9228.076
1655.762, 9328.457
1657.690, 9385.559
1659.619, 9400.737
1661.547, 9361.271
1663.476, 9284.475
1665.404, 9214.881
1667.333, 9155.147
1669.261, 9093.009
1671.190, 9033.385
1673.118, 8963.675
1675.047, 8839.508
1676.975, 8734.839
1678.903, 8735.121
1680.832, 8821.254
1682.760, 8890.054
1684.689, 8936.365
1686.617, 8980.272
1688.546, 9025.676
1690.474, 9066.506
1692.403, 9116.084
1694.331, 9149.958
1696.260, 9113.579
1698.188, 9021.172
1700.117, 9016.159
1702.045, 9155.891
1703.974, 9224.328
1705.902, 9080.120
1707.830, 8968.937
1709.759, 9038.122
1711.687, 9198.599
1713.616, 9335.242
1715.544, 9446.244
1717.473, 9507.846
1719.401, 9522.495
1721.330, 9479.908
1723.258, 9269.252
1725.187, 9122.261
1727.115, 9251.278
1729.044, 9491.237
1730.972, 9542.605
1732.901, 9407.670
1734.829, 9323.916
1736.757, 9318.489
1738.686, 9322.683
1740.614, 9356.800
1742.543, 9357.771
1744.471, 9242.121
1746.400, 9089.583
1748.328, 9050.733
1750.257, 9129.877
1752.185, 9190.450
1754.114, 9247.686
1756.042, 9249.811
1757.971, 9150.351
1759.899, 9033.802
1761.828, 8893.608
1763.756, 8791.029
1765.684, 8872.436
1767.613, 9147.605
1769.541, 9266.457
1771.470, 9113.080
1773.398, 9032.364
1775.327, 9140.749
1777.255, 9246.035
1779.184, 9268.912
1781.112, 9226.525
1783.041, 9098.133
1784.969, 8891.447
1786.898, 8841.631
1788.826, 9103.405
1790.755, 9225.821
1792.683, 9066.561
1794.611, 8926.354
1796.540, 8938.458
1798.468, 9011.685
1800.397, 9060.022
1802.325, 9085.030
1804.254, 9094.229
1806.182, 9081.419
1808.111, 9064.160
1810.039, 9038.256
1811.968, 9010.733
1813.896, 8990.816
1815.825, 8961.356
1817.753, 8868.336
1819.682, 8763.447
1821.610, 8810.933
1823.538, 9065.006
1825.467, 9203.372
1827.395, 9122.665
1829.324, 9109.267
1831.252, 9319.012
1833.181, 9481.759
1835.109, 9401.255
1837.038, 9225.949
1838.966, 9171.817
1840.895, 9232.215
1842.823, 9290.978
1844.752, 9360.721
1846.680, 9367.483
1848.609, 9232.650
1850.537, 9144.751
1852.465, 9238.248
1854.394, 9352.054
1856.322, 9339.167
1858.251, 9253.422
1860.179, 9235.896
1862.108, 9288.911
1864.036, 9345.520
1865.965, 9405.285
1867.893, 9454.135
1869.822, 9512.711
1871.750, 9529.227
1873.679, 9444.521
1875.607, 9322.199
1877.536, 9210.673
1879.464, 9123.732
1881.392, 9139.802
1883.321, 9277.224
1885.249, 9400.822
1887.178, 9519.191
1889.106, 9572.625
1891.035, 9480.881
1892.963, 9384.635
1894.892, 9379.534
1896.820, 9433.931
1898.749, 9515.143
1900.677, 9621.813
1902.606, 9655.979
1904.534, 9595.581
1906.463, 9512.384
1908.391, 9328.729
1910.319, 9233.074
1912.248, 9352.717
1914.176, 9507.515
1916.105, 9538.137
1918.033, 9510.897
1919.962, 9598.021
1921.890, 9577.792
1923.819, 9514.745
1925.747, 9574.896
1927.676, 9391.546
1929.604, 9352.294
1931.533, 9388.892
1933.461, 9563.536
1935.390, 9721.055
1937.318, 9738.106
1939.246, 9664.566
1941.175, 9574.010
1943.103, 9474.730
1945.032, 9478.529
1946.960, 9622.816
1948.889, 9689.277
1950.817, 9569.779
1952.746, 9499.072
1954.674, 9638.251
1956.603, 9791.188
1958.531, 9800.227
1960.460, 9739.887
1962.388, 9728.990
1964.317, 9764.371
1966.245, 9825.021
1968.173, 9950.220
1970.102, 9958.116
1972.030, 9679.353
1973.959, 9512.891
1975.887, 9658.436
1977.816, 9811.533
1979.744, 9759.668
1981.673, 9632.486
1983.601, 9603.283
1985.530, 9653.336
1987.458, 9682.947
1989.387, 9687.146
1991.315, 9690.006
1993.244, 9685.885
1995.172, 9698.073
1997.100, 9763.156
1999.029, 9801.914
2000.957, 9752.326
2002.886, 9692.129
2004.814, 9689.988
2006.743, 9720.963
2008.671, 9746.573
2010.600, 9762.518
2012.528, 9721.953
2014.457, 9599.978
2016.385, 9556.212
2018.314, 9668.635
2020.242, 9759.021
2022.171, 9733.012
2024.099, 9714.674
2026.027, 9824.205
2027.956, 9943.712
2029.884, 9895.146
2031.813, 9738.229
2033.741, 9700.576
2035.670, 9807.736
2037.598, 9861.222
2039.527, 9821.396
2041.455, 9816.938
2043.384, 9911.242
2045.312, 9962.381
2047.241, 9909.320
2049.169, 9825.954
2051.098, 9690.874
2053.026, 9597.952
2054.955, 9736.555
2056.883, 10008.26
2058.812, 10086.81
2060.740, 9968.888
2062.668, 9881.288
2064.597, 9846.204
2066.525, 9828.531
2068.454, 9817.738
2070.382, 9829.077
2072.311, 9874.134
2074.239, 9935.242
2076.168, 10033.37
2078.096, 10117.37
2080.025, 10126.05
2081.953, 10066.97
2083.882, 9936.622
2085.810, 9710.022
2087.739, 9657.035
2089.667, 9843.365
2091.595, 9974.872
2093.524, 9998.830
2095.452, 10004.45
2097.381, 10004.49
2099.309, 10009.21
2101.238, 10002.79
2103.166, 10093.74
2105.095, 9962.560
2107.023, 9967.449
2108.952, 9893.733
2110.880, 9790.389
2112.809, 9760.412
2114.737, 9710.815
2116.666, 9715.771
2118.594, 9660.482
2120.522, 9762.399
2122.451, 9749.500
2124.379, 9755.508
2126.308, 9866.010
2128.236, 9959.942
2130.165, 9927.580
2132.093, 9862.536
2134.022, 9876.181
2135.950, 9947.104
2137.879, 10040.60
2139.807, 10144.97
2141.736, 10143.40
2143.664, 10009.28
2145.593, 9966.570
2147.521, 10099.51
2149.449, 10192.88
2151.378, 10164.15
2153.306, 10137.94
2155.235, 10198.89
2157.163, 10232.33
2159.092, 10077.97
2161.020, 9910.718
2162.949, 10012.71
2164.877, 10264.38
2166.806, 10301.04
2168.734, 10140.32
2170.663, 10043.30
2172.591, 10020.50
2174.520, 10046.48
2176.448, 10139.87
2178.376, 10205.12
2180.305, 10200.29
2182.233, 10201.95
2184.162, 10286.87
2186.090, 10323.84
2188.019, 10152.28
2189.947, 9976.938
2191.876, 10038.06
2193.804, 10220.05
2195.733, 10320.64
2197.661, 10345.19
2199.590, 10306.03
2201.518, 10197.95
2203.447, 10169.62
2205.375, 10246.31
2207.303, 10276.14
2209.232, 10228.10
2211.160, 10156.63
2213.089, 10005.10
2215.017, 9955.027
2216.946, 10188.03
2218.874, 10419.76
2220.803, 10475.85
2222.731, 10428.23
2224.660, 10316.66
2226.588, 10173.99
2228.517, 10041.96
2230.445, 9934.462
2232.374, 9972.774
2234.302, 10156.48
2236.230, 10242.85
2238.159, 10209.33
2240.087, 10161.24
2242.016, 10090.93
2243.944, 10081.06
2245.873, 10220.23
2247.801, 10310.37
2249.730, 10188.52
2251.658, 10124.98
2253.587, 10389.62
2255.515, 10646.25
2257.444, 10542.72
2259.372, 10292.71
2261.301, 10168.88
2263.229, 10157.18
2265.157, 10258.50
2267.086, 10442.72
2269.014, 10521.35
2270.943, 10486.62
2272.871, 10495.14
2274.800, 10577.83
2276.728, 10629.11
2278.657, 10648.82
2280.585, 10612.84
2282.514, 10459.65
2284.442, 10334.61
2286.371, 10278.75
2288.299, 10263.72
2290.228, 10305.60
2292.156, 10351.38
2294.084, 10368.16
2296.013, 10360.84
2297.941, 10293.54
2299.870, 10225.90
2301.798, 10314.83
2303.727, 10516.78
2305.655, 10600.94
2307.584, 10559.42
2309.512, 10533.83
2311.441, 10543.14
2313.369, 10496.16
2315.298, 10345.72
2317.226, 10294.98
2319.155, 10418.74
2321.083, 10516.31
2323.011, 10542.81
2324.940, 10512.65
2326.868, 10345.09
2328.797, 10233.47
2330.725, 10352.67
2332.654, 10498.20
2334.582, 10488.71
2336.511, 10421.69
2338.439, 10400.25
2340.368, 10418.96
2342.296, 10493.13
2344.225, 10593.78
2346.153, 10600.62
2348.082, 10530.04
2350.010, 10506.44
2351.938, 10536.52
2353.867, 10568.68
2355.795, 10613.95
2357.724, 10613.83
2359.652, 10497.33
2361.581, 10456.58
2363.509, 10565.37
2365.438, 10632.00
2367.366, 10592.95
2369.295, 10555.38
2371.223, 10600.24
2373.152, 10594.98
2375.080, 10362.94
2377.009, 10173.25
2378.937, 10270.80
2380.865, 10470.13
2382.794, 10623.28
2384.722, 10715.40
2386.651, 10710.37
2388.579, 10630.66
2390.508, 10491.26
2392.436, 10330.41
2394.365, 10333.47
2396.293, 10477.78
2398.222, 10565.67
2400.150, 10586.49
2402.079, 10575.07
2404.007, 10497.75
2405.936, 10495.14
2407.864, 10644.76
2409.792, 10682.42
2411.721, 10504.40
2413.649, 10438.66
2415.578, 10607.90
2417.506, 10758.46
2419.435, 10827.37
2421.363, 10823.03
2423.292, 10665.22
2425.220, 10547.56
2427.149, 10605.91
2429.077, 10709.09
2431.006, 10782.50
2432.934, 10832.40
2434.863, 10855.06
2436.791, 10865.45
2438.719, 10893.08
2440.648, 10914.52
2442.576, 10896.53
2444.505, 10840.00
2446.433, 10702.99
2448.362, 10750.71
2450.290, 10548.19
2452.219, 10767.38
2454.147, 10863.73
2456.076, 10835.99
2458.004, 10801.99
2459.933, 10766.91
2461.861, 10708.88
2463.790, 10605.18
2465.718, 10597.01
2467.646, 10581.36
2469.575, 10545.11
2471.503, 10662.01
2473.432, 10555.60
2475.360, 10691.40
2477.289, 10777.37
2479.217, 10697.61
2481.146, 10656.03
2483.074, 10794.60
2485.003, 10886.96
2486.931, 10742.36
2488.860, 10638.16
2490.788, 10791.51
2492.717, 10961.95
2494.645, 10990.03
2496.573, 10958.47
2498.502, 10926.41
2500.430, 10879.74
2502.359, 10759.15
2504.287, 10654.49
2506.216, 10711.55
2508.144, 10842.69
2510.073, 10906.66
2512.001, 10921.50
2513.930, 10926.21
2515.858, 10920.01
2517.787, 10903.04
2519.715, 10872.17
2521.644, 10788.40
2523.572, 10669.54
2525.500, 10663.10
2527.429, 10770.05
2529.357, 10869.08
2531.286, 10961.48
2533.214, 11014.89
2535.143, 11142.92
2537.071, 11076.05
2539.000, 11102.66
2540.928, 11080.64
2542.857, 10928.10
2544.785, 10993.52
2546.714, 10710.33
2548.642, 10608.97
2550.571, 10795.63
2552.499, 10930.14
2554.427, 10963.10
2556.356, 10973.15
2558.284, 10985.49
2560.213, 10956.13
2562.141, 10801.41
2564.070, 10717.79
2565.998, 10796.71
2567.927, 10891.82
2569.855, 10986.38
2571.784, 11044.53
2573.712, 11018.19
2575.641, 11013.61
2577.569, 11096.44
2579.498, 11194.15
2581.426, 11305.68
2583.354, 11371.72
2585.283, 11363.03
2587.211, 11291.24
2589.140, 11080.27
2591.068, 10914.60
2592.997, 10941.47
2594.925, 11042.99
2596.854, 11170.64
2598.782, 11270.26
2600.711, 11257.51
2602.639, 11217.34
2604.568, 11244.99
2606.496, 11295.38
2608.425, 11351.79
2610.353, 11369.00
2612.281, 11238.77
2614.210, 11284.96
2616.138, 11115.73
2618.067, 11217.65
2619.995, 11170.69
2621.924, 11066.49
2623.852, 11078.28
2625.781, 11164.28
2627.709, 11281.57
2629.638, 11389.85
2631.566, 11422.82
2633.495, 11371.96
2635.423, 11141.29
2637.352, 10828.97
2639.280, 10733.77
2641.208, 10820.31
2643.137, 11052.34
2645.065, 11348.44
2646.994, 11420.77
2648.922, 11522.09
2650.851, 11351.48
2652.779, 11444.30
2654.708, 11315.27
2656.636, 11284.53
2658.565, 11278.26
2660.493, 11181.98
2662.422, 11213.22
2664.350, 11122.56
2666.279, 11066.68
2668.207, 11051.45
2670.135, 11192.94
2672.064, 11460.83
2673.992, 11552.53
2675.921, 11486.99
2677.849, 11387.18
2679.778, 11269.79
2681.706, 11306.60
2683.635, 11489.96
2685.563, 11561.75
2687.492, 11526.25
2689.420, 11418.03
2691.349, 11261.82
2693.277, 11280.41
2695.206, 11472.41
2697.134, 11610.28
2699.063, 11694.00
2700.991, 11607.81
2702.919, 11368.11
2704.848, 11340.93
2706.776, 11504.13
2708.705, 11617.68
2710.633, 11670.22
2712.562, 11642.21
2714.490, 11535.81
2716.419, 11527.64
2718.347, 11610.34
2720.276, 11683.14
2722.204, 11743.26
2724.133, 11775.08
2726.061, 11783.77
2727.990, 11858.95
2729.918, 11988.81
2731.846, 11916.55
2733.775, 11682.59
2735.703, 11652.33
2737.632, 11791.86
2739.560, 11885.31
2741.489, 11928.50
2743.417, 11903.21
2745.346, 11824.30
2747.274, 11799.45
2749.203, 11822.11
2751.131, 11850.67
2753.060, 11899.02
2754.988, 12066.57
2756.917, 12296.81
2758.845, 12341.91
2760.773, 12241.91
2762.702, 12122.93
2764.630, 12005.56
2766.559, 11966.42
2768.487, 11973.06
2770.416, 11946.32
2772.344, 11892.76
2774.273, 11798.65
2776.201, 11709.41
2778.130, 11752.64
2780.058, 11871.03
2781.987, 11996.84
2783.915, 12090.89
2785.844, 12055.78
2787.772, 11965.61
2789.700, 11948.81
2791.629, 11953.70
2793.557, 11873.27
2795.486, 11910.11
2797.414, 11850.06
2799.343, 11949.04
2801.271, 12009.23
2803.200, 12044.84
2805.128, 12029.66
2807.057, 12047.32
2808.985, 12251.08
2810.914, 12418.80
2812.842, 12306.59
2814.771, 12157.05
2816.699, 12176.14
2818.627, 12201.12
2820.556, 12119.07
2822.484, 12033.58
2824.413, 11952.93
2826.341, 11963.69
2828.270, 12206.66
2830.198, 12400.96
2832.127, 12378.00
2834.055, 12386.59
2835.984, 12544.64
2837.912, 12696.05
2839.841, 12791.27
2841.769, 12858.16
2843.698, 12825.88
2845.626, 12951.84
2847.554, 13351.00
2849.483, 13672.64
2851.411, 13786.52
2853.340, 13936.95
2855.268, 14136.32
2857.197, 14438.91
2859.125, 14869.16
2861.054, 15258.51
2862.982, 15576.71
2864.911, 15958.52
2866.839, 16451.88
2868.768, 16844.37
2870.696, 17138.00
2872.625, 17302.31
2874.553, 17338.82
2876.481, 17236.68
2878.410, 17024.23
2880.338, 17026.52
2882.267, 17197.14
2884.195, 17227.66
2886.124, 17165.59
2888.052, 17164.23
2889.981, 17195.39
2891.909, 17158.69
2893.838, 17125.25
2895.766, 17234.02
2897.695, 17436.56
2899.623, 17730.31
2901.552, 17997.94
2903.480, 18072.95
2905.408, 18095.99
2907.337, 18189.81
2909.265, 18309.55
2911.194, 18426.46
2913.122, 18555.15
2915.051, 18764.60
2916.979, 18899.11
2918.908, 18766.38
2920.836, 18740.52
2922.765, 18994.56
2924.693, 19214.69
2926.622, 19283.30
2928.550, 19356.07
2930.479, 19508.35
2932.407, 19587.93
2934.335, 19573.84
2936.264, 19542.37
2938.192, 19501.68
2940.121, 19444.59
2942.049, 19372.83
2943.978, 19258.53
2945.906, 19102.74
2947.835, 18967.69
2949.763, 18859.27
2951.692, 18781.68
2953.620, 18747.42
2955.549, 18866.96
2957.477, 18785.55
2959.406, 18961.82
2961.334, 18789.22
2963.262, 18874.35
2965.191, 18961.14
2967.119, 18665.58
2969.048, 18261.04
2970.976, 17970.90
2972.905, 17741.81
2974.833, 17653.09
2976.762, 17446.41
2978.690, 16797.10
2980.619, 16312.86
2982.547, 16283.24
2984.476, 16185.74
2986.404, 15831.48
2988.333, 15477.57
2990.261, 15114.73
2992.189, 14919.99
2994.118, 14929.73
2996.046, 14880.18
2997.975, 14747.27
2999.903, 14532.58
3001.832, 14239.59
3003.760, 13987.06
3005.689, 13788.38
3007.617, 13744.05
3009.546, 13793.85
3011.474, 13775.17
3013.403, 13733.03
3015.331, 13782.98
3017.260, 13828.22
3019.188, 13694.71
3021.116, 13586.05
3023.045, 13759.57
3024.973, 13905.46
3026.902, 13792.97
3028.830, 13657.27
3030.759, 13544.43
3032.687, 13507.73
3034.616, 13603.66
3036.544, 13705.04
3038.473, 13799.10
3040.401, 13874.14
3042.330, 13914.78
3044.258, 14122.69
3046.187, 14228.92
3048.115, 14423.65
3050.043, 14633.80
3051.972, 14841.99
3053.900, 15074.14
3055.829, 15422.19
3057.757, 15570.31
3059.686, 15788.60
3061.614, 16072.31
3063.543, 16519.79
3065.471, 16879.32
3067.400, 16924.28
3069.328, 16847.48
3071.257, 16715.32
3073.185, 16546.77
3075.114, 16361.79
3077.042, 16100.95
3078.970, 15721.07
3080.899, 15301.82
3082.827, 14829.52
3084.756, 14499.82
3086.684, 14329.58
3088.613, 14157.36
3090.541, 13985.97
3092.470, 13887.92
3094.398, 13753.98
3096.327, 13704.78
3098.255, 13566.09
3100.184, 13515.76
3102.112, 13459.71
3104.041, 13255.09
3105.969, 13074.51
3107.897, 13018.98
3109.826, 13020.17
3111.754, 13119.17
3113.683, 13130.97
3115.611, 13000.23
3117.540, 12880.60
3119.468, 12780.26
3121.397, 12789.91
3123.325, 12915.28
3125.254, 13057.11
3127.182, 13185.69
3129.111, 13164.89
3131.039, 13038.24
3132.968, 12794.69
3134.896, 12626.83
3136.824, 12951.86
3138.753, 13259.12
3140.681, 13026.77
3142.610, 12805.02
3144.538, 12890.02
3146.467, 13011.46
3148.395, 13133.97
3150.324, 13162.41
3152.252, 13193.97
3154.181, 13214.82
3156.109, 13158.52
3158.038, 13220.04
3159.966, 13194.42
3161.895, 13251.06
3163.823, 13219.75
3165.751, 13269.99
3167.680, 13149.74
3169.608, 13041.66
3171.537, 12981.36
3173.465, 13055.93
3175.394, 13089.12
3177.322, 12976.93
3179.251, 12900.50
3181.179, 12920.54
3183.108, 12994.36
3185.036, 13131.07
3186.965, 13202.50
3188.893, 13205.21
3190.822, 13238.86
3192.750, 13278.06
3194.678, 13155.93
3196.607, 13263.28
3198.535, 13171.66
3200.464, 13365.61
3202.392, 13360.36
3204.321, 13376.33
3206.249, 13578.13
3208.178, 13679.73
3210.106, 13497.23
3212.035, 13377.68
3213.963, 13352.36
3215.892, 13329.04
3217.820, 13301.80
3219.749, 13268.55
3221.677, 13251.35
3223.605, 13399.73
3225.534, 13333.63
3227.462, 13469.75
3229.391, 13332.19
3231.319, 13320.79
3233.248, 13340.74
3235.176, 13385.74
3237.105, 13360.39
3239.033, 13388.48
3240.962, 13409.97
3242.890, 13363.86
3244.819, 13439.78
3246.747, 13345.04
3248.676, 13312.05
3250.604, 13322.65
3252.532, 13355.64
3254.461, 13372.48
3256.389, 13260.13
3258.318, 13221.19
3260.246, 13493.51
3262.175, 13681.75
3264.103, 13669.36
3266.032, 13608.70
3267.960, 13484.63
3269.889, 13511.48
3271.817, 13665.12
3273.746, 13679.60
3275.674, 13595.61
3277.603, 13504.97
3279.531, 13430.76
3281.459, 13402.10
3283.388, 13406.23
3285.316, 13485.92
3287.245, 13500.73
3289.173, 13379.13
3291.102, 13299.31
3293.030, 13286.52
3294.959, 13336.49
3296.887, 13445.29
3298.816, 13669.83
3300.744, 13892.13
3302.673, 13790.37
3304.601, 13606.75
3306.530, 13631.69
3308.458, 13696.55
3310.386, 13748.79
3312.315, 13728.40
3314.243, 13540.74
3316.172, 13469.47
3318.100, 13531.19
3320.029, 13553.71
3321.957, 13558.41
3323.886, 13820.88
3325.814, 14094.23
3327.743, 13798.29
3329.671, 13454.98
3331.600, 13523.85
3333.528, 13669.47
3335.457, 13782.92
3337.385, 13891.71
3339.313, 14043.48
3341.242, 13992.37
3343.170, 13761.90
3345.099, 13735.45
3347.027, 13822.73
3348.956, 13783.84
3350.884, 13717.16
3352.813, 13733.73
3354.741, 13764.48
3356.670, 13747.53
3358.598, 13798.90
3360.527, 13960.38
3362.455, 14045.70
3364.384, 14034.25
3366.312, 13976.12
3368.240, 13900.54
3370.169, 13931.60
3372.097, 13982.28
3374.026, 13928.49
3375.954, 13890.70
3377.883, 13936.04
3379.811, 14022.79
3381.740, 13977.38
3383.668, 14002.35
3385.597, 13986.88
3387.525, 13962.77
3389.454, 14046.39
3391.382, 14027.29
3393.311, 13991.27
3395.239, 14080.14
3397.167, 14139.22
3399.096, 14019.84
3401.024, 14009.05
3402.953, 14200.27
3404.881, 14161.50
3406.810, 14222.15
3408.738, 14264.43
3410.667, 14237.80
3412.595, 14258.70
3414.524, 14186.72
3416.452, 14110.17
3418.381, 14100.68
3420.309, 14207.24
3422.238, 14313.57
3424.166, 14406.94
3426.094, 14411.87
3428.023, 14350.61
3429.951, 14459.54
3431.880, 14373.09
3433.808, 14465.67
3435.737, 14306.44
3437.665, 14232.60
3439.594, 14263.10
3441.522, 14247.92
3443.451, 14309.76
3445.379, 14395.16
3447.308, 14414.06
3449.236, 14545.47
3451.165, 14466.61
3453.093, 14357.85
3455.021, 14435.18
3456.950, 14504.04
3458.878, 14424.56
3460.807, 14433.73
3462.735, 14423.04
3464.664, 14410.02
3466.592, 14411.51
3468.521, 14411.06
3470.449, 14407.93
3472.378, 14417.71
3474.306, 14419.31
3476.235, 14442.69
3478.163, 14472.91
3480.092, 14500.22
3482.020, 14545.09
3483.948, 14603.72
3485.877, 14624.13
3487.805, 14611.78
3489.734, 14533.04
3491.662, 14506.63
3493.591, 14688.10
3495.519, 14774.13
3497.448, 14632.62
3499.376, 14445.14
3501.305, 14237.96
3503.233, 14406.66
3505.162, 14234.23
3507.090, 14469.41
3509.019, 14244.23
3510.947, 14459.37
3512.875, 14658.94
3514.804, 14675.64
3516.732, 14724.94
3518.661, 14802.64
3520.589, 14666.34
3522.518, 14792.20
3524.446, 14662.34
3526.375, 14902.50
3528.303, 14945.13
3530.232, 14968.24
3532.160, 15017.17
3534.089, 15077.46
3536.017, 15139.00
3537.946, 15029.72
3539.874, 14858.82
3541.802, 14864.77
3543.731, 14892.92
3545.659, 14799.92
3547.588, 14776.04
3549.516, 14879.32
3551.445, 14863.77
3553.373, 14905.28
3555.302, 14963.78
3557.230, 14967.44
3559.159, 15040.40
3561.087, 15070.49
3563.016, 15059.73
3564.944, 15067.44
3566.873, 15109.06
3568.801, 15184.69
3570.729, 15261.38
3572.658, 15104.55
3574.586, 14959.55
3576.515, 15209.73
3578.443, 15414.09
3580.372, 15380.58
3582.300, 15350.16
3584.229, 15354.86
3586.157, 15334.42
3588.086, 15310.02
3590.014, 15333.73
3591.943, 15380.05
3593.871, 15435.85
3595.800, 15490.36
3597.728, 15554.63
3599.656, 15574.09
3601.585, 15548.74
3603.513, 15432.20
3605.442, 15343.96
3607.370, 15533.34
3609.299, 15717.62
3611.227, 15784.48
3613.156, 15745.22
3615.084, 15605.82
3617.013, 15433.76
3618.941, 15272.42
3620.870, 15250.64
3622.798, 15259.64
3624.727, 15193.59
3626.655, 15175.64
3628.583, 15249.55
3630.512, 15315.52
3632.440, 15359.53
3634.369, 15332.90
3636.297, 15287.17
3638.226, 15277.16
3640.154, 15298.62
3642.083, 15407.40
3644.011, 15379.07
3645.940, 15424.18
3647.868, 15283.38
3649.797, 15441.73
3651.725, 15433.40
3653.654, 15411.71
3655.582, 15490.87
3657.510, 15519.96
3659.439, 15479.16
3661.367, 15478.54
3663.296, 15495.36
3665.224, 15429.80
3667.153, 15358.44
3669.081, 15322.26
3671.010, 15302.30
3672.938, 15300.26
3674.867, 15315.79
3676.795, 15305.06
3678.724, 15350.07
3680.652, 15457.56
3682.581, 15542.97
3684.509, 15539.50
3686.438, 15672.88
3688.366, 15482.63
3690.294, 15812.07
3692.223, 15891.54
3694.151, 15832.62
3696.080, 15698.68
3698.008, 15660.70
3699.937, 15839.04
3701.865, 15881.19
3703.794, 15776.88
3705.722, 15763.15
3707.651, 15776.95
3709.579, 15720.19
3711.508, 15667.96
3713.436, 15660.08
3715.365, 15622.69
3717.293, 15564.80
3719.221, 15672.83
3721.150, 15656.90
3723.078, 15774.89
3725.007, 15747.19
3726.935, 15859.86
3728.864, 15915.92
3730.792, 15901.87
3732.721, 15861.54
3734.649, 15811.31
3736.578, 15740.19
3738.506, 15742.86
3740.435, 15978.61
3742.363, 15875.21
3744.292, 15927.90
3746.220, 15584.36
3748.148, 15898.97
3750.077, 16101.66
3752.005, 16122.20
3753.934, 15824.00
3755.862, 15668.95
3757.791, 15663.50
3759.719, 15615.00
3761.648, 15618.39
3763.576, 15851.22
3765.505, 16029.51
3767.433, 16025.36
3769.362, 16078.09
3771.290, 16147.19
3773.219, 15898.26
3775.147, 15699.04
3777.075, 15996.19
3779.004, 16202.25
3780.932, 16115.80
3782.861, 16138.29
3784.789, 16220.05
3786.718, 16107.85
3788.646, 16043.14
3790.575, 16249.00
3792.503, 16404.35
3794.432, 16457.37
3796.360, 16224.27
3798.289, 15916.60
3800.217, 16100.58
3802.146, 16206.95
3804.074, 15807.82
3806.002, 15768.34
3807.931, 16152.17
3809.859, 16343.88
3811.788, 16357.84
3813.716, 16032.27
3815.645, 15916.27
3817.573, 16298.83
3819.502, 16438.77
3821.430, 16352.51
3823.359, 16400.20
3825.287, 16455.21
3827.216, 16380.13
3829.144, 16291.41
3831.073, 16206.66
3833.001, 16172.48
3834.929, 16187.76
3836.858, 16273.45
3838.786, 16344.65
3840.715, 16345.90
3842.643, 16339.75
3844.572, 16336.43
3846.500, 16434.38
3848.429, 16473.33
3850.357, 16488.72
3852.286, 16531.05
3854.214, 16449.51
3856.143, 16562.93
3858.071, 16395.21
3860.000, 16402.50
3861.928, 16449.02
3863.856, 16427.35
3865.785, 16438.09
3867.713, 16493.23
3869.642, 16583.66
3871.570, 16660.64
3873.499, 16710.28
3875.427, 16640.02
3877.356, 16796.13
3879.284, 16891.32
3881.213, 16902.28
3883.141, 16722.48
3885.070, 16604.01
3886.998, 16739.44
3888.927, 16815.29
3890.855, 16798.04
3892.783, 16823.40
3894.712, 16921.29
3896.640, 16872.78
3898.569, 17330.68
3900.497, 16881.73
3902.426, 16720.91
3904.354, 16804.38
3906.283, 17099.59
3908.211, 17311.51
3910.140, 17175.26
3912.068, 16971.30
3913.997, 16779.13
3915.925, 16918.03
3917.854, 17182.92
3919.782, 17420.03
3921.710, 17573.51
3923.639, 17580.38
3925.567, 17648.77
3927.496, 17771.47
3929.424, 17590.09
3931.353, 17421.08
3933.281, 17457.96
3935.210, 17471.19
3937.138, 17501.38
3939.067, 17625.91
3940.995, 17723.91
3942.924, 17766.05
3944.852, 17808.19
3946.781, 17829.26
3948.709, 17953.97
3950.637, 18032.57
3952.566, 17926.43
3954.494, 17914.69
3956.423, 18068.45
3958.351, 18123.60
3960.280, 18105.00
3962.208, 17997.54
3964.137, 17965.95
3966.065, 18077.94
3967.994, 18063.96
3969.922, 18029.96
3971.851, 18081.38
3973.779, 18101.13
3975.708, 18192.66
3977.636, 18346.78
3979.564, 18508.30
3981.493, 18502.25
3983.421, 18455.19
3985.350, 18527.74
3987.278, 18520.35
3989.207, 18436.72
3991.135, 18576.31
3993.064, 18818.57
3994.992, 18823.74
3996.921, 18727.28
3998.849, 18624.45
4000.778, 18739.28
4002.706, 18857.28
4004.635, 18731.55
4006.563, 18769.52
4008.491, 18752.01
4010.420, 18718.28
4012.348, 18746.11
4014.277, 18760.15
4016.205, 18852.64
4018.134, 19009.36
4020.062, 19009.53
4021.991, 19064.50
4023.919, 19124.50
4025.848, 19103.82
4027.776, 19238.07
4029.705, 19328.85
4031.633, 19361.57
4033.562, 19251.05
4035.490, 19180.64
4037.418, 19088.19
4039.347, 19208.18
4041.275, 19191.00
4043.204, 19400.92
4045.132, 19348.47
4047.061, 19570.08
4048.989, 19726.88
4050.918, 19767.35
4052.846, 19767.13
4054.775, 19789.15
4056.703, 19772.11
4058.632, 19782.69
4060.560, 19854.55
4062.489, 19983.25
4064.417, 20042.21
4066.345, 19975.94
4068.274, 19930.01
4070.202, 19898.58
4072.131, 19881.04
4074.059, 19967.09
4075.988, 20261.32
4077.916, 20382.46
4079.845, 20306.89
4081.773, 20125.03
4083.702, 20016.54
4085.630, 20231.84
4087.559, 20405.89
4089.487, 20483.94
4091.416, 20554.72
4093.344, 20572.12
4095.272, 20488.41
4097.201, 20524.33
4099.129, 20315.36
4101.058, 20280.52
4102.986, 20334.51
4104.915, 20499.53
4106.843, 20631.09
4108.772, 20660.11
4110.700, 20647.70
4112.629, 20641.63
4114.557, 20592.57
4116.486, 20641.26
4118.414, 20689.93
4120.343, 20900.55
4122.271, 20869.25
4124.200, 21076.55
4126.128, 21205.74
4128.057, 21099.88
4129.985, 20996.85
4131.914, 20969.05
4133.842, 20936.10
4135.771, 20930.00
4137.699, 20978.43
4139.627, 20983.53
4141.556, 21075.18
4143.484, 21137.68
4145.413, 21171.01
4147.341, 21265.11
4149.270, 21249.77
4151.198, 21211.67
4153.126, 21362.77
4155.055, 21463.76
4156.983, 21392.35
4158.912, 21455.29
4160.840, 21630.67
4162.769, 21800.69
4164.697, 21725.60
4166.626, 21797.30
4168.554, 21829.97
4170.483, 21728.35
4172.411, 21819.01
4174.340, 21789.63
4176.268, 21675.48
4178.197, 21711.74
4180.125, 21724.54
4182.054, 21691.86
4183.982, 21730.74
4185.911, 21776.62
4187.839, 21899.74
4189.768, 22014.58
4191.696, 21851.08
4193.625, 21869.83
4195.553, 22231.00
4197.481, 22037.94
4199.410, 21797.54
4201.338, 21987.05
4203.267, 22201.33
4205.195, 22450.59
4207.124, 22447.36
4209.052, 22329.01
4210.980, 22101.03
4212.909, 22022.16
4214.837, 22166.65
4216.766, 22353.37
4218.694, 22482.50
4220.623, 22469.21
4222.551, 22439.71
4224.480, 22406.76
4226.408, 22481.70
4228.337, 22626.71
4230.265, 22651.86
4232.194, 22894.53
4234.122, 22788.24
4236.051, 22888.91
4237.979, 22904.95
4239.908, 22636.16
4241.836, 22729.55
4243.765, 22623.68
4245.693, 22802.03
4247.622, 22620.61
4249.550, 22605.05
4251.479, 22797.15
4253.407, 22982.26
4255.335, 22803.17
4257.264, 22659.28
4259.192, 22638.54
4261.121, 22598.97
4263.049, 22867.45
4264.978, 22756.78
4266.906, 22879.52
4268.834, 23171.55
4270.763, 22914.49
4272.691, 22654.72
4274.620, 22773.70
4276.548, 22834.68
4278.477, 22862.44
4280.405, 23115.84
4282.334, 23262.00
4284.262, 23154.13
4286.191, 23149.30
4288.119, 23176.73
4290.048, 23057.28
4291.976, 23000.58
4293.905, 23050.07
4295.833, 23073.60
4297.762, 23009.48
4299.690, 23033.22
4301.619, 23043.79
4303.547, 22990.70
4305.476, 23061.01
4307.404, 23030.27
4309.333, 22971.20
4311.261, 23000.47
4313.189, 23058.80
4315.118, 22937.69
4317.046, 22931.09
4318.975, 23139.58
4320.903, 23264.87
4322.832, 23305.73
4324.760, 23440.93
4326.688, 23273.17
4328.617, 23519.43
4330.545, 23393.78
4332.474, 23252.09
4334.402, 23401.39
4336.331, 23474.59
4338.259, 23427.76
4340.188, 23466.01
4342.116, 23543.97
4344.045, 23415.91
4345.973, 23639.82
4347.902, 23683.37
4349.830, 23567.88
4351.759, 23633.14
4353.687, 23543.01
4355.616, 23648.52
4357.544, 23452.21
4359.473, 23524.69
4361.401, 23609.93
4363.330, 23684.78
4365.258, 23696.62
4367.187, 23832.12
4369.115, 23776.11
4371.043, 23955.11
4372.972, 23712.07
4374.900, 23768.86
4376.829, 23778.38
4378.757, 23729.10
4380.686, 23715.44
4382.614, 23741.90
4384.542, 23811.21
4386.471, 23606.88
4388.399, 23438.14
4390.328, 23819.89
4392.256, 23917.07
4394.185, 23719.48
4396.113, 23680.98
4398.042, 23673.52
4399.970, 23618.85
4401.899, 23689.71
4403.827, 23767.17
4405.756, 23624.90
4407.684, 23480.91
4409.613, 23393.02
4411.541, 23553.43
4413.470, 23687.97
4415.398, 23609.22
4417.327, 23418.96
4419.255, 23218.89
4421.184, 23193.59
4423.112, 23281.42
4425.041, 23454.12
4426.969, 23142.24
4428.897, 22920.14
4430.826, 23196.64
4432.754, 23265.25
4434.683, 23178.21
4436.611, 23086.34
4438.540, 23154.45
4440.468, 23068.34
4442.396, 23243.39
4444.325, 23046.58
4446.253, 22913.17
4448.182, 22965.76
4450.110, 23066.99
4452.039, 22923.44
4453.967, 22762.88
4455.896, 22654.89
4457.824, 22889.16
4459.753, 23116.58
4461.681, 23100.14
4463.610, 23031.13
4465.538, 23014.54
4467.467, 23290.29
4469.395, 23401.39
4471.324, 23286.88
4473.252, 22995.92
4475.181, 22886.86
4477.109, 23141.27
4479.038, 23337.49
4480.966, 23399.99
4482.895, 23205.61
4484.823, 23115.84
4486.751, 23139.75
4488.680, 23082.80
4490.608, 23023.11
4492.537, 22988.02
4494.465, 23012.03
4496.394, 23069.81
4498.322, 23155.56
4500.250, 23180.63
4502.179, 23152.70
4504.107, 23119.89
4506.036, 22997.41
4507.964, 23090.50
4509.893, 23005.12
4511.821, 23228.43
4513.750, 23209.52
4515.678, 23248.10
4517.607, 23306.71
4519.535, 23327.39
4521.464, 23209.06
4523.392, 22999.09
4525.321, 23084.73
4527.249, 23219.06
4529.178, 23317.67
4531.106, 22940.87
4533.035, 22602.16
4534.963, 22774.79
4536.892, 23045.32
4538.820, 23291.56
4540.749, 23390.23
4542.677, 23333.50
4544.605, 23145.39
4546.534, 23029.70
4548.462, 23019.85
4550.391, 23163.56
4552.319, 23200.80
4554.248, 23197.40
4556.176, 23210.00
4558.104, 23302.49
4560.033, 23434.28
4561.961, 23550.42
4563.890, 23484.38
4565.818, 23243.25
4567.747, 23152.75
4569.675, 23150.24
4571.604, 23236.07
4573.532, 23082.00
4575.461, 23052.92
4577.389, 23087.87
4579.318, 23052.43
4581.246, 23126.23
4583.175, 23091.55
4585.103, 23079.99
4587.032, 23055.13
4588.960, 23482.39
4590.889, 23763.10
4592.817, 23574.44
4594.746, 23186.80
4596.674, 22980.60
4598.603, 23365.96
4600.531, 23574.52
4602.459, 23559.48
4604.388, 23663.86
4606.316, 23647.30
4608.245, 23547.16
4610.173, 23542.45
4612.102, 23454.29
4614.030, 23375.51
4615.958, 23379.34
4617.887, 23021.83
4619.815, 23306.45
4621.744, 23129.88
4623.672, 22961.15
4625.601, 23445.14
4627.529, 23450.04
4629.458, 23183.82
4631.386, 23265.05
4633.315, 23514.29
4635.243, 23829.10
4637.172, 23885.67
4639.100, 23802.88
4641.029, 23626.78
4642.957, 23396.96
4644.886, 23282.20
4646.814, 23385.08
4648.743, 23474.97
4650.671, 23506.04
4652.600, 23353.84
4654.528, 23478.96
4656.457, 23763.43
4658.385, 24084.45
4660.313, 23769.49
4662.242, 23106.40
4664.170, 23403.94
4666.099, 23519.75
4668.027, 23198.52
4669.956, 23274.20
4671.884, 23424.63
4673.813, 23508.05
4675.741, 23332.79
4677.669, 23210.12
4679.598, 23365.18
4681.526, 23521.98
4683.455, 23570.61
4685.383, 23290.63
4687.312, 23286.03
4689.240, 23517.34
4691.169, 23901.32
4693.097, 24117.62
4695.026, 24131.10
4696.954, 23912.66
4698.883, 23756.69
4700.811, 23737.30
4702.740, 23846.37
4704.668, 23845.67
4706.597, 23646.38
4708.525, 23494.67
4710.454, 23385.22
4712.382, 23305.46
4714.311, 23444.39
4716.239, 23668.18
4718.167, 23918.39
4720.096, 23804.27
4722.024, 23666.73
4723.953, 24004.18
4725.881, 24009.79
4727.810, 23820.41
4729.738, 23857.25
4731.667, 23811.80
4733.595, 23705.45
4735.523, 23724.23
4737.452, 23840.78
4739.380, 24003.96
4741.309, 24041.60
4743.237, 23910.02
4745.166, 23659.47
4747.094, 23970.83
4749.023, 24236.13
4750.951, 24203.41
4752.880, 23941.45
4754.808, 23776.38
4756.737, 23873.51
4758.665, 24041.68
4760.594, 24128.69
4762.522, 23991.89
4764.451, 23858.76
4766.379, 23878.43
4768.308, 23857.67
4770.236, 23920.05
4772.165, 24053.15
4774.093, 24184.20
4776.021, 24487.81
4777.950, 24757.94
4779.878, 24651.79
4781.807, 24547.04
4783.735, 24465.75
4785.664, 24255.88
4787.592, 24337.00
4789.521, 24602.38
4791.449, 24520.02
4793.377, 24602.34
4795.306, 24847.10
4797.234, 24941.24
4799.163, 24869.24
4801.091, 24698.91
4803.020, 24866.05
4804.948, 24905.57
4806.877, 24753.31
4808.805, 24873.34
4810.734, 24909.41
4812.662, 24758.03
4814.591, 24903.95
4816.519, 24957.74
4818.448, 24791.02
4820.376, 24745.37
4822.305, 24791.02
4824.233, 24911.03
4826.162, 24932.07
4828.090, 24989.26
4830.019, 25150.52
4831.947, 25191.69
4833.875, 25182.86
4835.804, 25163.79
4837.732, 25160.45
4839.661, 25199.76
4841.589, 25307.50
4843.518, 25310.34
4845.446, 25408.57
4847.375, 25358.33
4849.303, 25523.40
4851.231, 25499.12
4853.160, 25446.49
4855.088, 25558.04
4857.017, 25617.32
4858.945, 25404.24
4860.874, 25353.87
4862.802, 25407.13
4864.731, 25512.65
4866.659, 25565.44
4868.588, 25597.44
4870.516, 25641.70
4872.445, 25748.58
4874.373, 25710.10
4876.302, 25317.61
4878.230, 25217.34
4880.159, 25379.53
4882.087, 25856.72
4884.016, 25987.81
4885.944, 25964.55
4887.873, 25951.11
4889.801, 26041.36
4891.729, 26133.71
4893.658, 26168.29
4895.586, 25889.47
4897.515, 25703.80
4899.443, 25940.10
4901.372, 26147.35
4903.300, 26340.14
4905.229, 26576.70
4907.157, 26686.61
4909.085, 26658.67
4911.014, 26477.96
4912.942, 26577.16
4914.871, 26654.56
4916.799, 26460.44
4918.728, 26626.00
4920.656, 26843.71
4922.585, 26926.84
4924.513, 26916.10
4926.442, 26802.74
4928.370, 26590.01
4930.299, 26873.24
4932.227, 27075.88
4934.156, 26889.94
4936.084, 26750.06
4938.013, 26859.46
4939.941, 26787.72
4941.870, 27028.62
4943.798, 26931.21
4945.727, 27177.54
4947.655, 27383.03
4949.583, 27437.38
4951.512, 27324.90
4953.440, 27535.94
4955.369, 27521.52
4957.297, 27735.64
4959.226, 27683.26
4961.154, 27687.66
4963.083, 27843.97
4965.011, 27937.44
4966.939, 27685.12
4968.868, 27382.13
4970.796, 28125.13
4972.725, 28213.09
4974.653, 27872.62
4976.582, 28048.18
4978.510, 28227.77
4980.439, 28368.38
4982.367, 28528.00
4984.296, 28604.82
4986.224, 28589.26
4988.153, 28472.41
4990.081, 28301.46
4992.010, 28337.29
4993.938, 28879.78
4995.867, 28817.08
4997.795, 28856.58
4999.724, 29509.11
5001.652, 29354.63
5003.581, 29177.64
5005.509, 29363.98
5007.438, 29573.10
5009.366, 29595.34
5011.294, 29408.60
5013.223, 29619.84
5015.151, 29669.95
5017.080, 29537.45
5019.008, 29729.29
5020.937, 29938.80
5022.865, 30106.25
5024.793, 30273.51
5026.722, 30378.39
5028.650, 30381.39
5030.579, 30515.44
5032.507, 30614.71
5034.436, 30652.97
5036.364, 30828.69
5038.293, 30860.62
5040.221, 30878.21
5042.150, 30978.01
5044.078, 31322.18
5046.007, 31487.47
5047.935, 31261.38
5049.864, 31045.28
5051.792, 31173.71
5053.721, 31661.54
5055.649, 31609.79
5057.578, 31812.89
5059.506, 32195.62
5061.435, 31842.21
5063.363, 31762.91
5065.292, 32000.78
5067.220, 32407.00
5069.148, 32614.38
5071.077, 32597.72
5073.005, 32331.23
5074.934, 32654.52
5076.862, 33014.41
5078.791, 32887.41
5080.719, 33287.68
5082.647, 33619.18
5084.576, 33645.35
5086.504, 33675.35
5088.433, 33876.40
5090.361, 34126.88
5092.290, 34204.26
5094.218, 33833.81
5096.147, 34465.10
5098.075, 34122.34
5100.004, 34183.91
5101.932, 34475.70
5103.861, 34629.96
5105.789, 34672.67
5107.718, 34799.33
5109.646, 34940.29
5111.575, 35214.41
5113.503, 35249.24
5115.432, 35374.18
5117.360, 35557.49
5119.289, 35628.08
5121.217, 35701.29
5123.146, 35904.58
5125.074, 36369.24
5127.002, 36212.84
5128.931, 36605.37
5130.859, 36651.30
5132.788, 36697.92
5134.716, 37054.76
5136.645, 37104.96
5138.573, 37283.82
5140.501, 37688.18
5142.430, 37523.25
5144.358, 37445.89
5146.287, 37624.78
5148.215, 38215.29
5150.144, 38456.56
5152.072, 38533.59
5154.001, 38793.07
5155.929, 38881.26
5157.858, 38956.25
5159.786, 39131.34
5161.715, 39636.16
5163.643, 39903.86
5165.572, 39819.37
5167.500, 39613.75
5169.429, 39795.87
5171.357, 40264.51
5173.286, 40748.68
5175.214, 40946.63
5177.143, 41088.15
5179.071, 41374.95
5181.000, 41161.61
5182.928, 41081.76
5184.856, 41361.04
5186.785, 41508.58
5188.713, 41687.66
5190.642, 41943.13
5192.570, 42288.42
5194.499, 42430.56
5196.427, 43103.22
5198.355, 42902.44
5200.284, 43056.84
5202.212, 43501.77
5204.141, 44100.64
5206.069, 44029.66
5207.998, 44281.25
5209.926, 44767.16
5211.855, 44819.45
5213.783, 45023.14
5215.712, 45184.27
5217.640, 44971.65
5219.569, 45778.73
5221.497, 46233.71
5223.426, 45992.39
5225.354, 46330.23
5227.283, 46607.93
5229.211, 46781.84
5231.140, 46974.74
5233.068, 47445.40
5234.997, 47743.28
5236.925, 48074.84
5238.854, 48108.29
5240.782, 48633.89
5242.710, 48853.67
5244.639, 48852.61
5246.567, 49139.73
5248.496, 49514.16
5250.424, 49601.62
5252.353, 50065.57
5254.281, 50359.70
5256.209, 50754.19
5258.138, 50993.13
5260.066, 51093.17
5261.995, 51185.23
5263.923, 51152.63
5265.852, 51558.46
5267.780, 52043.43
5269.709, 52277.23
5271.637, 52323.18
5273.566, 52617.20
5275.494, 53138.77
5277.423, 53178.36
5279.351, 53931.63
5281.280, 54762.97
5283.208, 54594.92
5285.137, 54729.08
5287.065, 55128.74
5288.994, 55711.11
5290.922, 56192.12
5292.851, 56525.36
5294.779, 56792.03
5296.708, 57138.84
5298.636, 57340.25
5300.564, 57490.16
5302.493, 57667.99
5304.421, 58166.59
5306.350, 58533.56
5308.278, 58747.92
5310.207, 58940.56
5312.135, 59471.70
5314.063, 60109.21
5315.992, 60651.19
5317.920, 60679.67
5319.849, 60916.13
5321.777, 61399.39
5323.706, 61767.27
5325.634, 62204.32
5327.563, 62432.53
5329.491, 62796.58
5331.420, 63151.08
5333.348, 63389.52
5335.277, 63951.86
5337.205, 64252.67
5339.134, 64859.59
5341.062, 65412.05
5342.991, 65637.81
5344.919, 65996.44
5346.848, 66489.75
5348.776, 66933.24
5350.705, 67268.53
5352.633, 67722.10
5354.562, 67956.81
5356.490, 68381.09
5358.418, 68742.43
5360.347, 68774.46
5362.275, 68854.41
5364.204, 69816.20
5366.132, 70528.32
5368.061, 71086.92
5369.989, 71576.49
5371.917, 71974.80
5373.846, 72346.66
5375.774, 72537.69
5377.703, 73073.75
5379.631, 73289.92
5381.560, 73917.59
5383.488, 74291.91
5385.417, 74811.41
5387.345, 75243.29
5389.274, 76064.65
5391.202, 76725.29
5393.131, 76988.29
5395.059, 77299.84
5396.988, 77807.66
5398.916, 78430.59
5400.845, 79305.66
5402.773, 80010.44
5404.702, 80263.52
5406.630, 80720.83
5408.559, 81055.53
5410.487, 81383.24
5412.416, 82179.81
5414.344, 82827.61
5416.272, 83294.13
5418.201, 83632.45
5420.129, 84081.27
5422.058, 84708.17
5423.986, 85216.29
5425.915, 85302.09
5427.843, 86357.81
5429.771, 87084.28
5431.700, 87357.26
5433.628, 88274.94
5435.557, 88793.65
5437.485, 89379.39
5439.414, 90336.20
5441.342, 90887.66
5443.271, 91352.13
5445.199, 91760.56
5447.128, 92404.41
5449.056, 92778.30
5450.985, 93620.23
5452.913, 94390.50
5454.842, 94973.18
5456.770, 95473.95
5458.699, 95914.65
5460.627, 96319.55
5462.556, 96893.75
5464.484, 97869.35
5466.413, 98911.69
5468.341, 99578.09
5470.270, 99795.53
5472.198, 100396.3
5474.126, 101292.0
5476.055, 101299.8
5477.983, 102011.3
5479.912, 103057.2
5481.840, 104087.5
5483.769, 104716.5
5485.697, 105198.3
5487.625, 105848.7
5489.554, 106872.6
5491.482, 107698.9
5493.411, 108380.9
5495.339, 109092.9
5497.268, 110168.1
5499.196, 111016.7
5501.125, 111642.9
5503.053, 112154.5
5504.982, 112789.7
5506.910, 113688.6
5508.839, 114586.4
5510.767, 115314.9
5512.696, 115922.9
5514.624, 116984.4
5516.553, 117616.3
5518.481, 118931.1
5520.410, 119225.7
5522.338, 119994.0
5524.267, 120979.2
5526.195, 121198.8
5528.124, 122135.0
5530.052, 123279.2
5531.980, 124279.5
5533.909, 124827.6
5535.837, 125452.0
5537.766, 126132.9
5539.694, 126953.3
5541.623, 128608.8
5543.551, 129729.4
5545.479, 130563.8
5547.408, 131399.0
5549.336, 131861.6
5551.265, 132624.9
5553.193, 133422.8
5555.122, 134198.3
5557.050, 135213.8
5558.979, 136057.1
5560.907, 137295.9
5562.836, 138422.9
5564.764, 139448.1
5566.693, 140138.8
5568.621, 141348.0
5570.550, 142184.0
5572.478, 143035.6
5574.407, 143976.2
5576.335, 145004.6
5578.264, 146070.5
5580.192, 146875.2
5582.121, 147839.0
5584.049, 149123.4
5585.978, 149939.8
5587.906, 151278.5
5589.834, 152000.3
5591.763, 153313.2
5593.691, 154632.8
5595.620, 155441.3
5597.548, 156349.3
5599.477, 157696.0
5601.405, 158374.1
5603.333, 159419.2
5605.262, 160615.6
5607.190, 161662.6
5609.119, 162739.2
5611.047, 163914.6
5612.976, 165137.0
5614.904, 166270.0
5616.833, 167673.5
5618.761, 168978.6
5620.690, 170166.7
5622.618, 171175.8
5624.547, 171951.3
5626.475, 173011.7
5628.404, 174109.8
5630.332, 174816.0
5632.261, 176134.1
5634.189, 177894.7
5636.118, 179445.3
5638.046, 180168.9
5639.975, 180951.9
5641.903, 182161.7
5643.832, 183608.4
5645.760, 184993.9
5647.688, 186048.0
5649.617, 187289.3
5651.545, 188753.9
5653.474, 190331.2
5655.402, 191487.7
5657.331, 192735.7
5659.259, 194096.5
5661.188, 195433.3
5663.116, 196842.9
5665.044, 198144.0
5666.973, 199669.3
5668.901, 200846.5
5670.830, 202102.7
5672.758, 203601.5
5674.687, 204944.2
5676.615, 205797.4
5678.544, 207351.1
5680.472, 208603.6
5682.401, 209873.3
5684.329, 211632.5
5686.258, 212939.0
5688.186, 214394.1
5690.115, 216008.1
5692.043, 217653.6
5693.972, 219181.8
5695.900, 220916.2
5697.829, 222209.3
5699.757, 223928.2
5701.686, 224978.1
5703.614, 226975.8
5705.542, 228491.8
5707.471, 229583.7
5709.399, 230827.4
5711.328, 232475.0
5713.256, 233855.6
5715.185, 235548.1
5717.113, 237081.7
5719.042, 238985.3
5720.970, 240732.0
5722.898, 242384.8
5724.827, 243948.4
5726.755, 245121.3
5728.684, 246559.2
5730.612, 248344.7
5732.541, 250235.4
5734.469, 251802.0
5736.398, 253110.0
5738.326, 254433.5
5740.255, 256061.7
5742.183, 258543.2
5744.112, 260021.1
5746.040, 261370.6
5747.969, 263456.4
5749.897, 264799.9
5751.826, 267046.3
5753.754, 269166.7
5755.683, 270623.7
5757.611, 272567.8
5759.540, 274233.6
5761.468, 275575.2
5763.396, 276916.4
5765.325, 278939.3
5767.253, 280209.5
5769.182, 282487.1
5771.110, 284181.6
5773.039, 287019.4
5774.967, 288064.5
5776.896, 290070.6
5778.824, 292327.8
5780.752, 293915.7
5782.681, 295275.5
5784.609, 296696.7
5786.538, 298431.3
5788.466, 300504.8
5790.395, 302527.9
5792.323, 304981.8
5794.252, 306874.9
5796.180, 308426.7
5798.109, 311208.3
5800.037, 312420.6
5801.966, 314211.3
5803.894, 316398.1
5805.823, 318087.5
5807.751, 320529.1
5809.680, 322611.9
5811.608, 324829.3
5813.537, 327430.6
5815.465, 329467.8
5817.394, 332184.9
5819.322, 334629.1
5821.250, 336667.6
5823.179, 338958.3
5825.107, 340893.4
5827.036, 342399.1
5828.964, 344202.3
5830.893, 346883.0
5832.821, 349010.8
5834.750, 351243.0
5836.678, 353593.1
5838.606, 356021.1
5840.535, 358823.3
5842.463, 360759.7
5844.392, 362887.7
5846.320, 365164.7
5848.249, 366957.0
5850.177, 368584.3
5852.106, 371546.8
5854.034, 374378.0
5855.963, 376302.3
5857.891, 379579.1
5859.820, 382155.0
5861.748, 384268.1
5863.677, 386448.3
5865.605, 389124.8
5867.534, 391768.8
5869.462, 394277.9
5871.391, 396854.6
5873.319, 399394.9
5875.248, 401826.1
5877.176, 404452.3
5879.104, 406855.4
5881.033, 409392.4
5882.961, 412382.7
5884.890, 414818.6
5886.818, 417858.5
5888.747, 420770.8
5890.675, 422961.1
5892.604, 425276.0
5894.532, 427782.9
5896.460, 429923.2
5898.389, 432458.8
5900.317, 434607.3
5902.246, 437547.6
5904.174, 440081.0
5906.103, 442960.1
5908.031, 446224.1
5909.960, 448005.1
5911.888, 451764.5
5913.817, 454485.7
5915.745, 456875.2
5917.674, 460678.7
5919.602, 462896.5
5921.531, 465365.6
5923.459, 467931.7
5925.388, 470430.3
5927.316, 473050.5
5929.245, 476724.9
5931.173, 480090.5
5933.102, 483134.5
5935.030, 486036.7
5936.958, 488874.6
5938.887, 491274.8
5940.815, 494233.3
5942.744, 496860.7
5944.672, 499653.2
5946.601, 502594.3
5948.529, 506333.6
5950.458, 509393.4
5952.386, 511457.3
5954.314, 513628.5
5956.243, 516829.5
5958.171, 519660.6
5960.100, 522538.8
5962.028, 525964.4
5963.957, 529750.3
5965.885, 533484.6
5967.814, 536441.8
5969.742, 538917.9
5971.671, 541562.7
5973.599, 544704.7
5975.528, 547887.0
5977.456, 551037.4
5979.385, 554257.3
5981.313, 557689.4
5983.242, 561045.3
5985.170, 564733.8
5987.099, 567216.4
5989.027, 569337.9
5990.956, 574271.4
5992.884, 578377.6
5994.813, 580693.5
5996.741, 583231.4
5998.669, 586860.5
6000.598, 589805.1
6002.526, 593320.6
6004.455, 596852.4
6006.383, 600719.2
6008.312, 604182.6
6010.240, 608244.2
6012.168, 612272.3
6014.097, 615146.4
6016.025, 618011.9
6017.954, 621918.6
6019.882, 625466.9
6021.811, 629501.6
6023.739, 633056.4
6025.668, 636472.9
6027.596, 640344.6
6029.525, 643965.0
6031.453, 646717.4
6033.382, 649965.1
6035.310, 653814.5
6037.239, 657700.9
6039.167, 661622.2
6041.096, 665021.7
6043.024, 668444.4
6044.953, 672316.8
6046.881, 676622.9
6048.810, 680101.7
6050.738, 684700.8
6052.667, 689631.4
6054.595, 693570.4
6056.523, 695879.8
6058.452, 698618.9
6060.380, 702474.1
6062.309, 706659.6
6064.237, 710748.8
6066.166, 714643.1
6068.094, 718067.8
6070.022, 721399.0
6071.951, 724720.2
6073.879, 728468.1
6075.808, 732237.1
6077.736, 737246.9
6079.665, 740491.1
6081.593, 745005.4
6083.522, 749805.8
6085.450, 753537.4
6087.379, 758539.1
6089.307, 762067.1
6091.236, 765920.2
6093.164, 769462.4
6095.093, 772272.4
6097.021, 776394.4
6098.950, 780188.4
6100.878, 784506.9
6102.807, 788678.9
6104.735, 792469.8
6106.664, 796792.8
6108.592, 802405.7
6110.521, 806565.6
6112.449, 810035.5
6114.377, 813658.1
6116.306, 817431.6
6118.234, 821450.1
6120.163, 826376.5
6122.091, 830320.8
6124.020, 835230.9
6125.948, 839268.8
6127.876, 842461.4
6129.805, 847254.9
6131.733, 851224.2
6133.662, 854835.1
6135.590, 859779.0
6137.519, 864134.6
6139.447, 868392.2
6141.376, 872665.7
6143.304, 878222.1
6145.233, 884567.0
6147.161, 888401.1
6149.090, 893402.4
6151.018, 897646.3
6152.947, 902141.8
6154.875, 906999.8
6156.804, 911327.1
6158.732, 915827.7
6160.661, 921061.4
6162.589, 925750.9
6164.518, 929510.3
6166.446, 932854.4
6168.375, 937078.3
6170.303, 941184.6
6172.231, 947253.3
6174.160, 952396.7
6176.088, 956265.4
6178.017, 962160.5
6179.945, 965075.6
6181.874, 968835.2
6183.802, 973630.5
6185.730, 979781.1
6187.659, 986731.7
6189.587, 989833.6
6191.516, 994418.4
6193.444, 998184.0
6195.373, 1003291.
6197.301, 1009304.
6199.230, 1012336.
6201.158, 1016826.
6203.087, 1023520.
6205.015, 1028632.
6206.944, 1032893.
6208.872, 1038134.
6210.801, 1043301.
6212.729, 1047441.
6214.658, 1052244.
6216.586, 1057263.
6218.515, 1061870.
6220.443, 1066092.
6222.372, 1071870.
6224.300, 1078062.
6226.229, 1083049.
6228.157, 1087918.
6230.085, 1093147.
6232.014, 1097397.
6233.942, 1102631.
6235.871, 1106761.
6237.799, 1112730.
6239.728, 1118562.
6241.656, 1122359.
6243.584, 1128470.
6245.513, 1132593.
6247.441, 1137944.
6249.370, 1143786.
6251.298, 1149076.
6253.227, 1153962.
6255.155, 1160406.
6257.084, 1166423.
6259.012, 1171628.
6260.941, 1178160.
6262.869, 1184520.
6264.798, 1187059.
6266.726, 1190404.
6268.655, 1195119.
6270.583, 1201578.
6272.512, 1209330.
6274.440, 1216520.
6276.369, 1220453.
6278.297, 1219514.
6280.226, 1228215.
6282.154, 1233805.
6284.083, 1238286.
6286.011, 1245368.
6287.939, 1251515.
6289.868, 1257915.
6291.796, 1263068.
6293.725, 1267975.
6295.653, 1273464.
6297.582, 1279462.
6299.510, 1285145.
6301.438, 1290650.
6303.367, 1296793.
6305.295, 1303842.
6307.224, 1308681.
6309.152, 1314656.
6311.081, 1320224.
6313.009, 1327452.
6314.938, 1331496.
6316.866, 1337723.
6318.795, 1343002.
6320.723, 1346847.
6322.652, 1352999.
6324.580, 1360393.
6326.509, 1367833.
6328.437, 1373927.
6330.366, 1378322.
6332.294, 1382662.
6334.223, 1388830.
6336.151, 1393523.
6338.080, 1397999.
6340.008, 1404691.
6341.937, 1411626.
6343.865, 1418221.
6345.793, 1425091.
6347.722, 1429809.
6349.650, 1436178.
6351.579, 1441073.
6353.507, 1447178.
6355.436, 1454598.
6357.364, 1461347.
6359.292, 1465890.
6361.221, 1474941.
6363.149, 1479798.
6365.078, 1484498.
6367.006, 1490818.
6368.935, 1497900.
6370.863, 1504387.
6372.792, 1510639.
6374.720, 1515745.
6376.649, 1522964.
6378.577, 1528536.
6380.506, 1534564.
6382.434, 1540911.
6384.363, 1547866.
6386.291, 1554383.
6388.220, 1561399.
6390.148, 1566984.
6392.077, 1572731.
6394.005, 1580089.
6395.934, 1587568.
6397.862, 1596200.
6399.791, 1601163.
6401.719, 1607638.
6403.647, 1613867.
6405.576, 1619309.
6407.504, 1625694.
6409.433, 1632889.
6411.361, 1636177.
6413.290, 1641701.
6415.218, 1648293.
6417.146, 1656991.
6419.075, 1667117.
6421.003, 1675009.
6422.932, 1679678.
6424.860, 1686067.
6426.789, 1693218.
6428.717, 1700030.
6430.646, 1706445.
6432.574, 1713075.
6434.503, 1720483.
6436.431, 1727957.
6438.360, 1734279.
6440.288, 1735944.
6442.217, 1740446.
6444.145, 1747374.
6446.074, 1752345.
6448.002, 1758277.
6449.931, 1768895.
6451.859, 1777306.
6453.788, 1783678.
6455.716, 1791190.
6457.645, 1797691.
6459.573, 1804055.
6461.501, 1807694.
6463.430, 1816952.
6465.358, 1822138.
6467.287, 1829454.
6469.215, 1837736.
6471.144, 1845057.
6473.072, 1851527.
6475.000, 1858501.
6476.929, 1864680.
6478.857, 1870692.
6480.786, 1876675.
6482.714, 1881888.
6484.643, 1887611.
6486.571, 1893898.
6488.500, 1899960.
6490.428, 1907638.
6492.357, 1914161.
6494.285, 1922916.
6496.214, 1929069.
6498.142, 1935401.
6500.071, 1944284.
6501.999, 1948591.
6503.928, 1953641.
6505.856, 1962749.
6507.785, 1971531.
6509.713, 1979346.
6511.642, 1986905.
6513.570, 1994124.
6515.499, 2000252.
6517.427, 2005464.
6519.355, 2012642.
6521.284, 2022746.
6523.212, 2029516.
6525.141, 2033078.
6527.069, 2036732.
6528.998, 2042567.
6530.926, 2050742.
6532.854, 2058119.
6534.783, 2065374.
6536.711, 2074542.
6538.640, 2081979.
6540.568, 2089161.
6542.497, 2099204.
6544.425, 2106017.
6546.354, 2115970.
6548.282, 2121202.
6550.211, 2126092.
6552.139, 2132806.
6554.068, 2139740.
6555.996, 2146879.
6557.925, 2155266.
6559.853, 2162255.
6561.782, 2171957.
6563.710, 2177551.
6565.639, 2185695.
6567.567, 2194026.
6569.496, 2203583.
6571.424, 2212312.
6573.353, 2217240.
6575.281, 2223271.
6577.209, 2232625.
6579.138, 2238675.
6581.066, 2245751.
6582.995, 2253300.
6584.923, 2260746.
6586.852, 2267722.
6588.780, 2275194.
6590.708, 2282170.
6592.637, 2292219.
6594.565, 2296530.
6596.494, 2304264.
6598.422, 2312258.
6600.351, 2322588.
6602.279, 2332135.
6604.208, 2336346.
6606.136, 2342119.
6608.065, 2349197.
6609.993, 2354884.
6611.922, 2360488.
6613.850, 2369093.
6615.779, 2378218.
6617.707, 2387340.
6619.636, 2394050.
6621.564, 2400495.
6623.493, 2409266.
6625.421, 2415029.
6627.350, 2425329.
6629.278, 2432620.
##END=



