##NAMES=Sogdianite
##RRUFFID=R050648
##IDEAL CHEMISTRY=KZr_2_Li_3_Si_12_O_30_
##LOCALITY=Dara-i-Pioz, Tadjikistan
##OWNER=RRUFF
##SOURCE=Dmitri Belakyovski
##DESCRIPTION=Purple tabular fragment, used in the Geiger & Grodzicki (2012) study
##STATUS=The identification of this mineral has been confirmed by X-ray diffraction and chemical analysis
##URL=https://www.rruff.net/odr/rruff_sample/R050648
##MEASURED CHEMISTRY=([box]_1.13_Na_0.87_)K_1.00_Li_3.00_(Zr_0.76_Fe^3+^_0.73_Ti_0.37_Al_0.14_)Si_12.00_O_30_ ; Li not measured but estimated by difference and charge balance.
##DIFFRACTION SAMPLE DESCRIPTION=Powder
##CELL PARAMETERS=a: 10.0439 b: 10.0439 c: 14.2089 alpha: 90 beta: 90 gamma: 120 volume: 1241.3 crystal system: hexagonal
##FILETYPE=Raman Processed
##RAMAN WAVELENGTH=780

125.8034, 203586.8
127.7319, 204313.3
129.6604, 205220.7
131.5889, 206186.5
133.5173, 207139.5
135.4458, 208097.0
137.3743, 209071.0
139.3027, 210052.6
141.2312, 211179.4
143.1596, 212647.6
145.0881, 214012.3
147.0166, 215169.6
148.9450, 216153.4
150.8735, 216947.9
152.8020, 217580.4
154.7304, 218238.7
156.6589, 218859.0
158.5874, 219661.0
160.5158, 220802.9
162.4443, 222052.5
164.3728, 223178.5
166.3012, 224214.3
168.2297, 225302.1
170.1582, 226492.9
172.0866, 227662.5
174.0151, 228748.0
175.9436, 229847.8
177.8720, 231052.7
179.8005, 232329.3
181.7290, 233604.0
183.6574, 234887.0
185.5859, 236143.7
187.5144, 237421.9
189.4428, 238629.3
191.3713, 239631.0
193.2998, 240560.3
195.2282, 241631.4
197.1567, 242893.3
199.0852, 244123.5
201.0136, 245261.7
202.9421, 246440.2
204.8706, 247708.5
206.7990, 249032.6
208.7275, 250372.2
210.6560, 251721.8
212.5844, 253095.3
214.5129, 254480.5
216.4414, 255905.9
218.3698, 257436.5
220.2983, 258928.2
222.2268, 260246.2
224.1552, 261452.2
226.0837, 262770.2
228.0122, 264281.7
229.9406, 265726.8
231.8691, 267137.0
233.7976, 268435.0
235.7260, 269445.8
237.6545, 270416.5
239.5830, 271659.9
241.5114, 273210.6
243.4399, 274728.7
245.3684, 276221.8
247.2968, 277659.7
249.2253, 278971.6
251.1538, 280293.2
253.0822, 281697.6
255.0107, 283165.8
256.9392, 284675.8
258.8676, 286247.8
260.7961, 287753.2
262.7246, 289144.1
264.6530, 290544.3
266.5815, 292025.5
268.5100, 293544.6
270.4384, 295048.4
272.3669, 296537.3
274.2954, 298090.9
276.2238, 299744.8
278.1523, 301279.6
280.0808, 302629.1
282.0092, 303865.5
283.9377, 304960.5
285.8662, 306014.2
287.7946, 307219.8
289.7231, 308571.3
291.6516, 309812.0
293.5800, 310832.1
295.5085, 312041.3
297.4370, 313700.6
299.3654, 315408.2
301.2939, 316960.5
303.2224, 318352.6
305.1508, 319559.9
307.0793, 320604.3
309.0078, 321839.1
310.9362, 323432.2
312.8647, 324964.1
314.7932, 326277.3
316.7216, 327580.1
318.6501, 328936.8
320.5786, 330393.4
322.5070, 332138.2
324.4355, 334175.6
326.3640, 336062.3
328.2924, 337582.0
330.2209, 339165.9
332.1494, 341019.3
334.0778, 342860.0
336.0063, 344499.2
337.9348, 345965.0
339.8632, 347280.9
341.7917, 348441.4
343.7202, 349702.6
345.6486, 351184.7
347.5771, 352676.2
349.5056, 354177.3
351.4340, 355651.2
353.3625, 357070.3
355.2910, 358449.0
357.2194, 359808.5
359.1479, 361143.2
361.0764, 362515.0
363.0048, 363901.1
364.9333, 365342.0
366.8618, 366896.3
368.7902, 368485.2
370.7187, 370079.4
372.6472, 371638.9
374.5756, 373094.8
376.5041, 374444.1
378.4326, 375901.4
380.3610, 377489.6
382.2895, 379148.9
384.2180, 380928.8
386.1464, 382672.6
388.0749, 384338.1
390.0034, 385900.0
391.9318, 387241.3
393.8603, 388421.4
395.7888, 389990.8
397.7172, 392226.0
399.6457, 394290.9
401.5742, 396168.5
403.5026, 397889.8
405.4311, 399222.8
407.3596, 400658.2
409.2880, 402602.9
411.2165, 404849.4
413.1450, 406916.3
415.0734, 408770.1
417.0019, 410591.1
418.9304, 412372.6
420.8588, 414185.5
422.7873, 416126.2
424.7158, 418039.9
426.6442, 419784.9
428.5727, 421566.2
430.5012, 423622.9
432.4296, 425912.2
434.3581, 428170.8
436.2866, 430376.0
438.2150, 432753.7
440.1435, 435333.4
442.0720, 437983.6
444.0004, 440737.3
445.9289, 443368.2
447.8574, 445791.8
449.7858, 447978.0
451.7143, 449878.3
453.6428, 451472.4
455.5712, 452720.9
457.4997, 453607.7
459.4282, 454464.7
461.3566, 455329.3
463.2851, 456281.2
465.2136, 457258.9
467.1420, 458468.8
469.0705, 460154.3
470.9990, 462094.8
472.9274, 463820.5
474.8559, 465334.1
476.7844, 466900.2
478.7128, 468514.4
480.6413, 470214.3
482.5698, 472092.7
484.4982, 473879.0
486.4267, 475391.4
488.3552, 476913.2
490.2836, 478739.6
492.2121, 480687.7
494.1406, 482324.9
496.0690, 484233.6
497.9975, 486161.8
499.9260, 487895.2
501.8544, 490025.0
503.7829, 491887.6
505.7114, 493679.8
507.6398, 495360.8
509.5683, 497018.8
511.4968, 498691.7
513.4252, 500396.2
515.3537, 502150.5
517.2822, 503939.8
519.2106, 505693.7
521.1391, 507400.3
523.0676, 509174.1
524.9960, 511150.7
526.9245, 513022.8
528.8530, 514670.1
530.7814, 516347.2
532.7099, 518124.1
534.6384, 519941.7
536.5668, 521690.2
538.4953, 523508.1
540.4238, 525711.5
542.3522, 528218.9
544.2807, 530300.3
546.2092, 531724.1
548.1376, 533378.8
550.0661, 535505.7
551.9946, 537494.9
553.9230, 539094.3
555.8515, 540796.3
557.7800, 542896.4
559.7084, 545117.3
561.6369, 547253.0
563.5654, 549363.3
565.4938, 551547.9
567.4223, 553783.9
569.3508, 555928.6
571.2792, 558082.5
573.2077, 560261.1
575.1362, 562287.6
577.0646, 564484.8
578.9931, 566488.1
580.9216, 568398.3
582.8500, 570174.4
584.7785, 571992.7
586.7070, 574020.0
588.6354, 576235.8
590.5639, 578598.9
592.4924, 581045.4
594.4208, 583263.0
596.3493, 585260.5
598.2778, 587343.1
600.2062, 589554.7
602.1347, 591763.3
604.0632, 593912.8
605.9916, 596088.0
607.9201, 598285.8
609.8486, 600558.9
611.7770, 602967.0
613.7055, 605399.8
615.6340, 607731.5
617.5624, 609932.9
619.4909, 611985.5
621.4194, 613926.1
623.3478, 615917.4
625.2763, 617971.0
627.2048, 620203.3
629.1332, 622746.9
631.0617, 625108.6
632.9902, 627030.3
634.9186, 628959.3
636.8471, 631068.6
638.7756, 633193.0
640.7040, 635197.5
642.6325, 637149.6
644.5610, 639146.3
646.4894, 641224.6
648.4179, 643336.2
650.3464, 645447.9
652.2748, 647634.4
654.2033, 649892.7
656.1318, 651956.4
658.0602, 653697.9
659.9887, 655546.6
661.9172, 657640.0
663.8456, 659740.7
665.7741, 661757.5
667.7026, 663935.9
669.6310, 666549.6
671.5595, 669131.1
673.4880, 671262.1
675.4164, 673213.5
677.3449, 675195.4
679.2734, 677106.9
681.2018, 678866.4
683.1303, 680520.5
685.0588, 682286.3
686.9872, 684232.5
688.9157, 686207.1
690.8442, 688127.1
692.7726, 690341.7
694.7011, 693058.6
696.6296, 695731.8
698.5580, 698147.8
700.4865, 700546.6
702.4149, 702970.5
704.3434, 705384.0
706.2719, 707772.6
708.2003, 710139.4
710.1288, 712527.8
712.0573, 714875.9
713.9857, 717037.8
715.9142, 719114.3
717.8427, 721478.4
719.7711, 724195.4
721.6996, 726597.4
723.6281, 728669.3
725.5565, 730793.5
727.4850, 732924.4
729.4135, 735171.2
731.3419, 737495.3
733.2704, 740047.8
735.1989, 742955.9
737.1273, 745822.7
739.0558, 748537.3
740.9843, 750980.1
742.9127, 752938.9
744.8412, 754699.0
746.7697, 756608.1
748.6981, 758606.5
750.6266, 760552.8
752.5551, 762466.6
754.4835, 764344.0
756.4120, 766221.1
758.3405, 768514.7
760.2689, 771242.9
762.1974, 773617.4
764.1259, 775540.3
766.0543, 777454.3
767.9828, 779359.6
769.9113, 781435.6
771.8397, 783754.2
773.7682, 786221.1
775.6967, 788948.7
777.6251, 791541.8
779.5536, 793523.7
781.4821, 795727.3
783.4105, 799032.1
785.3390, 802400.4
787.2675, 804754.5
789.1959, 806670.1
791.1244, 808944.9
793.0529, 811472.3
794.9813, 814020.1
796.9098, 816598.6
798.8383, 819188.9
800.7667, 821765.3
802.6952, 824251.4
804.6237, 826789.1
806.5521, 829299.9
808.4806, 831739.8
810.4091, 834285.3
812.3375, 836678.8
814.2660, 839116.8
816.1945, 841662.0
818.1229, 844164.1
820.0514, 846377.2
821.9799, 848896.3
823.9083, 852363.5
825.8368, 855416.5
827.7653, 857127.1
829.6937, 858798.6
831.6222, 861260.7
833.5507, 863958.8
835.4791, 866720.8
837.4076, 869245.5
839.3361, 870971.0
841.2645, 872469.6
843.1930, 874411.4
845.1215, 876619.8
847.0499, 878825.8
848.9784, 881069.1
850.9069, 883501.7
852.8353, 886051.8
854.7638, 888085.9
856.6923, 889572.4
858.6207, 891467.1
860.5492, 893837.3
862.4777, 895944.6
864.4061, 897603.3
866.3346, 899751.4
868.2631, 902783.8
870.1915, 905079.2
872.1200, 906201.9
874.0485, 907623.2
875.9769, 909728.4
877.9054, 911876.4
879.8339, 913852.6
881.7623, 916073.8
883.6908, 918708.3
885.6193, 921327.6
887.5477, 923678.4
889.4762, 926135.9
891.4047, 928965.8
893.3331, 931582.1
895.2616, 933653.0
897.1901, 935429.3
899.1185, 936818.0
901.0470, 938308.9
902.9755, 940564.4
904.9039, 942969.3
906.8324, 944908.9
908.7609, 946642.9
910.6893, 948387.2
912.6178, 950299.9
914.5463, 952739.4
916.4747, 954908.4
918.4032, 957771.8
920.3317, 959926.4
922.2601, 962489.5
924.1886, 965247.8
926.1171, 967536.6
928.0455, 969539.3
929.9740, 971855.6
931.9025, 974434.8
933.8309, 977024.8
935.7594, 979553.8
937.6879, 981875.8
939.6163, 984062.3
941.5448, 986606.1
943.4733, 989459.8
945.4017, 991853.9
947.3302, 993737.2
949.2587, 995621.8
951.1871, 997598.2
953.1156, 999729.3
955.0441, 1002056.
956.9725, 1004174.
958.9010, 1005927.
960.8295, 1008001.
962.7579, 1010564.
964.6864, 1013036.
966.6149, 1015438.
968.5433, 1017574.
970.4718, 1019181.
972.4003, 1021025.
974.3287, 1023349.
976.2572, 1025527.
978.1857, 1027338.
980.1141, 1029326.
982.0426, 1031466.
983.9711, 1033851.
985.8995, 1036806.
987.8280, 1039466.
989.7565, 1041459.
991.6849, 1043602.
993.6134, 1046283.
995.5419, 1048632.
997.4703, 1050246.
999.3988, 1051969.
1001.327, 1053995.
1003.256, 1056093.
1005.184, 1058345.
1007.113, 1060360.
1009.041, 1061735.
1010.970, 1063370.
1012.898, 1065767.
1014.827, 1068207.
1016.755, 1070478.
1018.683, 1072716.
1020.612, 1074973.
1022.540, 1077193.
1024.469, 1079357.
1026.397, 1081514.
1028.326, 1083612.
1030.254, 1085649.
1032.183, 1087623.
1034.111, 1089558.
1036.040, 1091485.
1037.968, 1093370.
1039.897, 1095227.
1041.825, 1097177.
1043.754, 1099185.
1045.682, 1101470.
1047.610, 1104206.
1049.539, 1107110.
1051.467, 1110000.
1053.396, 1112975.
1055.324, 1116493.
1057.253, 1119385.
1059.181, 1120889.
1061.110, 1122274.
1063.038, 1123934.
1064.967, 1125543.
1066.895, 1127186.
1068.824, 1128699.
1070.752, 1130060.
1072.681, 1131414.
1074.609, 1132566.
1076.537, 1134161.
1078.466, 1136454.
1080.394, 1138941.
1082.323, 1141803.
1084.251, 1144262.
1086.180, 1145796.
1088.108, 1147431.
1090.037, 1149345.
1091.965, 1151314.
1093.894, 1153485.
1095.822, 1155348.
1097.751, 1156580.
1099.679, 1158108.
1101.608, 1160161.
1103.536, 1162193.
1105.464, 1164308.
1107.393, 1166198.
1109.321, 1167691.
1111.250, 1169204.
1113.178, 1170691.
1115.107, 1172659.
1117.035, 1175469.
1118.964, 1177786.
1120.892, 1179272.
1122.821, 1181165.
1124.749, 1183554.
1126.678, 1186011.
1128.606, 1188460.
1130.535, 1190767.
1132.463, 1192898.
1134.391, 1195263.
1136.320, 1197894.
1138.248, 1199847.
1140.177, 1201249.
1142.105, 1203199.
1144.034, 1205600.
1145.962, 1207967.
1147.891, 1210418.
1149.819, 1212903.
1151.748, 1215363.
1153.676, 1217995.
1155.605, 1220747.
1157.533, 1223434.
1159.462, 1225954.
1161.390, 1228092.
1163.318, 1230099.
1165.247, 1232492.
1167.175, 1234381.
1169.104, 1236689.
1171.032, 1238321.
1172.961, 1240155.
1174.889, 1242096.
1176.818, 1244171.
1178.746, 1246216.
1180.675, 1247865.
1182.603, 1249832.
1184.532, 1252762.
1186.460, 1255547.
1188.389, 1257615.
1190.317, 1259657.
1192.245, 1261883.
1194.174, 1263940.
1196.102, 1266010.
1198.031, 1268144.
1199.959, 1270012.
1201.888, 1272295.
1203.816, 1274104.
1205.745, 1276086.
1207.673, 1278310.
1209.602, 1280279.
1211.530, 1281993.
1213.459, 1283623.
1215.387, 1285202.
1217.316, 1286447.
1219.244, 1288042.
1221.172, 1288988.
1223.101, 1290958.
1225.029, 1292542.
1226.958, 1294012.
1228.886, 1295882.
1230.815, 1297958.
1232.743, 1299916.
1234.672, 1301838.
1236.600, 1303814.
1238.529, 1305680.
1240.457, 1307257.
1242.386, 1308884.
1244.314, 1310937.
1246.243, 1312813.
1248.171, 1314246.
1250.099, 1315591.
1252.028, 1316924.
1253.956, 1318521.
1255.885, 1320415.
1257.813, 1322437.
1259.742, 1324652.
1261.670, 1327259.
1263.599, 1330202.
1265.527, 1332908.
1267.456, 1335325.
1269.384, 1337369.
1271.313, 1339100.
1273.241, 1341168.
1275.170, 1343481.
1277.098, 1346005.
1279.026, 1348496.
1280.955, 1350397.
1282.883, 1351896.
1284.812, 1353069.
1286.740, 1354535.
1288.669, 1356786.
1290.597, 1359418.
1292.526, 1362499.
1294.454, 1365260.
1296.383, 1367121.
1298.311, 1368965.
1300.240, 1370988.
1302.168, 1372947.
1304.097, 1374784.
1306.025, 1376468.
1307.953, 1378066.
1309.882, 1379637.
1311.810, 1381256.
1313.739, 1383233.
1315.667, 1384805.
1317.596, 1386879.
1319.524, 1388328.
1321.453, 1390154.
1323.381, 1392123.
1325.310, 1394061.
1327.238, 1395753.
1329.167, 1396776.
1331.095, 1397857.
1333.024, 1399695.
1334.952, 1401411.
1336.880, 1402389.
1338.809, 1403709.
1340.737, 1405812.
1342.666, 1407881.
1344.594, 1409859.
1346.523, 1411787.
1348.451, 1413462.
1350.380, 1414598.
1352.308, 1415573.
1354.237, 1417302.
1356.165, 1419349.
1358.094, 1421028.
1360.022, 1422475.
1361.951, 1423821.
1363.879, 1425071.
1365.807, 1426464.
1367.736, 1427721.
1369.664, 1428953.
1371.593, 1430329.
1373.521, 1431574.
1375.450, 1432984.
1377.378, 1434217.
1379.307, 1435495.
1381.235, 1436943.
1383.164, 1438680.
1385.092, 1440417.
1387.021, 1441675.
1388.949, 1442834.
1390.878, 1444333.
1392.806, 1445984.
1394.734, 1447666.
1396.663, 1449556.
1398.591, 1451664.
1400.520, 1453761.
1402.448, 1455747.
1404.377, 1457716.
1406.305, 1459457.
1408.234, 1461410.
1410.162, 1462709.
1412.091, 1464179.
1414.019, 1465608.
1415.948, 1467119.
1417.876, 1468834.
1419.805, 1470610.
1421.733, 1472218.
1423.661, 1473240.
1425.590, 1474539.
1427.518, 1476773.
1429.447, 1479188.
1431.375, 1481675.
1433.304, 1483631.
1435.232, 1484784.
1437.161, 1485942.
1439.089, 1487226.
1441.018, 1488784.
1442.946, 1490532.
1444.875, 1492220.
1446.803, 1493968.
1448.731, 1495818.
1450.660, 1497289.
1452.588, 1497973.
1454.517, 1498832.
1456.445, 1500418.
1458.374, 1501743.
1460.302, 1502417.
1462.231, 1502830.
1464.159, 1502938.
1466.088, 1503432.
1468.016, 1504351.
1469.945, 1505131.
1471.873, 1505742.
1473.802, 1506288.
1475.730, 1507057.
1477.658, 1507636.
1479.587, 1508334.
1481.515, 1509046.
1483.444, 1509669.
1485.372, 1510300.
1487.301, 1511204.
1489.229, 1511446.
1491.158, 1511996.
1493.086, 1512484.
1495.015, 1512243.
1496.943, 1511935.
1498.872, 1512078.
1500.800, 1512391.
1502.729, 1512518.
1504.657, 1513018.
1506.585, 1514175.
1508.514, 1515317.
1510.442, 1516222.
1512.371, 1516791.
1514.299, 1517125.
1516.228, 1517653.
1518.156, 1518283.
1520.085, 1518469.
1522.013, 1519215.
1523.942, 1521269.
1525.870, 1522406.
1527.799, 1522465.
1529.727, 1523138.
1531.656, 1524185.
1533.584, 1525041.
1535.512, 1525732.
1537.441, 1526381.
1539.369, 1527325.
1541.298, 1528465.
1543.226, 1529197.
1545.155, 1529724.
1547.083, 1530296.
1549.012, 1531123.
1550.940, 1531898.
1552.869, 1532753.
1554.797, 1533661.
1556.726, 1534489.
1558.654, 1535240.
1560.583, 1535565.
1562.511, 1535920.
1564.439, 1536633.
1566.368, 1537725.
1568.296, 1538582.
1570.225, 1539000.
1572.153, 1539231.
1574.082, 1539465.
1576.010, 1539831.
1577.939, 1540075.
1579.867, 1540406.
1581.796, 1540945.
1583.724, 1541393.
1585.653, 1541326.
1587.581, 1540742.
1589.510, 1540225.
1591.438, 1540097.
1593.366, 1540272.
1595.295, 1540229.
1597.223, 1539767.
1599.152, 1539225.
1601.080, 1539014.
1603.009, 1538947.
1604.937, 1538516.
1606.866, 1537823.
1608.794, 1537094.
1610.723, 1536621.
1612.651, 1536387.
1614.580, 1535784.
1616.508, 1535559.
1618.437, 1534897.
1620.365, 1535030.
1622.293, 1534433.
1624.222, 1534208.
1626.150, 1534544.
1628.079, 1534666.
1630.007, 1534546.
1631.936, 1534481.
1633.864, 1534430.
1635.793, 1534331.
1637.721, 1534236.
1639.650, 1534198.
1641.578, 1533880.
1643.507, 1533337.
1645.435, 1532456.
1647.364, 1531703.
1649.292, 1531799.
1651.220, 1532045.
1653.149, 1531891.
1655.077, 1531548.
1657.006, 1531034.
1658.934, 1530871.
1660.863, 1531375.
1662.791, 1532125.
1664.720, 1532831.
1666.648, 1533090.
1668.577, 1533575.
1670.505, 1533372.
1672.434, 1533873.
1674.362, 1533629.
1676.291, 1533181.
1678.219, 1533187.
1680.147, 1532880.
1682.076, 1532851.
1684.004, 1532960.
1685.933, 1532991.
1687.861, 1533466.
1689.790, 1533864.
1691.718, 1534527.
1693.647, 1534916.
1695.575, 1534979.
1697.504, 1536240.
1699.432, 1537889.
1701.361, 1538430.
1703.289, 1538879.
1705.218, 1539713.
1707.146, 1540617.
1709.074, 1541553.
1711.003, 1542648.
1712.931, 1543771.
1714.860, 1544559.
1716.788, 1545240.
1718.717, 1545746.
1720.645, 1545863.
1722.574, 1545565.
1724.502, 1545652.
1726.431, 1545709.
1728.359, 1544913.
1730.288, 1543986.
1732.216, 1542823.
1734.145, 1541540.
1736.073, 1540350.
1738.001, 1539098.
1739.930, 1537887.
1741.858, 1536655.
1743.787, 1535264.
1745.715, 1533753.
1747.644, 1531897.
1749.572, 1529026.
1751.501, 1526058.
1753.429, 1523676.
1755.358, 1520929.
1757.286, 1517731.
1759.215, 1514559.
1761.143, 1511739.
1763.072, 1509265.
1765.000, 1506982.
1766.928, 1504854.
1768.857, 1503040.
1770.785, 1501385.
1772.714, 1499537.
1774.642, 1497828.
1776.571, 1496680.
1778.499, 1495192.
1780.428, 1493152.
1782.356, 1491194.
1784.285, 1489363.
1786.213, 1487891.
1788.142, 1486417.
1790.070, 1484240.
1791.999, 1482338.
1793.927, 1481706.
1795.855, 1481283.
1797.784, 1479967.
1799.712, 1478630.
1801.641, 1477373.
1803.569, 1475707.
1805.498, 1474292.
1807.426, 1473133.
1809.355, 1470909.
1811.283, 1468560.
1813.212, 1466957.
1815.140, 1465374.
1817.069, 1463585.
1818.997, 1462231.
1820.926, 1461275.
1822.854, 1460016.
1824.782, 1458527.
1826.711, 1457148.
1828.639, 1455955.
1830.568, 1453709.
1832.496, 1451302.
1834.425, 1449823.
1836.353, 1448109.
1838.282, 1446059.
1840.210, 1444371.
1842.139, 1442333.
1844.067, 1439562.
1845.996, 1437264.
1847.924, 1435104.
1849.853, 1432516.
1851.781, 1429930.
1853.709, 1427631.
1855.638, 1425380.
1857.566, 1422967.
1859.495, 1420494.
1861.423, 1418066.
1863.352, 1415183.
1865.280, 1413161.
1867.209, 1412746.
1869.137, 1411257.
1871.066, 1408666.
1872.994, 1406469.
1874.923, 1404237.
1876.851, 1401770.
1878.780, 1399444.
1880.708, 1397520.
1882.636, 1395439.
1884.565, 1393299.
1886.493, 1391259.
1888.422, 1389252.
1890.350, 1387275.
1892.279, 1385174.
1894.207, 1383196.
1896.136, 1381005.
1898.064, 1378842.
1899.993, 1376714.
1901.921, 1374282.
1903.850, 1372337.
1905.778, 1369837.
1907.707, 1367410.
1909.635, 1366076.
1911.563, 1364620.
1913.492, 1363129.
1915.420, 1361335.
1917.349, 1359005.
1919.277, 1357029.
1921.206, 1354875.
1923.134, 1352457.
1925.063, 1350085.
1926.991, 1348188.
1928.920, 1346279.
1930.848, 1344071.
1932.777, 1341522.
1934.705, 1339475.
1936.634, 1336872.
1938.562, 1334981.
1940.490, 1332643.
1942.419, 1330408.
1944.347, 1328460.
1946.276, 1327088.
1948.204, 1325380.
1950.133, 1323091.
1952.061, 1320581.
1953.990, 1318351.
1955.918, 1315825.
1957.847, 1313475.
1959.775, 1311590.
1961.704, 1309537.
1963.632, 1307903.
1965.561, 1306134.
1967.489, 1303267.
1969.417, 1299610.
1971.346, 1296308.
1973.274, 1293644.
1975.203, 1291345.
1977.131, 1289081.
1979.060, 1286794.
1980.988, 1284541.
1982.917, 1282240.
1984.845, 1280250.
1986.774, 1278215.
1988.702, 1275933.
1990.631, 1273936.
1992.559, 1271879.
1994.488, 1269184.
1996.416, 1266114.
1998.344, 1262795.
2000.273, 1259764.
2002.201, 1257069.
2004.130, 1254905.
2006.058, 1252930.
2007.987, 1250178.
2009.915, 1247251.
2011.844, 1244180.
2013.772, 1241524.
2015.701, 1239326.
2017.629, 1236932.
2019.558, 1234590.
2021.486, 1232341.
2023.415, 1229678.
2025.343, 1226811.
2027.271, 1224363.
2029.200, 1221756.
2031.128, 1218688.
2033.057, 1215925.
2034.985, 1213297.
2036.914, 1210175.
2038.842, 1207245.
2040.771, 1204768.
2042.699, 1202088.
2044.628, 1198970.
2046.556, 1195856.
2048.485, 1193159.
2050.413, 1190837.
2052.342, 1188332.
2054.270, 1185511.
2056.198, 1182183.
2058.127, 1179229.
2060.055, 1176947.
2061.984, 1174253.
2063.912, 1171738.
2065.841, 1169477.
2067.769, 1166837.
2069.698, 1164076.
2071.626, 1161362.
2073.555, 1158823.
2075.483, 1156417.
2077.412, 1153818.
2079.340, 1150939.
2081.269, 1147946.
2083.197, 1144901.
2085.125, 1142302.
2087.054, 1139881.
2088.982, 1137159.
2090.911, 1134071.
2092.839, 1130920.
2094.768, 1128041.
2096.696, 1125468.
2098.625, 1123237.
2100.553, 1120551.
2102.482, 1117561.
2104.410, 1113969.
2106.339, 1110627.
2108.267, 1107781.
2110.196, 1104916.
2112.124, 1102394.
2114.052, 1100457.
2115.981, 1098566.
2117.909, 1096336.
2119.838, 1093786.
2121.766, 1091063.
2123.695, 1087790.
2125.623, 1085191.
2127.552, 1083248.
2129.480, 1081150.
2131.409, 1079076.
2133.337, 1076349.
2135.266, 1073740.
2137.194, 1070375.
2139.123, 1067032.
2141.051, 1063413.
2142.979, 1059658.
2144.908, 1056406.
2146.836, 1053488.
2148.765, 1050938.
2150.693, 1048406.
2152.622, 1045621.
2154.550, 1043068.
2156.479, 1040709.
2158.407, 1038330.
2160.336, 1035928.
2162.264, 1033681.
2164.193, 1031259.
2166.121, 1028375.
2168.050, 1025075.
2169.978, 1022034.
2171.906, 1019380.
2173.835, 1016404.
2175.763, 1014173.
2177.692, 1011084.
2179.620, 1008753.
2181.549, 1006463.
2183.477, 1003361.
2185.406, 1000297.
2187.334, 997384.1
2189.263, 994478.1
2191.191, 991637.1
2193.120, 989023.5
2195.048, 986661.9
2196.977, 984301.9
2198.905, 981145.3
2200.833, 977739.3
2202.762, 974236.2
2204.690, 970673.5
2206.619, 967613.5
2208.547, 965927.5
2210.476, 964199.6
2212.404, 962185.4
2214.333, 959785.2
2216.261, 957101.4
2218.190, 954086.5
2220.118, 951381.8
2222.047, 948930.3
2223.975, 946496.9
2225.904, 944635.4
2227.832, 943242.7
2229.760, 941195.4
2231.689, 938684.8
2233.617, 935253.6
2235.546, 932026.2
2237.474, 929234.8
2239.403, 926803.4
2241.331, 924548.2
2243.260, 922499.5
2245.188, 920039.4
2247.117, 917804.8
2249.045, 916270.6
2250.974, 914455.8
2252.902, 912333.7
2254.831, 910409.8
2256.759, 908085.3
2258.688, 905146.3
2260.616, 902470.9
2262.544, 899963.3
2264.473, 897599.9
2266.401, 895675.6
2268.330, 894046.4
2270.258, 892722.4
2272.187, 891251.9
2274.115, 889454.1
2276.044, 887575.1
2277.972, 885414.1
2279.901, 882554.2
2281.829, 880081.6
2283.758, 877982.4
2285.686, 876315.6
2287.615, 874668.5
2289.543, 872901.3
2291.471, 871077.0
2293.400, 869151.0
2295.328, 866993.3
2297.257, 865085.1
2299.185, 863350.2
2301.114, 861138.1
2303.042, 858694.9
2304.971, 856091.4
2306.899, 853572.3
2308.828, 851199.6
2310.756, 849223.9
2312.685, 847137.6
2314.613, 845378.1
2316.542, 843558.6
2318.470, 842259.7
2320.398, 841039.0
2322.327, 839863.8
2324.255, 838444.3
2326.184, 836463.5
2328.112, 834598.3
2330.041, 832632.6
2331.969, 830302.5
2333.898, 828039.1
2335.826, 825961.2
2337.755, 824708.4
2339.683, 823523.4
2341.612, 822161.4
2343.540, 820883.3
2345.469, 819794.1
2347.397, 819001.8
2349.325, 818203.8
2351.254, 817513.3
2353.182, 817300.9
2355.111, 817365.3
2357.039, 817567.6
2358.968, 817377.1
2360.896, 817233.2
2362.825, 817302.8
2364.753, 818054.1
2366.682, 819108.1
2368.610, 820045.0
2370.539, 821075.4
2372.467, 822420.4
2374.396, 824421.8
2376.324, 826372.3
2378.252, 828297.8
2380.181, 831098.8
2382.109, 834020.4
2384.038, 836720.6
2385.966, 840191.2
2387.895, 844280.1
2389.823, 848837.1
2391.752, 854282.2
2393.680, 859875.4
2395.609, 864384.0
2397.537, 868806.4
2399.466, 873172.1
2401.394, 877672.0
2403.323, 880841.9
2405.251, 882214.5
2407.179, 883461.5
2409.108, 884372.8
2411.036, 884900.1
2412.965, 884461.6
2414.893, 883049.0
2416.822, 880645.1
2418.750, 878072.3
2420.679, 875321.6
2422.607, 871857.6
2424.536, 868701.0
2426.464, 866050.4
2428.393, 863961.4
2430.321, 862998.0
2432.250, 863088.4
2434.178, 862700.1
2436.106, 863124.0
2438.035, 865034.7
2439.963, 866714.6
2441.892, 868289.4
2443.820, 870064.3
2445.749, 871892.2
2447.677, 873590.9
2449.606, 875098.1
2451.534, 875852.0
2453.463, 875776.4
2455.391, 875595.0
2457.320, 874153.4
2459.248, 871402.9
2461.177, 869002.4
2463.105, 866198.3
2465.033, 862609.1
2466.962, 859134.2
2468.890, 855380.4
2470.819, 851193.6
2472.747, 846190.1
2474.676, 840939.4
2476.604, 836209.5
2478.533, 830825.3
2480.461, 825152.3
2482.390, 819443.2
2484.318, 813642.5
2486.247, 807718.2
2488.175, 801090.9
2490.104, 794480.1
2492.032, 788157.0
2493.960, 782792.4
2495.889, 776965.9
2497.817, 770363.8
2499.746, 763829.4
2501.674, 757469.0
2503.603, 751279.6
2505.531, 745002.6
2507.460, 738778.3
2509.388, 732582.3
2511.317, 727085.3
2513.245, 721511.8
2515.174, 715386.6
2517.102, 709679.4
2519.031, 704003.8
2520.959, 698189.8
2522.887, 692252.9
2524.816, 686543.8
2526.744, 681758.3
2528.673, 676908.1
2530.601, 671866.2
2532.530, 667000.7
2534.458, 662614.4
2536.387, 658190.3
2538.315, 652781.0
2540.244, 647479.6
2542.172, 642255.6
2544.101, 636712.6
2546.029, 631137.3
2547.958, 625683.6
2549.886, 620741.4
2551.814, 615852.1
2553.743, 611066.1
2555.671, 606707.3
2557.600, 602462.1
2559.528, 598418.0
2561.457, 595084.4
2563.385, 591369.5
2565.314, 587175.1
2567.242, 583217.4
2569.171, 579250.1
2571.099, 575226.6
2573.028, 571589.4
2574.956, 568013.2
2576.885, 564244.8
2578.813, 560714.6
2580.741, 557114.8
2582.670, 553590.4
2584.598, 550048.8
2586.527, 546544.7
2588.455, 543107.4
2590.384, 539885.1
2592.312, 536803.4
2594.241, 533706.3
2596.169, 530634.6
2598.098, 527559.2
2600.026, 524475.0
2601.955, 521488.9
2603.883, 518495.7
2605.812, 515526.8
2607.740, 512598.4
2609.668, 509613.0
2611.597, 506659.1
2613.525, 504406.4
2615.454, 501962.7
2617.382, 498763.0
2619.311, 496085.0
2621.239, 493422.5
2623.168, 490484.9
2625.096, 487906.7
2627.025, 485395.0
2628.953, 483339.1
2630.882, 481255.5
2632.810, 478973.7
2634.739, 477036.8
2636.667, 475022.5
2638.595, 472876.9
2640.524, 470872.3
2642.452, 469470.2
2644.381, 467764.4
2646.309, 465882.5
2648.238, 463959.9
2650.166, 462058.4
2652.095, 460570.2
2654.023, 458679.2
2655.952, 456544.2
2657.880, 454457.3
2659.809, 453147.6
2661.737, 451944.3
2663.666, 450556.1
2665.594, 448954.2
2667.522, 447610.4
2669.451, 446255.4
2671.379, 444061.6
2673.308, 442223.4
2675.236, 440890.0
2677.165, 439569.3
2679.093, 438445.9
2681.022, 437404.1
2682.950, 436229.4
2684.879, 435442.2
2686.807, 434325.0
2688.736, 433639.3
2690.664, 432362.9
2692.593, 431234.6
2694.521, 430370.0
2696.449, 429434.1
2698.378, 428505.7
2700.306, 427450.2
2702.235, 426288.3
2704.163, 425194.4
2706.092, 424142.1
2708.020, 422641.7
2709.949, 421015.3
2711.877, 419313.4
2713.806, 418308.7
2715.734, 416966.1
2717.663, 415256.9
2719.591, 414135.0
2721.520, 412749.0
2723.448, 411210.4
2725.376, 409824.9
2727.305, 408458.8
2729.233, 407059.3
2731.162, 405577.1
2733.090, 404469.5
2735.019, 403551.7
2736.947, 402830.0
2738.876, 401891.7
2740.804, 400665.9
2742.733, 399412.2
2744.661, 398380.8
2746.590, 397292.1
2748.518, 396278.5
2750.447, 395502.8
2752.375, 394717.6
2754.303, 394037.2
2756.232, 393676.2
2758.160, 393064.3
2760.089, 392520.5
2762.017, 392189.1
2763.946, 391641.3
2765.874, 391161.5
2767.803, 390531.9
2769.731, 389881.0
2771.660, 389348.4
2773.588, 388579.7
2775.517, 388059.6
2777.445, 387504.9
2779.374, 386939.3
2781.302, 386459.6
2783.230, 385933.1
2785.159, 385372.6
2787.087, 385135.4
2789.016, 384783.7
2790.944, 384318.4
2792.873, 383812.5
2794.801, 383143.0
2796.730, 382240.4
2798.658, 381459.5
2800.587, 380747.3
2802.515, 379910.9
2804.444, 379065.7
2806.372, 378386.3
2808.301, 377733.4
2810.229, 376972.2
2812.157, 376130.8
2814.086, 375255.4
2816.014, 374149.5
2817.943, 373043.0
2819.871, 371997.0
2821.800, 370878.2
2823.728, 369992.4
2825.657, 368829.6
2827.585, 367608.3
2829.514, 366770.1
2831.442, 365532.2
2833.371, 363773.2
2835.299, 362087.2
2837.228, 360771.8
2839.156, 359295.5
2841.084, 357643.3
2843.013, 356178.1
2844.941, 354958.4
2846.870, 353699.3
2848.798, 352294.8
2850.727, 351045.5
2852.655, 349413.7
2854.584, 347378.8
2856.512, 345304.2
2858.441, 343097.0
2860.369, 340596.4
2862.298, 338112.6
2864.226, 335709.6
2866.155, 333324.0
2868.083, 330918.7
2870.011, 328341.5
2871.940, 325671.4
2873.868, 322819.4
2875.797, 320156.6
2877.725, 317389.0
2879.654, 314457.4
2881.582, 311771.0
2883.511, 308856.6
2885.439, 305827.3
2887.368, 303192.0
2889.296, 300403.8
2891.225, 297488.3
2893.153, 294674.8
2895.082, 291653.7
2897.010, 288696.7
2898.938, 285546.9
2900.867, 282440.1
2902.795, 279320.4
2904.724, 276194.1
2906.652, 272833.9
2908.581, 270002.8
2910.509, 267039.5
2912.438, 264057.8
2914.366, 261366.8
2916.295, 258714.0
2918.223, 255807.8
2920.151, 252957.9
2922.080, 250133.8
2924.008, 247208.9
2925.937, 244305.4
2927.865, 241491.0
2929.794, 238655.4
2931.722, 235828.1
2933.651, 233454.9
2935.579, 231207.6
2937.508, 228890.8
2939.436, 226324.4
2941.365, 223789.0
2943.293, 221082.8
2945.221, 218312.4
2947.150, 215431.3
2949.078, 212419.9
2951.007, 209446.5
2952.935, 206534.9
2954.864, 203916.2
2956.792, 201583.1
2958.721, 199268.5
2960.649, 196808.8
2962.578, 194673.3
2964.506, 192497.6
2966.435, 190162.8
2968.363, 187665.7
2970.292, 185109.3
2972.220, 182679.1
2974.148, 180485.5
2976.077, 178207.5
2978.005, 175984.0
2979.934, 173805.7
2981.862, 171399.1
2983.791, 169504.0
2985.719, 167636.9
2987.648, 165395.2
2989.576, 163344.5
2991.505, 161403.5
2993.433, 159565.3
2995.362, 157668.6
2997.290, 155890.5
2999.219, 154070.3
3001.147, 152095.8
3003.075, 150015.4
3005.004, 148082.7
3006.932, 146243.3
3008.861, 144468.1
3010.789, 142529.9
3012.718, 141137.3
3014.646, 139768.0
3016.575, 138153.7
3018.503, 136521.5
3020.432, 134909.2
3022.360, 133501.4
3024.289, 131925.6
3026.217, 130370.3
3028.146, 129010.3
3030.074, 127693.6
3032.002, 126250.2
3033.931, 124789.1
3035.859, 123424.6
3037.788, 122125.8
3039.716, 120741.8
3041.645, 119384.4
3043.573, 117934.2
3045.502, 116932.5
3047.430, 115691.9
3049.359, 114190.0
3051.287, 113208.2
3053.216, 111958.4
3055.144, 110523.1
3057.073, 109093.4
3059.001, 107792.5
3060.929, 106497.3
3062.858, 105371.2
3064.786, 104276.6
3066.715, 103067.4
3068.643, 102080.8
3070.572, 101246.9
3072.500, 100205.8
3074.429, 99229.23
3076.357, 98159.50
3078.286, 97053.45
3080.214, 96040.04
3082.143, 94956.98
3084.071, 94049.03
3086.000, 93030.75
3087.928, 92130.24
3089.856, 91072.36
3091.785, 90330.68
3093.713, 89324.49
3095.642, 88185.15
3097.570, 87303.28
3099.499, 86518.59
3101.427, 85269.33
3103.356, 84361.42
3105.284, 83625.84
3107.213, 82736.85
3109.141, 82022.97
3111.070, 81159.34
3112.998, 80344.49
3114.927, 79647.13
3116.855, 78662.10
3118.783, 77657.41
3120.712, 76739.01
3122.640, 76020.05
3124.569, 75231.98
3126.497, 74306.97
3128.426, 73471.83
3130.354, 72956.74
3132.283, 72284.73
3134.211, 71481.03
3136.140, 70577.23
3138.068, 69578.34
3139.997, 69042.07
3141.925, 68351.86
3143.854, 67574.15
3145.782, 67031.91
3147.710, 66357.53
3149.639, 65801.80
3151.567, 65172.88
3153.496, 64736.45
3155.424, 63966.25
3157.353, 63317.32
3159.281, 62797.31
3161.210, 62012.94
3163.138, 61361.61
3165.067, 60869.76
3166.995, 60384.11
3168.924, 59518.71
3170.852, 58937.79
3172.781, 58386.69
3174.709, 57727.57
3176.637, 57111.63
3178.566, 56602.93
3180.494, 56018.45
3182.423, 55305.94
3184.351, 54607.55
3186.280, 53836.85
3188.208, 53192.20
3190.137, 52538.31
3192.065, 51864.37
3193.994, 51350.32
3195.922, 50902.72
3197.851, 50419.57
3199.779, 49917.50
3201.708, 49404.46
3203.636, 48914.63
3205.564, 48426.88
3207.493, 47766.65
3209.421, 47200.58
3211.350, 46800.73
3213.278, 46527.28
3215.207, 46136.35
3217.135, 45659.53
3219.064, 45129.36
3220.992, 44618.85
3222.921, 44213.13
3224.849, 43813.23
3226.778, 43341.84
3228.706, 42885.89
3230.635, 42650.41
3232.563, 42210.83
3234.491, 41677.13
3236.420, 41206.88
3238.348, 41001.77
3240.277, 40618.89
3242.205, 40306.13
3244.134, 39978.63
3246.062, 39454.01
3247.991, 39133.49
3249.919, 38686.76
3251.848, 38253.33
3253.776, 38029.57
3255.705, 37679.86
3257.633, 37380.84
3259.562, 37215.66
3261.490, 37142.15
3263.418, 36857.96
3265.347, 36552.43
3267.275, 36224.61
3269.204, 35876.93
3271.132, 35643.20
3273.061, 35377.97
3274.989, 35159.06
3276.918, 35011.72
3278.846, 34901.25
3280.775, 34769.05
3282.703, 34528.84
3284.632, 34313.43
3286.560, 34275.48
3288.489, 34161.24
3290.417, 34006.74
3292.345, 33827.79
3294.274, 33646.87
3296.202, 33537.54
3298.131, 33320.99
3300.059, 33256.53
3301.988, 32935.57
3303.916, 32808.42
3305.845, 32632.15
3307.773, 32522.77
3309.702, 32431.76
3311.630, 32180.25
3313.559, 31989.01
3315.487, 31912.72
3317.416, 31821.79
3319.344, 31624.36
3321.272, 31472.14
3323.201, 31317.91
3325.129, 31018.86
3327.058, 30732.46
3328.986, 30402.92
3330.915, 30278.26
3332.843, 30082.74
3334.772, 29821.96
3336.700, 29627.46
3338.629, 29534.83
3340.557, 29358.39
3342.486, 29211.83
3344.414, 29122.70
3346.343, 28852.60
3348.271, 28653.21
3350.199, 28712.14
3352.128, 28829.46
3354.056, 28646.83
3355.985, 28544.67
3357.913, 28535.77
3359.842, 28581.86
3361.770, 28597.20
3363.699, 28323.14
3365.627, 28220.04
3367.556, 28200.94
3369.484, 28186.45
3371.413, 28137.21
3373.341, 28097.39
3375.270, 28004.63
3377.198, 28010.65
3379.126, 27941.21
3381.055, 27943.51
3382.983, 27774.73
3384.912, 27643.24
3386.840, 27581.50
3388.769, 27520.46
3390.697, 27476.36
3392.626, 27395.62
3394.554, 27289.30
3396.483, 27197.48
3398.411, 27185.13
3400.340, 27190.36
3402.268, 27170.69
3404.197, 27087.12
3406.125, 27085.26
3408.053, 26878.22
3409.982, 27011.03
3411.910, 27004.34
3413.839, 26945.45
3415.767, 27115.79
3417.696, 26879.81
3419.624, 26980.14
3421.553, 26980.36
3423.481, 26743.39
3425.410, 26741.16
3427.338, 26662.79
3429.267, 26643.00
3431.195, 26561.69
3433.124, 26316.63
3435.052, 26027.95
3436.980, 25660.28
3438.909, 25318.91
3440.837, 25059.74
3442.766, 24870.25
3444.694, 24546.70
3446.623, 24196.69
3448.551, 23792.15
3450.480, 23350.65
3452.408, 22915.45
3454.337, 22416.58
3456.265, 21815.37
3458.194, 21202.25
3460.122, 20639.73
3462.051, 20145.78
3463.979, 19724.30
3465.907, 19269.42
3467.836, 18892.60
3469.764, 18506.28
3471.693, 18176.23
3473.621, 17880.60
3475.550, 17532.86
3477.478, 17143.54
3479.407, 16757.43
3481.335, 16429.35
3483.264, 15993.79
3485.192, 15780.41
3487.121, 15560.40
3489.049, 15236.97
3490.978, 15122.43
3492.906, 14991.47
3494.834, 14868.51
3496.763, 14650.41
3498.691, 14531.25
3500.620, 14310.75
3502.548, 14233.37
3504.477, 14086.46
3506.405, 13947.59
3508.334, 13806.40
3510.262, 13522.72
3512.191, 13379.60
3514.119, 13251.59
3516.048, 13123.07
3517.976, 13006.63
3519.905, 12904.91
3521.833, 12776.16
3523.761, 12574.89
3525.690, 12374.71
3527.618, 12245.45
3529.547, 12056.26
3531.475, 11967.89
3533.404, 11760.98
3535.332, 11701.06
3537.261, 11619.97
3539.189, 11324.89
3541.118, 11207.17
3543.046, 11029.62
3544.975, 10867.44
3546.903, 10743.89
3548.832, 10626.42
3550.760, 10411.39
3552.688, 10335.33
3554.617, 10181.32
3556.545, 10070.88
3558.474, 10081.70
3560.402, 10052.47
3562.331, 9914.189
3564.259, 9747.414
3566.188, 9659.712
3568.116, 9634.428
3570.045, 9571.650
3571.973, 9536.169
3573.902, 9542.108
3575.830, 9454.216
3577.759, 9414.836
3579.687, 9349.463
3581.615, 9255.410
3583.544, 9175.133
3585.472, 9035.614
3587.401, 8894.581
3589.329, 8788.174
3591.258, 8670.984
3593.186, 8559.435
3595.115, 8460.222
3597.043, 8335.931
3598.972, 8220.353
3600.900, 8083.277
3602.829, 7986.348
3604.757, 7832.488
3606.686, 7737.749
3608.614, 7654.337
3610.542, 7526.750
3612.471, 7347.556
3614.399, 7282.947
3616.328, 7182.516
3618.256, 7150.549
3620.185, 7078.903
3622.113, 7118.182
3624.042, 7132.796
3625.970, 6973.519
3627.899, 6877.669
3629.827, 6839.323
3631.756, 6772.823
3633.684, 6757.711
3635.613, 6724.771
3637.541, 6757.917
3639.469, 6765.473
3641.398, 6781.585
3643.326, 6795.072
3645.255, 6760.101
3647.183, 6635.445
3649.112, 6718.849
3651.040, 6634.119
3652.969, 6565.579
3654.897, 6658.362
3656.826, 6643.583
3658.754, 6489.137
3660.683, 6406.101
3662.611, 6328.157
3664.540, 6277.987
3666.468, 6288.202
3668.396, 6299.375
3670.325, 6263.671
3672.253, 6071.922
3674.182, 5990.946
3676.110, 5953.195
3678.039, 5829.720
3679.967, 5739.545
3681.896, 5645.714
3683.824, 5576.892
3685.753, 5505.650
3687.681, 5412.250
3689.610, 5309.325
3691.538, 5234.315
3693.467, 5169.434
3695.395, 5039.313
3697.323, 5053.806
3699.252, 5007.834
3701.180, 4929.594
3703.109, 5034.816
3705.037, 4952.087
3706.966, 5042.797
3708.894, 5002.273
3710.823, 4911.954
3712.751, 4916.951
3714.680, 4981.161
3716.608, 4940.074
3718.537, 4949.990
3720.465, 4911.473
3722.394, 4860.208
3724.322, 4788.980
3726.250, 4753.568
3728.179, 4679.313
3730.107, 4671.965
3732.036, 4565.660
3733.964, 4537.834
3735.893, 4532.415
3737.821, 4510.461
3739.750, 4457.962
3741.678, 4400.527
3743.607, 4343.097
3745.535, 4287.011
3747.464, 4232.705
3749.392, 4184.845
3751.321, 4121.961
3753.249, 4098.158
3755.177, 4036.887
3757.106, 4107.671
3759.034, 4051.199
3760.963, 4053.215
3762.891, 4037.915
3764.820, 4028.441
3766.748, 3973.919
3768.677, 3946.496
3770.605, 3909.927
3772.534, 3937.188
3774.462, 4002.720
3776.391, 4012.370
3778.319, 4072.563
3780.248, 3913.177
3782.176, 3883.284
3784.104, 3883.104
3786.033, 3860.654
3787.961, 3844.998
3789.890, 3859.691
3791.818, 3862.647
3793.747, 3916.208
3795.675, 3886.207
3797.604, 3831.877
3799.532, 3789.013
3801.461, 3706.640
3803.389, 3541.856
3805.318, 3522.537
3807.246, 3454.951
3809.175, 3365.658
3811.103, 3355.485
3813.031, 3380.514
3814.960, 3331.541
3816.888, 3184.714
3818.817, 3221.937
3820.745, 3078.029
3822.674, 3071.180
3824.602, 3048.369
3826.531, 2943.652
3828.459, 2851.587
3830.388, 2876.955
3832.316, 2906.860
3834.245, 2967.636
3836.173, 2926.722
3838.102, 2835.041
3840.030, 2856.481
3841.958, 2918.089
3843.887, 2894.160
3845.815, 2997.454
3847.744, 2983.670
3849.672, 3048.925
3851.601, 3118.452
3853.529, 3037.699
3855.458, 3041.338
3857.386, 3158.162
3859.315, 3024.031
3861.243, 3190.302
3863.172, 3166.157
3865.100, 3182.377
3867.029, 3168.861
3868.957, 3147.279
3870.885, 3118.969
3872.814, 3070.865
3874.742, 3117.761
3876.671, 2973.456
3878.599, 2994.204
3880.528, 2894.305
3882.456, 2861.291
3884.385, 2865.912
3886.313, 2841.488
3888.242, 2816.289
3890.170, 2718.244
3892.099, 2659.597
3894.027, 2626.109
3895.956, 2534.936
3897.884, 2496.055
3899.813, 2444.097
3901.741, 2409.366
3903.669, 2486.452
3905.598, 2434.536
3907.526, 2526.232
3909.455, 2537.031
3911.383, 2560.737
3913.312, 2558.767
3915.240, 2583.643
3917.169, 2601.696
3919.097, 2544.496
3921.026, 2570.175
3922.954, 2611.287
3924.883, 2474.514
3926.811, 2486.736
3928.740, 2477.459
3930.668, 2424.990
3932.596, 2424.666
3934.525, 2519.563
3936.453, 2637.392
3938.382, 2532.573
3940.310, 2572.183
3942.239, 2470.268
3944.167, 2552.975
3946.096, 2605.096
3948.024, 2528.519
3949.953, 2500.795
3951.881, 2529.647
3953.810, 2264.650
3955.738, 2258.459
3957.667, 2317.057
3959.595, 2317.397
3961.523, 2338.441
3963.452, 2220.593
3965.380, 2179.174
3967.309, 2168.724
3969.237, 2028.151
3971.166, 1988.666
3973.094, 2053.428
3975.023, 1960.231
3976.951, 1909.875
3978.880, 1816.788
3980.808, 1898.175
3982.737, 1858.670
3984.665, 1767.882
3986.594, 1773.207
3988.522, 1626.353
3990.450, 1525.002
3992.379, 1419.449
3994.307, 1394.211
3996.236, 1365.363
3998.164, 1296.078
4000.093, 1328.621
4002.021, 1320.338
4003.950, 1313.757
4005.878, 1355.463
4007.807, 1355.974
4009.735, 1265.854
4011.664, 1268.245
4013.592, 1198.996
4015.521, 1210.276
4017.449, 1234.870
4019.377, 1210.969
4021.306, 1255.649
4023.234, 1270.205
4025.163, 1226.673
4027.091, 1233.295
4029.020, 1290.710
4030.948, 1235.229
4032.877, 1207.943
4034.805, 1159.632
4036.734, 1245.331
4038.662, 1280.716
4040.591, 1295.320
4042.519, 1203.685
4044.448, 1083.582
4046.376, 1096.441
4048.304, 1109.860
4050.233, 1138.998
4052.161, 1198.838
4054.090, 1272.763
4056.018, 1264.068
4057.947, 1176.399
4059.875, 1238.586
4061.804, 1149.832
4063.732, 1083.432
4065.661, 1110.318
4067.589, 1080.354
4069.518, 1102.296
4071.446, 1113.698
4073.375, 1114.051
4075.303, 1143.762
4077.231, 1137.155
4079.160, 1142.222
4081.088, 1155.537
4083.017, 1144.917
4084.945, 1111.273
4086.874, 1121.474
4088.802, 1176.855
4090.731, 1133.271
4092.659, 1204.304
4094.588, 1117.311
4096.516, 1128.458
4098.444, 1170.467
4100.373, 1140.561
4102.301, 1121.875
4104.230, 1139.058
4106.158, 1102.406
4108.087, 1059.692
4110.015, 1147.822
4111.944, 1133.270
4113.872, 1133.847
4115.801, 1114.148
4117.729, 1121.565
4119.658, 1126.212
4121.586, 1127.139
4123.515, 1125.336
4125.443, 1142.312
4127.372, 1114.515
4129.300, 1083.428
4131.229, 1073.703
4133.157, 1105.076
4135.085, 1073.241
4137.014, 1059.317
4138.942, 1124.963
4140.871, 1140.520
4142.799, 1087.559
4144.728, 1125.027
4146.656, 1128.217
4148.584, 1038.162
4150.513, 1030.837
4152.441, 1100.587
4154.370, 1089.749
4156.298, 1036.620
4158.227, 1075.867
4160.155, 1042.482
4162.084, 1053.703
4164.012, 1116.255
4165.941, 1027.604
4167.869, 1100.145
4169.798, 1036.048
4171.726, 1048.450
4173.655, 1124.454
4175.583, 1137.735
4177.512, 1073.934
4179.440, 1045.767
4181.369, 1093.517
4183.297, 1100.167
4185.226, 1077.057
4187.154, 1080.463
4189.083, 1087.756
4191.011, 1166.264
4192.939, 1130.516
4194.868, 1154.232
4196.796, 1052.492
4198.725, 1123.010
4200.653, 1092.294
4202.582, 1056.841
4204.510, 1121.776
4206.438, 1127.031
4208.367, 1074.931
4210.295, 1083.629
4212.224, 1063.540
4214.152, 1053.178
4216.081, 1150.878
4218.009, 1064.529
4219.938, 1162.824
4221.866, 1130.016
4223.795, 1136.589
4225.723, 1137.314
4227.652, 1159.015
4229.580, 1140.198
4231.509, 1165.736
4233.437, 1170.958
4235.366, 1153.154
4237.294, 1073.415
4239.223, 1133.739
4241.151, 1089.716
4243.080, 1104.687
4245.008, 1155.560
4246.937, 1098.485
4248.865, 1188.536
4250.793, 1190.413
4252.722, 1161.945
4254.650, 1256.535
4256.579, 1160.280
4258.507, 1191.713
4260.436, 1224.421
4262.364, 1104.681
4264.292, 1117.754
4266.221, 1186.623
4268.149, 1162.725
4270.078, 1192.618
4272.006, 1211.547
4273.935, 1148.029
4275.863, 1122.692
4277.792, 1128.302
4279.720, 1187.307
4281.649, 1259.263
4283.577, 1178.417
4285.506, 1201.759
4287.434, 1164.792
4289.363, 1133.742
4291.291, 1165.695
4293.220, 1054.441
4295.148, 1179.019
4297.077, 1130.341
4299.005, 1126.165
4300.934, 1186.449
4302.862, 1161.359
4304.791, 1169.902
4306.719, 1187.991
4308.647, 1197.710
4310.576, 1224.579
4312.504, 1222.954
4314.433, 1185.344
4316.361, 1205.318
4318.290, 1234.808
4320.218, 1193.618
4322.146, 1227.884
4324.075, 1214.007
4326.003, 1206.939
4327.932, 1238.783
4329.860, 1215.478
4331.789, 1114.536
4333.717, 1193.724
4335.646, 1135.876
4337.574, 1111.485
4339.503, 1213.262
4341.431, 1217.025
4343.360, 1161.817
4345.288, 1232.886
4347.217, 1262.936
4349.145, 1216.848
4351.074, 1234.008
4353.002, 1290.128
4354.931, 1245.500
4356.859, 1248.741
4358.788, 1240.172
4360.716, 1207.068
4362.645, 1227.971
4364.573, 1266.694
4366.501, 1265.809
4368.430, 1258.015
4370.358, 1244.175
4372.287, 1239.994
4374.215, 1277.661
4376.144, 1271.346
4378.072, 1232.710
##END=



