##NAMES=Spangolite
##RRUFFID=R080023
##IDEAL CHEMISTRY=Cu_6_Al(SO_4_)(OH)_12_Cl·3H_2_O
##LOCALITY=Mex-Tex mine, Hansonberg Mining District, Bingham, Socorro County, New Mexico, USA
##OWNER=RRUFF
##SOURCE=William W. Pinch
##DESCRIPTION=Deep bluish green doubly terminated and pyramidal crystals associated with quartz
##STATUS=The identification of this mineral has been confirmed by single-crystal X-ray diffraction
##URL=https://www.rruff.net/odr/rruff_sample/R080023
##DIFFRACTION SAMPLE DESCRIPTION=Single crystal, powder profile is calculated
##CELL PARAMETERS=a: 8.276 b: 8.276 c: 14.356 alpha: 90 beta: 90 gamma: 120 volume: 851.6 crystal system: hexagonal
##FILETYPE=Raman RAW
##RAMAN WAVELENGTH=780

83.27784, 136.7533
85.20631, 146.1146
87.13477, 158.8063
89.06324, 179.4247
90.99171, 203.6812
92.92017, 219.6812
94.84864, 223.3648
96.77711, 215.8014
98.70557, 218.0763
100.6340, 218.7514
102.5625, 213.7376
104.4910, 205.5327
106.4194, 197.6284
108.3479, 189.7622
110.2764, 183.5014
112.2048, 179.7081
114.1333, 176.3105
116.0618, 171.3888
117.9902, 166.6498
119.9187, 166.0972
121.8472, 169.9200
123.7756, 171.1934
125.7041, 165.3594
127.6326, 160.4191
129.5611, 160.0175
131.4895, 161.7798
133.4180, 162.3340
135.3465, 161.7279
137.2749, 158.8122
139.2034, 149.5934
141.1319, 142.8191
143.0603, 143.0895
144.9888, 145.9393
146.9173, 145.7965
148.8457, 142.6639
150.7742, 140.0388
152.7027, 138.7017
154.6311, 137.3874
156.5596, 134.7625
158.4881, 132.8981
160.4165, 134.2726
162.3450, 138.4473
164.2735, 140.7976
166.2019, 140.6293
168.1304, 139.2447
170.0589, 135.8260
171.9873, 131.9980
173.9158, 128.2864
175.8443, 124.9809
177.7727, 123.6580
179.7012, 127.0666
181.6297, 127.9203
183.5581, 123.9978
185.4866, 120.2321
187.4151, 119.5778
189.3435, 120.5206
191.2720, 120.2843
193.2005, 118.1649
195.1289, 117.3525
197.0574, 119.1750
198.9859, 120.0133
200.9143, 116.7763
202.8428, 112.9692
204.7713, 111.9634
206.6997, 113.8260
208.6282, 116.5855
210.5567, 122.1405
212.4851, 123.1454
214.4136, 112.0531
216.3421, 101.8894
218.2705, 102.1215
220.1990, 109.7991
222.1275, 115.2560
224.0559, 118.6380
225.9844, 120.5019
227.9129, 120.3432
229.8413, 119.4205
231.7698, 117.6252
233.6983, 116.0080
235.6267, 116.3247
237.5552, 118.2500
239.4837, 118.0750
241.4121, 114.9288
243.3406, 112.6014
245.2691, 112.9446
247.1975, 113.6926
249.1260, 113.6116
251.0545, 113.0878
252.9829, 112.7596
254.9114, 112.6121
256.8399, 113.4933
258.7683, 117.1104
260.6968, 119.0141
262.6253, 116.6109
264.5537, 113.0751
266.4822, 111.2924
268.4107, 111.0227
270.3391, 111.8040
272.2676, 114.2093
274.1961, 114.9679
276.1245, 112.6312
278.0530, 109.6231
279.9815, 105.6381
281.9099, 102.1036
283.8384, 102.1483
285.7669, 105.1223
287.6953, 105.6578
289.6238, 100.9577
291.5523, 98.32898
293.4807, 100.7579
295.4092, 103.3658
297.3377, 103.3370
299.2661, 101.7789
301.1946, 99.62703
303.1231, 96.68980
305.0515, 95.98026
306.9800, 100.0627
308.9085, 103.2404
310.8369, 104.4628
312.7654, 104.5525
314.6939, 104.0015
316.6223, 103.0626
318.5508, 101.7369
320.4793, 99.84423
322.4077, 98.12674
324.3362, 95.87764
326.2647, 94.93749
328.1931, 97.00761
330.1216, 99.35657
332.0501, 99.41820
333.9785, 98.34241
335.9070, 98.79881
337.8355, 101.3135
339.7639, 103.6113
341.6924, 105.7287
343.6209, 106.7896
345.5493, 106.4420
347.4778, 105.8732
349.4063, 105.3004
351.3347, 104.7461
353.2632, 104.5343
355.1917, 104.8138
357.1201, 104.4887
359.0486, 102.9884
360.9771, 102.5086
362.9055, 104.9198
364.8340, 106.7869
366.7625, 104.5988
368.6909, 101.6882
370.6194, 104.2275
372.5479, 111.8676
374.4763, 114.4909
376.4048, 110.8431
378.3333, 109.5857
380.2617, 115.6962
382.1902, 119.2941
384.1187, 113.3241
386.0471, 105.6181
387.9756, 104.7499
389.9041, 108.9464
391.8326, 110.8826
393.7610, 110.6391
395.6895, 110.9364
397.6180, 111.9698
399.5464, 113.7348
401.4749, 118.3733
403.4034, 121.7336
405.3318, 119.0172
407.2603, 114.0882
409.1888, 114.5639
411.1172, 119.1484
413.0457, 121.0430
414.9742, 118.5521
416.9026, 117.6358
418.8311, 122.7760
420.7596, 125.4717
422.6880, 120.1280
424.6165, 112.9896
426.5450, 111.0098
428.4734, 111.9957
430.4019, 110.1776
432.3304, 105.0772
434.2588, 104.8116
436.1873, 116.5138
438.1158, 122.5390
440.0442, 114.9583
441.9727, 108.2754
443.9012, 112.7340
445.8296, 119.5162
447.7581, 117.6080
449.6866, 110.0544
451.6150, 108.9124
453.5435, 117.3798
455.4720, 121.4621
457.4004, 117.5959
459.3289, 114.4465
461.2574, 113.3715
463.1858, 112.9430
465.1143, 113.9715
467.0428, 115.0399
468.9712, 112.9251
470.8997, 108.4653
472.8282, 107.8304
474.7566, 112.6586
476.6851, 116.4159
478.6136, 119.1947
480.5420, 120.3774
482.4705, 118.9861
484.3990, 117.3313
486.3274, 116.4076
488.2559, 116.3524
490.1844, 117.6831
492.1128, 119.5762
494.0413, 119.5000
495.9698, 117.2778
497.8982, 115.0184
499.8267, 112.4109
501.7552, 110.6451
503.6836, 110.0286
505.6121, 110.2878
507.5406, 112.1935
509.4690, 114.1638
511.3975, 114.3588
513.3260, 113.5493
515.2545, 113.6738
517.1829, 114.7252
519.1114, 117.1816
521.0399, 121.8629
522.9683, 120.8540
524.8968, 109.2552
526.8253, 99.90327
528.7537, 98.32503
530.6822, 98.82595
532.6107, 99.60187
534.5391, 99.95044
536.4676, 98.84127
538.3961, 96.37006
540.3245, 93.08002
542.2530, 89.23097
544.1815, 86.77689
546.1099, 86.13258
548.0384, 85.41544
549.9669, 84.84151
551.8953, 83.51711
553.8238, 78.55950
555.7523, 75.57825
557.6807, 80.45628
559.6092, 87.93378
561.5377, 91.29900
563.4661, 91.12347
565.3946, 88.39961
567.3231, 83.30452
569.2515, 80.42167
571.1800, 80.29903
573.1085, 81.91432
575.0369, 87.66915
576.9654, 91.21998
578.8939, 89.55836
580.8223, 87.09424
582.7508, 85.91653
584.6793, 84.98394
586.6077, 83.90989
588.5362, 82.88649
590.4647, 81.95618
592.3931, 81.06262
594.3216, 81.74657
596.2501, 85.79180
598.1785, 87.48916
600.1070, 84.90272
602.0355, 82.73956
603.9639, 82.02475
605.8924, 82.62884
607.8209, 85.38649
609.7493, 87.69172
611.6778, 88.13858
613.6063, 87.86306
615.5347, 87.46196
617.4632, 86.11546
619.3917, 82.61686
621.3201, 77.11047
623.2486, 75.30174
625.1771, 77.37717
627.1055, 78.62157
629.0340, 79.04292
630.9625, 79.00913
632.8909, 77.58392
634.8194, 76.39678
636.7479, 77.29637
638.6763, 78.06351
640.6048, 76.26958
642.5333, 74.16863
644.4617, 75.29076
646.3902, 74.04981
648.3187, 74.02248
650.2471, 74.66312
652.1756, 74.06927
654.1041, 75.82117
656.0325, 75.97411
657.9610, 72.74193
659.8895, 72.21876
661.8179, 79.24496
663.7464, 84.13090
665.6749, 82.51730
667.6033, 78.93202
669.5318, 74.02599
671.4603, 70.75849
673.3887, 74.16765
675.3172, 79.58841
677.2457, 78.10894
679.1741, 72.46907
681.1026, 70.28722
683.0311, 71.63932
684.9595, 73.17789
686.8880, 74.40071
688.8165, 75.01550
690.7449, 74.56745
692.6734, 75.52121
694.6019, 80.59728
696.5303, 82.83631
698.4588, 76.78345
700.3873, 71.33164
702.3157, 73.59000
704.2442, 77.85132
706.1727, 78.08308
708.1011, 76.80315
710.0296, 78.07858
711.9581, 76.96201
713.8865, 75.54313
715.8150, 75.31094
717.7435, 72.36053
719.6719, 70.60715
721.6004, 69.88396
723.5289, 69.75610
725.4573, 71.41566
727.3858, 76.90084
729.3143, 79.69339
731.2427, 77.94559
733.1712, 76.34483
735.0997, 76.29154
737.0281, 76.04014
738.9566, 73.60995
740.8851, 71.57881
742.8135, 73.39869
744.7420, 76.15976
746.6705, 75.79622
748.5989, 73.86530
750.5274, 72.93483
752.4559, 73.31128
754.3843, 77.29201
756.3128, 84.68233
758.2413, 86.40034
760.1697, 81.70771
762.0982, 77.21738
764.0267, 72.99266
765.9551, 74.49557
767.8836, 84.55002
769.8121, 90.07045
771.7405, 86.66565
773.6690, 81.50843
775.5975, 74.06271
777.5259, 70.52054
779.4544, 76.61643
781.3829, 82.81779
783.3113, 82.57643
785.2398, 80.51469
787.1683, 81.61244
789.0967, 80.20696
791.0252, 82.56035
792.9537, 79.66108
794.8821, 79.67952
796.8106, 81.55832
798.7391, 81.50495
800.6675, 80.33161
802.5960, 79.58910
804.5245, 78.91514
806.4529, 77.25239
808.3814, 74.44804
810.3099, 75.44847
812.2383, 82.42591
814.1668, 85.94244
816.0953, 82.43828
818.0237, 80.51231
819.9522, 82.05210
821.8807, 83.80878
823.8091, 86.27136
825.7376, 87.66197
827.6661, 86.36702
829.5945, 83.96815
831.5230, 81.61192
833.4515, 80.39571
835.3799, 79.34148
837.3084, 78.74914
839.2369, 80.15664
841.1653, 82.14983
843.0938, 85.45287
845.0223, 88.54420
846.9507, 85.82608
848.8792, 79.34728
850.8077, 76.04286
852.7361, 75.77097
854.6646, 76.73798
856.5931, 78.71314
858.5215, 78.96129
860.4500, 77.06973
862.3785, 76.84784
864.3069, 79.74627
866.2354, 78.67318
868.1639, 70.76677
870.0923, 69.45679
872.0208, 77.82433
873.9493, 83.54023
875.8777, 84.61665
877.8062, 84.27241
879.7347, 83.08943
881.6631, 81.63671
883.5916, 79.93279
885.5201, 77.26479
887.4485, 72.25639
889.3770, 69.19345
891.3055, 69.86736
893.2339, 72.67087
895.1624, 80.63259
897.0909, 85.64973
899.0193, 81.37029
900.9478, 75.73576
902.8763, 73.05229
904.8047, 70.89725
906.7332, 67.03181
908.6617, 65.11902
910.5901, 70.48450
912.5186, 76.73669
914.4471, 74.78945
916.3755, 69.90426
918.3040, 70.67793
920.2325, 74.40578
922.1609, 77.60252
924.0894, 80.19440
926.0179, 78.01315
927.9464, 73.43607
929.8748, 74.68662
931.8033, 79.30566
933.7318, 82.70885
935.6602, 86.13963
937.5887, 90.19175
939.5172, 93.78034
941.4456, 94.08170
943.3741, 91.67909
945.3026, 92.62444
947.2310, 97.29194
949.1595, 100.7859
951.0880, 102.2618
953.0164, 102.4775
954.9449, 102.2157
956.8734, 100.8762
958.8018, 96.89080
960.7303, 97.17647
962.6588, 96.80239
964.5872, 95.09589
966.5157, 95.23197
968.4442, 93.58812
970.3726, 93.74747
972.3011, 93.18053
974.2296, 91.44865
976.1580, 90.11755
978.0865, 90.45059
980.0150, 89.84384
981.9434, 87.03352
983.8719, 82.61527
985.8004, 76.86604
987.7288, 72.65965
989.6573, 70.37138
991.5858, 67.73888
993.5142, 63.51470
995.4427, 63.14094
997.3712, 69.34998
999.2996, 71.52731
1001.228, 66.38850
1003.157, 62.38914
1005.085, 60.95908
1007.013, 62.39954
1008.942, 68.71743
1010.870, 71.12022
1012.799, 65.46636
1014.727, 61.31488
1016.656, 61.73341
1018.584, 63.11160
1020.513, 65.05904
1022.441, 65.30981
1024.370, 61.98879
1026.298, 61.27700
1028.227, 67.00604
1030.155, 69.33021
1032.084, 62.89748
1034.012, 59.17468
1035.941, 63.37709
1037.869, 66.74713
1039.797, 65.74361
1041.726, 65.48171
1043.654, 68.03492
1045.583, 69.59187
1047.511, 69.22703
1049.440, 68.19189
1051.368, 66.18109
1053.297, 64.96948
1055.225, 65.02602
1057.154, 65.46550
1059.082, 67.59505
1061.011, 67.70644
1062.939, 61.87652
1064.868, 59.03738
1066.796, 63.72197
1068.724, 66.33100
1070.653, 63.08081
1072.581, 62.11178
1074.510, 67.44678
1076.438, 70.00627
1078.367, 66.54697
1080.295, 63.72359
1082.224, 62.16911
1084.152, 62.99581
1086.081, 68.44841
1088.009, 68.67968
1089.938, 58.88731
1091.866, 56.34048
1093.795, 67.12559
1095.723, 69.00735
1097.651, 56.99586
1099.580, 51.80811
1101.508, 55.59402
1103.437, 58.69118
1105.365, 61.02260
1107.294, 61.49804
1109.222, 59.80751
1111.151, 58.31051
1113.079, 57.41552
1115.008, 58.70268
1116.936, 61.62395
1118.865, 61.48251
1120.793, 62.86911
1122.722, 62.86501
1124.650, 62.29531
1126.578, 62.31794
1128.507, 58.16760
1130.435, 58.30322
1132.364, 61.64209
1134.292, 59.41865
1136.221, 54.06435
1138.149, 54.89328
1140.078, 58.28161
1142.006, 53.88990
1143.935, 55.33773
1145.863, 49.01639
1147.792, 53.73091
1149.720, 54.83147
1151.649, 54.27695
1153.577, 54.23031
1155.505, 53.61807
1157.434, 50.87940
1159.362, 49.12989
1161.291, 50.04718
1163.219, 50.64082
1165.148, 49.76246
1167.076, 49.43322
1169.005, 51.51928
1170.933, 54.24194
1172.862, 56.10517
1174.790, 55.84593
1176.719, 52.61971
1178.647, 51.07171
1180.576, 53.19236
1182.504, 54.52548
1184.432, 52.88578
1186.361, 52.93589
1188.289, 57.41106
1190.218, 59.76694
1192.146, 57.98003
1194.075, 56.45327
1196.003, 56.03445
1197.932, 54.94884
1199.860, 54.83092
1201.789, 52.28929
1203.717, 54.79564
1205.646, 56.02665
1207.574, 55.85061
1209.503, 53.83672
1211.431, 50.75050
1213.359, 50.93992
1215.288, 53.63105
1217.216, 55.70517
1219.145, 56.13191
1221.073, 54.17862
1223.002, 51.83287
1224.930, 52.15222
1226.859, 53.36947
1228.787, 51.03988
1230.716, 48.54949
1232.644, 50.92900
1234.573, 54.00510
1236.501, 53.11094
1238.430, 51.82050
1240.358, 54.99554
1242.286, 56.94423
1244.215, 54.23571
1246.143, 50.30579
1248.072, 44.72051
1250.000, 45.09557
1251.929, 44.68690
1253.857, 44.04730
1255.786, 49.89062
1257.714, 46.91590
1259.643, 52.11053
1261.571, 56.06994
1263.500, 56.98243
1265.428, 57.45036
1267.357, 57.46135
1269.285, 55.23838
1271.214, 52.72897
1273.142, 55.02211
1275.070, 53.61315
1276.999, 56.80681
1278.927, 54.40329
1280.856, 56.10926
1282.784, 56.54077
1284.713, 49.61099
1286.641, 45.03590
1288.570, 50.84826
1290.498, 54.71613
1292.427, 49.16916
1294.355, 46.00116
1296.284, 51.15800
1298.212, 54.40880
1300.141, 52.03618
1302.069, 50.75920
1303.997, 52.65647
1305.926, 51.77438
1307.854, 48.26227
1309.783, 49.72257
1311.711, 48.60876
1313.640, 53.02478
1315.568, 49.39252
1317.497, 50.01245
1319.425, 51.46618
1321.354, 49.87611
1323.282, 48.61013
1325.211, 47.86073
1327.139, 48.10616
1329.068, 50.52584
1330.996, 53.22627
1332.924, 55.94266
1334.853, 56.45047
1336.781, 54.70973
1338.710, 53.66665
1340.638, 52.50954
1342.567, 52.69990
1344.495, 55.23576
1346.424, 56.41561
1348.352, 56.29930
1350.281, 55.22474
1352.209, 54.43589
1354.138, 57.36745
1356.066, 59.86969
1357.995, 57.58640
1359.923, 55.00498
1361.851, 56.73984
1363.780, 55.58936
1365.708, 45.57084
1367.637, 41.93538
1369.565, 47.93822
1371.494, 51.53426
1373.422, 51.67982
1375.351, 50.03763
1377.279, 48.47099
1379.208, 49.88866
1381.136, 52.02762
1383.065, 52.95673
1384.993, 54.12722
1386.922, 57.47592
1388.850, 59.86369
1390.778, 57.92559
1392.707, 55.12454
1394.635, 54.69522
1396.564, 54.46495
1398.492, 53.65669
1400.421, 54.59990
1402.349, 53.53549
1404.278, 54.99683
1406.206, 54.76481
1408.135, 51.67019
1410.063, 46.38921
1411.992, 45.68548
1413.920, 49.28926
1415.849, 53.58788
1417.777, 55.21401
1419.705, 55.65062
1421.634, 55.68336
1423.562, 52.02262
1425.491, 49.34502
1427.419, 51.08582
1429.348, 52.54671
1431.276, 51.88331
1433.205, 53.40118
1435.133, 53.01233
1437.062, 57.23884
1438.990, 53.19258
1440.919, 53.35178
1442.847, 54.95488
1444.776, 52.53190
1446.704, 50.22026
1448.632, 51.63939
1450.561, 53.02822
1452.489, 52.02038
1454.418, 52.18513
1456.346, 54.95628
1458.275, 55.07791
1460.203, 56.16449
1462.132, 51.91251
1464.060, 56.14782
1465.989, 53.96458
1467.917, 50.40974
1469.846, 53.06189
1471.774, 54.58152
1473.703, 50.89294
1475.631, 49.54237
1477.559, 51.92676
1479.488, 52.17063
1481.416, 50.91800
1483.345, 50.89832
1485.273, 51.68691
1487.202, 54.25929
1489.130, 57.79813
1491.059, 55.59002
1492.987, 50.69244
1494.916, 49.97564
1496.844, 52.34672
1498.773, 56.55264
1500.701, 56.78391
1502.630, 53.30304
1504.558, 56.58772
1506.486, 54.45488
1508.415, 58.50985
1510.343, 52.76390
1512.272, 52.13775
1514.200, 50.65794
1516.129, 49.05074
1518.057, 49.97828
1519.986, 52.23013
1521.914, 53.17302
1523.843, 52.68480
1525.771, 53.04277
1527.700, 53.40137
1529.628, 52.60844
1531.557, 51.88656
1533.485, 51.54161
1535.413, 51.93544
1537.342, 52.34877
1539.270, 52.84887
1541.199, 52.81895
1543.127, 51.85003
1545.056, 50.63145
1546.984, 49.76601
1548.913, 49.15233
1550.841, 48.82925
1552.770, 50.75927
1554.698, 55.47735
1556.627, 57.82552
1558.555, 53.40753
1560.484, 49.30568
1562.412, 49.28944
1564.340, 48.76961
1566.269, 46.03050
1568.197, 45.68077
1570.126, 48.45366
1572.054, 49.60868
1573.983, 49.74380
1575.911, 54.43812
1577.840, 56.21293
1579.768, 48.68330
1581.697, 44.12175
1583.625, 46.14893
1585.554, 48.77912
1587.482, 51.46158
1589.411, 53.38242
1591.339, 52.99368
1593.267, 47.64863
1595.196, 43.64489
1597.124, 46.86080
1599.053, 50.20477
1600.981, 49.29065
1602.910, 47.40457
1604.838, 49.42578
1606.767, 53.35431
1608.695, 53.43382
1610.624, 50.35233
1612.552, 48.67317
1614.481, 48.31998
1616.409, 46.35843
1618.338, 44.45343
1620.266, 46.51093
1622.194, 49.47808
1624.123, 48.02700
1626.051, 45.77070
1627.980, 44.76328
1629.908, 44.43644
1631.837, 46.08450
1633.765, 48.01619
1635.694, 50.10415
1637.622, 50.62514
1639.551, 47.06562
1641.479, 43.81321
1643.408, 43.36496
1645.336, 42.97318
1647.265, 43.41700
1649.193, 44.40339
1651.121, 45.64685
1653.050, 45.97262
1654.978, 45.69997
1656.907, 47.80101
1658.835, 44.33266
1660.764, 46.60649
1662.692, 46.32423
1664.621, 43.73905
1666.549, 44.30758
1668.478, 45.41427
1670.406, 45.49089
1672.335, 45.20166
1674.263, 43.31955
1676.192, 40.77307
1678.120, 39.18347
1680.048, 41.02626
1681.977, 42.20247
1683.905, 39.92043
1685.834, 39.50103
1687.762, 41.97206
1689.691, 42.11189
1691.619, 41.90711
1693.548, 45.46917
1695.476, 48.01660
1697.405, 43.27809
1699.333, 39.29039
1701.262, 44.54362
1703.190, 49.96394
1705.119, 47.51311
1707.047, 45.29650
1708.975, 45.66925
1710.904, 44.22380
1712.832, 41.47696
1714.761, 41.37083
1716.689, 41.46260
1718.618, 39.81588
1720.546, 42.51624
1722.475, 42.20411
1724.403, 42.56758
1726.332, 44.51270
1728.260, 43.26914
1730.189, 45.39306
1732.117, 45.66994
1734.046, 45.30191
1735.974, 46.97070
1737.902, 44.95823
1739.831, 38.51030
1741.759, 35.75696
1743.688, 37.62370
1745.616, 40.90425
1747.545, 42.84902
1749.473, 43.14133
1751.402, 43.48006
1753.330, 43.20840
1755.259, 40.37216
1757.187, 38.60737
1759.116, 42.04514
1761.044, 44.12445
1762.973, 39.01067
1764.901, 36.06303
1766.829, 38.73340
1768.758, 41.67229
1770.686, 43.46676
1772.615, 43.33342
1774.543, 42.51602
1776.472, 45.58786
1778.400, 46.20991
1780.329, 46.36251
1782.257, 47.16925
1784.186, 44.49676
1786.114, 43.98746
1788.043, 42.34919
1789.971, 36.25611
1791.900, 35.15278
1793.828, 36.19438
1795.756, 38.13278
1797.685, 42.89152
1799.613, 44.32874
1801.542, 41.86160
1803.470, 41.42727
1805.399, 41.74118
1807.327, 39.37370
1809.256, 34.98174
1811.184, 33.79944
1813.113, 33.64902
1815.041, 42.21062
1816.970, 36.20826
1818.898, 36.35126
1820.827, 39.19566
1822.755, 34.61252
1824.683, 31.68958
1826.612, 37.97266
1828.540, 40.45041
1830.469, 40.96056
1832.397, 41.30114
1834.326, 38.00086
1836.254, 39.52306
1838.183, 37.98988
1840.111, 37.56890
1842.040, 37.43355
1843.968, 37.33896
1845.897, 39.08691
1847.825, 39.45703
1849.754, 38.09525
1851.682, 36.85866
1853.610, 35.79740
1855.539, 35.27334
1857.467, 35.86533
1859.396, 37.40051
1861.324, 38.98615
1863.253, 40.49797
1865.181, 38.23667
1867.110, 34.50068
1869.038, 35.57040
1870.967, 37.30086
1872.895, 41.03506
1874.824, 43.55233
1876.752, 42.03669
1878.681, 40.37523
1880.609, 37.11092
1882.537, 35.36259
1884.466, 35.79427
1886.394, 32.25932
1888.323, 32.01426
1890.251, 37.18489
1892.180, 38.66776
1894.108, 38.56404
1896.037, 38.34974
1897.965, 35.94675
1899.894, 36.71381
1901.822, 32.97671
1903.751, 36.02466
1905.679, 33.14518
1907.608, 30.88758
1909.536, 34.58746
1911.464, 37.67889
1913.393, 34.95128
1915.321, 30.35654
1917.250, 31.45239
1919.178, 35.25217
1921.107, 36.75383
1923.035, 34.89024
1924.964, 33.96729
1926.892, 36.09459
1928.821, 36.98230
1930.749, 35.94875
1932.678, 34.34151
1934.606, 34.11791
1936.535, 32.98639
1938.463, 32.29237
1940.391, 32.67384
1942.320, 29.89909
1944.248, 32.11690
1946.177, 28.72638
1948.105, 36.43692
1950.034, 29.67070
1951.962, 30.59412
1953.891, 36.25541
1955.819, 34.30812
1957.748, 32.14341
1959.676, 35.20721
1961.605, 34.99041
1963.533, 31.16235
1965.462, 33.43642
1967.390, 35.55038
1969.318, 30.73122
1971.247, 28.21133
1973.175, 27.90003
1975.104, 32.11883
1977.032, 34.39186
1978.961, 31.84465
1980.889, 31.94291
1982.818, 32.83276
1984.746, 34.47389
1986.675, 35.74778
1988.603, 36.16753
1990.532, 36.39347
1992.460, 35.63516
1994.389, 33.10312
1996.317, 30.06645
1998.245, 31.11628
2000.174, 35.00643
2002.102, 36.75718
2004.031, 34.87106
2005.959, 33.11351
2007.888, 34.10207
2009.816, 33.04379
2011.745, 31.91298
2013.673, 32.36300
2015.602, 30.32614
2017.530, 29.37396
2019.459, 30.79902
2021.387, 33.86370
2023.316, 30.51210
2025.244, 21.97726
2027.172, 24.11559
2029.101, 28.69066
2031.029, 30.86143
2032.958, 34.07970
2034.886, 35.69000
2036.815, 33.93284
2038.743, 32.35651
2040.672, 36.19604
2042.600, 33.95929
2044.529, 26.86375
2046.457, 24.57506
2048.386, 27.42993
2050.314, 31.78855
2052.243, 30.25417
2054.171, 27.20390
2056.100, 32.00167
2058.028, 32.93229
2059.957, 24.76429
2061.885, 23.51494
2063.813, 27.88603
2065.742, 28.02805
2067.670, 27.46571
2069.599, 29.68929
2071.527, 30.57885
2073.456, 30.39549
2075.384, 29.23780
2077.313, 28.99151
2079.241, 30.49206
2081.170, 32.26576
2083.098, 34.96716
2085.027, 31.91157
2086.955, 27.34319
2088.884, 28.58613
2090.812, 27.90652
2092.740, 24.48565
2094.669, 26.11400
2096.597, 26.40750
2098.526, 22.12342
2100.454, 24.01283
2102.383, 28.96319
2104.311, 27.54233
2106.240, 26.01234
2108.168, 28.44279
2110.097, 27.58361
2112.025, 23.83566
2113.954, 22.20508
2115.882, 23.73772
2117.811, 28.09142
2119.739, 29.26692
2121.667, 28.93638
2123.596, 30.42479
2125.524, 31.00063
2127.453, 28.67268
2129.381, 27.42819
2131.310, 26.90257
2133.238, 26.79068
2135.167, 27.57565
2137.095, 27.81201
2139.024, 29.28436
2140.952, 31.39637
2142.881, 32.64226
2144.809, 30.40093
2146.738, 24.95400
2148.666, 21.76982
2150.594, 21.94899
2152.523, 24.06498
2154.451, 21.69485
2156.380, 19.86394
2158.308, 22.47225
2160.237, 23.26348
2162.165, 26.24450
2164.094, 27.81664
2166.022, 26.21293
2167.951, 26.54530
2169.879, 27.88244
2171.808, 27.45597
2173.736, 28.36148
2175.665, 27.19113
2177.593, 28.91106
2179.521, 29.63488
2181.450, 28.81911
2183.378, 28.61622
2185.307, 26.03388
2187.235, 21.90414
2189.164, 26.71471
2191.092, 30.53859
2193.021, 23.05045
2194.949, 20.95395
2196.878, 24.69981
2198.806, 24.31446
2200.735, 23.76670
2202.663, 26.76291
2204.592, 26.64836
2206.520, 23.68229
2208.448, 23.24465
2210.377, 21.45448
2212.305, 19.44867
2214.234, 22.91868
2216.162, 26.03499
2218.091, 22.26303
2220.019, 23.12603
2221.948, 26.84039
2223.876, 22.03672
2225.805, 17.72905
2227.733, 18.20278
2229.662, 22.37837
2231.590, 26.03708
2233.519, 26.54321
2235.447, 24.43630
2237.375, 19.33289
2239.304, 20.66828
2241.232, 22.40436
2243.161, 19.04510
2245.089, 18.89570
2247.018, 19.52399
2248.946, 19.24701
2250.875, 19.21879
2252.803, 15.92188
2254.732, 16.03449
2256.660, 18.83835
2258.589, 26.29274
2260.517, 30.22262
2262.446, 28.73892
2264.374, 24.27906
2266.302, 20.67969
2268.231, 20.66369
2270.159, 22.00792
2272.088, 23.09151
2274.016, 22.36791
2275.945, 22.78383
2277.873, 22.70570
2279.802, 24.79477
2281.730, 21.66423
2283.659, 22.13012
2285.587, 20.19215
2287.516, 17.23972
2289.444, 18.90896
2291.373, 19.32229
2293.301, 18.18048
2295.229, 20.90271
2297.158, 23.29344
2299.086, 22.42969
2301.015, 24.40989
2302.943, 28.23284
2304.872, 26.75993
2306.800, 24.82501
2308.729, 25.75962
2310.657, 23.43963
2312.586, 19.49170
2314.514, 17.16816
2316.443, 18.46110
2318.371, 20.92238
2320.300, 22.70328
2322.228, 21.86969
2324.156, 19.69596
2326.085, 18.82572
2328.013, 20.19150
2329.942, 20.73772
2331.870, 22.78524
2333.799, 23.32212
2335.727, 19.00060
2337.656, 18.91301
2339.584, 19.97042
2341.513, 14.98728
2343.441, 16.51143
2345.370, 23.19895
2347.298, 21.12852
2349.227, 19.39783
2351.155, 21.15758
2353.083, 19.26333
2355.012, 15.77538
2356.940, 13.77270
2358.869, 16.01550
2360.797, 19.72066
2362.726, 21.57408
2364.654, 21.42442
2366.583, 18.77501
2368.511, 20.90934
2370.440, 20.99506
2372.368, 14.99311
2374.297, 16.89433
2376.225, 20.05912
2378.154, 16.56876
2380.082, 15.81882
2382.010, 14.96304
2383.939, 14.05701
2385.867, 17.60820
2387.796, 22.06943
2389.724, 27.18432
2391.653, 26.48749
2393.581, 17.80690
2395.510, 13.86522
2397.438, 13.45095
2399.367, 15.85600
2401.295, 17.98945
2403.224, 19.42835
2405.152, 21.02872
2407.081, 20.14292
2409.009, 17.59762
2410.938, 16.05710
2412.866, 14.64189
2414.794, 17.17043
2416.723, 19.02555
2418.651, 18.88936
2420.580, 17.11953
2422.508, 16.14993
2424.437, 16.32874
2426.365, 15.49321
2428.294, 14.46430
2430.222, 15.25244
2432.151, 16.35025
2434.079, 14.38008
2436.008, 12.44030
2437.936, 17.50406
2439.865, 18.65112
2441.793, 14.13170
2443.721, 11.60497
2445.650, 14.01343
2447.578, 24.57761
2449.507, 25.02523
2451.435, 18.68498
2453.364, 14.81022
2455.292, 13.56253
2457.221, 13.03131
2459.149, 16.99602
2461.078, 16.61813
2463.006, 13.46875
2464.935, 19.98488
2466.863, 17.83240
2468.792, 8.106452
2470.720, 13.82298
2472.648, 16.28924
2474.577, 14.35306
2476.505, 17.62235
2478.434, 18.17428
2480.362, 14.67403
2482.291, 15.31349
2484.219, 15.62071
2486.148, 15.55094
2488.076, 17.70804
2490.005, 19.58054
2491.933, 19.65055
2493.862, 19.97994
2495.790, 15.84445
2497.719, 17.50926
2499.647, 14.66718
2501.575, 10.64300
2503.504, 11.83502
2505.432, 14.51877
2507.361, 15.01966
2509.289, 17.14588
2511.218, 14.33978
2513.146, 19.75570
2515.075, 20.45672
2517.003, 19.78812
2518.932, 15.77293
2520.860, 14.54724
2522.789, 13.71695
2524.717, 9.943035
2526.646, 6.883777
2528.574, 9.422209
2530.502, 21.26061
2532.431, 19.10808
2534.359, 15.68098
2536.288, 21.18306
2538.216, 17.07172
2540.145, 12.37074
2542.073, 14.91585
2544.002, 17.93052
2545.930, 17.51109
2547.859, 15.27680
2549.787, 13.57637
2551.716, 11.27296
2553.644, 9.164802
2555.573, 10.39328
2557.501, 11.83236
2559.429, 12.90636
2561.358, 12.59673
2563.286, 12.32923
2565.215, 17.36032
2567.143, 15.21999
2569.072, 16.64174
2571.000, 18.19509
2572.929, 15.14746
2574.857, 18.91876
2576.786, 14.95232
2578.714, 12.38676
2580.643, 14.85999
2582.571, 17.99724
2584.500, 16.69523
2586.428, 12.08189
2588.356, 12.46101
2590.285, 13.43782
2592.213, 15.44433
2594.142, 17.36383
2596.070, 16.84099
2597.999, 15.69369
2599.927, 17.00544
2601.856, 14.68111
2603.784, 13.45361
2605.713, 8.557397
2607.641, 9.953077
2609.570, 9.910614
2611.498, 9.721444
2613.427, 9.640920
2615.355, 12.24640
2617.283, 13.43897
2619.212, 15.14614
2621.140, 16.58542
2623.069, 9.971414
2624.997, 7.885353
2626.926, 13.81302
2628.854, 17.94812
2630.783, 16.88454
2632.711, 18.75358
2634.640, 18.52970
2636.568, 15.53779
2638.497, 16.55637
2640.425, 12.24921
2642.354, 10.01554
2644.282, 13.80354
2646.210, 14.76454
2648.139, 10.85956
2650.067, 5.976846
2651.996, 12.84878
2653.924, 14.27826
2655.853, 10.55552
2657.781, 13.31511
2659.710, 12.67062
2661.638, 9.355676
2663.567, 3.119363
2665.495, 8.483649
2667.424, 5.131545
2669.352, 8.348323
2671.281, 4.920917
2673.209, 8.990726
2675.137, 7.328182
2677.066, 9.903495
2678.994, 15.36154
2680.923, 14.09477
2682.851, 16.14261
2684.780, 16.53656
2686.708, 15.45003
2688.637, 15.55436
2690.565, 13.34683
2692.494, 12.36056
2694.422, 11.37343
2696.351, 10.60021
2698.279, 9.607754
2700.208, 10.07458
2702.136, 8.372538
2704.064, 8.323082
2705.993, 9.048907
2707.921, 10.79468
2709.850, 10.62391
2711.778, 10.71888
2713.707, 10.93326
2715.635, 9.497235
2717.564, 8.657663
2719.492, 7.470200
2721.421, 8.323720
2723.349, 6.923955
2725.278, 9.589533
2727.206, 11.29814
2729.135, 0.6900096
2731.063, -0.3126917
2732.991, 8.145185
2734.920, 15.93284
2736.848, 19.28720
2738.777, 17.99800
2740.705, 9.415335
2742.634, 7.219652
2744.562, 8.054636
2746.491, 1.327306
2748.419, 5.451230
2750.348, 8.494902
2752.276, 6.252143
2754.205, 4.863335
2756.133, 9.327621
2758.062, 11.31155
2759.990, 4.623869
2761.918, 3.338334
2763.847, 5.717438
2765.775, 9.107832
2767.704, 12.54017
2769.632, 14.33644
2771.561, 13.02186
2773.489, 12.44551
2775.418, 13.38227
2777.346, 13.06177
2779.275, 17.13701
2781.203, 15.48683
2783.132, 14.77115
2785.060, 7.550859
2786.989, 11.22960
2788.917, 10.45013
2790.845, 9.657042
2792.774, 9.750145
2794.702, 7.439722
2796.631, 12.35432
2798.559, 10.46570
2800.488, 5.941651
2802.416, 10.44916
2804.345, 8.177006
2806.273, 2.416833
2808.202, 0.4749371
2810.130, 5.197980
2812.059, 9.688714
2813.987, 13.83768
2815.916, 15.09046
2817.844, 12.09811
2819.772, 8.223149
2821.701, 5.954173
2823.629, 7.869692
2825.558, 11.35986
2827.486, 8.850310
2829.415, 11.10587
2831.343, 17.56353
2833.272, 21.73043
2835.200, 13.53788
2837.129, 8.603546
2839.057, 6.769332
2840.986, 3.179281
2842.914, 1.618493
2844.843, 2.386355
2846.771, 0.9436119
2848.699, 2.740178
2850.628, 11.82543
2852.556, 7.394643
2854.485, 11.49754
2856.413, 15.90607
2858.342, 14.42906
2860.270, 16.59760
2862.199, 18.27203
2864.127, 11.88199
2866.056, 4.121888
2867.984, 3.799054
2869.913, 8.838866
2871.841, 15.27327
2873.770, 14.56317
2875.698, 8.700278
2877.626, 5.683308
2879.555, 9.051106
2881.483, 4.398049
2883.412, 2.592561
2885.340, 12.69683
2887.269, 9.941705
2889.197, 2.510823
2891.126, -1.813337
2893.054, 2.946976
2894.983, 10.44414
2896.911, 11.43303
2898.840, 7.500668
2900.768, 4.044368
2902.697, 0.3859717
2904.625, 3.716096
2906.553, 4.728744
2908.482, 0.6821653
2910.410, -0.2977628
2912.339, 8.203543
2914.267, 8.564079
2916.196, 6.721821
2918.124, 5.173742
2920.053, 5.109169
2921.981, 2.465908
2923.910, -2.219666
2925.838, 6.910707
2927.767, 7.994368
2929.695, 4.506091
2931.624, 2.254779
2933.552, 5.489227
2935.480, 10.94492
2937.409, 13.41692
2939.337, 8.272617
2941.266, 9.246600
2943.194, 11.28115
2945.123, 5.195993
2947.051, 7.803077
2948.980, 11.16688
2950.908, 9.348150
2952.837, 0.2174341
2954.765, -1.077995
2956.694, 2.312181
2958.622, 2.677771
2960.551, 9.407597
2962.479, 7.001444
2964.407, 9.675100
2966.336, 6.343092
2968.264, 13.21662
2970.193, 12.42078
2972.121, 17.77358
2974.050, 9.982695
2975.978, 1.689902
2977.907, 5.661860
2979.835, 2.903551
2981.764, 7.990924
2983.692, 10.20437
2985.621, 1.655820
2987.549, 6.777958
2989.478, 10.41677
2991.406, 5.898963
2993.334, 8.189692
2995.263, 6.656210
2997.191, 2.035132
2999.120, 0.5821224
3001.048, 4.912960
3002.977, 9.155188
3004.905, 10.46498
3006.834, 1.130316
3008.762, 1.261410
3010.691, 4.920710
3012.619, 3.835576
3014.548, 9.536515
3016.476, 7.101185
3018.405, -0.4265791
3020.333, -5.101180
3022.261, 7.249840
3024.190, 17.40335
3026.118, 5.023065
3028.047, 6.8074830E-02
3029.975, -1.463957
3031.904, -4.455948
3033.832, -2.365817
3035.761, -2.670882
3037.689, -5.663434
3039.618, 1.100233
3041.546, -7.993399
3043.475, -5.040503
3045.403, 1.405282
3047.332, 4.266776
3049.260, 11.71041
3051.188, 10.12464
3053.117, 1.336607
3055.045, -5.552812
3056.974, -1.110572
3058.902, 4.103818
3060.831, 8.223020
3062.759, 9.471590
3064.688, 10.06155
3066.616, 10.45435
3068.545, 6.980546
3070.473, 6.668520
3072.402, 4.111842
3074.330, 2.645371
3076.259, 2.735536
3078.187, 0.8058025
3080.115, 2.778595
3082.044, 4.153281
3083.972, 4.031955
3085.901, 6.891945
3087.829, 6.447485
3089.758, 2.774898
3091.686, 5.562505
3093.615, 6.370041
3095.543, 2.006027
3097.472, 3.279690
3099.400, 11.44453
3101.329, 8.017214
3103.257, -0.8931181
3105.186, -7.191865
3107.114, 3.402053
3109.042, 10.26537
3110.971, 7.282882
3112.899, 3.828764
3114.828, 1.148092
3116.756, -6.6783272E-02
3118.685, -3.319480
3120.613, -1.146487
3122.542, 1.442042
3124.470, 1.551560
3126.399, 0.2406339
3128.327, 2.615799
3130.256, -1.681524
3132.184, -1.184577
3134.113, 4.553267
3136.041, 1.952924
3137.969, 2.114004
3139.898, 4.402889
3141.826, 4.220809
3143.755, 2.061613
3145.683, 3.044892
3147.612, 3.735127
3149.540, 1.912669
3151.469, 3.385504
3153.397, -1.385035
3155.326, -4.413033
3157.254, 7.126241
3159.183, 14.46462
3161.111, 14.77818
3163.040, 8.077458
3164.968, 1.352687
3166.896, -2.673327
3168.825, -2.094231
3170.753, -3.654313
3172.682, 3.715560
3174.610, 0.7248700
3176.539, 2.914580
3178.467, 8.745710
3180.396, -2.398620
3182.324, -0.1782368
3184.253, 6.022484
3186.181, 7.942824
3188.110, 4.965113
3190.038, 4.975686
3191.967, 3.057788
3193.895, 0.1068055
3195.823, 0.6340591
3197.752, -2.156627
3199.680, -2.611435
3201.609, -3.032846
3203.537, -4.533808
3205.466, -3.701874
3207.394, -5.353101
3209.323, -5.673786
3211.251, -4.186097
3213.180, 4.867133
3215.108, 2.154895
3217.037, 6.826172
3218.965, 12.71289
3220.894, 9.190299
3222.822, 4.094911
3224.750, 0.1312006
3226.679, -8.053234
3228.607, 3.483973
3230.536, 7.987670
3232.464, 2.762695
3234.393, 9.232999
3236.321, 6.368392
3238.250, 3.693445
3240.178, 2.165505
3242.107, 3.398401
3244.035, -1.003506
3245.964, 6.395289
3247.892, 5.921204
3249.821, 4.123136
3251.749, 8.409468
3253.677, 5.854496
3255.606, 0.8839853
3257.534, -3.310815
3259.463, 2.492556
3261.391, 9.849292
3263.320, 11.49199
3265.248, 3.523493
3267.177, -4.718106
3269.105, -3.177719
3271.034, -0.3779746
3272.962, -0.6260559
3274.891, 3.482944
3276.819, -1.029343
3278.748, 0.5779998
3280.676, 7.526459
3282.604, 6.246681
3284.533, 11.67897
3286.461, 7.497987
3288.390, -2.970038
3290.318, -9.231135
3292.247, -1.891096
3294.175, -0.1284679
3296.104, -0.9315717
3298.032, 4.417071
3299.961, 11.84328
3301.889, 13.35730
3303.818, 11.43164
3305.746, 7.349936
3307.675, 7.910839
3309.603, 6.025858
3311.531, 9.052000
3313.460, 2.834367
3315.388, 9.991285
3317.317, 8.450227
3319.245, 14.48981
3321.174, 15.55146
3323.102, -5.989133
3325.031, -5.983667
3326.959, -4.412776
3328.888, 1.884422
3330.816, 7.771231
3332.745, 3.394538
3334.673, 8.191400
3336.602, 11.64106
3338.530, 10.74073
3340.458, 4.019500
3342.387, -5.034771
3344.315, -6.087532
3346.244, -2.872399
3348.172, 1.297048
3350.101, 3.166698
3352.029, 1.580277
3353.958, -0.4085961
3355.886, 0.9075288
3357.815, 0.1755128
3359.743, 6.319609
3361.672, 2.461780
3363.600, 0.3732246
3365.529, 3.982720
3367.457, -0.4506070
3369.385, -8.818984
3371.314, -4.531621
3373.242, -5.636468
3375.171, 3.682148
3377.099, 0.4860416
3379.028, 3.942173
3380.956, 6.491747
3382.885, 4.750226
3384.813, 9.007232
3386.742, 4.925803
3388.670, 5.627517
3390.599, 11.47748
3392.527, 7.373036
3394.456, 9.204519
3396.384, -3.071976
3398.313, 4.870235
3400.241, 4.135327
3402.169, -4.559750
3404.098, 1.512726
3406.026, 1.404249
3407.955, -1.852692
3409.883, 5.698665
3411.812, 2.374229
3413.740, 5.950862
3415.669, 1.324028
3417.597, 2.994740
3419.526, 0.9670871
3421.454, 4.273076
3423.383, 2.852410
3425.311, 3.350398
3427.240, 1.704990
3429.168, 5.179083
3431.096, 5.074528
3433.025, 9.147507
3434.953, 12.15473
3436.882, 7.722181
3438.810, 10.84120
3440.739, 7.321635
3442.667, 10.15376
3444.596, 12.20506
3446.524, -4.697338
3448.453, -6.276162
3450.381, -4.022817
3452.310, 1.632373
3454.238, 7.592424
3456.167, 4.349723
3458.095, 3.813246
3460.023, 9.957550
3461.952, 8.362040
3463.880, -1.739626
3465.809, 12.64162
3467.737, 13.47408
3469.666, 0.9042004
3471.594, -4.040103
3473.523, 7.715227
3475.451, 9.277514
3477.380, 1.442540
3479.308, 11.72367
3481.237, 17.75601
3483.165, 1.639830
3485.094, 10.99887
3487.022, 5.894553
3488.950, -1.853792
3490.879, -3.962250
3492.807, -6.750367
3494.736, -7.323891
3496.664, -5.422204
3498.593, -6.571195
3500.521, 1.008856
3502.450, -1.818749
3504.378, -5.9745267E-02
3506.307, 5.519220
3508.235, -1.759448
3510.164, -7.461789
3512.092, -12.78439
3514.021, -0.4521549
3515.949, 0.1923804
3517.877, -2.893541
3519.806, -3.567162
3521.734, -1.656953
3523.663, -1.443480
3525.591, -4.862184
3527.520, 2.693593
3529.448, 9.324219
3531.377, 11.70149
3533.305, 4.235794
3535.234, 14.72864
3537.162, 6.153285
3539.091, -2.219831
3541.019, 3.557535
3542.948, 9.090676
3544.876, 2.191642
3546.804, 6.967527
3548.733, 4.139468
3550.661, -1.254260
3552.590, -0.4322589
3554.518, 1.926771
3556.447, -3.134092
3558.375, -0.9454663
3560.304, 1.710679
3562.232, 3.094326
3564.161, 12.43647
3566.089, 11.39438
3568.018, 13.07405
3569.946, 12.79215
3571.875, 10.94425
3573.803, 6.706965
3575.731, 2.820085
3577.660, -2.052297
3579.588, -2.385160
3581.517, 3.283471
3583.445, 10.28595
3585.374, 6.698580
3587.302, 11.20448
3589.231, 12.30732
3591.159, 6.676013
3593.088, -0.3736857
3595.016, 1.998590
3596.945, -3.315861
3598.873, -3.361753
3600.802, -5.346405
3602.730, -9.096538
3604.658, 2.729583
3606.587, 8.963036
3608.515, 8.245853
3610.444, -0.7915301
3612.372, -5.636406
3614.301, 2.613520
3616.229, -5.515398
3618.158, 8.782959
3620.086, 8.465325
3622.015, -2.934776
3623.943, -10.60608
3625.872, -7.108763
3627.800, 0.7310717
3629.729, 2.276160
3631.657, -3.186906
3633.585, -3.712861
3635.514, 6.859263
3637.442, 15.51232
3639.371, 12.35643
3641.299, 8.789119
3643.228, 3.812867
3645.156, 0.8096927
3647.085, 3.339415
3649.013, -5.877861
3650.942, 5.239997
3652.870, 8.828383
3654.799, 3.229124
3656.727, -1.302117
3658.656, 3.695149
3660.584, -3.598277
3662.512, 8.442719
3664.441, 1.479029
3666.369, -9.182735
3668.298, -4.411501
3670.226, 10.91611
3672.155, 0.5441197
3674.083, 16.85493
3676.012, 15.45152
3677.940, 0.4948370
3679.869, -4.128611
3681.797, 10.74445
3683.726, 6.645897
3685.654, -0.8870074
3687.583, -3.991965
3689.511, 2.868915
3691.439, 7.739675
3693.368, 6.608756
3695.296, 12.54277
3697.225, 3.223998
3699.153, 12.44438
3701.082, 2.347242
3703.010, -12.67085
3704.939, -2.285609
3706.867, 9.258595
3708.796, 5.686138
3710.724, -0.9481583
3712.653, -4.196836
3714.581, 0.7265262
3716.510, -1.256339
3718.438, 1.923659
3720.366, 6.098413
3722.295, 1.713421
3724.223, 10.59479
3726.152, 19.61521
3728.080, -0.1681498
3730.009, 1.078839
3731.937, 6.985873
3733.866, 7.615860
3735.794, 5.644657
3737.723, 6.933174
3739.651, 7.844449
3741.580, -7.038855
3743.508, -6.770127
3745.437, -5.567912
3747.365, 0.6547062
3749.293, 9.373427
3751.222, 8.268823
3753.150, 11.53241
3755.079, 12.60952
3757.007, 11.27720
3758.936, 7.032958
3760.864, 7.004843
3762.793, 5.435130
3764.721, -1.018452
3766.650, -3.599303
3768.578, -1.171836
3770.507, 3.835446
3772.435, -2.512830
3774.364, -7.442402
3776.292, -3.728832
3778.220, 1.473779
3780.149, 8.832529
3782.077, 2.907426
3784.006, 4.649120
3785.934, 11.59140
3787.863, 7.164181
3789.791, 11.94276
3791.720, -3.776554
3793.648, 10.77730
3795.577, 11.26261
3797.505, -0.6443332
3799.434, 4.668833
3801.362, 9.223991
3803.291, 1.839095
3805.219, 14.94419
3807.147, 4.567260
3809.076, -2.779060
3811.004, -5.997224
3812.933, 3.686103
3814.861, 9.323292
3816.790, -7.8346878E-02
3818.718, -3.964736
3820.647, 8.370125
3822.575, 8.155755
3824.504, -3.452049
3826.432, 0.8849137
3828.361, 11.35846
3830.289, 10.88622
3832.218, 4.145501
3834.146, -4.556486
3836.074, -9.682283
3838.003, -5.022845
3839.931, -0.6862881
3841.860, 7.692726
3843.788, 16.17135
3845.717, 8.063846
3847.645, 3.222834
3849.574, -3.889294
3851.502, 1.954257
3853.431, 3.743391
3855.359, -2.280685
3857.288, -2.519640
3859.216, -4.768139
3861.145, -3.370066
3863.073, -5.744379
3865.001, -0.3817739
3866.930, 7.249348
3868.858, 3.602188
3870.787, 4.297337
3872.715, 10.40547
3874.644, 1.133374
3876.572, -3.084465
3878.501, -1.861364
3880.429, -7.757786
3882.358, -2.047649
3884.286, -7.079848
3886.215, -4.917997
3888.143, 7.582914
3890.072, 3.498707
3892.000, 3.787358
3893.928, -1.008045
3895.857, 7.249139
3897.785, 16.05277
3899.714, 7.883843
3901.642, -3.146326
3903.571, 0.4686695
3905.499, -1.565143
3907.428, -6.509197
3909.356, -1.827780
3911.285, 8.122816
3913.213, 9.186388
3915.142, 8.193052
3917.070, 6.270524
3918.999, -3.714592
3920.927, -14.53350
3922.855, 3.688072
3924.784, -8.732245
3926.712, -12.06309
3928.641, 7.996446
3930.569, 9.192530
3932.498, 3.433071
3934.426, 11.16168
3936.355, 7.557109
3938.283, 10.86312
3940.212, -3.324077
3942.140, -2.919433
3944.069, -3.274991
3945.997, 15.16247
3947.926, 23.87734
3949.854, 12.40749
3951.782, 7.798323
3953.711, 11.43326
3955.639, -2.682419
3957.568, 10.63931
3959.496, 14.76686
3961.425, -5.023936
3963.353, -3.583498
3965.282, 8.802776
3967.210, 8.576815
3969.139, 5.571915
3971.067, 6.261339
3972.996, -7.013545
3974.924, 1.986949
3976.853, 7.071097
3978.781, 12.78130
3980.709, -3.451125
3982.638, 0.9317299
3984.566, 7.655128
3986.495, -0.2725085
3988.423, 4.578529
3990.352, -3.670244
3992.280, -1.327494
3994.209, -0.1655518
3996.137, 6.180699
3998.066, 6.087329
3999.994, 3.380217
4001.923, 10.45547
4003.851, 4.872092
4005.780, 10.38120
4007.708, 10.25743
4009.636, 6.570948
4011.565, 9.901539
4013.493, 2.105303
4015.422, -1.468609
4017.350, -6.266691
4019.279, -0.7734371
4021.207, 7.881585
4023.136, 9.250651
4025.064, 2.278821
4026.993, -4.883640
4028.921, 0.6690900
4030.850, 3.001368
4032.778, 14.60631
4034.707, 7.788168
4036.635, 6.867319
4038.563, -1.049405
4040.492, -3.823643
4042.420, -1.5304670E-02
4044.349, -1.662308
4046.277, -3.338073
4048.206, 8.535378
4050.134, 3.380610
4052.063, -1.301558
4053.991, 5.682778
4055.920, -5.354186
4057.848, -4.844738
4059.777, 1.540539
4061.705, 2.433463
4063.634, 2.592517
4065.562, 1.314612
4067.490, -9.699986
4069.419, 12.59317
4071.347, -0.5106084
4073.276, 9.345552
4075.204, 4.183762
4077.133, -14.43595
4079.061, -4.813492
4080.990, 1.778614
4082.918, 3.311222
4084.847, 10.04649
4086.775, -11.71426
4088.704, 3.343552
4090.632, 2.375459
4092.561, 14.62147
4094.489, -1.327750
4096.417, 0.6827300
4098.346, -4.031799
4100.274, 3.206229
4102.203, 2.937511
4104.131, -3.410930
4106.060, 0.7040049
4107.988, -1.093576
4109.917, -1.167225
4111.845, 2.833002
4113.774, 4.393055
4115.702, -6.098942
4117.631, 6.780401
4119.559, 4.289135
4121.488, -6.424223
4123.416, 0.2129604
4125.345, 3.185954
4127.273, -4.448534
4129.202, -3.868062
4131.130, -2.279445
4133.059, 4.628844
4134.987, 11.33715
4136.916, 7.733920
4138.844, -5.402939
4140.772, 8.508585
4142.701, 7.323729
4144.629, -9.988912
4146.558, -7.933090
4148.486, 0.2248636
4150.415, 7.575103
4152.343, 12.92227
4154.271, 2.294423
4156.200, -2.611812
4158.128, 15.46986
4160.057, -6.392751
4161.985, 4.802599
4163.914, -8.320850
4165.842, -10.88873
4167.771, -6.833609
4169.699, 1.289464
4171.628, 7.459213
4173.556, 13.51637
4175.485, 5.936645
4177.413, -0.2145690
4179.342, 7.804507
4181.270, -3.980605
4183.199, 9.910878
4185.127, 1.626701
4187.056, 0.1206976
4188.984, 13.24194
4190.913, 4.839904
4192.841, 12.94443
4194.770, -4.915034
4196.698, -15.16105
4198.626, -11.02333
4200.555, -11.52917
4202.483, -0.3757479
4204.412, 7.727321
4206.340, -0.3883988
4208.269, 4.111472
4210.197, 5.614007
4212.125, 22.78930
4214.054, 6.318386
4215.982, -1.461857
4217.911, -15.07955
4219.839, 16.83435
4221.768, -0.6857550
4223.696, 14.06664
4225.625, -4.128468
4227.553, 1.555764
4229.482, 8.645996
4231.410, 7.943395
4233.339, 12.00786
4235.267, -1.401230
4237.196, -10.05794
4239.124, -6.423594
4241.053, 14.12884
4242.981, -1.503495
4244.910, -0.5761886
4246.838, 4.961788
4248.767, -0.1023335
4250.695, -7.287111
4252.624, -5.001185
4254.552, 8.215245
4256.480, -5.078254
4258.409, 9.623223
4260.337, 21.90964
4262.266, -2.304394
4264.194, -4.116426
4266.123, 5.497017
4268.051, 1.549172
4269.979, -1.908616
4271.908, -1.990865
4273.836, 4.497906
4275.765, 5.306265
4277.693, -12.36003
4279.622, 15.35168
4281.550, 9.859484
4283.479, -7.355463
4285.407, -1.577976
4287.336, -5.401207
4289.264, 7.718677
4291.193, 0.8314514
4293.121, -3.001997
4295.050, 2.339557
4296.978, 7.231519
4298.907, -3.290834
4300.835, 1.191655
4302.764, 3.668855
4304.692, 3.361378
4306.621, 12.69753
4308.549, 6.295600
4310.478, -3.673705
4312.406, 1.031448
4314.334, -4.762831
4316.263, -0.9348759
4318.191, 4.841115
4320.120, -5.806587
4322.048, 10.23560
4323.977, 2.701034
4325.905, 3.906536
4327.833, -9.650317
4329.762, 9.595631
4331.690, 5.276733
4333.619, -6.186088
4335.547, 15.09055
4337.476, -3.702082
4339.404, -0.4132369
4341.333, 4.196642
4343.261, -7.165071
4345.190, 9.345995
4347.118, -2.023349
4349.047, -0.1822085
4350.975, 12.16312
4352.904, 10.73776
4354.832, 5.769182
4356.761, -4.938533
4358.689, -13.75249
4360.618, -3.683196
4362.546, 7.208102
4364.475, 2.110333
4366.403, -4.219110
4368.332, -1.508536
4370.260, 1.158319
4372.188, -13.02110
4374.117, -4.244547
4376.045, 20.19860
4377.974, 1.611531
4379.902, -0.3948676
4381.831, 31.14553
##END=



