##NAMES=Spencerite
##RRUFFID=R050581
##IDEAL CHEMISTRY=Zn_4_(PO_4_)_2_(OH)_2_·3H_2_O
##LOCALITY=Salmo, British Columbia, Canada
##OWNER=RRUFF
##SOURCE=University of Arizona Mineral Museum
##DESCRIPTION=White aggregate of parallel bladed crystals
##STATUS=The identification of this mineral has been confirmed by X-ray diffraction
##URL=https://www.rruff.net/odr/rruff_sample/R050581
##DIFFRACTION SAMPLE DESCRIPTION=Powder
##CELL PARAMETERS=a: 10.4371 b: 5.2742 c: 11.183 alpha: 90 beta: 116.805 gamma: 90 volume: 549.45 crystal system: monoclinic
##FILETYPE=Raman Processed
##RAMAN WAVELENGTH=532

147.4512, 275003.1
149.3797, 277013.9
151.3081, 278570.1
153.2366, 279478.7
155.1651, 279863.9
157.0935, 280082.8
159.0220, 280051.0
160.9505, 279967.1
162.8789, 280131.8
164.8074, 280701.2
166.7359, 281304.1
168.6643, 281896.5
170.5928, 282524.6
172.5213, 283027.6
174.4497, 283362.6
176.3782, 283595.8
178.3067, 283816.3
180.2351, 283996.3
182.1636, 284129.7
184.0921, 284157.6
186.0205, 283830.1
187.9490, 283840.5
189.8775, 284165.0
191.8059, 284761.6
193.7344, 285507.6
195.6629, 286394.5
197.5913, 287386.8
199.5198, 288499.9
201.4483, 289790.5
203.3767, 291044.4
205.3052, 292199.0
207.2337, 293346.0
209.1621, 294615.2
211.0906, 295847.7
213.0191, 297340.1
214.9475, 299260.7
216.8760, 301572.0
218.8045, 304021.3
220.7329, 306604.7
222.6614, 309239.6
224.5899, 311806.9
226.5183, 314452.4
228.4468, 316884.8
230.3753, 318972.2
232.3037, 320739.2
234.2322, 322356.5
236.1607, 323858.9
238.0891, 325245.9
240.0176, 326527.2
241.9461, 327549.9
243.8745, 328738.7
245.8030, 330227.5
247.7315, 332030.4
249.6599, 334043.7
251.5884, 336275.9
253.5169, 338699.9
255.4453, 341308.7
257.3738, 344371.1
259.3023, 347151.3
261.2307, 349476.6
263.1592, 351365.0
265.0877, 352917.3
267.0161, 354120.8
268.9446, 354872.7
270.8731, 355204.8
272.8015, 354833.1
274.7300, 354283.5
276.6585, 353470.2
278.5869, 352437.1
280.5154, 351647.7
282.4439, 351351.7
284.3723, 351176.4
286.3008, 350896.0
288.2293, 350411.4
290.1577, 350102.9
292.0862, 350062.5
294.0147, 350182.8
295.9431, 350284.9
297.8716, 350286.8
299.8001, 350364.4
301.7285, 350685.5
303.6570, 351307.4
305.5855, 351790.0
307.5139, 351762.6
309.4424, 351563.7
311.3709, 351714.3
313.2993, 352577.2
315.2278, 353482.6
317.1563, 354179.7
319.0847, 354710.7
321.0132, 355405.9
322.9417, 356316.1
324.8701, 357412.5
326.7986, 358805.6
328.7271, 360622.5
330.6555, 362502.0
332.5840, 364257.7
334.5125, 365969.3
336.4409, 367794.3
338.3694, 369753.8
340.2979, 371707.6
342.2263, 373644.0
344.1548, 375561.2
346.0833, 377288.4
348.0117, 378696.6
349.9402, 379849.3
351.8687, 380803.1
353.7971, 381566.1
355.7256, 382209.4
357.6541, 382737.8
359.5826, 383204.6
361.5110, 383768.9
363.4395, 384607.7
365.3680, 385615.4
367.2964, 386724.2
369.2249, 387918.7
371.1534, 389314.0
373.0818, 391068.4
375.0103, 392914.2
376.9388, 394273.8
378.8672, 394798.2
380.7957, 395012.0
382.7242, 395001.6
384.6526, 394763.1
386.5811, 394307.7
388.5096, 393572.7
390.4380, 392745.6
392.3665, 392063.2
394.2950, 391632.8
396.2234, 391426.3
398.1519, 391496.1
400.0804, 391773.9
402.0088, 392099.0
403.9373, 392232.8
405.8658, 392482.7
407.7942, 393055.5
409.7227, 393963.1
411.6512, 394760.9
413.5796, 395194.7
415.5081, 395575.9
417.4366, 396115.3
419.3650, 396982.2
421.2935, 397687.7
423.2220, 398262.6
425.1504, 398838.3
427.0789, 399582.9
429.0074, 400533.1
430.9358, 401586.4
432.8643, 402717.2
434.7928, 403946.3
436.7212, 405293.8
438.6497, 406611.1
440.5782, 407956.1
442.5066, 409410.5
444.4351, 411042.3
446.3636, 412935.1
448.2920, 415073.3
450.2205, 417349.8
452.1490, 419570.9
454.0774, 421908.7
456.0059, 424245.9
457.9344, 426342.9
459.8628, 428066.6
461.7913, 429630.5
463.7198, 431230.7
465.6482, 432432.7
467.5767, 432871.7
469.5052, 432545.8
471.4336, 432144.6
473.3621, 431933.0
475.2906, 431671.0
477.2190, 431588.4
479.1475, 431323.1
481.0760, 431199.9
483.0044, 431140.1
484.9329, 431078.8
486.8614, 431041.6
488.7898, 431253.6
490.7183, 431731.3
492.6468, 432427.0
494.5752, 433234.8
496.5037, 434298.9
498.4322, 435845.2
500.3606, 437595.8
502.2891, 439279.3
504.2176, 440738.3
506.1460, 442071.3
508.0745, 443271.2
510.0030, 444417.8
511.9314, 445669.6
513.8599, 447074.3
515.7883, 448096.2
517.7168, 448572.0
519.6453, 448533.4
521.5737, 448524.3
523.5022, 448482.8
525.4307, 448432.0
527.3591, 448431.2
529.2876, 448589.2
531.2161, 448884.2
533.1445, 449375.1
535.0730, 450031.3
537.0015, 450879.2
538.9299, 451911.2
540.8584, 452928.0
542.7869, 453826.0
544.7153, 454749.7
546.6438, 455917.8
548.5723, 457344.4
550.5007, 458821.6
552.4292, 460303.3
554.3577, 461785.4
556.2861, 463260.6
558.2146, 464641.6
560.1431, 465901.7
562.0715, 467054.9
564.0000, 468135.6
565.9285, 469301.3
567.8569, 470645.5
569.7854, 472040.7
571.7139, 473394.8
573.6423, 474774.9
575.5708, 476311.4
577.4993, 478122.6
579.4277, 480009.0
581.3562, 481749.8
583.2847, 483171.7
585.2131, 484687.7
587.1416, 486300.0
589.0701, 487856.2
590.9985, 489308.4
592.9270, 490899.9
594.8555, 492244.1
596.7839, 493209.4
598.7124, 493745.7
600.6409, 494044.2
602.5693, 494002.6
604.4978, 493979.1
606.4263, 494161.6
608.3547, 494544.7
610.2832, 494805.5
612.2117, 494854.7
614.1401, 494921.8
616.0686, 495125.7
617.9971, 495519.6
619.9255, 495980.5
621.8540, 496458.9
623.7825, 496916.9
625.7109, 497351.7
627.6394, 497777.7
629.5679, 498192.3
631.4963, 498556.2
633.4248, 498999.5
635.3533, 499705.8
637.2817, 500535.1
639.2102, 501296.3
641.1387, 501960.0
643.0671, 502724.2
644.9956, 503705.3
646.9241, 504821.5
648.8525, 506007.2
650.7810, 507262.5
652.7095, 508700.9
654.6379, 510240.7
656.5664, 511776.5
658.4949, 513276.3
660.4233, 514747.6
662.3518, 516219.4
664.2803, 517589.3
666.2087, 518774.9
668.1372, 519848.5
670.0657, 520831.3
671.9941, 521686.8
673.9226, 522459.8
675.8511, 523334.2
677.7795, 524185.8
679.7080, 524916.3
681.6365, 525422.9
683.5649, 526017.1
685.4934, 526799.7
687.4219, 527616.3
689.3503, 528389.9
691.2788, 529136.3
693.2073, 529883.4
695.1357, 530531.4
697.0642, 531153.9
698.9927, 531856.6
700.9211, 532769.8
702.8496, 533641.8
704.7781, 534371.8
706.7065, 535094.6
708.6350, 535926.8
710.5635, 536774.3
712.4919, 537561.9
714.4204, 538282.3
716.3489, 539039.6
718.2773, 539810.3
720.2058, 540465.3
722.1343, 541091.8
724.0627, 541719.1
725.9912, 542423.9
727.9197, 543064.2
729.8481, 543803.5
731.7766, 544416.0
733.7051, 545081.8
735.6335, 545775.8
737.5620, 546372.9
739.4905, 546879.2
741.4189, 547617.7
743.3474, 548684.3
745.2759, 549922.2
747.2043, 551254.9
749.1328, 552475.9
751.0613, 553627.8
752.9897, 554569.5
754.9182, 555554.8
756.8467, 556673.9
758.7751, 557969.5
760.7036, 558850.1
762.6321, 559060.2
764.5605, 559105.3
766.4890, 559360.9
768.4175, 560030.7
770.3459, 560624.5
772.2744, 561078.1
774.2029, 561489.6
776.1313, 562011.1
778.0598, 562651.5
779.9883, 563426.1
781.9167, 564320.1
783.8452, 565368.5
785.7737, 566548.2
787.7021, 567885.9
789.6306, 569257.6
791.5591, 570666.2
793.4875, 572005.2
795.4160, 573192.6
797.3445, 574133.4
799.2729, 575131.4
801.2014, 576232.1
803.1299, 577418.9
805.0583, 578659.4
806.9868, 580013.7
808.9153, 581343.9
810.8438, 582658.9
812.7722, 583980.3
814.7007, 585334.4
816.6292, 586714.2
818.5576, 588161.6
820.4861, 589694.2
822.4146, 591190.8
824.3430, 592498.9
826.2715, 593463.6
828.2000, 594423.4
830.1284, 595470.1
832.0569, 596453.6
833.9854, 597320.0
835.9138, 598133.9
837.8423, 598644.4
839.7708, 598658.2
841.6992, 598612.1
843.6277, 598880.2
845.5562, 599633.1
847.4846, 600361.9
849.4131, 600923.7
851.3416, 601591.1
853.2700, 602495.3
855.1985, 603599.3
857.1270, 604972.6
859.0554, 606816.8
860.9839, 608755.9
862.9124, 610487.5
864.8408, 611727.6
866.7693, 612940.5
868.6978, 614104.5
870.6262, 615279.3
872.5547, 616371.1
874.4832, 617335.9
876.4116, 618320.4
878.3401, 619579.8
880.2686, 620726.3
882.1970, 621506.3
884.1255, 621836.5
886.0540, 622284.8
887.9824, 622865.3
889.9109, 623664.6
891.8394, 624801.4
893.7678, 626155.8
895.6963, 627390.8
897.6248, 628360.8
899.5532, 629409.3
901.4817, 630601.2
903.4102, 631902.9
905.3386, 633260.9
907.2671, 634670.9
909.1956, 635996.8
911.1240, 637201.9
913.0525, 638185.8
914.9810, 639078.0
916.9094, 639936.1
918.8379, 640795.4
920.7664, 641674.5
922.6948, 642508.1
924.6233, 643297.3
926.5518, 644149.4
928.4802, 645134.0
930.4087, 646326.2
932.3372, 647391.1
934.2656, 648420.9
936.1941, 649494.3
938.1226, 650793.8
940.0510, 652374.4
941.9795, 654082.4
943.9080, 655796.7
945.8364, 657429.6
947.7649, 659075.7
949.6934, 660710.9
951.6218, 662342.2
953.5503, 664029.6
955.4788, 666096.1
957.4072, 668515.4
959.3357, 671499.0
961.2642, 674616.9
963.1926, 677442.2
965.1211, 680181.4
967.0496, 682931.9
968.9780, 685489.4
970.9065, 688341.6
972.8350, 691652.1
974.7634, 694837.4
976.6919, 699188.5
978.6204, 704702.7
980.5488, 710574.9
982.4773, 715857.6
984.4058, 722579.6
986.3342, 731492.9
988.2627, 742671.2
990.1912, 755842.4
992.1196, 772502.4
994.0481, 789245.4
995.9766, 806346.4
997.9050, 825167.3
999.8335, 836859.6
1001.762, 839732.9
1003.690, 835218.2
1005.619, 822383.1
1007.547, 800145.0
1009.476, 779147.2
1011.404, 760068.7
1013.333, 744189.3
1015.261, 731684.3
1017.190, 722806.3
1019.118, 716700.6
1021.047, 713600.9
1022.975, 711429.4
1024.904, 709805.9
1026.832, 708430.7
1028.760, 706502.8
1030.689, 704514.1
1032.617, 703163.0
1034.546, 702541.8
1036.474, 702349.2
1038.403, 702522.4
1040.331, 702979.6
1042.260, 703825.9
1044.188, 705172.9
1046.117, 706571.4
1048.045, 707685.8
1049.974, 708474.9
1051.902, 709449.3
1053.831, 710810.8
1055.759, 712409.3
1057.688, 714137.8
1059.616, 715867.5
1061.544, 717419.4
1063.473, 718967.2
1065.401, 720585.0
1067.330, 722065.8
1069.258, 723420.9
1071.187, 725214.6
1073.115, 727526.8
1075.044, 729863.1
1076.972, 731901.7
1078.901, 733649.6
1080.829, 735512.1
1082.758, 738264.3
1084.686, 741590.8
1086.615, 745355.1
1088.543, 749457.3
1090.471, 754449.6
1092.400, 759767.8
1094.328, 764714.8
1096.257, 769565.8
1098.185, 772638.2
1100.114, 772863.8
1102.042, 770635.9
1103.971, 767668.8
1105.899, 763998.4
1107.828, 760431.8
1109.756, 757306.6
1111.685, 754825.1
1113.613, 753061.9
1115.542, 752090.2
1117.470, 751801.4
1119.398, 752270.7
1121.327, 753124.5
1123.255, 753931.7
1125.184, 754800.4
1127.112, 756378.4
1129.041, 758719.8
1130.969, 760903.6
1132.898, 762573.5
1134.826, 764028.6
1136.755, 765749.1
1138.683, 767336.7
1140.612, 768649.5
1142.540, 769866.9
1144.469, 771023.6
1146.397, 771930.1
1148.325, 772469.0
1150.254, 773234.3
1152.182, 774534.7
1154.111, 775844.6
1156.039, 776467.1
1157.968, 776312.3
1159.896, 776321.9
1161.825, 777113.6
1163.753, 778194.3
1165.682, 779314.1
1167.610, 780318.9
1169.539, 780906.1
1171.467, 780820.9
1173.396, 781362.8
1175.324, 782675.1
1177.252, 784140.3
1179.181, 785360.7
1181.109, 786477.5
1183.038, 787935.5
1184.966, 789751.1
1186.895, 791436.2
1188.823, 792671.7
1190.752, 793650.3
1192.680, 794860.0
1194.609, 796419.2
1196.537, 797957.7
1198.466, 799432.4
1200.394, 800750.8
1202.323, 801921.3
1204.251, 802977.4
1206.179, 804646.9
1208.108, 806646.5
1210.036, 808207.8
1211.965, 809312.9
1213.893, 810126.4
1215.822, 810982.3
1217.750, 811999.3
1219.679, 812750.1
1221.607, 813018.0
1223.536, 813077.0
1225.464, 813177.9
1227.393, 813331.8
1229.321, 813453.4
1231.250, 813842.9
1233.178, 814294.6
1235.106, 814792.5
1237.035, 815625.4
1238.963, 816235.4
1240.892, 817261.1
1242.820, 818432.4
1244.749, 819779.1
1246.677, 821299.4
1248.606, 822714.3
1250.534, 823905.3
1252.463, 825245.2
1254.391, 827069.1
1256.320, 829041.9
1258.248, 830858.6
1260.177, 832405.5
1262.105, 833610.4
1264.033, 834414.4
1265.962, 835268.6
1267.890, 836546.2
1269.819, 837955.9
1271.747, 839047.6
1273.676, 839766.6
1275.604, 840468.4
1277.533, 841334.1
1279.461, 842489.2
1281.390, 843651.6
1283.318, 844591.2
1285.247, 845430.4
1287.175, 846257.2
1289.104, 847261.7
1291.032, 848542.0
1292.960, 849722.7
1294.889, 850711.3
1296.817, 851655.9
1298.746, 852861.1
1300.674, 854398.4
1302.603, 855875.5
1304.531, 856892.3
1306.460, 857643.0
1308.388, 858731.4
1310.317, 860052.3
1312.245, 860851.4
1314.174, 860891.8
1316.102, 860852.9
1318.031, 861098.1
1319.959, 861583.4
1321.887, 862369.0
1323.816, 863599.3
1325.744, 865130.6
1327.673, 866927.2
1329.601, 868759.3
1331.530, 870617.1
1333.458, 872593.3
1335.387, 874492.4
1337.315, 876092.8
1339.244, 877530.8
1341.172, 879005.8
1343.101, 880130.9
1345.029, 880844.4
1346.958, 881244.2
1348.886, 881338.3
1350.814, 881187.6
1352.743, 881526.6
1354.671, 882852.1
1356.600, 884292.6
1358.528, 885172.9
1360.457, 885824.2
1362.385, 887054.8
1364.314, 888951.9
1366.242, 890599.1
1368.171, 891595.6
1370.099, 892616.8
1372.028, 893884.4
1373.956, 895203.7
1375.885, 896347.3
1377.813, 897421.1
1379.741, 898398.9
1381.670, 899067.2
1383.598, 899639.7
1385.527, 900394.5
1387.455, 901357.1
1389.384, 902353.3
1391.312, 903377.8
1393.241, 904491.5
1395.169, 905591.4
1397.098, 907002.5
1399.026, 908886.6
1400.955, 910968.7
1402.883, 912781.0
1404.812, 914297.3
1406.740, 915517.3
1408.668, 916154.3
1410.597, 916677.9
1412.525, 917663.6
1414.454, 919184.3
1416.382, 920913.6
1418.311, 922907.9
1420.239, 924984.4
1422.168, 926961.8
1424.096, 928926.4
1426.025, 930934.7
1427.953, 932917.1
1429.882, 934730.5
1431.810, 936434.7
1433.739, 937763.1
1435.667, 938808.8
1437.595, 939601.0
1439.524, 940137.5
1441.452, 940552.6
1443.381, 940991.1
1445.309, 941020.9
1447.238, 941754.9
1449.166, 943712.1
1451.095, 946198.3
1453.023, 948599.1
1454.952, 950861.4
1456.880, 953089.8
1458.809, 955348.6
1460.737, 957408.1
1462.666, 959005.9
1464.594, 960583.7
1466.522, 962563.7
1468.451, 964892.9
1470.379, 967296.9
1472.308, 969831.0
1474.236, 972074.9
1476.165, 973574.2
1478.093, 974845.1
1480.022, 976254.4
1481.950, 977689.6
1483.879, 978833.4
1485.807, 979744.1
1487.736, 980355.6
1489.664, 980441.5
1491.593, 980690.5
1493.521, 981577.2
1495.449, 983049.9
1497.378, 984768.8
1499.306, 987032.1
1501.235, 988834.1
1503.163, 989401.3
1505.092, 990074.9
1507.020, 991628.6
1508.949, 993687.5
1510.877, 995400.2
1512.806, 996635.2
1514.734, 997702.3
1516.663, 998523.8
1518.591, 999351.3
1520.520, 1000356.
1522.448, 1001322.
1524.376, 1001924.
1526.305, 1002121.
1528.233, 1002584.
1530.162, 1003343.
1532.090, 1004349.
1534.019, 1005793.
1535.947, 1007404.
1537.876, 1008857.
1539.804, 1010167.
1541.733, 1011450.
1543.661, 1012584.
1545.590, 1013798.
1547.518, 1015331.
1549.447, 1016741.
1551.375, 1017866.
1553.303, 1018715.
1555.232, 1018995.
1557.160, 1018553.
1559.089, 1018626.
1561.017, 1019871.
1562.946, 1021300.
1564.874, 1022116.
1566.803, 1022729.
1568.731, 1023928.
1570.660, 1025708.
1572.588, 1027416.
1574.517, 1028847.
1576.445, 1030273.
1578.374, 1032081.
1580.302, 1033708.
1582.230, 1034602.
1584.159, 1034811.
1586.087, 1034790.
1588.016, 1034508.
1589.944, 1034347.
1591.873, 1034593.
1593.801, 1034909.
1595.730, 1035133.
1597.658, 1035367.
1599.587, 1035737.
1601.515, 1036129.
1603.444, 1037039.
1605.372, 1038840.
1607.301, 1040482.
1609.229, 1041561.
1611.157, 1042231.
1613.086, 1042681.
1615.014, 1042929.
1616.943, 1042905.
1618.871, 1042519.
1620.800, 1042156.
1622.728, 1041893.
1624.657, 1041893.
1626.585, 1042378.
1628.514, 1043305.
1630.442, 1044445.
1632.371, 1045945.
1634.299, 1047319.
1636.228, 1047983.
1638.156, 1049067.
1640.084, 1050984.
1642.013, 1053151.
1643.941, 1055045.
1645.870, 1056636.
1647.798, 1057951.
1649.727, 1058795.
1651.655, 1059901.
1653.584, 1061614.
1655.512, 1063487.
1657.441, 1065159.
1659.369, 1066858.
1661.298, 1069038.
1663.226, 1071710.
1665.155, 1073724.
1667.083, 1074518.
1669.011, 1075148.
1670.940, 1075830.
1672.868, 1076397.
1674.797, 1077008.
1676.725, 1077634.
1678.654, 1077843.
1680.582, 1077596.
1682.511, 1077618.
1684.439, 1077862.
1686.368, 1078484.
1688.296, 1079401.
1690.225, 1080629.
1692.153, 1082258.
1694.082, 1084100.
1696.010, 1085526.
1697.938, 1086342.
1699.867, 1086994.
1701.795, 1087534.
1703.724, 1087951.
1705.652, 1088308.
1707.581, 1088685.
1709.509, 1089154.
1711.438, 1089808.
1713.366, 1090821.
1715.295, 1092551.
1717.223, 1093914.
1719.152, 1094327.
1721.080, 1094774.
1723.009, 1095761.
1724.937, 1096876.
1726.865, 1097550.
1728.794, 1097817.
1730.722, 1098382.
1732.651, 1099486.
1734.579, 1100796.
1736.508, 1102013.
1738.436, 1103770.
1740.365, 1106720.
1742.293, 1109912.
1744.222, 1111971.
1746.150, 1112738.
1748.079, 1113237.
1750.007, 1113560.
1751.936, 1113438.
1753.864, 1113008.
1755.792, 1112430.
1757.721, 1111899.
1759.649, 1111566.
1761.578, 1111471.
1763.506, 1111653.
1765.435, 1112398.
1767.363, 1113731.
1769.292, 1115186.
1771.220, 1116503.
1773.149, 1117744.
1775.077, 1118990.
1777.006, 1120030.
1778.934, 1120682.
1780.863, 1121037.
1782.791, 1121258.
1784.719, 1121267.
1786.648, 1121654.
1788.576, 1122779.
1790.505, 1123870.
1792.433, 1124690.
1794.362, 1125263.
1796.290, 1125479.
1798.219, 1125458.
1800.147, 1125781.
1802.076, 1126559.
1804.004, 1127582.
1805.933, 1128923.
1807.861, 1130432.
1809.790, 1132122.
1811.718, 1133724.
1813.646, 1134885.
1815.575, 1135729.
1817.503, 1136729.
1819.432, 1137911.
1821.360, 1139021.
1823.289, 1140280.
1825.217, 1141283.
1827.146, 1141705.
1829.074, 1142386.
1831.003, 1143727.
1832.931, 1145513.
1834.860, 1147526.
1836.788, 1149621.
1838.717, 1151434.
1840.645, 1152832.
1842.573, 1154122.
1844.502, 1155479.
1846.430, 1156557.
1848.359, 1157105.
1850.287, 1157528.
1852.216, 1158118.
1854.144, 1158877.
1856.073, 1159707.
1858.001, 1160590.
1859.930, 1161938.
1861.858, 1164088.
1863.787, 1165938.
1865.715, 1166957.
1867.644, 1168019.
1869.572, 1169739.
1871.500, 1171796.
1873.429, 1173723.
1875.357, 1175583.
1877.286, 1177736.
1879.214, 1180203.
1881.143, 1182452.
1883.071, 1184031.
1885.000, 1185593.
1886.928, 1187360.
1888.857, 1188898.
1890.785, 1189906.
1892.714, 1190562.
1894.642, 1191215.
1896.571, 1192011.
1898.499, 1192912.
1900.427, 1194156.
1902.356, 1195533.
1904.284, 1196899.
1906.213, 1198604.
1908.141, 1200785.
1910.070, 1202986.
1911.998, 1204813.
1913.927, 1206166.
1915.855, 1206974.
1917.784, 1207189.
1919.712, 1207322.
1921.641, 1207561.
1923.569, 1207583.
1925.498, 1207482.
1927.426, 1207230.
1929.354, 1206555.
1931.283, 1206060.
1933.211, 1206454.
1935.140, 1206248.
1937.068, 1206441.
1938.997, 1207010.
1940.925, 1207193.
1942.854, 1208261.
1944.782, 1209278.
1946.711, 1209692.
1948.639, 1210474.
1950.568, 1212434.
1952.496, 1214311.
1954.425, 1214861.
1956.353, 1214574.
1958.281, 1214509.
1960.210, 1214712.
1962.138, 1215163.
1964.067, 1216345.
1965.995, 1217103.
1967.924, 1216998.
1969.852, 1217047.
1971.781, 1217658.
1973.709, 1218177.
1975.638, 1217932.
1977.566, 1217380.
1979.495, 1217497.
1981.423, 1218255.
1983.352, 1218236.
1985.280, 1217315.
1987.208, 1217362.
1989.137, 1219108.
1991.065, 1220693.
1992.994, 1221253.
1994.922, 1221769.
1996.851, 1222698.
1998.779, 1223692.
2000.708, 1224444.
2002.636, 1224919.
2004.565, 1225147.
2006.493, 1225162.
2008.422, 1225059.
2010.350, 1224939.
2012.279, 1224750.
2014.207, 1224463.
2016.135, 1224264.
2018.064, 1223990.
2019.992, 1224068.
2021.921, 1224931.
2023.849, 1226207.
2025.778, 1227476.
2027.706, 1228659.
2029.635, 1229124.
2031.563, 1228613.
2033.492, 1228545.
2035.420, 1229318.
2037.349, 1229792.
2039.277, 1229358.
2041.206, 1229315.
2043.134, 1230776.
2045.063, 1232368.
2046.991, 1232628.
2048.919, 1232435.
2050.848, 1233352.
2052.776, 1235083.
2054.705, 1236368.
2056.633, 1237110.
2058.562, 1237209.
2060.490, 1236316.
2062.419, 1235605.
2064.347, 1235421.
2066.276, 1235628.
2068.204, 1236423.
2070.133, 1237583.
2072.061, 1238947.
2073.990, 1240502.
2075.918, 1242201.
2077.846, 1243945.
2079.775, 1245533.
2081.703, 1246817.
2083.632, 1247795.
2085.560, 1248262.
2087.489, 1248704.
2089.417, 1249565.
2091.346, 1249971.
2093.274, 1249468.
2095.203, 1248819.
2097.131, 1248313.
2099.060, 1248382.
2100.988, 1249730.
2102.917, 1252063.
2104.845, 1254185.
2106.773, 1255852.
2108.702, 1257849.
2110.630, 1260433.
2112.559, 1262354.
2114.487, 1263491.
2116.416, 1264054.
2118.344, 1263989.
2120.273, 1263877.
2122.201, 1264009.
2124.130, 1264554.
2126.058, 1265936.
2127.987, 1267715.
2129.915, 1268773.
2131.844, 1269274.
2133.772, 1270236.
2135.700, 1271551.
2137.629, 1273379.
2139.557, 1276128.
2141.486, 1277851.
2143.414, 1277374.
2145.343, 1277124.
2147.271, 1278202.
2149.200, 1279448.
2151.128, 1280255.
2153.057, 1281040.
2154.985, 1282274.
2156.914, 1283750.
2158.842, 1284944.
2160.771, 1285843.
2162.699, 1286821.
2164.627, 1287828.
2166.556, 1288653.
2168.484, 1289259.
2170.413, 1289684.
2172.341, 1290062.
2174.270, 1290179.
2176.198, 1289660.
2178.127, 1289413.
2180.055, 1290205.
2181.984, 1291235.
2183.912, 1291515.
2185.841, 1292747.
2187.769, 1292858.
2189.698, 1294812.
2191.626, 1296293.
2193.554, 1297242.
2195.483, 1298171.
2197.411, 1299076.
2199.340, 1299854.
2201.268, 1300602.
2203.197, 1300912.
2205.125, 1300580.
2207.054, 1300153.
2208.982, 1299637.
2210.911, 1299538.
2212.839, 1300329.
2214.768, 1301598.
2216.696, 1302783.
2218.625, 1304063.
2220.553, 1305947.
2222.481, 1308205.
2224.410, 1309892.
2226.338, 1310949.
2228.267, 1311767.
2230.195, 1312344.
2232.124, 1313389.
2234.052, 1315504.
2235.981, 1316925.
2237.909, 1316504.
2239.838, 1316601.
2241.766, 1318337.
2243.695, 1320336.
2245.623, 1321988.
2247.552, 1323232.
2249.480, 1323710.
2251.408, 1323963.
2253.337, 1325004.
2255.265, 1326590.
2257.194, 1327772.
2259.122, 1328581.
2261.051, 1329110.
2262.979, 1329267.
2264.908, 1329917.
2266.836, 1331291.
2268.765, 1332373.
2270.693, 1332898.
2272.622, 1333548.
2274.550, 1334885.
2276.479, 1336110.
2278.407, 1336888.
2280.335, 1337678.
2282.264, 1338614.
2284.192, 1339705.
2286.121, 1340695.
2288.049, 1341833.
2289.978, 1343579.
2291.906, 1345754.
2293.835, 1348145.
2295.763, 1350662.
2297.692, 1352627.
2299.620, 1353988.
2301.549, 1355094.
2303.477, 1355889.
2305.406, 1356670.
2307.334, 1357427.
2309.262, 1358442.
2311.191, 1359972.
2313.119, 1361613.
2315.048, 1363365.
2316.976, 1365123.
2318.905, 1366523.
2320.833, 1368162.
2322.762, 1370495.
2324.690, 1373070.
2326.619, 1375546.
2328.547, 1377709.
2330.476, 1379232.
2332.404, 1380132.
2334.333, 1380433.
2336.261, 1380257.
2338.189, 1380733.
2340.118, 1380766.
2342.046, 1380514.
2343.975, 1380920.
2345.903, 1380135.
2347.832, 1379858.
2349.760, 1380100.
2351.689, 1381102.
2353.617, 1382118.
2355.546, 1382790.
2357.474, 1383599.
2359.403, 1385113.
2361.331, 1386167.
2363.260, 1385912.
2365.188, 1385449.
2367.116, 1385481.
2369.045, 1385928.
2370.973, 1387057.
2372.902, 1388317.
2374.830, 1388399.
2376.759, 1389705.
2378.687, 1390536.
2380.616, 1391292.
2382.544, 1392564.
2384.473, 1392842.
2386.401, 1393917.
2388.330, 1395885.
2390.258, 1396689.
2392.187, 1396044.
2394.115, 1395867.
2396.043, 1397089.
2397.972, 1397693.
2399.900, 1396327.
2401.829, 1396235.
2403.757, 1398848.
2405.686, 1401241.
2407.614, 1402326.
2409.543, 1403133.
2411.471, 1404099.
2413.400, 1404819.
2415.328, 1404859.
2417.257, 1404717.
2419.185, 1405000.
2421.114, 1405320.
2423.042, 1405198.
2424.970, 1404916.
2426.899, 1404855.
2428.827, 1405055.
2430.756, 1405426.
2432.684, 1406034.
2434.613, 1407192.
2436.541, 1408742.
2438.470, 1409949.
2440.398, 1410701.
2442.327, 1411072.
2444.255, 1410848.
2446.184, 1410936.
2448.112, 1411535.
2450.041, 1411767.
2451.969, 1411543.
2453.897, 1411167.
2455.826, 1410613.
2457.754, 1410341.
2459.683, 1410835.
2461.611, 1411282.
2463.540, 1411588.
2465.468, 1411853.
2467.397, 1411364.
2469.325, 1411816.
2471.254, 1414620.
2473.182, 1417486.
2475.111, 1418612.
2477.039, 1419514.
2478.968, 1421698.
2480.896, 1423910.
2482.824, 1424973.
2484.753, 1425430.
2486.681, 1425958.
2488.610, 1426544.
2490.538, 1426921.
2492.467, 1427334.
2494.395, 1428396.
2496.324, 1429817.
2498.252, 1430879.
2500.181, 1431576.
2502.109, 1432153.
2504.038, 1432665.
2505.966, 1433262.
2507.895, 1434005.
2509.823, 1435614.
2511.751, 1438142.
2513.680, 1440253.
2515.608, 1441646.
2517.537, 1443313.
2519.465, 1445369.
2521.394, 1446734.
2523.322, 1447036.
2525.251, 1447080.
2527.179, 1447282.
2529.108, 1446913.
2531.036, 1445750.
2532.965, 1445270.
2534.893, 1446227.
2536.822, 1447414.
2538.750, 1448130.
2540.678, 1449420.
2542.607, 1451673.
2544.535, 1454154.
2546.464, 1456482.
2548.392, 1458772.
2550.321, 1460857.
2552.249, 1462915.
2554.178, 1465140.
2556.106, 1467114.
2558.035, 1468755.
2559.963, 1469836.
2561.892, 1469941.
2563.820, 1469915.
2565.749, 1471031.
2567.677, 1472283.
2569.605, 1472208.
2571.534, 1472280.
2573.462, 1474097.
2575.391, 1476800.
2577.319, 1479301.
2579.248, 1481368.
2581.176, 1482907.
2583.105, 1483554.
2585.033, 1482370.
2586.962, 1480406.
2588.890, 1480326.
2590.819, 1481563.
2592.747, 1482223.
2594.676, 1482686.
2596.604, 1483330.
2598.532, 1484278.
2600.461, 1486554.
2602.389, 1489738.
2604.318, 1493060.
2606.246, 1496164.
2608.175, 1498198.
2610.103, 1499183.
2612.032, 1499215.
2613.960, 1498429.
2615.889, 1498327.
2617.817, 1499004.
2619.746, 1499229.
2621.674, 1498974.
2623.603, 1498647.
2625.531, 1498185.
2627.459, 1498644.
2629.388, 1498739.
2631.316, 1499056.
2633.245, 1500096.
2635.173, 1500301.
2637.102, 1501884.
2639.030, 1503247.
2640.959, 1504149.
2642.887, 1505457.
2644.816, 1506552.
2646.744, 1507571.
2648.673, 1508906.
2650.601, 1509499.
2652.530, 1510894.
2654.458, 1511562.
2656.386, 1511063.
2658.315, 1511235.
2660.243, 1512843.
2662.172, 1513598.
2664.100, 1513050.
2666.029, 1512141.
2667.957, 1510777.
2669.886, 1510042.
2671.814, 1510380.
2673.743, 1510633.
2675.671, 1510593.
2677.600, 1510587.
2679.528, 1510192.
2681.457, 1510681.
2683.385, 1512434.
2685.313, 1513535.
2687.242, 1513507.
2689.170, 1513429.
2691.099, 1513778.
2693.027, 1513817.
2694.956, 1513076.
2696.884, 1513041.
2698.813, 1514077.
2700.741, 1514963.
2702.670, 1515353.
2704.598, 1515732.
2706.527, 1516287.
2708.455, 1516394.
2710.384, 1515500.
2712.312, 1515138.
2714.240, 1515559.
2716.169, 1516338.
2718.097, 1517514.
2720.026, 1518639.
2721.954, 1519678.
2723.883, 1520272.
2725.811, 1519876.
2727.740, 1520000.
2729.668, 1521166.
2731.597, 1521343.
2733.525, 1520008.
2735.454, 1519333.
2737.382, 1520168.
2739.311, 1520927.
2741.239, 1521301.
2743.167, 1521982.
2745.096, 1522953.
2747.024, 1523637.
2748.953, 1523767.
2750.881, 1524072.
2752.810, 1524881.
2754.738, 1525504.
2756.667, 1525998.
2758.595, 1526428.
2760.524, 1526804.
2762.452, 1527412.
2764.381, 1528204.
2766.309, 1529492.
2768.238, 1531463.
2770.166, 1532913.
2772.094, 1533751.
2774.023, 1534684.
2775.951, 1535806.
2777.880, 1536202.
2779.808, 1535861.
2781.737, 1535139.
2783.665, 1533859.
2785.594, 1534790.
2787.522, 1537806.
2789.451, 1540478.
2791.379, 1542600.
2793.308, 1544413.
2795.236, 1545845.
2797.165, 1547149.
2799.093, 1548365.
2801.021, 1549310.
2802.950, 1550195.
2804.878, 1551628.
2806.807, 1553529.
2808.735, 1555365.
2810.664, 1557038.
2812.592, 1558118.
2814.521, 1558827.
2816.449, 1560366.
2818.378, 1560605.
2820.306, 1562088.
2822.235, 1561380.
2824.163, 1561247.
2826.092, 1561693.
2828.020, 1563178.
2829.948, 1564807.
2831.877, 1565175.
2833.805, 1565155.
2835.734, 1565625.
2837.662, 1566476.
2839.591, 1567676.
2841.519, 1569036.
2843.448, 1570425.
2845.376, 1571773.
2847.305, 1573064.
2849.233, 1574299.
2851.162, 1575964.
2853.090, 1577155.
2855.019, 1577217.
2856.947, 1577120.
2858.875, 1576426.
2860.804, 1577059.
2862.732, 1580996.
2864.661, 1584117.
2866.589, 1584320.
2868.518, 1584476.
2870.446, 1585443.
2872.375, 1585487.
2874.303, 1583750.
2876.232, 1581952.
2878.160, 1580253.
2880.089, 1579774.
2882.017, 1579445.
2883.946, 1579708.
2885.874, 1580997.
2887.802, 1581644.
2889.731, 1584362.
2891.659, 1586124.
2893.588, 1586695.
2895.516, 1587825.
2897.445, 1589412.
2899.373, 1590490.
2901.302, 1591164.
2903.230, 1591853.
2905.159, 1592672.
2907.087, 1593406.
2909.016, 1594287.
2910.944, 1595808.
2912.873, 1597639.
2914.801, 1599259.
2916.729, 1600503.
2918.658, 1601375.
2920.586, 1601598.
2922.515, 1600678.
2924.443, 1599545.
2926.372, 1598953.
2928.300, 1599086.
2930.229, 1600681.
2932.157, 1602481.
2934.086, 1603647.
2936.014, 1605002.
2937.943, 1606701.
2939.871, 1608722.
2941.800, 1611282.
2943.728, 1612939.
2945.656, 1612834.
2947.585, 1613003.
2949.513, 1614476.
2951.442, 1615263.
2953.370, 1615186.
2955.299, 1615796.
2957.227, 1617379.
2959.156, 1618475.
2961.084, 1618892.
2963.013, 1619794.
2964.941, 1621039.
2966.870, 1621772.
2968.798, 1622032.
2970.727, 1622347.
2972.655, 1622602.
2974.583, 1622474.
2976.512, 1622718.
2978.440, 1622478.
2980.369, 1622881.
2982.297, 1622788.
2984.226, 1622851.
2986.154, 1623694.
2988.083, 1624732.
2990.011, 1625199.
2991.940, 1626061.
2993.868, 1628167.
2995.797, 1630000.
2997.725, 1631001.
2999.654, 1631719.
3001.582, 1632336.
3003.510, 1632728.
3005.439, 1632961.
3007.367, 1632905.
3009.296, 1632225.
3011.224, 1632589.
3013.153, 1633931.
3015.081, 1636486.
3017.010, 1639758.
3018.938, 1640888.
3020.867, 1640153.
3022.795, 1638766.
3024.724, 1637088.
3026.652, 1635887.
3028.581, 1635332.
3030.509, 1635846.
3032.438, 1637017.
3034.366, 1638629.
3036.294, 1640206.
3038.223, 1640805.
3040.151, 1641884.
3042.080, 1644555.
3044.008, 1646646.
3045.937, 1647316.
3047.865, 1647889.
3049.794, 1648781.
3051.722, 1649131.
3053.651, 1648721.
3055.579, 1648470.
3057.508, 1648505.
3059.436, 1649285.
3061.365, 1649611.
3063.293, 1651230.
3065.221, 1651216.
3067.150, 1652064.
3069.078, 1653168.
3071.007, 1653187.
3072.935, 1652960.
3074.864, 1653844.
3076.792, 1654469.
3078.721, 1653438.
3080.649, 1652493.
3082.578, 1652609.
3084.506, 1653155.
3086.435, 1654285.
3088.363, 1655347.
3090.292, 1656109.
3092.220, 1657520.
3094.148, 1657878.
3096.077, 1658453.
3098.005, 1658935.
3099.934, 1658840.
3101.862, 1659670.
3103.791, 1659465.
3105.719, 1658746.
3107.648, 1658689.
3109.576, 1658840.
3111.505, 1658407.
3113.433, 1657838.
3115.362, 1657253.
3117.290, 1656848.
3119.219, 1657238.
3121.147, 1656939.
3123.075, 1655375.
3125.004, 1654042.
3126.932, 1653327.
3128.861, 1653080.
3130.789, 1653237.
3132.718, 1653626.
3134.646, 1654008.
3136.575, 1653084.
3138.503, 1652719.
3140.432, 1650775.
3142.360, 1650676.
3144.289, 1649306.
3146.217, 1647920.
3148.146, 1647930.
3150.074, 1648085.
3152.002, 1647231.
3153.931, 1646444.
3155.859, 1645880.
3157.788, 1645510.
3159.716, 1645458.
3161.645, 1645175.
3163.573, 1644724.
3165.502, 1643330.
3167.430, 1641180.
3169.359, 1640203.
3171.287, 1640219.
3173.216, 1640431.
3175.144, 1640912.
3177.073, 1642036.
3179.001, 1642967.
3180.929, 1642169.
3182.858, 1641689.
3184.786, 1643020.
3186.715, 1643543.
3188.643, 1641394.
3190.572, 1640481.
3192.500, 1641564.
3194.429, 1641004.
3196.357, 1638563.
3198.286, 1637191.
3200.214, 1636808.
3202.143, 1636495.
3204.071, 1636611.
3206.000, 1638316.
3207.928, 1640036.
3209.856, 1639333.
3211.785, 1639081.
3213.713, 1641331.
3215.642, 1643146.
3217.570, 1642822.
3219.499, 1642840.
3221.427, 1643426.
3223.356, 1643518.
3225.284, 1643054.
3227.213, 1642471.
3229.141, 1641866.
3231.070, 1641324.
3232.998, 1640792.
3234.927, 1639642.
3236.855, 1639012.
3238.783, 1640228.
3240.712, 1641696.
3242.640, 1642470.
3244.569, 1643333.
3246.497, 1644313.
3248.426, 1645363.
3250.354, 1646480.
3252.283, 1646720.
3254.211, 1647117.
3256.140, 1646473.
3258.068, 1646991.
3259.997, 1646628.
3261.925, 1646245.
3263.854, 1646432.
3265.782, 1647010.
3267.710, 1647912.
3269.639, 1648378.
3271.567, 1648157.
3273.496, 1646975.
3275.424, 1646603.
3277.353, 1643658.
3279.281, 1644034.
3281.210, 1642122.
3283.138, 1639434.
3285.067, 1640137.
3286.995, 1641861.
3288.924, 1641570.
3290.852, 1641182.
3292.781, 1642515.
3294.709, 1642375.
3296.637, 1639412.
3298.566, 1637795.
3300.494, 1638802.
3302.423, 1638902.
3304.351, 1638279.
3306.280, 1637666.
3308.208, 1637159.
3310.137, 1636848.
3312.065, 1636551.
3313.994, 1635918.
3315.922, 1635355.
3317.851, 1634932.
3319.779, 1634901.
3321.708, 1635629.
3323.636, 1635472.
3325.564, 1634332.
3327.493, 1632747.
3329.421, 1630857.
3331.350, 1629020.
3333.278, 1627314.
3335.207, 1625782.
3337.135, 1624585.
3339.064, 1623723.
3340.992, 1623712.
3342.921, 1625094.
3344.849, 1625992.
3346.778, 1625816.
3348.706, 1626389.
3350.635, 1627451.
3352.563, 1627812.
3354.491, 1627652.
3356.420, 1627186.
3358.348, 1626589.
3360.277, 1625994.
3362.205, 1625340.
3364.134, 1624495.
3366.062, 1623961.
3367.991, 1623898.
3369.919, 1623451.
3371.848, 1622640.
3373.776, 1621294.
3375.705, 1619849.
3377.633, 1618873.
3379.562, 1618718.
3381.490, 1620513.
3383.418, 1621763.
3385.347, 1621178.
3387.275, 1620645.
3389.204, 1620237.
3391.132, 1620688.
3393.061, 1621809.
3394.989, 1622935.
3396.918, 1623655.
3398.846, 1622858.
3400.775, 1621690.
3402.703, 1620564.
3404.632, 1620250.
3406.560, 1621573.
3408.489, 1622313.
3410.417, 1622234.
3412.345, 1621898.
3414.274, 1621494.
3416.202, 1621668.
3418.131, 1622154.
3420.059, 1622223.
3421.988, 1622775.
3423.916, 1624711.
3425.845, 1626357.
3427.773, 1627117.
3429.702, 1627052.
3431.630, 1625955.
3433.559, 1625747.
3435.487, 1625978.
3437.416, 1625796.
3439.344, 1625198.
3441.272, 1623943.
3443.201, 1622881.
3445.129, 1622335.
3447.058, 1622154.
3448.986, 1622085.
3450.915, 1622953.
3452.843, 1624417.
3454.772, 1625176.
3456.700, 1625531.
3458.629, 1626085.
3460.557, 1626657.
3462.486, 1627278.
3464.414, 1627845.
3466.343, 1628332.
3468.271, 1628795.
3470.199, 1629160.
3472.128, 1630084.
3474.056, 1630711.
3475.985, 1628218.
3477.913, 1625551.
3479.842, 1626061.
3481.770, 1625620.
3483.699, 1622500.
3485.627, 1621687.
3487.556, 1624098.
3489.484, 1626861.
3491.413, 1629865.
3493.341, 1632562.
3495.270, 1635559.
3497.198, 1639753.
3499.126, 1644178.
3501.055, 1648395.
3502.983, 1653850.
3504.912, 1660036.
3506.840, 1666604.
3508.769, 1674309.
3510.697, 1682263.
3512.626, 1690828.
3514.554, 1700626.
3516.483, 1707431.
3518.411, 1708613.
3520.340, 1707428.
3522.268, 1704339.
3524.197, 1699242.
3526.125, 1692468.
3528.053, 1683484.
3529.982, 1674683.
3531.910, 1668768.
3533.839, 1662988.
3535.767, 1655443.
3537.696, 1649545.
3539.624, 1645581.
3541.553, 1641352.
3543.481, 1637238.
3545.410, 1634926.
3547.338, 1632871.
3549.267, 1629233.
3551.195, 1625863.
3553.124, 1623241.
3555.052, 1620529.
3556.980, 1617600.
3558.909, 1613795.
3560.837, 1609282.
3562.766, 1604042.
3564.694, 1598947.
3566.623, 1594558.
3568.551, 1590742.
3570.480, 1587379.
3572.408, 1584221.
3574.337, 1581130.
3576.265, 1578458.
3578.194, 1575830.
3580.122, 1572447.
3582.051, 1569758.
3583.979, 1568951.
3585.907, 1567484.
3587.836, 1564512.
3589.764, 1562084.
3591.693, 1560237.
3593.621, 1559595.
3595.550, 1559162.
3597.478, 1558104.
3599.407, 1556835.
3601.335, 1555422.
3603.264, 1554312.
3605.192, 1553493.
3607.121, 1553558.
3609.049, 1553930.
3610.978, 1554111.
3612.906, 1553603.
3614.834, 1552100.
3616.763, 1550879.
3618.691, 1550371.
3620.620, 1551365.
3622.548, 1553394.
3624.477, 1554220.
3626.405, 1555025.
3628.334, 1557030.
3630.262, 1558735.
3632.191, 1559310.
3634.119, 1560940.
3636.048, 1563564.
3637.976, 1564666.
3639.905, 1565055.
3641.833, 1565223.
3643.761, 1565903.
3645.690, 1567336.
3647.618, 1568851.
3649.547, 1570252.
3651.475, 1570651.
3653.404, 1571865.
3655.332, 1571966.
3657.261, 1573228.
3659.189, 1573486.
3661.118, 1573691.
3663.046, 1573947.
3664.975, 1574593.
3666.903, 1575671.
3668.832, 1577745.
3670.760, 1579831.
3672.688, 1580829.
3674.617, 1582069.
3676.545, 1583903.
3678.474, 1585928.
3680.402, 1587798.
3682.331, 1587770.
3684.259, 1587366.
3686.188, 1588258.
3688.116, 1589585.
3690.045, 1591558.
3691.973, 1591810.
3693.902, 1590483.
3695.830, 1589668.
3697.759, 1589287.
3699.687, 1589499.
3701.615, 1589517.
3703.544, 1588747.
3705.472, 1588480.
3707.401, 1588695.
3709.329, 1588523.
3711.258, 1588026.
3713.186, 1587185.
3715.115, 1586358.
3717.043, 1585432.
3718.972, 1585326.
3720.900, 1585918.
3722.829, 1586195.
3724.757, 1585688.
3726.686, 1583018.
3728.614, 1580532.
3730.542, 1579797.
3732.471, 1578625.
3734.399, 1577062.
3736.328, 1576912.
3738.256, 1575672.
3740.185, 1575750.
3742.113, 1574351.
3744.042, 1573657.
3745.970, 1573626.
3747.899, 1574041.
3749.827, 1571911.
3751.756, 1569161.
3753.684, 1568051.
3755.613, 1568151.
3757.541, 1570046.
3759.469, 1570266.
3761.398, 1568913.
3763.326, 1568609.
3765.255, 1568029.
3767.183, 1565181.
3769.112, 1562604.
3771.040, 1561664.
3772.969, 1560572.
3774.897, 1559299.
3776.826, 1557772.
3778.754, 1556052.
3780.683, 1554119.
3782.611, 1552254.
3784.540, 1550654.
3786.468, 1549263.
3788.396, 1547874.
3790.325, 1545213.
3792.253, 1543085.
3794.182, 1542758.
3796.110, 1543048.
3798.039, 1543745.
3799.967, 1543585.
3801.896, 1542515.
3803.824, 1540002.
3805.753, 1537943.
3807.681, 1537578.
3809.610, 1536663.
3811.538, 1535012.
3813.467, 1531875.
3815.395, 1529295.
3817.323, 1530772.
3819.252, 1532092.
3821.180, 1531857.
3823.109, 1530831.
3825.037, 1529379.
3826.966, 1529206.
3828.894, 1529645.
3830.823, 1528857.
3832.751, 1528922.
3834.680, 1528582.
3836.608, 1528006.
3838.537, 1528156.
3840.465, 1526764.
3842.394, 1525001.
3844.322, 1523211.
3846.250, 1522577.
3848.179, 1521238.
3850.107, 1521516.
3852.036, 1519856.
3853.964, 1519832.
3855.893, 1519946.
3857.821, 1519675.
3859.750, 1520669.
3861.678, 1520466.
3863.607, 1521454.
3865.535, 1520473.
3867.464, 1520744.
3869.392, 1520143.
3871.321, 1520371.
3873.249, 1521092.
3875.177, 1521498.
3877.106, 1523203.
3879.034, 1524936.
3880.963, 1526705.
3882.891, 1529337.
3884.820, 1529834.
3886.748, 1531710.
3888.677, 1530915.
3890.605, 1530771.
3892.534, 1530699.
3894.462, 1530662.
3896.391, 1531192.
3898.319, 1532381.
3900.248, 1534297.
3902.176, 1536552.
3904.104, 1538994.
3906.033, 1541601.
3907.961, 1543872.
3909.890, 1546230.
3911.818, 1548036.
3913.747, 1548051.
3915.675, 1548444.
3917.604, 1549748.
3919.532, 1550338.
3921.461, 1550993.
3923.389, 1552050.
3925.318, 1553699.
3927.246, 1554945.
3929.175, 1557971.
3931.103, 1558523.
3933.031, 1561409.
3934.960, 1564016.
3936.888, 1564865.
3938.817, 1566127.
3940.745, 1567581.
3942.674, 1568917.
3944.602, 1569583.
3946.531, 1569040.
3948.459, 1568649.
3950.388, 1569040.
3952.316, 1571497.
3954.245, 1574185.
3956.173, 1575623.
3958.102, 1576385.
3960.030, 1576729.
3961.958, 1575859.
3963.887, 1574670.
3965.815, 1574083.
3967.744, 1574380.
3969.672, 1573530.
3971.601, 1573025.
3973.529, 1572809.
3975.458, 1571825.
3977.386, 1571387.
3979.315, 1571397.
3981.243, 1571400.
3983.172, 1571764.
3985.100, 1573812.
3987.029, 1575359.
3988.957, 1574544.
3990.885, 1574109.
3992.814, 1573959.
3994.742, 1574019.
3996.671, 1573964.
3998.599, 1572973.
4000.528, 1573548.
4002.456, 1575705.
4004.385, 1575925.
4006.313, 1575221.
4008.242, 1573980.
4010.170, 1573290.
4012.099, 1573396.
4014.027, 1573272.
4015.956, 1573287.
4017.884, 1573622.
4019.813, 1573335.
4021.741, 1572638.
4023.669, 1572995.
4025.598, 1573972.
4027.526, 1574835.
4029.455, 1576424.
4031.383, 1578863.
4033.312, 1580494.
4035.240, 1581929.
4037.169, 1584037.
4039.097, 1585287.
4041.026, 1586416.
4042.954, 1586648.
4044.883, 1587983.
4046.811, 1587984.
4048.740, 1588136.
4050.668, 1588863.
4052.596, 1588393.
4054.525, 1587239.
4056.453, 1587207.
4058.382, 1587691.
4060.310, 1588210.
4062.239, 1588716.
4064.167, 1589228.
4066.096, 1589871.
4068.024, 1590282.
4069.953, 1590883.
4071.881, 1591455.
4073.810, 1591895.
4075.738, 1592223.
4077.667, 1591514.
4079.595, 1591497.
4081.523, 1591376.
4083.452, 1590491.
4085.380, 1590734.
4087.309, 1590196.
4089.237, 1589050.
4091.166, 1588582.
4093.094, 1588735.
4095.023, 1588829.
4096.951, 1588717.
4098.880, 1588400.
4100.808, 1587120.
4102.737, 1587435.
4104.665, 1587051.
4106.594, 1586495.
4108.522, 1586984.
4110.451, 1587456.
4112.379, 1587665.
4114.308, 1587765.
4116.236, 1587996.
4118.165, 1588580.
4120.093, 1588319.
4122.021, 1587030.
4123.950, 1588056.
4125.878, 1588671.
4127.807, 1586214.
4129.735, 1585179.
4131.664, 1585436.
4133.592, 1586064.
4135.521, 1586965.
4137.449, 1587367.
4139.377, 1587621.
4141.306, 1587950.
4143.234, 1587461.
4145.163, 1586628.
4147.091, 1586622.
4149.020, 1586222.
4150.948, 1586355.
4152.877, 1586474.
4154.805, 1586876.
4156.734, 1586998.
4158.662, 1587154.
4160.591, 1587455.
4162.519, 1587553.
4164.448, 1587384.
4166.376, 1587625.
4168.305, 1587473.
4170.233, 1587611.
4172.162, 1587423.
4174.090, 1586959.
4176.019, 1587170.
4177.947, 1587395.
4179.875, 1587608.
4181.804, 1587217.
4183.732, 1586365.
4185.661, 1585389.
4187.589, 1584795.
4189.518, 1584684.
4191.446, 1583271.
4193.375, 1582147.
4195.303, 1583360.
4197.231, 1583857.
4199.160, 1582942.
4201.088, 1580576.
4203.017, 1578335.
4204.945, 1577479.
4206.874, 1577674.
4208.802, 1578120.
4210.731, 1576178.
4212.659, 1574639.
4214.588, 1575762.
4216.516, 1575393.
4218.445, 1573686.
4220.373, 1571854.
4222.302, 1570173.
4224.230, 1569116.
4226.159, 1566848.
4228.087, 1566474.
4230.016, 1564920.
4231.944, 1565406.
4233.873, 1565183.
4235.801, 1564649.
4237.729, 1563655.
4239.658, 1562844.
4241.586, 1561759.
4243.515, 1560406.
4245.443, 1559313.
4247.372, 1557666.
4249.300, 1556222.
4251.229, 1554952.
4253.157, 1553762.
4255.085, 1553003.
4257.014, 1552162.
4258.942, 1550810.
4260.871, 1549663.
4262.799, 1548761.
4264.728, 1548198.
4266.656, 1548081.
4268.585, 1547814.
4270.513, 1548543.
4272.442, 1549032.
4274.370, 1549465.
4276.299, 1549948.
4278.227, 1550448.
4280.156, 1548380.
4282.084, 1545368.
4284.013, 1543858.
4285.941, 1542328.
4287.870, 1540664.
4289.798, 1539518.
4291.727, 1538392.
4293.655, 1536697.
4295.583, 1535591.
4297.512, 1535028.
4299.440, 1534042.
4301.369, 1533791.
4303.297, 1535090.
4305.226, 1535463.
4307.154, 1535131.
4309.083, 1534466.
4311.011, 1534270.
4312.939, 1534818.
4314.868, 1536772.
4316.796, 1538935.
4318.725, 1539994.
4320.653, 1540827.
4322.582, 1541528.
4324.510, 1542122.
4326.439, 1542161.
4328.367, 1540950.
4330.296, 1539808.
4332.224, 1539191.
4334.153, 1540676.
4336.081, 1541788.
4338.010, 1541777.
4339.938, 1541732.
4341.867, 1542399.
4343.795, 1545284.
4345.724, 1546638.
4347.652, 1546317.
4349.581, 1546200.
4351.509, 1545802.
4353.438, 1544808.
4355.366, 1544438.
4357.294, 1544484.
4359.223, 1544177.
4361.151, 1544947.
4363.080, 1544158.
4365.008, 1545346.
4366.937, 1543023.
4368.865, 1542128.
4370.793, 1541536.
4372.722, 1541112.
4374.650, 1540487.
4376.579, 1539920.
4378.507, 1539295.
4380.436, 1536915.
4382.364, 1534713.
4384.293, 1536019.
4386.221, 1535413.
4388.150, 1532646.
4390.078, 1529335.
4392.007, 1526358.
4393.935, 1524456.
4395.864, 1521278.
4397.792, 1517969.
4399.721, 1516524.
4401.649, 1515446.
4403.578, 1514507.
4405.506, 1514195.
4407.435, 1514175.
4409.363, 1514245.
4411.292, 1513615.
4413.220, 1512297.
4415.148, 1510260.
4417.077, 1508738.
4419.005, 1508037.
4420.934, 1505001.
4422.862, 1501970.
4424.791, 1500644.
4426.719, 1498641.
4428.647, 1496422.
4430.576, 1495769.
4432.504, 1494539.
4434.433, 1492308.
4436.361, 1490078.
4438.290, 1488297.
4440.218, 1487506.
4442.147, 1486908.
4444.075, 1486626.
4446.004, 1487139.
4447.932, 1487127.
4449.861, 1486139.
4451.789, 1484921.
4453.718, 1484125.
4455.646, 1484696.
4457.575, 1483989.
4459.503, 1482395.
4461.432, 1480506.
4463.360, 1479838.
4465.289, 1478649.
4467.217, 1478580.
4469.146, 1477255.
4471.074, 1478299.
4473.002, 1477967.
4474.931, 1477083.
4476.859, 1477793.
4478.788, 1477024.
4480.716, 1474899.
4482.645, 1476281.
4484.573, 1476561.
4486.501, 1472563.
4488.430, 1470428.
4490.358, 1468943.
4492.287, 1466475.
4494.215, 1464559.
4496.144, 1463116.
4498.072, 1461032.
4500.001, 1458975.
4501.929, 1457221.
4503.858, 1455809.
4505.786, 1454713.
4507.715, 1454011.
4509.643, 1452350.
4511.572, 1450492.
4513.500, 1450573.
4515.429, 1450022.
4517.357, 1448424.
4519.286, 1447786.
4521.214, 1447463.
4523.143, 1447242.
4525.071, 1445663.
4527.000, 1443680.
4528.928, 1442389.
4530.856, 1441607.
4532.785, 1441008.
4534.713, 1439846.
4536.642, 1438107.
4538.570, 1435829.
4540.499, 1433944.
4542.427, 1432190.
4544.355, 1430258.
4546.284, 1428976.
4548.212, 1427961.
4550.141, 1426331.
4552.069, 1426104.
4553.998, 1426628.
4555.926, 1423325.
4557.855, 1421134.
4559.783, 1421499.
4561.712, 1421559.
4563.640, 1420326.
4565.569, 1416116.
4567.497, 1413937.
4569.426, 1413035.
4571.354, 1412068.
4573.283, 1411913.
4575.211, 1412186.
4577.140, 1410442.
4579.068, 1408724.
4580.997, 1407574.
4582.925, 1407606.
4584.854, 1406835.
4586.782, 1403810.
4588.710, 1400787.
4590.639, 1398063.
4592.567, 1395547.
4594.496, 1394670.
4596.424, 1394912.
4598.353, 1394336.
4600.281, 1393881.
4602.209, 1393540.
4604.138, 1392920.
4606.066, 1391218.
4607.995, 1388063.
4609.923, 1384265.
4611.852, 1381191.
4613.780, 1380636.
4615.709, 1378753.
4617.637, 1376608.
4619.566, 1376740.
4621.494, 1376826.
4623.423, 1376006.
4625.351, 1372307.
4627.280, 1369337.
4629.208, 1368205.
4631.137, 1366371.
4633.065, 1364234.
4634.994, 1362073.
4636.922, 1359904.
4638.851, 1357640.
4640.779, 1355077.
4642.708, 1352966.
4644.636, 1351365.
4646.564, 1350323.
4648.493, 1349339.
4650.421, 1348322.
4652.350, 1346988.
4654.278, 1346550.
4656.207, 1344971.
4658.135, 1344588.
4660.063, 1342157.
4661.992, 1340930.
4663.920, 1339432.
4665.849, 1337715.
4667.777, 1335931.
4669.706, 1333531.
4671.634, 1331047.
4673.563, 1329074.
4675.491, 1328505.
4677.420, 1328452.
4679.348, 1326297.
4681.277, 1325071.
4683.205, 1325170.
4685.134, 1326379.
4687.062, 1326900.
4688.991, 1326231.
4690.919, 1326328.
4692.848, 1325775.
4694.776, 1324128.
4696.705, 1322910.
4698.633, 1321615.
4700.562, 1319602.
4702.490, 1318157.
4704.418, 1316986.
4706.347, 1315562.
4708.275, 1315715.
4710.204, 1316439.
4712.132, 1315578.
4714.061, 1315482.
4715.989, 1315745.
4717.917, 1314328.
4719.846, 1312592.
4721.774, 1311108.
4723.703, 1311087.
4725.631, 1311626.
4727.560, 1312250.
4729.488, 1311315.
4731.417, 1310948.
4733.345, 1312213.
4735.274, 1312587.
4737.202, 1312728.
4739.131, 1313057.
4741.059, 1312263.
4742.988, 1311270.
4744.916, 1310960.
4746.845, 1310282.
4748.773, 1309464.
4750.702, 1308820.
4752.630, 1309495.
4754.559, 1310359.
4756.487, 1308984.
4758.416, 1308591.
4760.344, 1309133.
4762.272, 1310224.
4764.201, 1309752.
4766.129, 1307846.
4768.058, 1305606.
4769.986, 1303662.
4771.915, 1302003.
4773.843, 1300416.
4775.771, 1299146.
4777.700, 1297849.
4779.628, 1297006.
4781.557, 1295991.
4783.485, 1295051.
4785.414, 1293797.
4787.342, 1292114.
4789.271, 1290378.
4791.199, 1288059.
4793.128, 1285985.
4795.056, 1283392.
4796.985, 1280561.
4798.913, 1277605.
4800.842, 1274568.
4802.770, 1272501.
4804.699, 1270639.
4806.627, 1268232.
4808.556, 1267025.
4810.484, 1265914.
4812.413, 1263519.
4814.341, 1262466.
4816.270, 1260692.
4818.198, 1255497.
4820.126, 1252435.
4822.055, 1250282.
4823.983, 1246794.
4825.912, 1242737.
4827.840, 1238988.
4829.769, 1236551.
4831.697, 1235919.
4833.625, 1235719.
4835.554, 1233773.
4837.482, 1230323.
4839.411, 1226417.
4841.339, 1224308.
4843.268, 1221191.
4845.196, 1217366.
4847.125, 1213936.
4849.053, 1211381.
4850.982, 1209528.
4852.910, 1207751.
4854.839, 1206364.
4856.767, 1205120.
4858.696, 1203570.
4860.624, 1201510.
4862.553, 1199033.
4864.481, 1196351.
4866.410, 1194320.
4868.338, 1192397.
4870.267, 1188359.
4872.195, 1185501.
4874.124, 1183862.
4876.052, 1182020.
4877.980, 1180562.
4879.909, 1179203.
4881.837, 1177053.
4883.766, 1174417.
4885.694, 1171611.
4887.623, 1169129.
4889.551, 1167907.
4891.479, 1164924.
4893.408, 1163174.
4895.336, 1160086.
4897.265, 1157902.
4899.193, 1155735.
4901.122, 1154233.
4903.050, 1152842.
4904.979, 1149872.
4906.907, 1146947.
4908.836, 1144512.
4910.764, 1143404.
4912.693, 1140758.
4914.621, 1137741.
4916.550, 1137496.
4918.478, 1135823.
4920.407, 1133514.
4922.335, 1132894.
4924.264, 1132329.
4926.192, 1131420.
4928.121, 1129907.
4930.049, 1128939.
4931.978, 1127880.
4933.906, 1125111.
4935.834, 1123706.
4937.763, 1123343.
4939.691, 1123592.
4941.620, 1122580.
4943.548, 1121410.
4945.477, 1121477.
4947.405, 1121142.
4949.333, 1120332.
4951.262, 1119110.
4953.190, 1117435.
4955.119, 1115905.
4957.047, 1114937.
4958.976, 1114141.
4960.904, 1113919.
4962.833, 1113692.
4964.761, 1114179.
4966.690, 1114983.
4968.618, 1115194.
4970.547, 1115328.
4972.475, 1115340.
4974.404, 1115311.
4976.332, 1116048.
4978.261, 1115608.
4980.189, 1113901.
4982.118, 1113316.
4984.046, 1113885.
4985.975, 1115025.
4987.903, 1114642.
4989.832, 1114808.
4991.760, 1115395.
4993.688, 1115097.
4995.617, 1114708.
4997.545, 1114168.
4999.474, 1113107.
5001.402, 1112500.
5003.331, 1111270.
5005.259, 1110686.
5007.188, 1110696.
5009.116, 1110752.
5011.044, 1110376.
5012.973, 1109317.
5014.901, 1108831.
5016.830, 1109962.
5018.758, 1110742.
5020.687, 1110548.
5022.615, 1109219.
5024.544, 1108705.
5026.472, 1108222.
5028.401, 1107364.
5030.329, 1105620.
5032.258, 1103285.
5034.186, 1100892.
5036.115, 1099827.
5038.043, 1099375.
5039.972, 1098957.
5041.900, 1097570.
5043.829, 1096627.
5045.757, 1095635.
5047.686, 1093539.
5049.614, 1092279.
5051.542, 1090517.
5053.471, 1086676.
5055.399, 1082639.
5057.328, 1079645.
5059.256, 1078424.
5061.185, 1076185.
5063.113, 1074402.
5065.042, 1073503.
5066.970, 1072317.
5068.898, 1070627.
5070.827, 1068561.
5072.755, 1066873.
5074.684, 1064540.
5076.612, 1062407.
5078.541, 1060753.
5080.469, 1058417.
5082.398, 1057562.
5084.326, 1054633.
5086.255, 1053417.
5088.183, 1052566.
5090.112, 1051150.
5092.040, 1049306.
5093.969, 1047334.
5095.897, 1045476.
5097.826, 1044139.
5099.754, 1042901.
5101.683, 1041906.
5103.611, 1041065.
5105.540, 1039747.
5107.468, 1038660.
5109.396, 1037335.
5111.325, 1035940.
5113.253, 1034779.
5115.182, 1032927.
5117.110, 1030862.
5119.039, 1029344.
5120.967, 1028503.
5122.896, 1025635.
5124.824, 1022546.
5126.752, 1020226.
5128.681, 1020044.
5130.609, 1020161.
5132.538, 1020265.
5134.466, 1020473.
5136.395, 1020026.
5138.323, 1019217.
5140.252, 1018481.
5142.180, 1017842.
5144.109, 1017436.
5146.037, 1017353.
5147.966, 1015611.
5149.894, 1014215.
5151.823, 1013733.
5153.751, 1014320.
5155.680, 1014899.
5157.608, 1015007.
5159.537, 1014409.
5161.465, 1012017.
5163.394, 1009954.
5165.322, 1009760.
5167.250, 1007393.
5169.179, 1005368.
5171.107, 1004658.
5173.036, 1003975.
5174.964, 1003105.
5176.893, 1002134.
5178.821, 1001247.
5180.750, 1000906.
5182.678, 1000170.
5184.606, 998026.9
5186.535, 997042.5
5188.463, 996658.9
5190.392, 996374.7
5192.320, 994707.9
5194.249, 993460.4
5196.177, 992726.7
5198.106, 991843.4
5200.034, 989880.1
5201.963, 987519.7
5203.891, 985564.2
5205.820, 983954.2
5207.748, 982859.6
5209.677, 982223.6
5211.605, 981072.3
5213.534, 979540.4
5215.462, 977813.3
5217.391, 976025.3
5219.319, 975592.1
5221.248, 975247.1
5223.176, 973385.5
5225.104, 972746.0
5227.033, 972147.1
5228.961, 971049.8
5230.890, 969608.7
5232.818, 968406.7
5234.747, 965981.8
5236.675, 965235.6
5238.604, 963141.8
5240.532, 961175.1
5242.460, 960556.4
5244.389, 959945.6
5246.317, 958915.9
5248.246, 957982.7
5250.174, 956720.9
5252.103, 955536.9
5254.031, 954046.3
5255.960, 952376.4
5257.888, 951162.9
5259.817, 949729.1
5261.745, 948472.0
5263.674, 947424.5
5265.602, 946125.0
5267.531, 945472.6
5269.459, 944422.7
5271.388, 943573.7
5273.316, 942977.6
5275.245, 941597.8
5277.173, 941067.3
5279.102, 938858.0
5281.030, 936638.9
5282.958, 934831.5
5284.887, 933663.6
5286.815, 932432.4
5288.744, 930284.8
5290.672, 928165.2
5292.601, 926199.7
5294.529, 924513.9
5296.458, 922881.2
5298.386, 921433.7
5300.314, 920390.3
5302.243, 918921.7
5304.171, 918486.5
5306.100, 917509.3
5308.028, 915256.2
5309.957, 912482.7
5311.885, 910904.8
5313.814, 908672.1
5315.742, 907152.4
5317.671, 904929.3
5319.599, 902976.3
5321.528, 901199.6
5323.456, 899357.6
5325.385, 897813.1
5327.313, 896052.2
5329.242, 894958.4
5331.170, 893438.7
5333.099, 892235.0
5335.027, 891633.2
5336.956, 890077.9
5338.884, 887906.1
5340.813, 885591.1
5342.741, 883617.4
5344.669, 882529.1
5346.598, 881699.9
5348.526, 880753.7
5350.455, 880149.4
5352.383, 879794.4
5354.312, 879069.1
5356.240, 877781.9
5358.168, 876245.5
5360.097, 874702.4
5362.025, 873163.6
5363.954, 871269.1
5365.882, 870216.3
5367.811, 868335.0
5369.739, 866831.4
5371.668, 864656.9
5373.596, 863245.7
5375.525, 862759.0
5377.453, 860623.9
5379.382, 860274.8
5381.310, 860706.8
5383.239, 860318.7
5385.167, 858976.4
5387.096, 857976.6
5389.024, 857559.4
5390.953, 857333.8
5392.881, 855610.4
5394.810, 854231.6
5396.738, 854576.0
5398.667, 853303.9
5400.595, 852681.0
5402.523, 852434.1
5404.452, 850773.9
5406.380, 849668.3
5408.309, 849171.7
5410.237, 849034.9
5412.166, 848119.4
5414.094, 847963.3
5416.022, 847901.9
5417.951, 846807.1
5419.879, 846256.8
5421.808, 846048.6
5423.736, 845705.3
5425.665, 844837.7
5427.593, 843364.8
5429.522, 842805.4
5431.450, 841622.0
5433.379, 840025.3
5435.307, 838949.4
5437.236, 838629.9
5439.164, 839373.6
5441.093, 838898.7
5443.021, 837662.5
5444.950, 836227.1
5446.878, 835773.4
5448.807, 834697.2
5450.735, 834168.0
5452.664, 833428.2
5454.592, 833747.7
5456.521, 832244.6
5458.449, 831074.1
5460.377, 830914.8
5462.306, 829498.7
5464.234, 828164.8
5466.163, 827657.1
5468.091, 826865.6
5470.020, 826079.4
5471.948, 825413.5
5473.876, 824839.2
5475.805, 823988.8
5477.733, 823482.6
5479.662, 822917.6
5481.590, 821771.3
5483.519, 820476.6
5485.447, 819170.1
5487.376, 818160.0
5489.304, 818394.7
5491.233, 816894.9
5493.161, 815034.1
5495.090, 813546.3
5497.018, 811513.5
5498.947, 809565.3
5500.875, 806992.9
5502.804, 803367.3
5504.732, 803469.7
5506.661, 803041.9
5508.589, 801261.0
5510.518, 798343.3
5512.446, 797375.1
5514.375, 796140.8
5516.303, 794254.2
5518.231, 792628.8
5520.160, 790665.7
5522.088, 788738.7
5524.017, 787016.9
5525.945, 785491.4
5527.874, 783269.1
5529.802, 781443.1
5531.730, 780781.3
5533.659, 779090.4
5535.587, 778452.1
5537.516, 777711.1
5539.444, 775316.5
5541.373, 774837.6
5543.301, 773545.7
5545.230, 771308.3
5547.158, 769031.9
5549.087, 766882.3
5551.015, 766331.6
5552.944, 766509.4
5554.872, 763794.8
5556.801, 762378.0
5558.729, 760494.5
5560.658, 757788.8
5562.586, 756294.6
5564.515, 754714.7
5566.443, 753869.1
5568.372, 752263.4
5570.300, 751497.7
5572.229, 749434.4
5574.157, 747679.8
5576.085, 746021.8
5578.014, 743897.1
5579.942, 743118.5
5581.871, 741931.1
5583.799, 740399.8
5585.728, 738121.4
5587.656, 737340.6
5589.584, 735346.8
5591.513, 732902.4
5593.441, 732384.5
5595.370, 731037.8
5597.298, 728922.9
5599.227, 727120.0
5601.155, 724459.3
5603.084, 723225.9
5605.012, 721320.2
5606.941, 719998.3
5608.869, 718147.1
5610.798, 716677.7
5612.726, 715018.2
5614.655, 712384.2
5616.583, 711365.3
5618.512, 709569.4
5620.440, 706970.6
5622.369, 705449.6
5624.297, 705557.3
5626.226, 704418.3
5628.154, 701845.4
5630.083, 700799.6
5632.011, 698180.3
5633.939, 696068.4
5635.868, 695016.5
5637.796, 693880.4
5639.725, 691418.3
5641.653, 689797.1
5643.582, 689146.0
5645.510, 687323.8
5647.438, 685701.4
5649.367, 684702.9
5651.295, 684011.8
5653.224, 682602.0
5655.152, 680915.6
5657.081, 679560.7
5659.009, 678483.6
5660.938, 676622.9
5662.866, 675684.9
5664.795, 675112.8
5666.723, 674472.1
5668.652, 673381.1
5670.580, 672476.2
5672.509, 671815.8
5674.437, 669916.9
5676.366, 668341.5
5678.294, 666373.1
5680.223, 665617.3
5682.151, 664047.2
5684.080, 664223.3
5686.008, 662239.7
5687.937, 661841.1
5689.865, 662280.0
5691.793, 661163.6
5693.722, 660111.7
5695.650, 658782.1
5697.579, 657761.6
5699.507, 656935.4
5701.436, 656075.4
5703.364, 655649.5
5705.292, 654604.4
5707.221, 654352.3
5709.149, 653348.3
5711.078, 651648.1
5713.006, 649865.7
5714.935, 648552.9
5716.863, 647734.6
5718.792, 646860.4
5720.720, 646272.6
5722.649, 646139.6
5724.577, 644887.4
5726.506, 644445.1
5728.434, 642654.8
5730.363, 641620.3
5732.291, 640318.0
5734.220, 639143.4
5736.148, 638707.3
5738.077, 638647.1
5740.005, 637641.2
5741.934, 636128.0
5743.862, 635001.8
5745.791, 634047.1
5747.719, 632449.3
5749.647, 631551.6
5751.576, 629815.9
5753.504, 629316.1
5755.433, 628365.6
5757.361, 627057.2
5759.290, 625945.9
5761.218, 624642.0
5763.146, 622859.2
5765.075, 621250.3
5767.003, 620225.6
5768.932, 618928.5
5770.860, 617422.7
5772.789, 617979.8
5774.717, 616591.8
5776.646, 615128.8
5778.574, 613977.6
5780.503, 612215.3
5782.431, 610978.1
5784.360, 610149.1
5786.288, 608657.3
5788.217, 607912.1
5790.145, 606443.9
5792.074, 606223.9
5794.002, 605381.3
5795.931, 604536.1
5797.859, 602606.3
5799.788, 602279.6
5801.716, 599690.9
5803.645, 600555.0
5805.573, 599173.8
5807.501, 597396.7
5809.430, 595674.1
5811.358, 594630.6
5813.287, 594868.8
5815.215, 594951.9
5817.144, 593242.1
5819.072, 591656.0
5821.000, 591343.6
5822.929, 589843.9
5824.857, 589353.8
5826.786, 588852.8
5828.714, 587587.3
5830.643, 586907.1
5832.571, 586140.4
5834.500, 584939.2
5836.428, 582700.1
5838.357, 581633.4
5840.285, 580157.6
5842.214, 579421.3
5844.142, 578938.9
5846.071, 578185.4
5847.999, 576688.1
5849.928, 575954.3
5851.856, 574325.4
5853.785, 572916.8
5855.713, 572256.1
5857.642, 571804.6
5859.570, 570819.2
5861.499, 570696.1
5863.427, 570186.1
5865.355, 567945.4
5867.284, 567368.6
5869.212, 565968.8
5871.141, 564425.3
5873.069, 564807.1
5874.998, 562782.5
5876.926, 560944.6
5878.854, 560027.1
5880.783, 559912.1
5882.711, 559926.3
5884.640, 559088.9
5886.568, 558111.2
5888.497, 557055.3
5890.425, 555579.9
5892.354, 553227.7
5894.282, 551674.8
5896.211, 550149.3
5898.139, 548477.8
5900.068, 547317.8
5901.996, 546758.5
5903.925, 545346.4
5905.853, 544890.3
5907.782, 544703.5
5909.710, 542508.5
5911.639, 542302.9
5913.567, 541849.7
5915.496, 540232.1
5917.424, 538948.3
5919.353, 538058.9
5921.281, 535457.4
5923.209, 535555.0
5925.138, 534418.8
5927.066, 532345.1
5928.995, 531921.0
5930.923, 531150.5
5932.852, 529626.9
5934.780, 528100.9
5936.708, 526594.1
5938.637, 525516.0
5940.565, 524313.6
5942.494, 522881.5
5944.422, 521901.8
5946.351, 521075.1
5948.279, 519578.3
5950.208, 517984.8
5952.136, 516806.5
5954.065, 515198.3
5955.993, 513688.9
5957.922, 511997.3
5959.850, 510111.3
5961.779, 508266.5
5963.707, 508176.7
5965.636, 507768.0
5967.564, 506234.7
5969.493, 504338.0
5971.421, 504290.4
5973.350, 501115.5
5975.278, 500207.1
5977.207, 500037.9
5979.135, 498913.5
5981.063, 497608.9
5982.992, 495116.1
5984.920, 494130.3
5986.849, 493460.8
5988.777, 491784.8
5990.706, 491429.1
5992.634, 489638.0
5994.563, 488419.7
5996.491, 487537.6
5998.419, 486016.5
6000.348, 485310.0
6002.276, 484094.7
6004.205, 483005.4
6006.133, 482411.8
6008.062, 481029.0
6009.990, 480225.6
6011.919, 478799.4
6013.847, 478263.8
6015.776, 477545.1
6017.704, 475259.5
6019.633, 474368.7
6021.561, 474055.5
6023.490, 472654.1
6025.418, 470723.3
6027.347, 470420.0
6029.275, 468697.6
6031.204, 467569.6
6033.132, 466380.5
6035.061, 464974.2
6036.989, 464192.4
6038.917, 462957.6
6040.846, 461517.3
6042.774, 460262.9
6044.703, 459191.3
6046.631, 457890.7
6048.560, 457345.1
6050.488, 456227.9
6052.417, 454954.1
6054.345, 453294.9
6056.273, 452240.3
6058.202, 450519.3
6060.130, 449880.7
6062.059, 448812.5
6063.987, 447824.7
6065.916, 446242.8
6067.844, 444409.7
6069.773, 443428.1
6071.701, 442561.9
6073.630, 441603.0
6075.558, 441028.5
6077.487, 439437.4
6079.415, 439286.0
6081.344, 438606.1
6083.272, 437148.0
6085.201, 436368.9
6087.129, 435122.2
6089.058, 434310.2
6090.986, 433781.6
6092.915, 433460.4
6094.843, 432535.9
6096.771, 432287.5
6098.700, 430925.3
6100.628, 430451.4
6102.557, 429664.9
6104.485, 428525.2
6106.414, 426897.8
6108.342, 426400.3
6110.271, 425275.6
6112.199, 424124.7
6114.127, 423378.7
6116.056, 422146.6
6117.984, 420843.8
6119.913, 420713.4
6121.841, 420763.8
6123.770, 420185.2
6125.698, 419191.3
6127.627, 418377.0
6129.555, 416691.8
6131.484, 416035.8
6133.412, 415617.9
6135.341, 412941.7
6137.269, 414103.5
6139.198, 412999.3
6141.126, 411316.7
6143.055, 409990.6
6144.983, 408884.0
6146.912, 408046.2
6148.840, 407459.7
6150.769, 406317.8
6152.697, 405428.2
6154.625, 404394.4
6156.554, 403445.7
6158.482, 402642.1
6160.411, 401921.0
6162.339, 400734.0
6164.268, 399675.4
6166.196, 398255.5
6168.125, 397020.2
6170.053, 395349.0
6171.981, 394349.5
6173.910, 393184.8
6175.838, 391921.0
6177.767, 391430.5
6179.695, 390805.1
6181.624, 389668.1
6183.552, 388925.8
6185.481, 387842.3
6187.409, 386714.3
6189.338, 385816.1
6191.266, 384227.9
6193.195, 383549.8
6195.123, 382768.3
6197.052, 380963.2
6198.980, 379541.8
6200.909, 378873.1
6202.837, 377893.4
6204.766, 377554.7
6206.694, 377039.5
6208.623, 374838.6
6210.551, 373912.5
6212.479, 371871.5
6214.408, 371021.0
6216.336, 370531.2
6218.265, 369142.8
6220.193, 368318.2
6222.122, 366577.0
6224.050, 366210.8
6225.979, 365431.4
6227.907, 364510.9
6229.835, 363836.5
6231.764, 363215.4
6233.692, 361847.5
6235.621, 360395.1
6237.549, 359744.7
6239.478, 359203.2
6241.406, 357531.7
6243.335, 357238.3
6245.263, 355577.8
6247.192, 354478.4
6249.120, 354208.1
6251.049, 353764.1
6252.977, 351984.0
6254.906, 351222.1
6256.834, 350278.2
6258.763, 348961.8
6260.691, 347953.7
6262.620, 347468.3
6264.548, 346485.6
6266.477, 345210.5
6268.405, 344790.7
6270.333, 343967.4
6272.262, 342736.6
6274.190, 341783.7
6276.119, 340531.7
6278.047, 339594.1
6279.976, 338124.1
6281.904, 336709.6
6283.833, 335853.7
6285.761, 335867.3
6287.689, 334508.8
6289.618, 333191.8
6291.546, 332557.8
6293.475, 331320.3
6295.403, 330549.0
6297.332, 329320.4
6299.260, 329075.4
6301.189, 328448.3
6303.117, 327928.2
6305.046, 326789.6
6306.974, 325315.1
6308.903, 324236.2
6310.831, 323498.9
6312.760, 322467.7
6314.688, 321807.1
6316.617, 321373.7
6318.545, 321161.2
6320.474, 320771.3
6322.402, 320094.3
6324.331, 319510.6
6326.259, 318604.9
6328.188, 317945.5
6330.116, 317133.1
6332.044, 316309.1
6333.973, 315503.6
6335.901, 314687.3
6337.830, 313768.2
6339.758, 312663.8
6341.687, 311741.8
6343.615, 310869.3
6345.543, 309724.3
6347.472, 309061.0
6349.400, 308112.3
6351.329, 307781.2
6353.257, 306609.9
6355.186, 306279.5
6357.114, 305934.7
6359.043, 305161.5
6360.971, 304814.1
6362.900, 303346.5
6364.828, 302382.7
6366.757, 301606.1
6368.685, 300230.4
6370.614, 299936.5
6372.542, 299294.2
6374.471, 298262.8
6376.399, 297710.9
6378.328, 297023.7
6380.256, 295978.3
6382.185, 295280.2
6384.113, 293571.6
6386.042, 293213.3
6387.970, 292087.6
6389.898, 291218.3
6391.827, 290832.3
6393.755, 290087.4
6395.684, 288885.0
6397.612, 287546.8
6399.541, 287045.4
6401.469, 286116.6
6403.397, 285466.1
6405.326, 285056.8
6407.254, 283371.1
6409.183, 283674.0
6411.111, 280990.8
6413.040, 280121.5
6414.968, 280446.2
6416.897, 280038.1
6418.825, 278770.3
6420.754, 278610.2
6422.682, 277016.4
6424.611, 276273.8
6426.539, 275669.6
6428.468, 273816.7
6430.396, 272206.8
6432.325, 272628.9
6434.253, 272135.8
6436.182, 270746.0
6438.110, 269957.9
6440.039, 268971.0
6441.967, 267755.5
6443.896, 266808.0
6445.824, 266338.2
6447.752, 265353.2
6449.681, 264033.8
6451.609, 262597.9
6453.538, 262044.5
6455.466, 261604.9
6457.395, 260832.9
6459.323, 260422.9
6461.251, 260721.9
6463.180, 259318.3
6465.108, 258988.6
6467.037, 258846.1
6468.965, 257702.8
6470.894, 256070.0
6472.822, 255360.1
6474.751, 254855.7
6476.679, 254223.7
6478.608, 253367.8
6480.536, 253338.4
6482.465, 253878.5
6484.393, 253984.1
6486.322, 253084.0
6488.250, 252454.0
6490.179, 251350.6
6492.107, 250868.4
6494.036, 249709.7
6495.964, 249654.0
6497.893, 249005.9
6499.821, 248139.5
6501.750, 248092.1
6503.678, 247444.7
6505.606, 247445.0
6507.535, 247044.5
6509.463, 246553.3
6511.392, 246301.5
6513.320, 246332.1
6515.249, 246659.1
6517.177, 245604.3
6519.105, 244286.9
6521.034, 244025.4
6522.962, 244265.8
6524.891, 243879.0
6526.819, 243492.8
6528.748, 244592.8
6530.676, 244133.6
6532.605, 241623.6
6534.533, 241157.0
6536.462, 241856.7
6538.390, 242090.9
6540.319, 241659.8
6542.247, 241014.9
6544.176, 240236.1
6546.104, 239877.3
6548.033, 239795.8
6549.961, 238910.4
6551.890, 238849.9
6553.818, 238226.4
6555.747, 237526.8
6557.675, 238369.3
6559.604, 238037.3
6561.532, 237013.7
6563.460, 236585.7
6565.389, 236119.4
6567.317, 235578.7
6569.246, 234951.5
6571.174, 234588.7
6573.103, 234088.6
6575.031, 233556.6
6576.959, 233144.5
6578.888, 232664.5
6580.816, 231941.6
6582.745, 231777.5
6584.673, 231296.5
6586.602, 230169.2
6588.530, 229538.6
6590.459, 229510.8
6592.387, 228146.7
6594.316, 227134.9
6596.244, 226883.9
6598.173, 226883.2
6600.101, 226733.2
6602.030, 226309.6
6603.958, 225638.5
6605.887, 224905.2
6607.815, 223900.8
6609.744, 223129.1
6611.672, 222316.6
6613.601, 221585.8
6615.529, 220779.8
6617.458, 220097.5
6619.386, 219936.6
6621.314, 218808.6
6623.243, 218002.1
6625.171, 217484.7
6627.100, 216349.2
6629.028, 215293.3
6630.957, 214609.4
##END=



