##NAMES=Sperrylite
##RRUFFID=R070214
##IDEAL CHEMISTRY=PtAs_2_
##LOCALITY=Vermilion Mine, Denison Township, Sudbury District, Ontario, Canada
##OWNER=RRUFF
##SOURCE=Michael Scott
##DESCRIPTION=Loose aggregate of bright silver cubes, some with octahedral modifications
##STATUS=The identification of this mineral has been confirmed only by single crystal X-ray diffraction
##URL=https://www.rruff.net/odr/rruff_sample/R070214
##DIFFRACTION SAMPLE DESCRIPTION=Single crystal, powder profile is calculated
##CELL PARAMETERS=a: 5.977 b: 5.977 c: 5.977 alpha: 90 beta: 90 gamma: 90 volume: 213.51 crystal system: cubic
##FILETYPE=Raman RAW
##RAMAN WAVELENGTH=785

122.3311, 651.2230
124.2595, 838.5996
126.1880, 1056.125
128.1165, 1319.231
130.0449, 1600.854
131.9734, 1830.585
133.9019, 2012.417
135.8303, 2115.754
137.7588, 2079.443
139.6873, 2032.842
141.6157, 1980.527
143.5442, 1964.543
145.4727, 2083.745
147.4011, 2295.061
149.3296, 2428.763
151.2581, 2472.050
153.1865, 2409.652
155.1150, 2144.444
157.0435, 1890.128
158.9719, 1785.950
160.9004, 1767.642
162.8289, 1739.717
164.7573, 1699.658
166.6858, 1647.725
168.6143, 1574.382
170.5427, 1497.308
172.4712, 1414.187
174.3997, 1336.967
176.3281, 1273.683
178.2566, 1222.573
180.1851, 1179.088
182.1135, 1141.708
184.0420, 1119.078
185.9705, 1116.250
187.8989, 1112.648
189.8274, 1102.679
191.7559, 1091.639
193.6843, 1082.263
195.6128, 1073.854
197.5413, 1064.690
199.4697, 1052.351
201.3982, 1052.876
203.3267, 1078.213
205.2551, 1099.404
207.1836, 1100.756
209.1121, 1090.867
211.0405, 1075.541
212.9690, 1055.298
214.8975, 1034.810
216.8259, 1014.930
218.7544, 994.0787
220.6829, 973.8517
222.6113, 950.7613
224.5398, 919.8083
226.4683, 888.8008
228.3967, 866.7640
230.3252, 851.3309
232.2537, 832.2894
234.1821, 809.8933
236.1106, 792.7725
238.0391, 784.1354
239.9675, 775.2712
241.8960, 762.7683
243.8245, 751.2027
245.7529, 743.3569
247.6814, 738.7635
249.6099, 738.5760
251.5383, 744.5544
253.4668, 753.3099
255.3953, 768.5580
257.3237, 777.7964
259.2522, 776.4385
261.1807, 770.8986
263.1091, 760.1675
265.0376, 749.5156
266.9661, 751.6818
268.8945, 772.1436
270.8230, 787.4988
272.7515, 794.3718
274.6799, 792.6428
276.6084, 776.8394
278.5369, 761.7991
280.4653, 759.3039
282.3938, 759.7444
284.3223, 749.6690
286.2507, 729.5108
288.1792, 715.7982
290.1077, 709.6123
292.0361, 697.9644
293.9646, 678.1194
295.8931, 661.1467
297.8215, 652.3046
299.7500, 644.7567
301.6785, 635.4790
303.6069, 626.0316
305.5354, 614.5311
307.4639, 598.5018
309.3923, 594.8330
311.3208, 612.2330
313.2493, 622.7433
315.1777, 608.8109
317.1062, 594.1019
319.0347, 589.7236
320.9631, 589.1018
322.8916, 583.7828
324.8201, 577.6686
326.7485, 576.8839
328.6770, 580.6130
330.6055, 583.5430
332.5340, 584.8503
334.4624, 584.1688
336.3909, 581.4783
338.3194, 578.2099
340.2478, 572.4850
342.1763, 567.0332
344.1048, 569.4396
346.0332, 576.9461
347.9617, 576.8059
349.8902, 566.1451
351.8186, 559.4636
353.7471, 563.6595
355.6756, 564.4058
357.6040, 555.3937
359.5325, 543.4291
361.4610, 531.3098
363.3894, 522.4442
365.3179, 519.2496
367.2464, 520.6353
369.1748, 520.1557
371.1033, 516.1189
373.0318, 512.5418
374.9602, 509.1190
376.8887, 507.5061
378.8172, 508.9689
380.7456, 510.3534
382.6741, 511.3875
384.6026, 511.9370
386.5310, 508.0232
388.4595, 500.1606
390.3880, 495.6306
392.3164, 493.7549
394.2449, 488.4854
396.1734, 478.5184
398.1018, 471.7857
400.0303, 471.8114
401.9588, 472.8395
403.8872, 473.9211
405.8157, 472.9042
407.7442, 466.8992
409.6726, 460.4230
411.6011, 461.6984
413.5296, 468.4749
415.4580, 471.6519
417.3865, 470.3602
419.3150, 467.8730
421.2434, 463.7869
423.1719, 460.4214
425.1004, 457.1667
427.0288, 455.8706
428.9573, 460.3206
430.8858, 465.1321
432.8142, 461.8651
434.7427, 454.8074
436.6712, 454.9595
438.5996, 462.9645
440.5281, 466.3943
442.4566, 461.4594
444.3850, 457.6357
446.3135, 455.5384
448.2420, 454.8922
450.1704, 456.8344
452.0989, 458.7359
454.0274, 458.9353
455.9558, 457.7081
457.8843, 455.0909
459.8128, 451.9210
461.7412, 450.6553
463.6697, 451.8707
465.5982, 452.9506
467.5266, 453.6335
469.4551, 453.4971
471.3836, 452.7052
473.3120, 451.0059
475.2405, 446.5774
477.1690, 443.8549
479.0974, 446.7176
481.0259, 450.0929
482.9544, 449.3929
484.8828, 446.1409
486.8113, 443.5800
488.7398, 442.6886
490.6682, 443.5900
492.5967, 445.5308
494.5252, 446.1938
496.4536, 445.4408
498.3821, 445.6286
500.3106, 447.3804
502.2390, 448.5810
504.1675, 450.6482
506.0960, 451.2212
508.0244, 446.6046
509.9529, 441.5583
511.8814, 438.7874
513.8098, 436.5137
515.7383, 438.5215
517.6667, 444.5221
519.5952, 444.3733
521.5237, 435.4211
523.4521, 429.1705
525.3806, 428.3910
527.3091, 427.8318
529.2375, 428.7678
531.1660, 426.7198
533.0945, 417.4448
535.0229, 412.8277
536.9514, 420.8927
538.8799, 430.1516
540.8083, 429.3019
542.7368, 420.8695
544.6653, 415.8052
546.5938, 416.1167
548.5222, 418.5038
550.4507, 421.0043
552.3792, 422.1440
554.3076, 424.8547
556.2361, 425.5987
558.1646, 421.6947
560.0930, 418.0330
562.0215, 414.2974
563.9500, 411.8323
565.8784, 413.4370
567.8069, 412.9651
569.7354, 409.3567
571.6638, 409.9357
573.5923, 418.6672
575.5208, 427.1536
577.4493, 421.7748
579.3777, 408.3227
581.3062, 405.4900
583.2347, 410.3352
585.1631, 409.9918
587.0916, 404.6299
589.0201, 404.3270
590.9485, 412.5639
592.8770, 417.0316
594.8055, 411.5636
596.7339, 407.0553
598.6624, 408.9382
600.5909, 410.3681
602.5193, 406.6288
604.4478, 402.4434
606.3763, 402.4737
608.3047, 404.4618
610.2332, 406.1203
612.1617, 409.1637
614.0901, 410.8206
616.0186, 407.1852
617.9471, 404.3625
619.8755, 409.8827
621.8040, 415.9324
623.7325, 411.9586
625.6609, 406.8416
627.5894, 409.5203
629.5179, 414.3445
631.4464, 413.1784
633.3748, 406.9985
635.3033, 402.0123
637.2318, 402.5870
639.1602, 408.1966
641.0887, 413.5173
643.0172, 414.4696
644.9456, 414.0304
646.8741, 414.5416
648.8026, 413.8056
650.7310, 412.2802
652.6595, 413.0515
654.5880, 414.6253
656.5164, 412.1978
658.4449, 406.1090
660.3734, 402.4616
662.3018, 404.2673
664.2303, 406.0685
666.1588, 406.9054
668.0872, 411.4228
670.0157, 411.4753
671.9442, 397.7053
673.8726, 387.2130
675.8011, 395.5013
677.7296, 407.3264
679.6580, 409.5450
681.5865, 405.9323
683.5150, 404.2309
685.4434, 404.6555
687.3719, 399.0949
689.3004, 390.5757
691.2288, 394.0820
693.1573, 406.5737
695.0858, 411.4849
697.0142, 408.8144
698.9427, 408.6328
700.8712, 409.9205
702.7996, 406.6470
704.7281, 402.1561
706.6566, 403.9334
708.5850, 411.8801
710.5135, 412.1373
712.4420, 401.4881
714.3704, 401.1422
716.2989, 413.6898
718.2274, 421.4580
720.1558, 415.8914
722.0843, 403.9460
724.0128, 394.5056
725.9412, 391.8629
727.8697, 398.2620
729.7982, 407.8915
731.7266, 411.7166
733.6551, 408.2939
735.5836, 400.6673
737.5120, 393.5490
739.4405, 389.8732
741.3690, 392.5986
743.2974, 402.5888
745.2259, 411.2531
747.1544, 411.1622
749.0828, 405.7631
751.0113, 402.1172
752.9398, 402.0186
754.8682, 401.5187
756.7967, 402.6978
758.7252, 409.3946
760.6536, 413.7549
762.5821, 410.9877
764.5106, 408.7057
766.4390, 411.1964
768.3675, 412.1961
770.2960, 409.3676
772.2244, 407.9926
774.1529, 408.8594
776.0814, 410.8669
778.0098, 414.6455
779.9383, 416.9468
781.8668, 413.9263
783.7952, 409.1099
785.7237, 409.6351
787.6522, 414.9292
789.5806, 414.7098
791.5091, 405.8531
793.4376, 397.6541
795.3660, 393.0749
797.2945, 392.5535
799.2230, 398.5630
801.1514, 402.9937
803.0799, 399.6925
805.0084, 400.0266
806.9368, 408.8744
808.8653, 408.8590
810.7938, 396.3494
812.7222, 393.1512
814.6507, 403.7269
816.5792, 412.0595
818.5076, 411.8803
820.4361, 409.7976
822.3646, 411.1687
824.2930, 409.4289
826.2215, 400.0640
828.1500, 395.0131
830.0784, 398.5461
832.0069, 402.7760
833.9354, 405.1605
835.8638, 402.6734
837.7923, 396.5062
839.7208, 392.6676
841.6492, 390.3796
843.5777, 391.3629
845.5062, 396.1873
847.4346, 398.4697
849.3631, 397.9214
851.2916, 397.3207
853.2200, 393.4911
855.1485, 387.8933
857.0770, 389.0839
859.0054, 394.8941
860.9339, 396.1380
862.8624, 394.5002
864.7908, 395.1279
866.7193, 394.8608
868.6478, 389.3630
870.5762, 383.9338
872.5047, 387.7696
874.4332, 396.6366
876.3616, 400.4714
878.2901, 399.6913
880.2186, 401.4492
882.1470, 407.0535
884.0755, 408.4089
886.0040, 404.6219
887.9324, 400.9712
889.8609, 398.4029
891.7894, 397.4982
893.7178, 396.3820
895.6463, 395.6920
897.5748, 397.8926
899.5032, 399.6906
901.4317, 399.1908
903.3602, 397.1445
905.2886, 393.9311
907.2171, 392.5750
909.1456, 393.9787
911.0740, 399.3665
913.0025, 408.0832
914.9310, 411.9581
916.8594, 410.5096
918.7879, 410.4450
920.7164, 412.7267
922.6448, 411.4028
924.5733, 405.1024
926.5018, 399.6826
928.4302, 395.9590
930.3587, 393.8578
932.2872, 393.1968
934.2156, 394.7632
936.1441, 399.4662
938.0726, 400.1794
940.0010, 394.9969
941.9295, 394.4038
943.8580, 400.8639
945.7864, 402.8250
947.7149, 397.7751
949.6434, 398.2828
951.5718, 407.0832
953.5003, 409.5521
955.4288, 404.1356
957.3572, 398.4116
959.2857, 390.9057
961.2142, 389.6971
963.1426, 397.1901
965.0711, 401.5569
966.9996, 402.5291
968.9280, 402.2364
970.8565, 399.0220
972.7850, 401.4013
974.7134, 411.2137
976.6419, 417.5538
978.5704, 419.9529
980.4988, 416.7136
982.4273, 406.4716
984.3558, 403.7765
986.2842, 411.4889
988.2127, 410.4039
990.1412, 397.6206
992.0696, 388.9990
993.9981, 385.5761
995.9266, 390.0354
997.8550, 403.8062
999.7835, 410.3965
1001.712, 408.3770
1003.640, 412.5524
1005.569, 421.2201
1007.497, 418.4539
1009.426, 407.8613
1011.354, 407.8164
1013.283, 415.1268
1015.211, 415.1619
1017.140, 411.1664
1019.068, 413.2668
1020.997, 419.2892
1022.925, 423.9742
1024.854, 426.2900
1026.782, 425.3983
1028.710, 423.2519
1030.639, 423.4169
1032.567, 424.1404
1034.496, 418.4214
1036.424, 409.2245
1038.353, 406.2914
1040.281, 407.1638
1042.210, 405.1090
1044.138, 404.2144
1046.067, 410.7818
1047.995, 417.3431
1049.924, 417.0159
1051.852, 413.7109
1053.781, 411.2784
1055.709, 410.8235
1057.637, 413.5644
1059.566, 419.3999
1061.494, 425.5333
1063.423, 427.8780
1065.351, 423.2660
1067.280, 417.1444
1069.208, 414.9276
1071.137, 416.7954
1073.065, 420.8182
1074.994, 420.8893
1076.922, 420.6333
1078.851, 424.0874
1080.779, 424.8651
1082.708, 419.8316
1084.636, 408.7167
1086.565, 405.2568
1088.493, 419.4487
1090.422, 431.5591
1092.350, 431.6152
1094.278, 426.4373
1096.207, 420.9606
1098.135, 421.7498
1100.064, 425.7762
1101.992, 423.7941
1103.921, 416.5975
1105.849, 414.3506
1107.778, 417.8577
1109.706, 420.3974
1111.635, 421.6053
1113.563, 422.0692
1115.492, 421.8809
1117.420, 420.9394
1119.349, 419.7411
1121.277, 415.3623
1123.205, 408.6240
1125.134, 406.8846
1127.062, 407.4644
1128.991, 410.3579
1130.919, 416.3428
1132.848, 419.3423
1134.776, 419.1054
1136.705, 418.5538
1138.633, 416.9354
1140.562, 408.9677
1142.490, 404.1036
1144.419, 420.4526
1146.347, 438.8582
1148.276, 431.4535
1150.204, 416.1905
1152.132, 412.8939
1154.061, 415.3630
1155.989, 417.9269
1157.918, 418.3505
1159.846, 418.7334
1161.775, 421.3016
1163.703, 421.8876
1165.632, 429.0973
1167.560, 451.1603
1169.489, 456.8723
1171.417, 433.3420
1173.346, 421.0414
1175.274, 430.8788
1177.203, 436.4067
1179.131, 433.8404
1181.059, 431.8472
1182.988, 428.5014
1184.916, 428.0436
1186.845, 434.6935
1188.773, 440.2841
1190.702, 441.8293
1192.630, 441.3647
1194.559, 442.2326
1196.487, 449.0796
1198.416, 455.1265
1200.344, 451.0217
1202.273, 444.9253
1204.201, 441.5133
1206.130, 440.1006
1208.058, 445.6479
1209.986, 452.2215
1211.915, 456.6352
1213.843, 455.4676
1215.772, 445.0965
1217.700, 437.9593
1219.629, 435.0631
1221.557, 434.5839
1223.486, 439.8971
1225.414, 449.0478
1227.343, 459.1674
1229.271, 460.7426
1231.200, 454.2590
1233.128, 448.4063
1235.057, 446.2119
1236.985, 448.5723
1238.913, 451.8821
1240.842, 457.3381
1242.770, 461.6802
1244.699, 457.5013
1246.627, 449.5440
1248.556, 441.0880
1250.484, 437.1161
1252.413, 440.3091
1254.341, 440.1702
1256.270, 432.4092
1258.198, 430.0342
1260.127, 437.9767
1262.055, 440.6585
1263.984, 434.3871
1265.912, 437.8101
1267.840, 453.6523
1269.769, 459.8215
1271.697, 456.5846
1273.626, 447.0588
1275.554, 434.0390
1277.483, 436.6900
1279.411, 447.3673
1281.340, 449.1829
1283.268, 448.0914
1285.197, 452.9191
1287.125, 455.5472
1289.054, 445.0835
1290.982, 436.5943
1292.911, 440.1888
1294.839, 446.3093
1296.767, 451.7673
1298.696, 455.5108
1300.624, 459.7695
1302.553, 456.7709
1304.481, 444.1934
1306.410, 448.1696
1308.338, 466.0945
1310.267, 470.5745
1312.195, 466.3091
1314.124, 466.5214
1316.052, 466.8145
1317.981, 457.1047
1319.909, 451.3663
1321.838, 464.4319
1323.766, 472.1502
1325.694, 463.1734
1327.623, 452.1467
1329.551, 440.3218
1331.480, 436.9094
1333.408, 444.5175
1335.337, 443.4392
1337.265, 435.8212
1339.194, 445.3754
1341.122, 463.0798
1343.051, 463.9666
1344.979, 456.9859
1346.908, 453.8130
1348.836, 451.1756
1350.765, 447.7084
1352.693, 438.6298
1354.621, 416.9801
1356.550, 409.5177
1358.478, 424.9200
1360.407, 435.0894
1362.335, 436.9822
1364.264, 441.7006
1366.192, 447.6899
1368.121, 444.8149
1370.049, 436.5462
1371.978, 426.4008
1373.906, 419.9176
1375.835, 426.0488
1377.763, 433.3604
1379.692, 434.9377
1381.620, 438.5176
1383.548, 447.8180
1385.477, 449.6324
1387.405, 441.9237
1389.334, 434.1778
1391.262, 428.0587
1393.191, 432.0938
1395.119, 439.6741
1397.048, 433.5828
1398.976, 424.6697
1400.905, 427.0205
1402.833, 429.4401
1404.762, 421.3910
1406.690, 419.4506
1408.619, 431.2314
1410.547, 433.3564
1412.475, 422.9680
1414.404, 426.3694
1416.332, 440.1242
1418.261, 437.5957
1420.189, 428.2285
1422.118, 429.9286
1424.046, 435.5754
1425.975, 441.5290
1427.903, 443.6183
1429.832, 434.7800
1431.760, 432.4979
1433.689, 444.0682
1435.617, 440.8571
1437.546, 422.6876
1439.474, 431.0522
1441.402, 453.0577
1443.331, 443.3206
1445.259, 424.8527
1447.188, 425.2831
1449.116, 428.4144
1451.045, 421.6202
1452.973, 419.5623
1454.902, 431.7144
1456.830, 436.5272
1458.759, 432.1037
1460.687, 429.7101
1462.616, 429.0802
1464.544, 430.2897
1466.473, 431.0090
1468.401, 427.7290
1470.329, 423.1113
1472.258, 417.6483
1474.186, 414.0631
1476.115, 414.1092
1478.043, 412.9357
1479.972, 409.8995
1481.900, 407.5578
1483.829, 407.2426
1485.757, 417.3117
1487.686, 429.4254
1489.614, 434.3007
1491.543, 433.2376
1493.471, 423.7343
1495.400, 418.3708
1497.328, 422.4017
1499.256, 416.5862
1501.185, 400.1700
1503.113, 401.2564
1505.042, 411.5076
1506.970, 407.1998
1508.899, 402.6311
1510.827, 416.6723
1512.756, 426.6506
1514.684, 424.4796
1516.613, 416.1667
1518.541, 402.1243
1520.470, 407.0269
1522.398, 425.1956
1524.327, 425.6054
1526.255, 417.5678
1528.183, 410.9356
1530.112, 408.7234
1532.040, 416.6107
1533.969, 417.9675
1535.897, 408.4986
1537.826, 403.4605
1539.754, 403.8776
1541.683, 405.9417
1543.611, 409.5271
1545.540, 418.8581
1547.468, 423.4140
1549.397, 406.8804
1551.325, 400.1568
1553.254, 413.9287
1555.182, 415.9561
1557.110, 405.2352
1559.039, 400.7123
1560.967, 402.1290
1562.896, 411.0604
1564.824, 418.8945
1566.753, 418.2758
1568.681, 413.7243
1570.610, 403.8403
1572.538, 401.5493
1574.467, 407.0770
1576.395, 412.8910
1578.324, 417.9815
1580.252, 421.8361
1582.181, 423.1845
1584.109, 421.9835
1586.037, 415.7031
1587.966, 398.5260
1589.894, 392.7323
1591.823, 398.1107
1593.751, 403.8844
1595.680, 407.8895
1597.608, 405.9727
1599.537, 402.3067
1601.465, 398.5758
1603.394, 396.1694
1605.322, 395.3880
1607.251, 396.5193
1609.179, 399.2352
1611.108, 401.8935
1613.036, 403.3085
1614.964, 402.9370
1616.893, 398.6779
1618.821, 384.8116
1620.750, 382.0140
1622.678, 395.9079
1624.607, 401.3777
1626.535, 398.6022
1628.464, 379.8759
1630.392, 365.6806
1632.321, 375.9043
1634.249, 385.5365
1636.178, 386.1376
1638.106, 386.9253
1640.035, 388.5678
1641.963, 390.2382
1643.891, 391.0492
1645.820, 388.6583
1647.748, 386.2458
1649.677, 385.0357
1651.605, 385.0508
1653.534, 386.3280
1655.462, 390.3038
1657.391, 394.0631
1659.319, 386.3248
1661.248, 379.4702
1663.176, 387.9958
1665.105, 386.0854
1667.033, 366.3807
1668.962, 362.5707
1670.890, 372.7007
1672.818, 376.0175
1674.747, 377.0478
1676.675, 379.1884
1678.604, 386.1983
1680.532, 402.4016
1682.461, 396.8984
1684.389, 372.2981
1686.318, 369.1327
1688.246, 374.7669
1690.175, 369.8507
1692.103, 366.4527
1694.032, 372.0716
1695.960, 370.7005
1697.889, 362.2427
1699.817, 365.4462
1701.745, 371.9411
1703.674, 363.7865
1705.602, 357.8695
1707.531, 367.8113
1709.459, 373.9093
1711.388, 374.4639
1713.316, 364.5231
1715.245, 353.0544
1717.173, 357.1456
1719.102, 364.9425
1721.030, 374.5990
1722.959, 370.8804
1724.887, 352.4475
1726.816, 348.1204
1728.744, 352.2743
1730.672, 354.9821
1732.601, 356.8030
1734.529, 362.4818
1736.458, 353.7538
1738.386, 328.0505
1740.315, 328.3625
1742.243, 342.5475
1744.172, 354.6044
1746.100, 358.6954
1748.029, 345.8395
1749.957, 343.6358
1751.886, 353.6733
1753.814, 348.9765
1755.743, 339.4069
1757.671, 338.4072
1759.599, 341.1868
1761.528, 347.0530
1763.456, 351.6564
1765.385, 354.1761
1767.313, 348.6383
1769.242, 340.3557
1771.170, 334.4657
1773.099, 330.0005
1775.027, 326.2728
1776.956, 327.2648
1778.884, 333.2624
1780.813, 354.1999
1782.741, 365.5436
1784.670, 341.1646
1786.598, 329.4047
1788.526, 340.9090
1790.455, 338.2210
1792.383, 329.4855
1794.312, 339.3406
1796.240, 345.4008
1798.169, 334.6318
1800.097, 331.8286
1802.026, 338.8830
1803.954, 341.9132
1805.883, 340.9617
1807.811, 333.6632
1809.740, 327.1842
1811.668, 323.5812
1813.597, 321.7716
1815.525, 321.1113
1817.453, 318.4998
1819.382, 318.5627
1821.310, 331.9897
1823.239, 327.9019
1825.167, 305.3689
1827.096, 304.4695
1829.024, 313.1800
1830.953, 314.9501
1832.881, 312.7247
1834.810, 305.9614
1836.738, 304.4700
1838.667, 307.5442
1840.595, 310.8144
1842.524, 314.8672
1844.452, 326.6930
1846.380, 319.5406
1848.309, 292.6999
1850.237, 299.2975
1852.166, 314.3250
1854.094, 296.4617
1856.023, 287.8055
1857.951, 310.0985
1859.880, 322.2448
1861.808, 322.7668
1863.737, 300.8893
1865.665, 283.0212
1867.594, 290.1197
1869.522, 291.8316
1871.451, 286.5251
1873.379, 292.4057
1875.307, 297.4134
1877.236, 283.7020
1879.164, 281.8122
1881.093, 303.8313
1883.021, 301.6597
1884.950, 288.0562
1886.878, 286.5838
1888.807, 285.5567
1890.735, 281.5275
1892.664, 283.2101
1894.592, 287.0459
1896.521, 287.0922
1898.449, 288.1449
1900.378, 292.5336
1902.306, 289.3669
1904.234, 280.7882
1906.163, 277.4912
1908.091, 278.0100
1910.020, 286.1887
1911.948, 290.9537
1913.877, 287.8993
1915.805, 277.3634
1917.734, 270.9100
1919.662, 287.0697
1921.591, 295.0269
1923.519, 288.8189
1925.448, 281.4891
1927.376, 275.5714
1929.305, 269.4507
1931.233, 265.7895
1933.161, 265.5500
1935.090, 268.5511
1937.018, 272.2419
1938.947, 270.0963
1940.875, 267.8383
1942.804, 265.5261
1944.732, 262.6973
1946.661, 261.3158
1948.589, 267.1297
1950.518, 270.6858
1952.446, 266.0031
1954.375, 255.7694
1956.303, 245.8402
1958.232, 253.1046
1960.160, 262.8571
1962.089, 267.5547
1964.017, 265.0684
1965.945, 257.9526
1967.874, 258.2974
1969.802, 259.2773
1971.731, 258.9567
1973.659, 249.8391
1975.588, 236.2761
1977.516, 240.7575
1979.445, 248.2498
1981.373, 254.6996
1983.302, 252.7525
1985.230, 244.3660
1987.159, 245.2057
1989.087, 246.2714
1991.016, 241.8430
1992.944, 242.6464
1994.872, 247.8483
1996.801, 253.5803
1998.729, 256.3789
2000.658, 255.5437
2002.586, 247.0652
2004.515, 235.4401
2006.443, 236.3354
2008.372, 243.0784
2010.300, 254.4212
2012.229, 257.2182
2014.157, 253.6143
2016.086, 249.1624
2018.014, 247.2228
2019.943, 250.2113
2021.871, 249.5008
2023.799, 245.7843
2025.728, 244.0617
2027.656, 242.1362
2029.585, 236.1476
2031.513, 230.5199
2033.442, 230.2636
2035.370, 243.8559
2037.299, 249.8728
2039.227, 242.4867
2041.156, 238.8295
2043.084, 236.7142
2045.013, 231.0611
2046.941, 226.9426
2048.869, 224.8421
2050.798, 217.7311
2052.726, 212.1543
2054.655, 219.6344
2056.583, 226.6363
2058.512, 227.7243
2060.440, 217.6358
2062.369, 207.7668
2064.297, 203.9664
2066.226, 206.3311
2068.154, 212.5213
2070.083, 213.6360
2072.011, 212.0276
2073.940, 207.6372
2075.868, 208.3437
2077.797, 211.3226
2079.725, 210.8368
2081.654, 210.9995
2083.582, 213.5322
2085.510, 203.9648
2087.439, 195.4074
2089.367, 212.2001
2091.296, 217.5742
2093.224, 205.4583
2095.153, 203.4512
2097.081, 205.3361
2099.010, 208.7117
2100.938, 204.9312
2102.867, 196.7190
2104.795, 199.9058
2106.724, 202.9912
2108.652, 199.6750
2110.581, 194.5867
2112.509, 193.0852
2114.438, 208.1019
2116.366, 213.9545
2118.294, 203.7305
2120.223, 205.5475
2122.151, 207.3386
2124.080, 197.5720
2126.008, 191.6256
2127.937, 191.2960
2129.865, 199.0091
2131.794, 202.5102
2133.722, 195.8464
2135.651, 192.8629
2137.579, 192.0545
2139.508, 188.2000
2141.436, 188.5385
2143.365, 193.8112
2145.293, 189.2594
2147.221, 183.3762
2149.150, 184.1483
2151.078, 178.2597
2153.007, 170.5469
2154.935, 185.3812
2156.864, 193.2926
2158.792, 185.9798
2160.721, 188.8230
2162.649, 193.9374
2164.578, 191.3450
2166.506, 188.6437
2168.435, 185.9603
2170.363, 185.8768
2172.292, 185.8674
2174.220, 184.2076
2176.148, 182.0086
2178.077, 179.3790
2180.005, 175.6520
2181.934, 177.0256
2183.862, 182.6089
2185.791, 188.2023
2187.719, 187.5398
2189.648, 172.5634
2191.576, 174.9747
2193.505, 183.6697
2195.433, 173.1659
2197.362, 163.2522
2199.290, 158.8194
2201.219, 164.0805
2203.147, 168.5185
2205.075, 163.0909
2207.004, 164.1222
2208.932, 166.1769
2210.861, 163.0415
2212.789, 166.9583
2214.718, 175.7294
2216.646, 172.1158
2218.575, 167.1341
2220.503, 166.2504
2222.432, 156.7959
2224.360, 150.7696
2226.289, 168.2030
2228.217, 169.9209
2230.146, 157.7087
2232.074, 159.0183
2234.002, 164.1256
2235.931, 173.1834
2237.859, 167.1055
2239.788, 159.5246
2241.716, 170.5668
2243.645, 169.0811
2245.573, 158.4126
2247.502, 152.8242
2249.430, 151.0539
2251.359, 153.9652
2253.287, 147.3822
2255.216, 142.3072
2257.144, 149.5836
2259.073, 153.7552
2261.001, 153.7959
2262.929, 149.5835
2264.858, 151.0887
2266.786, 154.6245
2268.715, 155.9207
2270.643, 156.7841
2272.572, 154.1836
2274.500, 148.3793
2276.429, 145.9497
2278.357, 152.0381
2280.286, 155.2623
2282.214, 151.6310
2284.143, 146.2580
2286.071, 144.9587
2288.000, 145.1138
2289.928, 139.5580
2291.856, 135.4205
2293.785, 142.8070
2295.713, 141.3992
2297.642, 139.0410
2299.570, 139.8901
2301.499, 138.5752
2303.427, 137.7327
2305.356, 143.5579
2307.284, 148.5260
2309.213, 145.0420
2311.141, 142.1830
2313.070, 141.6957
2314.998, 139.2879
2316.927, 135.3492
2318.855, 135.3626
2320.783, 126.7430
2322.712, 123.2950
2324.640, 126.4377
2326.569, 126.4780
2328.497, 128.0702
2330.426, 131.8459
2332.354, 132.5113
2334.283, 130.3688
2336.211, 127.3662
2338.140, 137.5499
2340.068, 142.9926
2341.997, 132.9892
2343.925, 127.0626
2345.854, 125.3460
2347.782, 124.8663
2349.710, 130.7109
2351.639, 135.1561
2353.567, 133.7226
2355.496, 131.7823
2357.424, 126.9142
2359.353, 123.9401
2361.281, 119.8200
2363.210, 118.7052
2365.138, 120.5196
2367.067, 124.0133
2368.995, 125.0522
2370.924, 124.0066
2372.852, 129.1282
2374.781, 124.8895
2376.709, 116.0878
2378.637, 114.5260
2380.566, 128.2234
2382.494, 134.9403
2384.423, 128.2018
2386.351, 120.2528
2388.280, 118.4271
2390.208, 118.4892
2392.137, 117.4440
2394.065, 114.0851
2395.994, 115.6933
2397.922, 114.8549
2399.851, 112.9906
2401.779, 116.8891
2403.708, 116.1439
2405.636, 109.0309
2407.564, 106.3659
2409.493, 108.4760
2411.421, 105.7955
2413.350, 104.3792
2415.278, 109.6589
2417.207, 109.9917
2419.135, 109.2156
2421.064, 112.3217
2422.992, 114.3331
2424.921, 104.2155
2426.849, 97.76987
2428.778, 102.4396
2430.706, 106.5615
2432.635, 100.1300
2434.563, 99.63470
2436.491, 112.0714
2438.420, 116.2139
2440.348, 109.6748
2442.277, 101.7618
2444.205, 100.7128
2446.134, 103.7354
2448.062, 95.60892
2449.991, 93.49026
2451.919, 102.5570
2453.848, 106.0522
2455.776, 103.4944
2457.705, 106.1136
2459.633, 110.6096
2461.562, 106.3734
2463.490, 96.92680
2465.418, 93.49979
2467.347, 95.46046
2469.275, 98.52238
2471.204, 96.82449
2473.132, 96.35260
2475.061, 91.72997
2476.989, 91.75642
2478.918, 93.92292
2480.846, 91.18243
2482.775, 92.87642
2484.703, 95.76484
2486.632, 97.37516
2488.560, 94.53338
2490.489, 92.09935
2492.417, 90.25153
2494.345, 83.99512
2496.274, 82.08641
2498.202, 96.60717
2500.131, 96.71231
2502.059, 85.46786
2503.988, 80.16394
2505.916, 85.68400
2507.845, 90.56003
2509.773, 85.77229
2511.702, 85.65255
2513.630, 86.14738
2515.559, 82.87028
2517.487, 82.36855
2519.416, 86.64079
2521.344, 87.02567
2523.272, 84.00079
2525.201, 84.27728
2527.129, 88.05072
2529.058, 87.16023
2530.986, 85.55686
2532.915, 80.52989
2534.843, 76.81682
2536.772, 78.40958
2538.700, 87.33298
2540.629, 84.60087
2542.557, 77.50716
2544.486, 85.29272
2546.414, 83.10897
2548.343, 77.23164
2550.271, 84.38438
2552.199, 82.57326
2554.128, 77.31100
2556.056, 85.93035
2557.985, 82.25412
2559.913, 73.30341
2561.842, 79.75504
2563.770, 80.46371
2565.699, 77.67794
2567.627, 79.06651
2569.556, 78.48315
2571.484, 76.73113
2573.413, 75.35471
2575.341, 71.25852
2577.270, 67.70309
2579.198, 71.09547
2581.126, 73.59037
2583.055, 75.57568
2584.983, 80.01625
2586.912, 77.58088
2588.840, 69.69254
2590.769, 58.47867
2592.697, 60.62542
2594.626, 67.49528
2596.554, 72.00526
2598.483, 77.81232
2600.411, 78.86678
2602.340, 71.92228
2604.268, 72.13117
2606.197, 68.76034
2608.125, 57.09655
2610.053, 63.69277
2611.982, 68.93105
2613.910, 64.91692
2615.839, 69.28781
2617.767, 69.78564
2619.696, 63.15582
2621.624, 58.79155
2623.553, 65.24915
2625.481, 77.29792
2627.410, 69.11945
2629.338, 65.89739
2631.267, 69.26453
2633.195, 64.43587
2635.124, 63.13364
2637.052, 65.66280
2638.980, 70.60735
2640.909, 77.36678
2642.837, 77.48833
2644.766, 57.73848
2646.694, 54.88860
2648.623, 60.51595
2650.551, 65.38025
2652.480, 63.21898
2654.408, 60.81701
2656.337, 64.75549
2658.265, 61.50790
2660.194, 60.73014
2662.122, 69.01572
2664.051, 64.16856
2665.979, 56.29097
2667.907, 49.85079
2669.836, 54.12619
2671.764, 54.29636
2673.693, 49.32357
2675.621, 49.15815
2677.550, 53.71649
2679.478, 56.38826
2681.407, 62.01493
2683.335, 65.03428
2685.264, 58.73970
2687.192, 47.26173
2689.121, 46.17170
2691.049, 50.29138
2692.978, 50.87721
2694.906, 52.98024
2696.834, 52.72141
2698.763, 47.13650
2700.691, 42.57893
2702.620, 48.02599
2704.548, 57.08821
2706.477, 55.31056
2708.405, 49.97981
2710.334, 42.89058
2712.262, 44.02305
2714.191, 43.25148
2716.119, 42.68427
2718.048, 45.23947
2719.976, 43.86726
2721.905, 43.92708
2723.833, 48.68292
2725.761, 42.17811
2727.690, 42.13350
2729.618, 45.55443
2731.547, 56.77263
2733.475, 58.19112
2735.404, 38.78401
2737.332, 43.87583
2739.261, 47.77940
2741.189, 44.60936
2743.118, 53.12175
2745.046, 49.59433
2746.975, 42.51329
2748.903, 37.91792
2750.832, 41.23876
2752.760, 49.43172
2754.688, 45.49998
2756.617, 45.63867
2758.545, 48.84360
2760.474, 45.34548
2762.402, 37.51852
2764.331, 39.18697
2766.259, 46.29846
2768.188, 42.69231
2770.116, 46.61876
2772.045, 48.44445
2773.973, 43.90950
2775.902, 45.28094
2777.830, 45.82548
2779.759, 44.34084
2781.687, 37.99288
2783.615, 33.67051
2785.544, 31.38742
2787.472, 30.78409
2789.401, 34.91832
2791.329, 34.55633
2793.258, 34.50969
2795.186, 35.12789
2797.115, 44.01387
2799.043, 45.25593
2800.972, 42.93364
2802.900, 43.88728
2804.829, 37.11598
2806.757, 37.17294
2808.686, 38.81092
2810.614, 36.19947
2812.542, 37.77150
2814.471, 38.41487
2816.399, 32.99362
2818.328, 32.26719
2820.256, 36.26413
2822.185, 31.31742
2824.113, 28.75601
2826.042, 36.82307
2827.970, 35.41402
2829.899, 33.24234
2831.827, 34.09335
2833.756, 35.91360
2835.684, 35.46478
2837.613, 33.23228
2839.541, 30.03674
2841.469, 35.25161
2843.398, 24.31949
2845.326, 23.73758
2847.255, 25.05905
2849.183, 26.80319
2851.112, 36.02338
2853.040, 37.28617
2854.969, 29.51828
2856.897, 26.21754
2858.826, 34.44313
2860.754, 32.89902
2862.683, 25.65079
2864.611, 28.88105
2866.540, 22.05462
2868.468, 25.46560
2870.396, 30.71947
2872.325, 28.58120
2874.253, 24.89218
2876.182, 25.96275
2878.110, 35.49409
2880.039, 32.76960
2881.967, 26.96734
2883.896, 19.87154
2885.824, 29.66198
2887.753, 31.87895
2889.681, 21.00560
2891.610, 18.29758
2893.538, 15.47799
2895.467, 14.57049
2897.395, 19.47503
2899.323, 31.27504
2901.252, 31.72104
2903.180, 22.96775
2905.109, 20.86436
2907.037, 19.75743
2908.966, 20.89260
2910.894, 22.39605
2912.823, 19.45421
2914.751, 21.51095
2916.680, 17.92466
2918.608, 18.32145
2920.537, 18.07630
2922.465, 21.22529
2924.394, 25.12461
2926.322, 22.49929
2928.250, 21.12155
2930.179, 19.22981
2932.107, 20.46670
2934.036, 25.38874
2935.964, 26.32265
2937.893, 26.22279
2939.821, 19.68968
2941.750, 19.67188
2943.678, 23.71900
2945.607, 18.25054
2947.535, 23.64380
2949.464, 26.75066
2951.392, 17.20180
2953.321, 17.21946
2955.249, 17.02007
2957.177, 14.87032
2959.106, 16.79164
2961.034, 6.849722
2962.963, 4.207393
2964.891, 12.55239
2966.820, 15.66254
2968.748, 15.44873
2970.677, 16.03654
2972.605, 15.99694
2974.534, 22.55852
2976.462, 23.10940
2978.391, 20.25483
2980.319, 22.92826
2982.248, 18.77453
2984.176, 15.25140
2986.104, 13.98391
2988.033, 16.28410
2989.961, 1.313265
2991.890, -1.502463
2993.818, 19.22876
2995.747, 13.70531
2997.675, 16.19945
2999.604, 21.46049
3001.532, 19.45173
3003.461, 19.02848
3005.389, 15.55162
3007.318, 13.79929
3009.246, 21.78078
3011.175, 21.00212
3013.103, 16.80977
3015.031, 14.58491
3016.960, 18.83891
3018.888, 14.70113
3020.817, 13.53402
3022.745, 21.49579
3024.674, 19.26032
3026.602, 13.75096
3028.531, 12.39103
3030.459, 19.37514
3032.388, 19.39609
3034.316, 18.05892
3036.245, 16.65446
3038.173, 16.78045
3040.102, 13.91441
3042.030, 13.86411
3043.958, 14.92180
3045.887, 12.31431
3047.815, 14.19452
3049.744, 18.43900
3051.672, 21.33566
3053.601, 12.90362
3055.529, 7.895842
3057.458, 10.44082
3059.386, 19.24413
3061.315, 15.55593
3063.243, 0.8074295
3065.172, -6.046840
3067.100, 12.68139
3069.029, 17.98338
3070.957, 17.68989
3072.885, 14.12490
3074.814, 4.615164
3076.742, 10.73660
3078.671, 14.96606
3080.599, 13.38886
3082.528, 7.245913
3084.456, 11.29404
3086.385, 13.71408
3088.313, 12.35478
3090.242, 13.72596
3092.170, 11.50902
3094.099, 8.083539
3096.027, 7.641541
3097.956, 15.61760
3099.884, 8.786810
3101.813, 3.047712
3103.741, 4.837436
3105.669, 11.29807
3107.598, 9.904789
3109.526, 10.42854
3111.455, 16.32949
3113.383, 9.143152
3115.312, 15.12286
3117.240, 10.82873
3119.169, -8.375125
3121.097, -4.973331
3123.026, -3.448630
3124.954, -7.7073380E-02
3126.883, 7.283181
3128.811, 7.670338
3130.740, 5.267997
3132.668, 5.812216
3134.596, 10.55444
3136.525, 8.812687
3138.453, 6.248572
3140.382, 5.931016
3142.310, 7.388045
3144.239, 4.276321
3146.167, 1.251964
3148.096, 1.886363
3150.024, 4.513214
3151.953, 12.94170
3153.881, 7.715698
3155.810, 5.957352
3157.738, 11.46490
3159.667, 9.332427
3161.595, 0.9987795
3163.523, 3.201538
3165.452, 11.13093
3167.380, -2.7275030E-02
3169.309, 8.980223
3171.237, 12.35095
3173.166, 4.093920
3175.094, -2.678851
3177.023, -1.420724
3178.951, 4.515093
3180.880, 10.86775
3182.808, 10.98730
3184.737, 12.35504
3186.665, 8.050464
3188.594, 3.446069
3190.522, 2.908457
3192.450, 4.793361
3194.379, 5.476275
3196.307, 4.647832
3198.236, 8.713992
3200.164, 10.52600
3202.093, 9.644058
3204.021, 6.782557
3205.950, 5.880071
3207.878, 6.412660
3209.807, 2.150774
3211.735, 5.493088
3213.664, 9.691917
3215.592, -1.651476
3217.521, -5.760277
3219.449, 3.330137
3221.377, 17.42793
3223.306, 19.27612
3225.234, 12.95750
3227.163, 11.33064
3229.091, 9.844877
3231.020, -1.909819
3232.948, -0.6861473
3234.877, 6.439373
3236.805, 5.236766
3238.734, 1.565382
3240.662, -3.217525
3242.591, -1.900068
3244.519, 5.428355
3246.448, 14.99947
3248.376, 7.028781
3250.304, 4.791963
3252.233, 3.046493
3254.161, 0.9805042
3256.090, 1.628584
3258.018, 6.746097
3259.947, 11.71727
3261.875, 18.09430
3263.804, 23.29430
3265.732, 4.343672
3267.661, -9.8317280E-02
3269.589, 6.855586
3271.518, 8.941138
3273.446, 5.920159
3275.375, 8.756422
3277.303, 14.14472
3279.231, 16.75566
3281.160, 17.23245
3283.088, 15.94794
3285.017, 1.469023
3286.945, -8.817376
3288.874, -3.469699
3290.802, 3.693993
3292.731, 2.964635
3294.659, 4.645535
3296.588, 1.848561
3298.516, -8.254692
3300.445, 1.080813
3302.373, 6.338803
3304.302, 6.034194
3306.230, 4.742081
3308.158, 3.954042
3310.087, 11.44733
3312.015, 11.67581
3313.944, 9.453650
3315.872, 10.61355
3317.801, -1.169208
3319.729, 0.7735787
3321.658, 11.64610
3323.586, 18.61811
3325.515, 2.269854
3327.443, 9.467716
3329.372, 13.74479
3331.300, 8.418734
3333.229, 0.6787297
3335.157, 7.294685
3337.085, -0.5219286
3339.014, 1.489990
3340.942, 9.444028
3342.871, 5.316632
3344.799, -0.4035110
3346.728, 2.678714
3348.656, 6.852136
3350.585, 7.246563
3352.513, 12.36528
3354.442, 2.420457
3356.370, -1.740242
3358.299, 8.6203396E-02
3360.227, 2.343010
3362.156, 0.2623180
3364.084, -2.369487
3366.012, 0.8716167
3367.941, 0.8656294
3369.869, -11.26087
3371.798, 0.8848636
3373.726, 5.274406
3375.655, 8.225614
3377.583, 11.39659
3379.512, 6.711839
3381.440, 8.094857
3383.369, 4.944243
3385.297, 4.089305
3387.226, 7.540110
3389.154, 4.790080
3391.083, -9.608575
3393.011, -0.2685645
3394.939, 10.69886
3396.868, 6.376523
3398.796, 0.6674476
3400.725, 1.651603
3402.653, -2.376095
3404.582, -0.5164528
3406.510, 10.36118
3408.439, 3.281607
3410.367, -8.130238
3412.296, -8.459011
3414.224, -1.698693
3416.153, 3.655344
3418.081, 2.329014
3420.010, 9.8056309E-02
3421.938, 3.684685
3423.866, -0.9324104
3425.795, -17.57904
3427.723, 9.610126
3429.652, 8.893415
3431.580, 5.531606
3433.509, 5.247795
3435.437, 3.681250
3437.366, 0.7943163
3439.294, -0.1165766
3441.223, -2.080806
3443.151, -5.555153
3445.080, -7.886346
3447.008, 7.6253829E-03
3448.937, -6.051343
3450.865, -0.7408926
3452.793, 5.989452
3454.722, 1.807663
3456.650, -6.495339
3458.579, -1.449980
3460.507, -1.414726
3462.436, 1.054534
3464.364, 6.188200
3466.293, -4.453199
3468.221, 0.7248335
3470.150, 10.42714
3472.078, 6.665742
3474.007, -5.447579
3475.935, -3.598381
3477.864, -10.57852
3479.792, 6.078691
3481.720, 11.80418
3483.649, 2.235346
3485.577, -2.499282
3487.506, -0.7705944
3489.434, 7.015956
3491.363, 5.102719
3493.291, 0.9915068
3495.220, 4.452463
3497.148, 2.987506
3499.077, 3.261577
3501.005, 5.694516
3502.934, -0.1587873
3504.862, -9.691529
3506.791, 4.094121
3508.719, 1.396037
3510.647, -10.17880
3512.576, -6.869677
3514.504, 7.229909
3516.433, 12.15778
3518.361, 1.740663
3520.290, -0.3477204
3522.218, -3.400396
3524.147, -4.779514
3526.075, -1.125675
3528.004, 1.002581
3529.932, 5.914930
3531.861, 7.863415
3533.789, 3.343970
3535.718, -1.347509
3537.646, 3.180612
3539.574, 0.6014214
3541.503, 14.11524
3543.431, 12.14679
3545.360, 3.660392
3547.288, 7.890713
3549.217, 28.38905
3551.145, 14.87879
3553.074, 7.933156
3555.002, 9.878611
3556.931, 7.559177
3558.859, -4.767758
3560.788, 0.5798271
3562.716, 1.755788
3564.645, 3.441115
3566.573, -1.140340
3568.501, -4.506762
3570.430, 8.394284
3572.358, 3.859290
3574.287, 5.349075
3576.215, 1.586771
3578.144, 2.103941
3580.072, 9.041193
3582.001, 3.595492
3583.929, -10.97197
3585.858, 1.192385
3587.786, 1.468104
3589.715, -2.561660
3591.643, 5.454827
3593.572, 7.001371
3595.500, 1.736088
3597.428, -4.880884
3599.357, -7.520499
3601.285, -6.550772
3603.214, -3.029586
3605.142, 9.642532
3607.071, -1.138819
3608.999, 7.067069
3610.928, 14.64432
3612.856, 9.709113
3614.785, 0.8832455
3616.713, 11.01409
3618.642, -0.2219833
3620.570, 5.001062
3622.499, 2.276092
3624.427, -10.99544
3626.355, -18.21486
3628.284, -8.770189
3630.212, -0.5584946
3632.141, 4.349538
3634.069, 3.244218
3635.998, -4.721150
3637.926, -14.23557
3639.855, -12.65615
3641.783, 12.98627
3643.712, 3.540318
3645.640, 1.881938
3647.569, 5.599567
3649.497, 3.188535
3651.426, 3.977994
3653.354, 1.088872
3655.282, -9.879266
3657.211, -6.022046
3659.139, -4.252704
3661.068, -2.191749
3662.996, 14.79881
3664.925, 2.150785
3666.853, 1.052927
3668.782, 3.901982
3670.710, 3.643774
3672.639, 2.140804
3674.567, 1.931581
3676.496, -1.330448
3678.424, -3.955533
3680.353, -9.060640
3682.281, 6.609891
3684.209, 13.48104
3686.138, 7.557125
3688.066, 17.70377
3689.995, -4.224220
3691.923, 5.956256
3693.852, -4.944215
3695.780, -7.976162
3697.709, -6.231913
3699.637, -11.56596
3701.566, -4.291589
3703.494, -10.85815
3705.423, -5.878335
3707.351, -2.535540
3709.280, 0.7347387
3711.208, 6.286500
3713.136, 7.852755
3715.065, -6.108962
3716.993, -6.062525
3718.922, -1.533559
3720.850, 3.691786
3722.779, 2.412783
3724.707, -1.631760
3726.636, 0.9148695
3728.564, 5.676583
3730.493, 1.763414
3732.421, -10.22364
3734.350, -0.7631790
3736.278, 8.076225
3738.207, 4.700152
3740.135, 5.600020
3742.063, 13.37335
3743.992, 4.246258
3745.920, 9.414152
3747.849, 15.45359
3749.777, 16.99961
3751.706, 9.358233
3753.634, -6.389624
3755.563, 7.245431
3757.491, -7.533567
3759.420, -0.4093969
3761.348, 12.27037
3763.277, 8.358397
3765.205, -0.8555400
3767.134, -1.157872
3769.062, -14.31193
3770.990, 6.265454
3772.919, 3.565099
3774.847, -9.902314
3776.776, -3.289081
3778.704, 3.744838
3780.633, -3.465872
3782.561, 1.544875
3784.490, 10.83773
3786.418, 7.830595
3788.347, 3.349111
3790.275, -0.7856113
3792.204, -6.337812
3794.132, -9.700233
3796.061, -4.062193
3797.989, 9.417950
3799.917, -3.555869
3801.846, -2.842754
3803.774, 2.644941
3805.703, -1.859871
3807.631, -8.760102
3809.560, -5.962687
3811.488, 2.908107
3813.417, -7.391446
3815.345, 1.207435
3817.274, 0.9244051
3819.202, -4.334890
3821.131, -8.123363
3823.059, -3.738705
3824.988, 5.126901
3826.916, 4.939124
3828.844, -1.427056
3830.773, 2.139130
3832.701, -8.287114
3834.630, 11.50845
3836.558, 8.437126
3838.487, -5.314765
3840.415, -5.817804
3842.344, -13.89838
3844.272, -0.4345962
3846.201, 0.5585917
3848.129, -2.131225
3850.058, -8.322395
3851.986, -7.007720
3853.915, -2.687222
3855.843, 1.659295
3857.771, 7.542446
3859.700, 3.631191
3861.628, -2.889198
3863.557, 5.237898
3865.485, 3.468005
3867.414, -0.1149896
3869.342, -5.096920
3871.271, -1.098382
3873.199, 8.302238
3875.128, -0.8069722
3877.056, 3.537143
3878.985, 4.185044
3880.913, -4.509353
3882.842, -4.904522
3884.770, -6.193799
3886.698, -1.630922
3888.627, 4.279031
3890.555, 0.9704067
3892.484, -0.9742348
3894.412, -6.407781
3896.341, 7.257667
3898.269, 0.5559213
3900.198, -2.789987
3902.126, -9.606441
3904.055, -4.034940
3905.983, 8.800782
3907.912, 5.653768
3909.840, -8.726515
3911.769, -16.19518
3913.697, 8.201963
3915.625, -12.37448
3917.554, -16.10943
3919.482, -5.589600
3921.411, -0.4070814
3923.339, -1.085792
3925.268, -1.354299
3927.196, 0.6952211
3929.125, 10.08723
3931.053, -1.363838
3932.982, -11.98339
3934.910, -8.152108
3936.839, -5.939315
3938.767, -13.57734
3940.696, 1.416069
3942.624, 11.31868
3944.552, -8.828406
3946.481, 1.773055
3948.409, 3.631744
3950.338, 10.80161
3952.266, -2.148731
3954.195, -14.49120
3956.123, -17.42564
3958.052, -6.570789
3959.980, 3.396257
3961.909, 1.961577
3963.837, -0.1523717
3965.766, 5.507340
3967.694, -13.12886
3969.623, -4.774385
3971.551, 12.46785
3973.479, -3.037986
3975.408, -14.67968
3977.336, -15.18162
3979.265, -5.123181
3981.193, 0.8484868
3983.122, -2.743794
3985.050, -1.991488
3986.979, 4.803583
3988.907, 0.4822870
3990.836, -0.9577775
3992.764, -0.2163833
3994.693, -0.4634231
3996.621, 1.568114
3998.550, 10.83033
4000.478, 2.643650
4002.406, -4.288377
4004.335, -1.278439
4006.263, -8.895765
4008.192, -6.244665
4010.120, -10.97813
4012.049, -11.95516
4013.977, -4.278796
4015.906, -5.910359
4017.834, -10.87830
4019.763, 1.365954
4021.691, 10.56605
4023.620, 4.898106
4025.548, -2.905590
4027.477, 0.5262341
4029.405, 7.622460
4031.333, -2.532459
4033.262, 3.061753
4035.190, 16.51922
4037.119, -12.76506
4039.047, -6.251292
4040.976, -8.7592334E-02
4042.904, -3.189659
4044.833, -5.265999
4046.761, -3.043901
4048.690, 4.454166
4050.618, 11.56648
4052.547, 10.51656
4054.475, 3.323995
4056.404, -18.34747
4058.332, 2.280418
4060.260, -17.74994
4062.189, 1.602357
4064.117, 2.634406
4066.046, 5.826316
4067.974, 6.320764
4069.903, 2.633962
4071.831, 12.12152
4073.760, 6.820097
4075.688, -13.49528
4077.617, -11.96911
4079.545, -3.230636
4081.474, -4.516215
4083.402, -10.39824
4085.331, -4.237739
4087.259, 14.88977
4089.188, -4.085962
4091.116, -4.096042
4093.044, 11.39322
4094.973, 11.38151
4096.901, 7.229729
4098.830, -10.52162
4100.758, -9.985794
4102.687, 5.021209
4104.615, 2.868562
4106.544, 1.971664
4108.472, -5.048383
4110.401, -2.237228
4112.329, -1.323047
4114.258, 3.982188
4116.186, -14.36129
4118.115, -4.193267
4120.043, 5.755958
4121.972, 12.73647
4123.900, 7.110597
4125.829, -7.555442
4127.757, -8.433146
4129.686, -5.491078
4131.614, -2.440315
4133.542, 1.339461
4135.471, -1.502313
4137.399, -1.462842
4139.328, 1.618619
4141.256, 0.3992239
4143.185, 6.242384
4145.113, 1.156429
4147.042, -8.129270
4148.970, -11.91193
4150.898, -7.254047
4152.827, -1.526910
4154.755, 1.826643
4156.684, -7.669563
4158.612, 4.546710
4160.541, 16.42961
4162.469, 3.473576
4164.398, -7.480789
4166.326, -10.24992
4168.255, -13.80110
4170.183, -3.051326
4172.112, 15.16653
4174.040, 15.21954
4175.969, 8.422890
4177.897, -17.65399
4179.826, -5.429553
4181.754, 1.238712
4183.683, -9.962538
4185.611, -2.768422
4187.540, -0.4271561
4189.468, 1.989282
4191.396, 1.325479
4193.325, -13.30233
4195.253, 6.134568
4197.182, 12.11702
4199.110, -1.682309
4201.039, -2.991872
4202.967, -15.35320
4204.896, -13.35291
4206.824, -4.856439
4208.752, -10.70415
4210.681, -6.698431
4212.609, -7.895064
4214.538, -6.0155340E-02
4216.466, -9.455496
4218.395, 12.72638
4220.323, 7.449984
4222.252, -2.547955
4224.180, 25.59826
4226.109, -10.46853
4228.037, 13.46709
4229.966, -3.209463
4231.894, -7.500513
4233.823, 3.025492
4235.751, -5.096908
4237.680, 11.09238
4239.608, -4.025861
4241.537, -16.52537
4243.465, -1.479386
4245.394, 2.325366
4247.322, -5.163765
4249.250, -6.415258
4251.179, -0.2833610
4253.107, -9.336097
4255.036, -11.17825
4256.964, -4.291882
4258.893, -12.66580
4260.821, -4.080003
4262.750, 14.98683
4264.678, 1.942520
4266.606, -5.543581
4268.535, 3.380931
4270.463, -13.70990
4272.392, 5.201549
4274.320, -2.539392
4276.249, 14.70918
4278.177, 3.278779
4280.106, 16.09924
4282.034, 17.82897
4283.963, -8.050512
4285.891, -9.576061
4287.820, 1.541345
4289.748, 11.66567
4291.677, 4.487893
4293.605, 4.199778
4295.534, -6.071442
4297.462, -6.649500
4299.391, 0.7058864
4301.319, 2.089098
4303.248, 4.225238
4305.176, -6.720057
4307.104, 5.443420
4309.033, 1.254578
4310.961, 3.632478
4312.890, -5.697760
4314.818, -15.36118
4316.747, -22.62863
4318.675, 5.756949
4320.604, -1.382176
4322.532, 1.942147
##END=



