##NAMES=Sphalerite
##RRUFFID=R050140
##IDEAL CHEMISTRY=ZnS
##LOCALITY=Big Four mine, Summit County, Colorado, USA
##OWNER=RRUFF
##SOURCE=Dave Bunk Minerals
##DESCRIPTION=Group of dark green tetrahedra
##STATUS=The identification of this mineral has been confirmed by X-ray diffraction and chemical analysis
##URL=https://www.rruff.net/odr/rruff_sample/R050140
##MEASURED CHEMISTRY=Zn_1.00_S_1.00_
##DIFFRACTION SAMPLE DESCRIPTION=Powder
##CELL PARAMETERS=a: 5.41089 b: 5.41089 c: 5.41089 alpha: 90 beta: 90 gamma: 90 volume: 158.419 crystal system: cubic
##FILETYPE=Raman RAW
##RAMAN WAVELENGTH=532

88.33008, 201.2820
90.25854, 185.5353
92.18701, 179.4660
94.11548, 184.8393
96.04395, 200.1579
97.97241, 218.1936
99.90088, 239.8682
101.8293, 263.4832
103.7578, 287.5551
105.6863, 310.5414
107.6147, 336.6519
109.5432, 363.2090
111.4717, 391.8230
113.4001, 432.3919
115.3286, 491.6245
117.2571, 562.1529
119.1855, 638.4706
121.1140, 724.9759
123.0425, 812.5961
124.9709, 897.8619
126.8994, 977.8443
128.8279, 1017.974
130.7563, 1056.630
132.6848, 1099.967
134.6133, 1151.579
136.5417, 1214.148
138.4702, 1280.011
140.3987, 1346.630
142.3271, 1416.729
144.2556, 1483.705
146.1841, 1551.434
148.1125, 1616.929
150.0410, 1672.595
151.9695, 1714.525
153.8979, 1749.779
155.8264, 1781.309
157.7549, 1809.167
159.6833, 1834.002
161.6118, 1849.762
163.5403, 1858.644
165.4688, 1880.971
167.3972, 1924.051
169.3257, 1976.038
171.2542, 2026.727
173.1826, 2074.429
175.1111, 2123.679
177.0396, 2180.768
178.9680, 2251.703
180.8965, 2298.069
182.8250, 2315.905
184.7534, 2311.648
186.6819, 2296.507
188.6104, 2267.805
190.5388, 2231.048
192.4673, 2184.560
194.3958, 2123.563
196.3242, 2073.688
198.2527, 2038.424
200.1812, 2014.819
202.1096, 1998.918
204.0381, 1982.534
205.9666, 1981.153
207.8950, 2001.002
209.8235, 2040.585
211.7520, 2099.063
213.6804, 2188.663
215.6089, 2296.309
217.5374, 2398.707
219.4658, 2527.548
221.3943, 2625.609
223.3228, 2671.136
225.2512, 2667.961
227.1797, 2621.819
229.1082, 2516.861
231.0366, 2373.414
232.9651, 2239.463
234.8936, 2112.302
236.8220, 1997.222
238.7505, 1897.172
240.6790, 1820.524
242.6074, 1737.471
244.5359, 1645.163
246.4644, 1545.276
248.3928, 1440.612
250.3213, 1315.645
252.2498, 1206.339
254.1782, 1127.268
256.1067, 1094.130
258.0352, 1067.692
259.9636, 1045.588
261.8921, 1031.445
263.8206, 1029.138
265.7490, 1039.347
267.6775, 1063.015
269.6060, 1103.362
271.5344, 1163.642
273.4629, 1228.543
275.3914, 1311.231
277.3198, 1395.572
279.2483, 1454.379
281.1768, 1488.714
283.1052, 1495.264
285.0337, 1456.256
286.9622, 1371.574
288.8906, 1296.915
290.8191, 1247.042
292.7476, 1211.270
294.6760, 1177.505
296.6045, 1140.577
298.5330, 1110.341
300.4614, 1095.002
302.3899, 1093.071
304.3184, 1085.242
306.2468, 1064.143
308.1753, 1038.240
310.1038, 1017.169
312.0322, 1004.715
313.9607, 989.9058
315.8892, 966.8949
317.8176, 935.9055
319.7461, 910.0152
321.6746, 884.3204
323.6030, 866.1411
325.5315, 862.3516
327.4600, 871.7020
329.3884, 894.0582
331.3169, 933.4799
333.2454, 988.1599
335.1738, 1039.974
337.1023, 1091.976
339.0308, 1139.472
340.9592, 1178.881
342.8877, 1209.282
344.8162, 1238.357
346.7446, 1264.012
348.6731, 1289.232
350.6016, 1324.249
352.5300, 1380.045
354.4585, 1432.657
356.3870, 1473.975
358.3154, 1504.358
360.2439, 1523.184
362.1724, 1522.731
364.1008, 1514.416
366.0293, 1515.118
367.9578, 1527.063
369.8862, 1542.568
371.8147, 1557.280
373.7432, 1569.790
375.6716, 1593.022
377.6001, 1636.889
379.5286, 1683.642
381.4570, 1718.223
383.3855, 1738.221
385.3140, 1756.430
387.2424, 1771.967
389.1709, 1786.827
391.0994, 1813.312
393.0278, 1863.821
394.9563, 1913.443
396.8848, 1951.627
398.8132, 1978.616
400.7417, 1999.212
402.6702, 2018.145
404.5986, 2030.911
406.5271, 2027.446
408.4556, 2002.241
410.3840, 1972.798
412.3125, 1937.183
414.2410, 1895.942
416.1694, 1876.549
418.0979, 1892.369
420.0264, 1921.096
421.9548, 1953.832
423.8833, 1996.857
425.8118, 2020.726
427.7402, 2015.398
429.6687, 1986.794
431.5972, 1942.479
433.5256, 1875.871
435.4541, 1800.527
437.3826, 1713.494
439.3110, 1615.850
441.2395, 1527.931
443.1680, 1454.626
445.0964, 1391.474
447.0249, 1336.525
448.9534, 1293.770
450.8818, 1253.766
452.8103, 1223.986
454.7388, 1196.333
456.6672, 1152.723
458.5957, 1084.654
460.5242, 1006.012
462.4526, 916.6656
464.3811, 809.2927
466.3096, 720.9091
468.2380, 659.9213
470.1665, 616.0571
472.0950, 578.5124
474.0234, 545.9706
475.9519, 523.5501
477.8804, 517.0248
479.8088, 522.7482
481.7373, 522.7731
483.6658, 511.8434
485.5942, 501.9601
487.5227, 497.9178
489.4512, 500.4066
491.3796, 506.5531
493.3081, 519.9203
495.2366, 534.4789
497.1650, 543.5098
499.0935, 545.6624
501.0220, 547.2665
502.9504, 550.5109
504.8789, 554.6974
506.8074, 557.2282
508.7358, 554.5594
510.6643, 553.7825
512.5928, 558.0376
514.5212, 566.8564
516.4497, 577.5637
518.3782, 596.5607
520.3066, 613.2653
522.2351, 620.0084
524.1636, 610.7850
526.0920, 600.4918
528.0205, 589.1971
529.9490, 577.3121
531.8774, 565.6998
533.8059, 555.3408
535.7344, 543.6614
537.6628, 527.6456
539.5913, 507.4733
541.5198, 494.6324
543.4482, 494.6299
545.3767, 497.1611
547.3052, 496.6982
549.2336, 492.5756
551.1621, 489.2274
553.0906, 486.4068
555.0190, 484.8499
556.9475, 485.9796
558.8760, 490.5499
560.8044, 495.3626
562.7329, 497.5026
564.6614, 499.0648
566.5898, 506.1662
568.5183, 526.1560
570.4468, 544.8951
572.3752, 557.7465
574.3037, 564.7844
576.2322, 572.4086
578.1606, 579.7279
580.0891, 588.9299
582.0176, 601.3164
583.9460, 618.0860
585.8745, 635.3067
587.8030, 653.3387
589.7314, 671.4874
591.6599, 688.4827
593.5884, 703.1617
595.5168, 720.3072
597.4453, 740.8182
599.3738, 764.6292
601.3022, 792.2457
603.2307, 824.8439
605.1592, 859.9359
607.0876, 897.6631
609.0161, 937.9111
610.9446, 979.9539
612.8730, 1030.663
614.8015, 1076.265
616.7300, 1111.357
618.6584, 1136.197
620.5869, 1146.930
622.5154, 1140.286
624.4438, 1121.648
626.3723, 1090.764
628.3008, 1041.456
630.2292, 1007.888
632.1577, 998.8369
634.0862, 1008.935
636.0146, 1032.719
637.9431, 1082.333
639.8716, 1129.873
641.8000, 1183.049
643.7285, 1229.917
645.6570, 1244.723
647.5854, 1209.756
649.5139, 1162.903
651.4424, 1110.186
653.3708, 1051.840
655.2993, 1011.859
657.2278, 976.6106
659.1563, 969.7994
661.0847, 1009.200
663.0132, 1092.241
664.9417, 1186.677
666.8701, 1296.574
668.7986, 1409.912
670.7271, 1525.235
672.6555, 1659.986
674.5840, 1747.599
676.5125, 1776.012
678.4409, 1755.451
680.3694, 1695.678
682.2979, 1579.287
684.2263, 1470.596
686.1548, 1379.825
688.0833, 1303.667
690.0117, 1237.114
691.9402, 1182.187
693.8687, 1131.078
695.7971, 1087.265
697.7256, 1045.556
699.6541, 995.0341
701.5825, 927.8588
703.5110, 860.9857
705.4395, 795.7504
707.3679, 733.6735
709.2964, 683.9830
711.2249, 649.7237
713.1533, 623.5768
715.0818, 604.8540
717.0103, 592.6066
718.9387, 580.1653
720.8672, 563.5493
722.7957, 549.6124
724.7241, 542.2477
726.6526, 542.9594
728.5811, 542.2302
730.5095, 538.5717
732.4380, 534.4821
734.3665, 532.1792
736.2949, 532.2432
738.2234, 529.0588
740.1519, 517.7225
742.0803, 505.9508
744.0088, 500.1053
745.9373, 502.1198
747.8657, 503.8727
749.7942, 504.2818
751.7227, 504.5293
753.6511, 505.7436
755.5796, 508.4600
757.5081, 510.4082
759.4365, 511.1925
761.3650, 511.0235
763.2935, 509.9959
765.2219, 507.7309
767.1504, 505.2545
769.0789, 500.1317
771.0073, 496.0256
772.9358, 497.9987
774.8643, 510.2144
776.7927, 519.1582
778.7212, 519.0541
780.6497, 515.0587
782.5781, 517.3677
784.5066, 530.3168
786.4351, 540.8305
788.3635, 546.0906
790.2920, 547.0377
792.2205, 544.7606
794.1489, 536.8904
796.0774, 530.3188
798.0059, 527.0587
799.9343, 526.1299
801.8628, 525.1915
803.7913, 525.1490
805.7197, 523.9037
807.6482, 519.4050
809.5767, 513.7650
811.5051, 510.3947
813.4336, 508.3797
815.3621, 511.0326
817.2905, 523.6677
819.2190, 541.5291
821.1475, 549.7425
823.0759, 539.4757
825.0044, 531.9395
826.9329, 534.6949
828.8613, 542.6832
830.7898, 545.5782
832.7183, 539.2465
834.6467, 535.1102
836.5752, 537.6427
838.5037, 544.6538
840.4321, 549.6389
842.3606, 552.6534
844.2891, 553.7870
846.2175, 551.0911
848.1460, 546.9011
850.0745, 545.7723
852.0029, 548.9168
853.9314, 552.7259
855.8599, 558.0848
857.7883, 563.1053
859.7168, 563.3519
861.6453, 550.0665
863.5737, 542.7079
865.5022, 548.4598
867.4307, 560.4068
869.3591, 565.7805
871.2876, 562.5002
873.2161, 559.0414
875.1445, 558.3175
877.0730, 558.9104
879.0015, 558.6698
880.9299, 555.2938
882.8584, 554.4445
884.7869, 558.2411
886.7153, 564.0777
888.6438, 568.5600
890.5723, 571.9326
892.5007, 573.3561
894.4292, 569.0524
896.3577, 564.7107
898.2861, 567.0441
900.2146, 581.0475
902.1431, 589.5037
904.0715, 586.5455
906.0000, 580.5687
907.9285, 580.8116
909.8569, 589.0756
911.7854, 592.9743
913.7139, 583.8259
915.6423, 575.4669
917.5708, 578.4028
919.4993, 594.2972
921.4277, 607.6570
923.3562, 617.1050
925.2847, 623.1272
927.2131, 625.1030
929.1416, 622.3133
931.0701, 619.8110
932.9985, 617.0983
934.9270, 615.1014
936.8555, 614.7736
938.7839, 615.6706
940.7124, 615.7651
942.6409, 614.9247
944.5693, 612.9669
946.4978, 608.1971
948.4263, 601.4537
950.3547, 599.7040
952.2832, 606.4995
954.2117, 613.6884
956.1401, 620.2338
958.0686, 625.7059
959.9971, 629.7286
961.9255, 633.0413
963.8540, 632.7167
965.7825, 622.3968
967.7109, 609.7324
969.6394, 606.5075
971.5679, 621.0302
973.4963, 632.1182
975.4248, 639.0136
977.3533, 641.9731
979.2817, 639.4787
981.2102, 630.7103
983.1387, 625.2327
985.0671, 626.4129
986.9956, 629.9718
988.9241, 633.2203
990.8525, 636.0832
992.7810, 638.4772
994.7095, 640.3878
996.6379, 641.6316
998.5664, 643.0249
1000.495, 644.2794
1002.423, 641.0062
1004.352, 626.4534
1006.280, 616.6057
1008.209, 621.5049
1010.137, 634.9281
1012.066, 643.5158
1013.994, 644.2340
1015.923, 645.5920
1017.851, 649.7328
1019.780, 655.7327
1021.708, 662.3306
1023.636, 671.1941
1025.565, 677.9486
1027.493, 683.9180
1029.422, 686.8787
1031.350, 683.4225
1033.279, 673.7974
1035.207, 664.9402
1037.136, 655.3776
1039.064, 650.0806
1040.993, 652.7991
1042.921, 663.6042
1044.850, 672.2452
1046.778, 679.0373
1048.707, 682.9113
1050.635, 680.6511
1052.563, 674.9771
1054.492, 674.9500
1056.420, 683.2950
1058.349, 690.3389
1060.277, 693.1480
1062.206, 693.6976
1064.134, 693.7133
1066.063, 692.8566
1067.991, 693.7550
1069.920, 699.5179
1071.848, 705.0067
1073.777, 707.2233
1075.705, 705.8776
1077.634, 702.9368
1079.562, 693.8856
1081.490, 688.1779
1083.419, 691.6888
1085.347, 701.3500
1087.276, 708.0709
1089.204, 711.1996
1091.133, 712.7089
1093.061, 711.0717
1094.990, 709.2042
1096.918, 710.6865
1098.847, 716.5142
1100.775, 722.7942
1102.704, 732.8365
1104.632, 740.1041
1106.561, 738.4963
1108.489, 727.4609
1110.417, 721.5027
1112.346, 724.2987
1114.274, 727.4817
1116.203, 728.0602
1118.131, 726.8156
1120.060, 724.3200
1121.988, 718.4561
1123.917, 717.5660
1125.845, 728.7563
1127.774, 742.4850
1129.702, 749.6558
1131.631, 746.9498
1133.559, 747.0453
1135.488, 753.4623
1137.416, 759.0042
1139.344, 759.0298
1141.273, 754.8437
1143.201, 754.0307
1145.130, 759.0452
1147.058, 762.4001
1148.987, 757.4431
1150.915, 751.2607
1152.844, 754.1923
1154.772, 769.1787
1156.701, 778.7211
1158.629, 774.2218
1160.558, 768.7264
1162.486, 770.2277
1164.415, 778.8475
1166.343, 784.1265
1168.271, 782.5760
1170.200, 782.5925
1172.128, 788.9595
1174.057, 797.1496
1175.985, 798.9725
1177.914, 793.2661
1179.842, 788.0797
1181.771, 783.4813
1183.699, 781.5929
1185.628, 784.4636
1187.556, 791.8401
1189.485, 798.5369
1191.413, 806.4391
1193.342, 810.6022
1195.270, 807.0240
1197.198, 799.8775
1199.127, 796.6539
1201.055, 798.8563
1202.984, 802.1776
1204.912, 809.4570
1206.841, 815.2653
1208.769, 813.2719
1210.698, 805.5781
1212.626, 804.2385
1214.555, 812.9155
1216.483, 821.9036
1218.412, 829.1247
1220.340, 833.7764
1222.269, 833.4389
1224.197, 825.9623
1226.125, 822.3601
1228.054, 827.1243
1229.982, 832.8065
1231.911, 835.9027
1233.839, 836.6039
1235.768, 836.7457
1237.696, 833.9147
1239.625, 833.7832
1241.553, 839.5112
1243.482, 847.0194
1245.410, 851.7034
1247.339, 853.7637
1249.267, 856.5994
1251.196, 863.6088
1253.124, 867.3971
1255.052, 860.4626
1256.981, 848.3111
1258.909, 845.4330
1260.838, 856.5380
1262.766, 863.9845
1264.695, 860.2791
1266.623, 855.6398
1268.552, 857.3278
1270.480, 865.4666
1272.409, 873.0974
1274.337, 879.8804
1276.266, 886.9473
1278.194, 896.5419
1280.123, 905.8215
1282.051, 910.3415
1283.979, 910.0896
1285.908, 909.4907
1287.836, 910.4072
1289.765, 909.2751
1291.693, 900.7844
1293.622, 889.5347
1295.550, 885.7316
1297.479, 890.7051
1299.407, 899.6147
1301.336, 916.7457
1303.264, 932.6382
1305.193, 941.7696
1307.121, 944.0986
1309.050, 942.6739
1310.978, 929.6908
1312.906, 923.1691
1314.835, 932.4515
1316.763, 945.3088
1318.692, 947.3029
1320.620, 937.1921
1322.549, 931.1351
1324.477, 931.9052
1326.406, 933.7548
1328.334, 934.0223
1330.263, 934.1818
1332.191, 936.0070
1334.120, 939.3257
1336.048, 945.2650
1337.977, 959.0016
1339.905, 968.6115
1341.833, 965.3855
1343.762, 954.1330
1345.690, 949.6893
1347.619, 954.6445
1349.547, 960.2487
1351.476, 966.1893
1353.404, 971.7181
1355.333, 976.8566
1357.261, 981.3912
1359.190, 983.5244
1361.118, 980.5553
1363.047, 979.0568
1364.975, 980.6324
1366.904, 983.0157
1368.832, 984.1061
1370.760, 984.1057
1372.689, 985.5242
1374.617, 989.8217
1376.546, 992.4056
1378.474, 989.8561
1380.403, 986.3317
1382.331, 986.3746
1384.260, 989.5606
1386.188, 990.0948
1388.117, 985.1035
1390.045, 982.4543
1391.974, 987.0516
1393.902, 994.1736
1395.831, 998.8192
1397.759, 1000.698
1399.688, 1002.026
1401.616, 1001.854
1403.544, 1001.885
1405.473, 1000.378
1407.401, 1000.085
1409.330, 1006.295
1411.258, 1022.430
1413.187, 1030.465
1415.115, 1025.682
1417.044, 1019.652
1418.972, 1014.618
1420.901, 1011.265
1422.829, 1010.441
1424.758, 1012.071
1426.686, 1017.169
1428.615, 1033.367
1430.543, 1041.803
1432.471, 1024.667
1434.400, 1000.800
1436.328, 997.1838
1438.257, 1014.167
1440.185, 1025.298
1442.114, 1024.387
1444.042, 1022.208
1445.971, 1022.919
1447.899, 1025.420
1449.828, 1028.420
1451.756, 1031.888
1453.685, 1035.713
1455.613, 1039.536
1457.542, 1043.788
1459.470, 1049.590
1461.398, 1054.989
1463.327, 1057.927
1465.255, 1058.615
1467.184, 1055.781
1469.112, 1043.411
1471.041, 1035.912
1472.969, 1040.951
1474.898, 1049.750
1476.826, 1050.945
1478.755, 1043.369
1480.683, 1043.531
1482.612, 1058.723
1484.540, 1070.816
1486.469, 1074.853
1488.397, 1075.165
1490.325, 1074.901
1492.254, 1074.199
1494.182, 1075.218
1496.111, 1080.454
1498.039, 1081.761
1499.968, 1070.965
1501.896, 1060.939
1503.825, 1064.247
1505.753, 1076.371
1507.682, 1082.503
1509.610, 1080.446
1511.539, 1079.118
1513.467, 1082.011
1515.396, 1084.523
1517.324, 1082.574
1519.252, 1078.408
1521.181, 1077.611
1523.109, 1080.843
1525.038, 1084.457
1526.966, 1089.120
1528.895, 1092.508
1530.823, 1092.733
1532.752, 1091.643
1534.680, 1091.360
1536.609, 1091.195
1538.537, 1096.671
1540.466, 1116.944
1542.394, 1129.946
1544.323, 1126.825
1546.251, 1116.004
1548.179, 1103.673
1550.108, 1089.485
1552.036, 1084.670
1553.965, 1094.710
1555.893, 1106.706
1557.822, 1123.581
1559.750, 1137.978
1561.679, 1143.193
1563.607, 1141.102
1565.536, 1140.343
1567.464, 1141.435
1569.393, 1142.483
1571.321, 1142.717
1573.250, 1143.594
1575.178, 1145.965
1577.106, 1149.349
1579.035, 1153.540
1580.963, 1159.188
1582.892, 1161.672
1584.820, 1159.699
1586.749, 1156.557
1588.677, 1149.254
1590.606, 1144.286
1592.534, 1149.979
1594.463, 1164.469
1596.391, 1174.174
1598.320, 1177.358
1600.248, 1181.009
1602.177, 1187.807
1604.105, 1193.798
1606.033, 1197.674
1607.962, 1198.711
1609.890, 1194.635
1611.819, 1185.151
1613.747, 1178.706
1615.676, 1176.562
1617.604, 1177.311
1619.533, 1185.556
1621.461, 1192.644
1623.390, 1187.209
1625.318, 1173.653
1627.247, 1170.259
1629.175, 1180.745
1631.104, 1187.953
1633.032, 1186.477
1634.960, 1182.569
1636.889, 1176.707
1638.817, 1171.935
1640.746, 1173.584
1642.674, 1181.490
1644.603, 1190.085
1646.531, 1201.327
1648.460, 1206.954
1650.388, 1199.917
1652.317, 1190.700
1654.245, 1188.742
1656.174, 1190.341
1658.102, 1182.557
1660.031, 1162.687
1661.959, 1152.380
1663.887, 1159.608
1665.816, 1169.042
1667.744, 1176.912
1669.673, 1181.667
1671.601, 1179.638
1673.530, 1172.267
1675.458, 1169.648
1677.387, 1173.522
1679.315, 1177.455
1681.244, 1179.105
1683.172, 1182.109
1685.101, 1190.394
1687.029, 1199.899
1688.958, 1205.653
1690.886, 1207.590
1692.814, 1202.499
1694.743, 1185.171
1696.671, 1173.908
1698.600, 1174.616
1700.528, 1181.401
1702.457, 1197.909
1704.385, 1215.553
1706.314, 1212.296
1708.242, 1186.576
1710.171, 1176.735
1712.099, 1196.247
1714.028, 1209.081
1715.956, 1194.731
1717.885, 1180.768
1719.813, 1190.707
1721.741, 1212.803
1723.670, 1213.584
1725.598, 1190.677
1727.527, 1178.848
1729.455, 1186.786
1731.384, 1194.976
1733.312, 1195.894
1735.241, 1195.813
1737.169, 1199.849
1739.098, 1200.286
1741.026, 1201.509
1742.955, 1204.733
1744.883, 1204.177
1746.812, 1208.478
1748.740, 1211.928
1750.668, 1213.672
1752.597, 1212.915
1754.525, 1206.277
1756.454, 1197.496
1758.382, 1195.512
1760.311, 1200.562
1762.239, 1209.467
1764.168, 1225.230
1766.096, 1236.551
1768.025, 1237.356
1769.953, 1235.089
1771.882, 1234.518
1773.810, 1234.456
1775.739, 1231.316
1777.667, 1225.190
1779.595, 1225.581
1781.524, 1237.612
1783.452, 1243.593
1785.381, 1233.304
1787.309, 1221.462
1789.238, 1217.129
1791.166, 1216.995
1793.095, 1216.194
1795.023, 1215.007
1796.952, 1216.401
1798.880, 1221.777
1800.809, 1225.436
1802.737, 1224.637
1804.666, 1223.886
1806.594, 1225.423
1808.522, 1228.270
1810.451, 1233.015
1812.379, 1238.361
1814.308, 1236.448
1816.236, 1224.341
1818.165, 1219.165
1820.093, 1228.305
1822.022, 1237.431
1823.950, 1240.092
1825.879, 1241.684
1827.807, 1249.896
1829.736, 1260.408
1831.664, 1257.695
1833.593, 1238.455
1835.521, 1231.429
1837.449, 1248.373
1839.378, 1260.050
1841.306, 1260.283
1843.235, 1254.687
1845.163, 1241.374
1847.092, 1227.140
1849.020, 1223.203
1850.949, 1229.400
1852.877, 1235.768
1854.806, 1240.479
1856.734, 1248.546
1858.663, 1267.909
1860.591, 1280.097
1862.520, 1277.813
1864.448, 1267.195
1866.376, 1246.199
1868.305, 1221.976
1870.233, 1219.511
1872.162, 1245.353
1874.090, 1259.492
1876.019, 1253.934
1877.947, 1251.269
1879.876, 1258.220
1881.804, 1265.379
1883.733, 1270.806
1885.661, 1272.690
1887.590, 1266.612
1889.518, 1254.599
1891.447, 1247.369
1893.375, 1245.047
1895.303, 1249.361
1897.232, 1266.937
1899.160, 1275.806
1901.089, 1260.771
1903.017, 1244.666
1904.946, 1242.415
1906.874, 1247.596
1908.803, 1253.897
1910.731, 1260.409
1912.660, 1261.061
1914.588, 1253.913
1916.517, 1252.008
1918.445, 1258.857
1920.374, 1268.045
1922.302, 1282.415
1924.230, 1292.754
1926.159, 1291.743
1928.087, 1283.248
1930.016, 1271.293
1931.944, 1256.586
1933.873, 1249.197
1935.801, 1251.147
1937.730, 1255.316
1939.658, 1265.223
1941.587, 1271.807
1943.515, 1273.086
1945.444, 1269.855
1947.372, 1255.728
1949.301, 1241.264
1951.229, 1247.806
1953.157, 1273.564
1955.086, 1284.898
1957.014, 1277.746
1958.943, 1271.333
1960.871, 1265.202
1962.800, 1263.643
1964.728, 1275.284
1966.657, 1282.612
1968.585, 1268.518
1970.514, 1250.490
1972.442, 1253.246
1974.371, 1270.402
1976.299, 1279.731
1978.228, 1280.585
1980.156, 1273.955
1982.084, 1253.860
1984.013, 1244.822
1985.941, 1263.589
1987.870, 1281.285
1989.798, 1283.210
1991.727, 1278.647
1993.655, 1274.379
1995.584, 1271.124
1997.512, 1271.273
1999.441, 1275.053
2001.369, 1278.100
2003.298, 1280.293
2005.226, 1281.951
2007.155, 1285.007
2009.083, 1284.957
2011.011, 1277.565
2012.940, 1270.344
2014.868, 1267.821
2016.797, 1268.580
2018.725, 1272.096
2020.654, 1277.338
2022.582, 1277.099
2024.511, 1270.616
2026.439, 1269.488
2028.368, 1277.738
2030.296, 1280.299
2032.225, 1267.365
2034.153, 1258.658
2036.082, 1269.301
2038.010, 1282.042
2039.938, 1282.870
2041.867, 1276.879
2043.795, 1272.107
2045.724, 1268.483
2047.652, 1264.670
2049.581, 1259.589
2051.509, 1257.992
2053.438, 1261.937
2055.366, 1266.047
2057.295, 1272.557
2059.223, 1275.138
2061.152, 1266.281
2063.080, 1257.210
2065.009, 1259.508
2066.937, 1267.111
2068.865, 1268.917
2070.794, 1265.417
2072.722, 1258.962
2074.651, 1248.928
2076.579, 1247.058
2078.508, 1259.014
2080.436, 1264.256
2082.365, 1249.931
2084.293, 1240.443
2086.222, 1253.646
2088.150, 1268.448
2090.079, 1268.506
2092.007, 1260.065
2093.936, 1251.374
2095.864, 1242.749
2097.792, 1234.446
2099.721, 1225.027
2101.649, 1224.345
2103.578, 1236.582
2105.506, 1248.662
2107.435, 1263.989
2109.363, 1271.372
2111.292, 1262.459
2113.220, 1250.671
2115.149, 1236.486
2117.077, 1228.671
2119.006, 1244.135
2120.934, 1269.634
2122.863, 1275.824
2124.791, 1264.968
2126.719, 1256.209
2128.648, 1250.569
2130.576, 1244.896
2132.505, 1236.767
2134.433, 1232.269
2136.362, 1233.757
2138.290, 1236.902
2140.219, 1241.721
2142.147, 1246.131
2144.076, 1249.714
2146.004, 1251.408
2147.933, 1248.608
2149.861, 1242.970
2151.790, 1239.139
2153.718, 1237.143
2155.646, 1238.406
2157.575, 1243.405
2159.503, 1247.181
2161.432, 1250.914
2163.360, 1247.929
2165.289, 1226.512
2167.217, 1212.725
2169.146, 1223.832
2171.074, 1236.422
2173.003, 1232.089
2174.931, 1223.249
2176.860, 1224.774
2178.788, 1232.923
2180.717, 1238.933
2182.645, 1242.705
2184.573, 1245.040
2186.502, 1245.798
2188.430, 1246.259
2190.359, 1246.465
2192.287, 1247.349
2194.216, 1250.254
2196.144, 1251.792
2198.073, 1251.396
2200.001, 1248.655
2201.930, 1240.250
2203.858, 1232.411
2205.787, 1232.028
2207.715, 1234.601
2209.644, 1232.711
2211.572, 1227.989
2213.500, 1227.284
2215.429, 1225.374
2217.357, 1223.207
2219.286, 1224.142
2221.214, 1221.085
2223.143, 1221.989
2225.071, 1222.829
2227.000, 1219.553
2228.928, 1222.351
2230.857, 1246.695
2232.785, 1262.646
2234.714, 1243.786
2236.642, 1221.970
2238.571, 1229.355
2240.499, 1247.001
2242.427, 1247.354
2244.356, 1235.267
2246.284, 1224.194
2248.213, 1214.297
2250.141, 1206.513
2252.070, 1200.648
2253.998, 1206.215
2255.927, 1227.702
2257.855, 1242.452
2259.784, 1246.894
2261.712, 1243.453
2263.641, 1222.132
2265.569, 1208.121
2267.498, 1216.866
2269.426, 1228.395
2271.354, 1233.446
2273.283, 1232.083
2275.211, 1219.441
2277.140, 1203.654
2279.068, 1198.798
2280.997, 1201.789
2282.925, 1204.346
2284.854, 1206.370
2286.782, 1207.555
2288.711, 1207.925
2290.639, 1206.746
2292.568, 1206.631
2294.496, 1206.626
2296.425, 1203.780
2298.353, 1205.655
2300.281, 1202.744
2302.210, 1199.839
2304.138, 1197.743
2306.067, 1196.989
2307.995, 1199.819
2309.924, 1202.067
2311.852, 1198.419
2313.781, 1194.065
2315.709, 1196.348
2317.638, 1202.122
2319.566, 1205.838
2321.495, 1207.159
2323.423, 1202.369
2325.352, 1190.743
2327.280, 1190.294
2329.208, 1202.575
2331.137, 1212.213
2333.065, 1218.511
2334.994, 1219.467
2336.922, 1213.196
2338.851, 1206.210
2340.779, 1197.549
2342.708, 1192.642
2344.636, 1195.191
2346.565, 1198.924
2348.493, 1201.426
2350.422, 1203.181
2352.350, 1206.105
2354.279, 1206.857
2356.207, 1198.538
2358.135, 1201.945
2360.064, 1190.675
2361.992, 1198.721
2363.921, 1198.211
2365.849, 1191.121
2367.778, 1187.242
2369.706, 1186.509
2371.635, 1190.242
2373.563, 1187.362
2375.492, 1184.558
2377.420, 1186.891
2379.349, 1177.429
2381.277, 1177.353
2383.206, 1178.560
2385.134, 1180.078
2387.063, 1180.713
2388.991, 1176.560
2390.919, 1176.392
2392.848, 1192.389
2394.776, 1201.406
2396.705, 1181.193
2398.633, 1160.459
2400.562, 1163.727
2402.490, 1174.321
2404.419, 1177.275
2406.347, 1175.747
2408.276, 1171.724
2410.204, 1167.531
2412.133, 1168.629
2414.061, 1173.716
2415.990, 1178.628
2417.918, 1183.160
2419.846, 1183.484
2421.775, 1179.339
2423.703, 1175.949
2425.632, 1173.638
2427.560, 1169.890
2429.489, 1164.167
2431.417, 1158.914
2433.346, 1153.185
2435.274, 1151.396
2437.203, 1157.584
2439.131, 1162.238
2441.060, 1162.427
2442.988, 1162.651
2444.917, 1164.157
2446.845, 1165.918
2448.773, 1171.930
2450.702, 1171.633
2452.630, 1147.236
2454.559, 1127.634
2456.487, 1140.226
2458.416, 1162.618
2460.344, 1179.692
2462.273, 1186.921
2464.201, 1168.238
2466.130, 1178.821
2468.058, 1146.765
2469.987, 1166.618
2471.915, 1159.331
2473.844, 1134.619
2475.772, 1130.889
2477.700, 1145.428
2479.629, 1152.101
2481.557, 1150.332
2483.486, 1156.972
2485.414, 1153.180
2487.343, 1146.965
2489.271, 1147.755
2491.200, 1133.871
2493.128, 1134.748
2495.057, 1139.096
2496.985, 1147.252
2498.914, 1153.990
2500.842, 1161.550
2502.771, 1161.982
2504.699, 1148.958
2506.627, 1140.824
2508.556, 1144.372
2510.484, 1147.955
2512.413, 1146.583
2514.341, 1145.938
2516.270, 1152.212
2518.198, 1154.448
2520.127, 1143.252
2522.055, 1131.031
2523.984, 1124.280
2525.912, 1120.273
2527.841, 1116.912
2529.769, 1115.905
2531.698, 1118.756
2533.626, 1124.987
2535.554, 1138.346
2537.483, 1151.195
2539.411, 1152.485
2541.340, 1146.855
2543.268, 1139.714
2545.197, 1132.420
2547.125, 1128.846
2549.054, 1127.000
2550.982, 1121.486
2552.911, 1114.197
2554.839, 1112.593
2556.768, 1115.086
2558.696, 1110.416
2560.625, 1112.324
2562.553, 1111.375
2564.481, 1109.571
2566.410, 1109.540
2568.338, 1099.865
2570.267, 1096.085
2572.195, 1099.162
2574.124, 1106.542
2576.052, 1120.274
2577.981, 1129.937
2579.909, 1135.541
2581.838, 1136.950
2583.766, 1134.004
2585.695, 1128.688
2587.623, 1120.365
2589.552, 1113.620
2591.480, 1107.423
2593.408, 1106.269
2595.337, 1113.048
2597.265, 1117.150
2599.194, 1116.936
2601.122, 1114.433
2603.051, 1107.582
2604.979, 1105.317
2606.908, 1116.724
2608.836, 1121.691
2610.765, 1108.500
2612.693, 1102.065
2614.622, 1112.613
2616.550, 1118.770
2618.479, 1108.461
2620.407, 1104.841
2622.335, 1128.212
2624.264, 1142.401
2626.192, 1125.103
2628.121, 1109.204
2630.049, 1110.181
2631.978, 1111.649
2633.906, 1105.055
2635.835, 1101.703
2637.763, 1111.720
2639.692, 1120.557
2641.620, 1120.536
2643.549, 1116.858
2645.477, 1110.504
2647.406, 1104.008
2649.334, 1098.404
2651.262, 1093.742
2653.191, 1088.692
2655.119, 1086.456
2657.048, 1089.685
2658.976, 1095.886
2660.905, 1106.537
2662.833, 1115.211
2664.762, 1117.203
2666.690, 1114.813
2668.619, 1109.095
2670.547, 1100.492
2672.476, 1084.102
2674.404, 1071.347
2676.333, 1075.567
2678.261, 1084.285
2680.189, 1087.334
2682.118, 1088.573
2684.046, 1091.655
2685.975, 1093.972
2687.903, 1092.666
2689.832, 1089.791
2691.760, 1085.167
2693.689, 1082.311
2695.617, 1085.604
2697.546, 1091.554
2699.474, 1101.916
2701.403, 1107.760
2703.331, 1095.610
2705.260, 1079.793
2707.188, 1074.788
2709.116, 1073.738
2711.045, 1067.952
2712.973, 1064.387
2714.902, 1073.234
2716.830, 1082.992
2718.759, 1079.433
2720.687, 1074.648
2722.616, 1086.353
2724.544, 1097.091
2726.473, 1082.039
2728.401, 1066.176
2730.330, 1075.069
2732.258, 1088.703
2734.187, 1088.060
2736.115, 1083.854
2738.043, 1086.948
2739.972, 1090.166
2741.900, 1088.021
2743.829, 1082.360
2745.757, 1068.071
2747.686, 1058.978
2749.614, 1075.749
2751.543, 1090.920
2753.471, 1072.131
2755.400, 1055.937
2757.328, 1079.038
2759.257, 1098.648
2761.185, 1075.164
2763.114, 1050.965
2765.042, 1058.303
2766.970, 1070.402
2768.899, 1071.412
2770.827, 1069.874
2772.756, 1069.583
2774.684, 1069.090
2776.613, 1068.594
2778.541, 1066.095
2780.470, 1057.675
2782.398, 1051.317
2784.327, 1052.116
2786.255, 1052.599
2788.184, 1047.651
2790.112, 1045.333
2792.041, 1053.574
2793.969, 1057.984
2795.897, 1046.962
2797.826, 1042.837
2799.754, 1054.950
2801.683, 1065.176
2803.611, 1068.509
2805.540, 1066.961
2807.468, 1055.914
2809.397, 1049.739
2811.325, 1052.657
2813.254, 1055.165
2815.182, 1056.954
2817.111, 1052.398
2819.039, 1053.023
2820.968, 1053.071
2822.896, 1045.141
2824.824, 1053.001
2826.753, 1042.055
2828.681, 1039.057
2830.610, 1050.472
2832.538, 1052.671
2834.467, 1039.308
2836.395, 1032.694
2838.324, 1033.538
2840.252, 1031.321
2842.181, 1025.643
2844.109, 1028.802
2846.038, 1041.888
2847.966, 1047.203
2849.895, 1044.761
2851.823, 1038.536
2853.751, 1029.503
2855.680, 1020.951
2857.608, 1015.458
2859.537, 1029.665
2861.465, 1054.880
2863.394, 1055.880
2865.322, 1042.092
2867.251, 1037.282
2869.179, 1039.178
2871.108, 1047.161
2873.036, 1055.461
2874.965, 1055.186
2876.893, 1048.330
2878.822, 1031.018
2880.750, 1015.963
2882.678, 1018.677
2884.607, 1026.868
2886.535, 1028.955
2888.464, 1031.633
2890.392, 1040.706
2892.321, 1051.381
2894.249, 1066.860
2896.178, 1074.239
2898.106, 1061.027
2900.035, 1047.335
2901.963, 1038.146
2903.892, 1036.269
2905.820, 1046.826
2907.749, 1053.659
2909.677, 1048.850
2911.605, 1044.991
2913.534, 1045.767
2915.462, 1041.307
2917.391, 1029.023
2919.319, 1021.047
2921.248, 1019.265
2923.176, 1022.617
2925.105, 1020.472
2927.033, 1020.540
2928.962, 1024.794
2930.890, 1021.656
2932.819, 1025.057
2934.747, 1031.215
2936.676, 1038.133
2938.604, 1031.050
2940.532, 1015.707
2942.461, 1011.688
2944.389, 1014.599
2946.318, 1016.815
2948.246, 1018.839
2950.175, 1021.865
2952.103, 1024.631
2954.032, 1027.031
2955.960, 1026.525
2957.889, 1015.036
2959.817, 1007.625
2961.746, 1022.563
2963.674, 1033.636
2965.603, 1028.232
2967.531, 1018.089
2969.459, 1002.027
2971.388, 993.2222
2973.316, 998.7216
2975.245, 1006.072
2977.173, 1015.997
2979.102, 1016.107
2981.030, 999.4904
2982.959, 993.8762
2984.887, 1003.956
2986.816, 1008.846
2988.744, 1008.607
2990.673, 1009.469
2992.601, 1011.735
2994.530, 1018.340
2996.458, 1025.406
2998.386, 1010.306
3000.315, 985.6390
3002.243, 978.7374
3004.172, 983.4401
3006.100, 996.0579
3008.029, 1009.470
3009.957, 1019.255
3011.886, 1020.976
3013.814, 1003.575
3015.743, 989.1661
3017.671, 996.5654
3019.600, 1000.117
3021.528, 984.4359
3023.457, 979.3689
3025.385, 1000.045
3027.313, 1011.498
3029.242, 993.8265
3031.170, 996.0299
3033.099, 1023.131
3035.027, 1028.943
3036.956, 1009.927
3038.884, 995.7807
3040.813, 987.2897
3042.741, 984.7020
3044.670, 987.0077
3046.598, 993.7695
3048.527, 1000.254
3050.455, 996.8768
3052.384, 988.2948
3054.312, 976.9427
3056.240, 968.7043
3058.169, 969.0868
3060.097, 973.2166
3062.026, 979.7694
3063.954, 986.2756
3065.883, 990.8305
3067.811, 997.8305
3069.740, 998.7312
3071.668, 1001.703
3073.597, 997.7124
3075.525, 999.0984
3077.454, 993.4980
3079.382, 981.6854
3081.311, 986.3790
3083.239, 969.3387
3085.167, 967.0583
3087.096, 974.7316
3089.024, 986.2675
3090.953, 988.6345
3092.881, 986.6589
3094.810, 985.5979
3096.738, 984.8255
3098.667, 984.6131
3100.595, 983.1409
3102.524, 984.4410
3104.452, 989.3399
3106.381, 987.2771
3108.309, 997.4602
3110.238, 1000.515
3112.166, 994.6567
3114.094, 975.0485
3116.023, 967.4696
3117.951, 972.4767
3119.880, 973.5678
3121.808, 972.0296
3123.737, 975.9340
3125.665, 982.1797
3127.594, 983.0161
3129.522, 981.2522
3131.451, 979.2631
3133.379, 978.5899
3135.308, 984.4201
3137.236, 985.9100
3139.165, 972.3406
3141.093, 964.6791
3143.021, 973.0876
3144.950, 977.2597
3146.878, 970.6139
3148.807, 966.3339
3150.735, 964.7544
3152.664, 965.7518
3154.592, 968.5522
3156.521, 963.5723
3158.449, 955.7973
3160.378, 965.7294
3162.306, 961.2910
3164.235, 974.3928
3166.163, 965.9146
3168.092, 966.4710
3170.020, 971.7209
3171.948, 984.6808
3173.877, 990.1949
3175.805, 975.2011
3177.734, 967.1802
3179.662, 969.0585
3181.591, 977.4045
3183.519, 991.9662
3185.448, 995.5138
3187.376, 988.6611
3189.305, 972.3724
3191.233, 955.4609
3193.162, 961.2783
3195.090, 952.0609
3197.019, 963.1984
3198.947, 953.9930
3200.875, 958.0365
3202.804, 963.6566
3204.732, 966.7776
3206.661, 968.1868
3208.589, 967.3549
3210.518, 968.4800
3212.446, 972.1132
3214.375, 975.8284
3216.303, 978.7628
3218.232, 969.5842
3220.160, 955.3540
3222.089, 950.1749
3224.017, 953.4720
3225.946, 972.6918
3227.874, 988.5225
3229.802, 987.0941
3231.731, 981.6663
3233.659, 975.8271
3235.588, 971.5378
3237.516, 970.3467
3239.445, 960.1552
3241.373, 959.6924
3243.302, 939.9169
3245.230, 957.9026
3247.159, 973.1833
3249.087, 981.3964
3251.016, 967.8882
3252.944, 953.3152
3254.873, 965.6009
3256.801, 975.3999
3258.729, 965.1837
3260.658, 956.0510
3262.586, 959.2308
3264.515, 953.6741
3266.443, 936.9613
3268.372, 935.6464
3270.300, 950.1644
3272.229, 966.0906
3274.157, 979.9503
3276.086, 977.5502
3278.014, 986.5704
3279.943, 979.7617
3281.871, 985.4056
3283.800, 975.4646
3285.728, 964.1146
3287.656, 952.2580
3289.585, 951.4705
3291.513, 944.4784
3293.442, 947.1589
3295.370, 948.2550
3297.299, 956.1100
3299.227, 977.4409
3301.156, 983.1717
3303.084, 979.1635
3305.013, 964.7360
3306.941, 956.3063
3308.870, 971.0894
3310.798, 982.0095
3312.727, 982.5470
3314.655, 978.9637
3316.583, 969.9980
3318.512, 972.4133
3320.440, 966.3393
3322.369, 965.2621
3324.297, 963.2726
3326.226, 965.3177
3328.154, 971.7580
3330.083, 976.2347
3332.011, 974.3372
3333.940, 956.4887
3335.868, 947.0571
3337.797, 950.7574
3339.725, 956.9288
3341.654, 964.3809
3343.582, 959.5018
3345.510, 949.1501
3347.439, 965.2329
3349.367, 956.4449
3351.296, 971.4561
3353.224, 956.7931
3355.153, 959.9594
3357.081, 963.9044
3359.010, 963.8789
3360.938, 963.9425
3362.867, 964.7095
3364.795, 963.1199
3366.724, 960.2426
3368.652, 962.1446
3370.581, 964.1048
3372.509, 953.0783
3374.438, 945.6976
3376.366, 958.5493
3378.294, 968.9973
3380.223, 969.1691
3382.151, 967.2838
3384.080, 964.0111
3386.008, 964.2811
3387.937, 966.4717
3389.865, 957.0402
3391.794, 944.3351
3393.722, 937.7258
3395.651, 939.0851
3397.579, 957.5674
3399.508, 969.6545
3401.436, 965.5216
3403.365, 963.9700
3405.293, 967.1655
3407.221, 974.5550
3409.150, 982.6736
3411.078, 975.7487
3413.007, 964.0114
3414.935, 961.4641
3416.864, 963.9593
3418.792, 978.4620
3420.721, 976.3755
3422.649, 942.9065
3424.578, 933.5020
3426.506, 953.1728
3428.435, 965.3057
3430.363, 970.4808
3432.292, 971.3576
3434.220, 968.8974
3436.148, 960.1177
3438.077, 955.2312
3440.005, 959.7543
3441.934, 966.6212
3443.862, 977.0498
3445.791, 972.5167
3447.719, 975.6835
3449.648, 976.1967
3451.576, 971.9811
3453.505, 974.8013
3455.433, 974.4358
3457.362, 975.0233
3459.290, 975.1676
3461.219, 972.4727
3463.147, 975.1007
3465.075, 982.9361
3467.004, 978.4257
3468.932, 983.0948
3470.861, 974.8042
3472.789, 985.2529
3474.718, 986.6906
3476.646, 986.2405
3478.575, 989.8383
3480.503, 983.4049
3482.432, 981.4174
3484.360, 977.8824
3486.289, 970.5434
3488.217, 968.4244
3490.146, 961.6082
3492.074, 957.3013
3494.002, 955.5195
3495.931, 955.2006
3497.859, 961.2740
3499.788, 977.7126
3501.716, 986.3729
3503.645, 987.5638
3505.573, 986.3165
3507.502, 983.3835
3509.430, 975.2981
3511.359, 973.6824
3513.287, 989.1399
3515.216, 1000.176
3517.144, 999.3170
3519.073, 996.6161
3521.001, 992.7110
3522.929, 993.5521
3524.858, 992.7449
3526.786, 969.5428
3528.715, 953.5127
3530.643, 968.7452
3532.572, 986.0987
3534.500, 1001.564
3536.429, 1004.415
3538.357, 995.8040
3540.286, 988.4154
3542.214, 986.4266
3544.143, 1003.450
3546.071, 1017.747
3548.000, 1013.559
3549.928, 1005.621
3551.856, 995.3809
3553.785, 994.0562
3555.713, 1000.630
3557.642, 1007.368
3559.570, 1012.774
3561.499, 1017.529
3563.427, 1015.019
3565.356, 996.9167
3567.284, 986.3439
3569.213, 987.5272
3571.141, 1008.020
3573.070, 998.4119
3574.998, 1024.309
3576.927, 1001.222
3578.855, 997.2673
3580.783, 1003.962
3582.712, 997.1569
3584.640, 1027.311
3586.569, 1008.804
3588.497, 1017.347
3590.426, 1035.063
3592.354, 1015.436
3594.283, 995.2297
3596.211, 1007.617
3598.140, 1013.703
3600.068, 992.7448
3601.997, 986.1629
3603.925, 992.2650
3605.854, 1001.184
3607.782, 1010.957
3609.710, 1020.940
3611.639, 1027.087
3613.567, 1033.080
3615.496, 1025.695
3617.424, 1036.964
3619.353, 1034.270
3621.281, 1026.223
3623.210, 1045.907
3625.138, 1063.359
3627.067, 1051.198
3628.995, 1035.943
3630.924, 1022.433
3632.852, 1019.561
3634.781, 1026.587
3636.709, 1035.180
3638.637, 1042.254
3640.566, 1041.314
3642.494, 1041.610
3644.423, 1054.329
3646.351, 1049.563
3648.280, 1026.708
3650.208, 1030.660
3652.137, 1050.927
3654.065, 1068.515
3655.994, 1076.505
3657.922, 1077.422
3659.851, 1054.544
3661.779, 1059.406
3663.708, 1045.352
3665.636, 1021.199
3667.564, 1026.607
3669.493, 1043.349
3671.421, 1062.221
3673.350, 1069.036
3675.278, 1058.556
3677.207, 1055.070
3679.135, 1059.763
3681.064, 1070.098
3682.992, 1077.043
3684.921, 1062.402
3686.849, 1057.183
3688.778, 1078.249
3690.706, 1080.013
3692.635, 1058.937
3694.563, 1046.342
3696.491, 1043.848
3698.420, 1058.452
3700.348, 1072.580
3702.277, 1077.165
3704.205, 1081.066
3706.134, 1085.251
3708.062, 1092.422
3709.991, 1095.910
3711.919, 1076.127
3713.848, 1061.772
3715.776, 1074.319
3717.705, 1082.640
3719.633, 1082.329
3721.562, 1063.260
3723.490, 1043.809
3725.418, 1074.442
3727.347, 1102.141
3729.275, 1087.590
3731.204, 1077.324
3733.132, 1078.050
3735.061, 1085.074
3736.989, 1095.445
3738.918, 1106.014
3740.846, 1111.081
3742.775, 1103.148
3744.703, 1098.099
3746.632, 1098.135
3748.560, 1093.308
3750.489, 1089.547
3752.417, 1105.453
3754.345, 1118.324
3756.274, 1110.863
3758.202, 1108.186
3760.131, 1113.431
3762.059, 1109.008
3763.988, 1099.231
3765.916, 1086.590
3767.845, 1084.227
3769.773, 1104.637
3771.702, 1120.764
3773.630, 1128.966
3775.559, 1118.189
3777.487, 1107.961
3779.416, 1139.276
3781.344, 1160.102
3783.272, 1141.458
3785.201, 1139.701
3787.129, 1155.661
3789.058, 1138.333
3790.986, 1114.574
3792.915, 1113.787
3794.843, 1125.781
3796.772, 1151.339
3798.700, 1154.993
3800.629, 1140.215
3802.557, 1135.133
3804.486, 1133.347
3806.414, 1127.905
3808.343, 1125.209
3810.271, 1126.015
3812.199, 1139.407
3814.128, 1159.123
3816.056, 1173.061
3817.985, 1173.085
3819.913, 1137.886
3821.842, 1126.300
3823.770, 1143.759
3825.699, 1176.995
3827.627, 1207.566
3829.556, 1191.820
3831.484, 1178.562
3833.413, 1201.692
3835.341, 1196.234
3837.270, 1167.908
3839.198, 1168.232
3841.126, 1176.853
3843.055, 1172.182
3844.983, 1164.920
3846.912, 1154.709
3848.840, 1163.547
3850.769, 1183.236
3852.697, 1192.943
3854.626, 1195.337
3856.554, 1189.963
3858.483, 1187.916
3860.411, 1190.708
3862.340, 1198.161
3864.268, 1207.602
3866.197, 1221.143
3868.125, 1225.475
3870.053, 1215.112
3871.982, 1199.674
3873.910, 1184.289
3875.839, 1188.192
3877.767, 1200.724
3879.696, 1215.931
3881.624, 1231.569
3883.553, 1246.571
3885.481, 1253.330
3887.410, 1254.505
3889.338, 1249.254
3891.267, 1248.668
3893.195, 1257.661
3895.124, 1274.769
3897.052, 1292.344
3898.980, 1272.688
3900.909, 1252.885
3902.837, 1266.227
3904.766, 1277.819
3906.694, 1280.394
3908.623, 1284.033
3910.551, 1289.880
3912.480, 1294.773
3914.408, 1306.349
3916.337, 1330.348
3918.265, 1351.244
3920.194, 1363.509
3922.122, 1331.461
3924.051, 1301.053
3925.979, 1310.355
3927.907, 1320.453
3929.836, 1326.328
3931.764, 1334.262
3933.693, 1342.769
3935.621, 1345.690
3937.550, 1340.887
3939.478, 1335.360
3941.407, 1341.708
3943.335, 1351.789
3945.264, 1360.759
3947.192, 1368.241
3949.121, 1387.481
3951.049, 1383.372
3952.978, 1392.175
3954.906, 1395.113
3956.834, 1393.775
3958.763, 1393.661
3960.691, 1385.818
3962.620, 1377.717
3964.548, 1389.477
3966.477, 1405.877
3968.405, 1400.098
3970.334, 1399.278
3972.262, 1421.227
3974.191, 1421.707
3976.119, 1410.851
3978.048, 1414.223
3979.976, 1419.132
3981.905, 1432.912
3983.833, 1439.232
3985.761, 1434.542
3987.690, 1434.651
3989.618, 1447.811
3991.547, 1448.122
3993.475, 1448.443
3995.404, 1455.710
3997.332, 1453.260
3999.261, 1464.843
4001.189, 1457.406
4003.118, 1464.002
4005.046, 1476.498
4006.975, 1501.835
4008.903, 1523.478
4010.832, 1505.195
4012.760, 1484.150
4014.688, 1498.261
4016.617, 1511.491
4018.545, 1517.981
4020.474, 1520.987
4022.402, 1517.885
4024.331, 1510.271
4026.259, 1516.952
4028.188, 1544.906
4030.116, 1558.756
4032.045, 1555.819
4033.973, 1556.782
4035.902, 1566.677
4037.830, 1581.161
4039.759, 1587.461
4041.687, 1590.228
4043.615, 1598.551
4045.544, 1599.261
4047.472, 1608.502
4049.401, 1608.364
4051.329, 1624.527
4053.258, 1625.019
4055.186, 1630.741
4057.115, 1603.943
4059.043, 1627.358
4060.972, 1629.236
4062.900, 1624.044
4064.829, 1638.728
4066.757, 1650.498
4068.686, 1646.844
4070.614, 1638.548
4072.542, 1635.629
4074.471, 1656.441
4076.399, 1678.261
4078.328, 1691.750
4080.256, 1692.117
4082.185, 1684.880
4084.113, 1692.135
4086.042, 1687.424
4087.970, 1688.014
4089.899, 1716.918
4091.827, 1732.161
4093.756, 1726.491
4095.684, 1713.903
4097.612, 1706.636
4099.541, 1717.371
4101.470, 1721.331
4103.398, 1724.678
4105.326, 1732.364
4107.255, 1742.081
4109.184, 1766.144
4111.112, 1783.896
4113.040, 1755.015
4114.969, 1745.687
4116.897, 1778.635
4118.826, 1793.480
4120.754, 1802.483
4122.683, 1805.270
4124.611, 1804.044
4126.540, 1812.491
4128.468, 1816.453
4130.396, 1819.294
4132.325, 1825.595
4134.253, 1828.709
4136.182, 1836.924
4138.110, 1854.342
4140.039, 1862.606
4141.967, 1846.588
4143.896, 1844.302
4145.824, 1873.778
4147.753, 1895.765
4149.681, 1888.040
4151.609, 1881.188
4153.538, 1877.126
4155.467, 1859.653
4157.395, 1881.679
4159.323, 1909.274
4161.252, 1895.640
4163.181, 1896.005
4165.109, 1926.408
4167.037, 1918.362
4168.966, 1901.331
4170.895, 1939.807
4172.823, 1957.964
4174.751, 1935.294
4176.680, 1944.514
4178.608, 1964.665
4180.537, 1989.568
4182.465, 1997.560
4184.394, 1979.638
4186.322, 1988.898
4188.250, 2006.666
4190.179, 2014.783
4192.107, 2022.689
4194.036, 2034.911
4195.964, 2043.363
4197.893, 2046.143
4199.821, 2049.407
4201.750, 2044.512
4203.678, 2034.246
4205.606, 2048.433
4207.535, 2064.394
4209.464, 2064.478
4211.392, 2059.675
4213.320, 2056.869
4215.249, 2082.325
4217.178, 2105.238
4219.106, 2108.996
4221.034, 2112.434
4222.963, 2114.423
4224.892, 2127.822
4226.820, 2099.689
4228.748, 2151.977
4230.677, 2182.856
4232.605, 2188.046
4234.534, 2152.014
4236.462, 2131.565
4238.391, 2142.694
4240.319, 2160.082
4242.248, 2176.856
4244.176, 2179.672
4246.104, 2200.549
4248.033, 2201.327
4249.961, 2234.101
4251.890, 2210.949
4253.818, 2202.460
4255.747, 2216.011
4257.675, 2247.657
4259.604, 2275.558
4261.532, 2280.856
4263.461, 2240.307
4265.389, 2243.374
4267.317, 2281.691
4269.246, 2303.134
4271.175, 2314.420
4273.103, 2318.560
4275.031, 2302.861
4276.960, 2288.911
4278.889, 2329.549
4280.817, 2366.009
4282.745, 2382.792
4284.674, 2382.998
4286.603, 2375.295
4288.531, 2366.699
4290.459, 2357.456
4292.388, 2349.885
4294.316, 2373.862
4296.245, 2399.879
4298.173, 2407.266
4300.102, 2418.682
4302.030, 2432.080
4303.958, 2442.202
4305.887, 2458.825
4307.815, 2464.960
4309.744, 2485.906
4311.672, 2495.227
4313.601, 2495.571
4315.529, 2493.464
4317.458, 2490.179
4319.386, 2490.662
4321.314, 2492.628
4323.243, 2489.027
4325.172, 2500.474
4327.100, 2499.044
4329.028, 2503.784
4330.957, 2520.141
4332.886, 2519.542
4334.814, 2550.569
4336.742, 2534.429
4338.671, 2534.723
4340.600, 2551.881
4342.528, 2582.579
4344.456, 2603.110
4346.385, 2607.058
4348.313, 2619.427
4350.242, 2584.430
4352.170, 2624.902
4354.099, 2627.942
4356.027, 2634.743
4357.956, 2665.468
4359.884, 2680.568
4361.813, 2683.021
4363.741, 2668.286
4365.669, 2674.659
4367.598, 2703.948
4369.526, 2710.985
4371.455, 2717.615
4373.383, 2744.677
4375.312, 2750.421
4377.240, 2746.552
4379.169, 2769.135
4381.097, 2777.462
4383.025, 2758.705
4384.954, 2768.890
4386.883, 2788.988
4388.811, 2805.391
4390.739, 2816.023
4392.668, 2822.298
4394.597, 2832.067
4396.525, 2827.953
4398.453, 2804.051
4400.382, 2850.718
4402.311, 2843.553
4404.239, 2887.773
4406.167, 2880.260
4408.096, 2893.244
4410.024, 2928.090
4411.953, 2960.856
4413.881, 2981.901
4415.810, 2970.327
4417.738, 2951.972
4419.667, 2968.107
4421.595, 2969.001
4423.523, 2956.238
4425.452, 2983.553
4427.380, 3023.532
4429.309, 3071.050
4431.237, 3076.191
4433.166, 3062.994
4435.094, 3062.144
4437.022, 3079.617
4438.951, 3110.046
4440.880, 3093.890
4442.808, 3092.570
4444.736, 3138.500
4446.665, 3153.688
4448.594, 3156.870
4450.522, 3187.955
4452.450, 3191.266
4454.379, 3172.496
4456.308, 3194.609
4458.236, 3226.448
4460.164, 3253.477
4462.093, 3275.227
4464.021, 3289.291
4465.950, 3290.641
4467.878, 3285.333
4469.807, 3278.766
4471.735, 3292.504
4473.664, 3315.447
4475.592, 3345.377
4477.521, 3362.786
4479.449, 3372.085
4481.377, 3371.292
4483.306, 3407.388
4485.234, 3455.423
4487.163, 3400.048
4489.091, 3397.502
4491.020, 3481.938
4492.948, 3500.459
4494.877, 3494.351
4496.805, 3493.925
4498.733, 3513.958
4500.662, 3541.223
4502.591, 3549.033
4504.519, 3544.450
4506.447, 3532.892
4508.376, 3572.320
4510.305, 3600.835
4512.233, 3585.565
4514.161, 3593.536
4516.090, 3617.520
4518.019, 3649.205
4519.947, 3670.034
4521.875, 3684.193
4523.804, 3712.359
4525.732, 3743.217
4527.661, 3773.081
4529.589, 3799.479
4531.518, 3815.381
4533.446, 3814.446
4535.375, 3789.031
4537.303, 3770.875
4539.231, 3820.926
4541.160, 3886.491
4543.088, 3946.925
4545.017, 3945.247
4546.945, 3935.077
4548.874, 3937.437
4550.802, 3943.625
4552.730, 3960.698
4554.659, 3975.639
4556.588, 3993.647
4558.516, 4014.244
4560.444, 4029.175
4562.373, 4039.146
4564.302, 4042.257
4566.230, 4063.383
4568.158, 4086.061
4570.087, 4104.202
4572.016, 4133.936
4573.944, 4165.775
4575.872, 4190.843
4577.801, 4214.816
4579.729, 4236.968
4581.658, 4256.778
4583.586, 4262.478
4585.515, 4263.084
4587.443, 4275.515
4589.372, 4293.472
4591.300, 4309.748
4593.229, 4345.785
4595.157, 4410.009
4597.085, 4453.890
4599.014, 4437.146
4600.942, 4406.545
4602.871, 4440.495
4604.799, 4470.012
4606.728, 4494.728
4608.656, 4519.905
4610.585, 4539.669
4612.513, 4564.567
4614.441, 4579.295
4616.370, 4605.158
4618.299, 4634.667
4620.227, 4645.553
4622.155, 4603.010
4624.084, 4668.549
4626.013, 4686.340
4627.941, 4687.208
4629.869, 4745.380
4631.798, 4793.021
4633.727, 4820.575
4635.655, 4863.054
4637.583, 4854.808
4639.512, 4914.435
4641.440, 4914.520
4643.369, 4915.368
4645.297, 4951.616
4647.226, 4967.930
4649.154, 4979.030
4651.083, 4996.037
4653.011, 5006.936
4654.939, 5015.577
4656.868, 5042.910
4658.796, 5040.097
4660.725, 5085.424
4662.653, 5122.160
4664.582, 5144.933
4666.510, 5155.370
4668.438, 5159.087
4670.367, 5209.194
4672.296, 5242.607
4674.224, 5281.280
4676.152, 5345.083
4678.081, 5372.728
4680.010, 5418.203
4681.938, 5460.452
4683.866, 5478.284
4685.795, 5480.018
4687.724, 5485.750
4689.652, 5531.483
4691.580, 5574.128
4693.509, 5606.299
4695.438, 5630.415
4697.366, 5622.303
4699.294, 5593.546
4701.223, 5690.333
4703.151, 5757.777
4705.080, 5749.251
4707.008, 5768.322
4708.937, 5795.999
4710.865, 5820.038
4712.793, 5847.748
4714.722, 5885.257
4716.650, 5939.239
4718.579, 5982.770
4720.507, 6014.341
4722.436, 6035.264
4724.364, 6034.726
4726.293, 6035.986
4728.221, 6090.557
4730.149, 6126.455
4732.078, 6148.229
4734.007, 6205.948
4735.935, 6228.708
4737.863, 6266.065
4739.792, 6279.082
4741.721, 6334.627
4743.649, 6367.622
4745.577, 6403.781
4747.506, 6388.701
4749.435, 6450.473
4751.363, 6465.488
4753.291, 6482.722
4755.220, 6537.428
4757.148, 6547.888
4759.077, 6573.530
4761.005, 6658.947
4762.934, 6701.014
4764.862, 6720.241
4766.791, 6738.020
4768.719, 6771.727
4770.647, 6817.463
4772.576, 6870.624
4774.504, 6928.261
4776.433, 6976.284
4778.361, 6990.568
4780.290, 6992.258
4782.218, 6999.837
4784.146, 7051.090
4786.075, 7113.205
4788.004, 7171.269
4789.932, 7190.846
4791.860, 7225.202
4793.789, 7276.300
4795.718, 7297.580
4797.646, 7346.377
4799.574, 7422.747
4801.503, 7434.782
4803.432, 7463.971
4805.360, 7527.672
4807.288, 7551.035
4809.217, 7560.081
4811.146, 7567.748
4813.074, 7631.109
4815.002, 7713.181
4816.931, 7794.537
4818.859, 7820.241
4820.788, 7842.722
4822.716, 7889.385
4824.645, 7934.376
4826.573, 7942.068
4828.501, 8043.280
4830.430, 8112.541
4832.358, 8162.709
4834.287, 8206.733
4836.215, 8159.996
4838.144, 8146.755
4840.072, 8254.581
4842.001, 8300.000
4843.929, 8345.006
4845.857, 8455.296
4847.786, 8494.877
4849.715, 8502.811
4851.643, 8506.840
4853.571, 8573.978
4855.500, 8652.011
4857.429, 8687.255
4859.357, 8749.678
4861.285, 8801.863
4863.214, 8798.062
4865.143, 8880.798
4867.071, 8970.266
4868.999, 8977.787
4870.928, 9056.091
4872.856, 8969.922
4874.785, 9128.797
4876.713, 9124.813
4878.642, 9103.351
4880.570, 9238.951
4882.499, 9327.149
4884.427, 9389.026
4886.355, 9474.399
4888.284, 9446.070
4890.212, 9422.088
4892.141, 9530.336
4894.069, 9584.312
4895.998, 9632.370
4897.926, 9757.334
4899.854, 9756.552
4901.783, 9759.240
4903.712, 9893.266
4905.640, 9953.067
4907.568, 9979.156
4909.497, 10009.02
4911.426, 10097.04
4913.354, 10187.67
4915.282, 10237.58
4917.211, 10249.31
4919.140, 10284.09
4921.068, 10402.05
4922.996, 10465.75
4924.925, 10530.56
4926.854, 10632.00
4928.782, 10627.37
4930.710, 10645.54
4932.639, 10772.47
4934.567, 10877.10
4936.496, 10917.61
4938.424, 10990.64
4940.353, 11042.24
4942.281, 11074.08
4944.209, 11129.77
4946.138, 11189.46
4948.066, 11234.99
4949.995, 11263.08
4951.923, 11365.96
4953.852, 11429.45
4955.780, 11439.80
4957.709, 11547.81
4959.637, 11624.48
4961.565, 11650.83
4963.494, 11754.08
4965.423, 11836.71
4967.351, 11875.59
4969.279, 11822.60
4971.208, 11942.10
4973.137, 11967.36
4975.065, 12093.51
4976.993, 12098.12
4978.922, 12178.12
4980.851, 12231.62
4982.779, 12348.41
4984.707, 12418.07
4986.636, 12541.24
4988.564, 12601.15
4990.493, 12678.98
4992.421, 12792.22
4994.350, 12861.25
4996.278, 12913.65
4998.207, 12978.23
5000.135, 13066.71
5002.063, 13152.43
5003.992, 13217.54
5005.920, 13285.27
5007.849, 13348.60
5009.777, 13400.38
5011.706, 13468.31
5013.634, 13529.57
5015.563, 13601.05
5017.491, 13692.54
5019.420, 13787.52
5021.348, 13878.30
5023.276, 13960.01
5025.205, 14021.00
5027.134, 14070.23
5029.062, 14127.73
5030.990, 14238.47
5032.919, 14362.73
5034.848, 14425.68
5036.776, 14449.23
5038.704, 14493.59
5040.633, 14641.92
5042.562, 14723.13
5044.490, 14806.60
5046.418, 14946.62
5048.347, 14906.56
5050.275, 14897.71
5052.204, 15036.21
5054.132, 15156.50
5056.061, 15289.14
5057.989, 15430.15
5059.917, 15458.78
5061.846, 15544.94
5063.774, 15685.86
5065.703, 15761.28
5067.631, 15853.09
5069.560, 15948.61
5071.488, 15991.48
5073.417, 16096.51
5075.345, 16198.86
5077.273, 16206.37
5079.202, 16391.26
5081.131, 16546.56
5083.059, 16494.92
5084.987, 16582.34
5086.916, 16695.43
5088.845, 16792.71
5090.773, 16910.35
5092.701, 17045.10
5094.630, 17178.87
5096.559, 17247.22
5098.487, 17351.14
5100.415, 17456.92
5102.344, 17465.41
5104.272, 17553.80
5106.201, 17683.30
5108.129, 17801.60
5110.058, 17903.81
5111.986, 18021.65
5113.915, 18122.25
5115.843, 18247.10
5117.771, 18361.60
5119.700, 18494.63
5121.628, 18582.35
5123.557, 18712.98
5125.485, 18853.46
5127.414, 18857.93
5129.342, 18959.58
5131.271, 19099.90
5133.199, 19179.61
5135.128, 19274.38
5137.056, 19390.10
5138.984, 19488.06
5140.913, 19624.62
5142.842, 19720.21
5144.770, 19825.38
5146.698, 19962.12
5148.627, 20076.01
5150.556, 20169.93
5152.484, 20254.86
5154.412, 20390.71
5156.341, 20557.28
5158.270, 20741.10
5160.198, 20802.99
5162.126, 20889.30
5164.055, 21065.22
5165.983, 21194.53
5167.912, 21273.25
5169.840, 21331.62
5171.769, 21473.38
5173.697, 21602.58
5175.625, 21731.43
5177.554, 21901.76
5179.482, 22032.44
5181.411, 22165.29
5183.339, 22332.86
5185.268, 22358.71
5187.196, 22410.96
5189.125, 22546.00
5191.053, 22726.65
5192.981, 22845.89
5194.910, 22964.95
5196.839, 23242.21
5198.767, 23403.32
5200.695, 23497.60
5202.624, 23581.10
5204.553, 23689.47
5206.481, 23841.15
5208.409, 24027.21
5210.338, 24161.47
5212.267, 24364.18
5214.195, 24564.24
5216.123, 24586.77
5218.052, 24640.75
5219.980, 24732.65
5221.909, 24858.11
5223.837, 25076.26
5225.766, 25247.86
5227.694, 25362.84
5229.623, 25593.16
5231.551, 25779.71
5233.479, 25892.43
5235.408, 26070.96
5237.336, 26188.85
5239.265, 26332.14
5241.193, 26435.35
5243.122, 26541.73
5245.050, 26685.16
5246.979, 26848.07
5248.907, 26934.36
5250.836, 27152.82
5252.764, 27375.18
5254.692, 27418.70
5256.621, 27621.49
5258.550, 27877.71
5260.478, 28110.13
5262.406, 28203.47
5264.335, 28269.76
5266.264, 28356.18
5268.192, 28508.87
5270.120, 28646.38
5272.049, 28817.36
5273.978, 29048.84
5275.906, 29119.37
5277.834, 29262.06
5279.763, 29500.12
5281.691, 29751.10
5283.620, 29859.09
5285.548, 29951.08
5287.477, 30188.97
5289.405, 30209.52
5291.333, 30354.47
5293.262, 30676.77
5295.190, 30892.81
5297.119, 31006.61
5299.047, 31095.85
5300.976, 31253.06
5302.904, 31377.01
5304.833, 31571.37
5306.761, 31849.92
5308.689, 31928.65
5310.618, 32118.82
5312.547, 32370.02
5314.475, 32513.26
5316.403, 32761.16
5318.332, 32985.39
5320.261, 33120.55
5322.189, 33373.03
5324.117, 33520.59
5326.046, 33615.98
5327.975, 33832.03
5329.903, 33938.17
5331.831, 34117.46
5333.760, 34427.37
5335.688, 34402.34
5337.617, 34498.65
5339.545, 34736.59
5341.474, 34975.73
5343.402, 35177.86
5345.331, 35373.34
5347.259, 35579.12
5349.188, 35786.77
5351.116, 35979.58
5353.044, 36188.19
5354.973, 36366.95
5356.901, 36604.10
5358.830, 36725.38
5360.758, 36977.42
5362.687, 37168.54
5364.615, 37414.80
5366.544, 37694.52
5368.472, 37947.46
5370.400, 38062.89
5372.329, 38164.06
5374.258, 38331.09
5376.186, 38490.43
5378.114, 38649.69
5380.043, 38900.96
5381.972, 39057.57
5383.900, 39341.34
5385.828, 39667.93
5387.757, 39963.74
5389.686, 40108.52
5391.614, 40216.85
5393.542, 40377.48
5395.471, 40660.28
5397.399, 40835.57
5399.328, 41046.48
5401.256, 41297.61
5403.185, 41488.28
5405.113, 41817.37
5407.042, 42048.16
5408.970, 42073.55
5410.898, 42164.25
5412.827, 42400.02
5414.755, 42721.59
5416.684, 43049.05
5418.612, 43244.18
5420.541, 43396.77
5422.469, 43570.97
5424.397, 43861.84
5426.326, 44109.28
5428.255, 44339.21
5430.183, 44581.97
5432.111, 44805.57
5434.040, 45043.50
5435.969, 45282.99
5437.897, 45496.00
5439.825, 45806.66
5441.754, 46003.79
5443.683, 46046.30
5445.611, 46289.40
5447.539, 46595.01
5449.468, 46879.30
5451.396, 47094.74
5453.325, 47300.04
5455.253, 47547.27
5457.182, 47843.52
5459.110, 48201.21
5461.039, 48443.95
5462.967, 48626.06
5464.896, 48810.82
5466.824, 49152.01
5468.752, 49419.52
5470.681, 49625.57
5472.609, 49832.98
5474.538, 50097.42
5476.466, 50333.75
5478.395, 50605.18
5480.323, 50871.79
5482.252, 51135.57
5484.180, 51436.66
5486.108, 51764.09
5488.037, 52002.01
5489.966, 52248.73
5491.894, 52569.23
5493.822, 52951.36
5495.751, 52964.23
5497.680, 53180.84
5499.608, 53527.80
5501.536, 53771.40
5503.465, 53906.01
5505.394, 54279.54
5507.322, 54536.91
5509.250, 54851.65
5511.179, 55163.41
5513.107, 55496.12
5515.036, 55759.68
5516.964, 56148.30
5518.893, 56473.22
5520.821, 56762.72
5522.750, 57052.33
5524.678, 57247.14
5526.606, 57431.29
5528.535, 57722.09
5530.463, 58256.40
5532.392, 58424.77
5534.320, 58653.97
5536.249, 58947.20
5538.177, 59090.04
5540.105, 59563.19
5542.034, 59919.46
5543.963, 60109.09
5545.891, 60592.79
5547.819, 60786.47
5549.748, 61048.82
5551.677, 61508.32
5553.605, 61599.45
5555.533, 61870.74
5557.462, 62230.00
5559.391, 62545.04
5561.319, 62778.55
5563.247, 63126.33
5565.176, 63422.21
5567.104, 63779.12
5569.033, 63992.99
5570.961, 64510.58
5572.890, 64861.13
5574.818, 65176.53
5576.747, 65261.71
5578.675, 65630.01
5580.604, 65895.70
5582.532, 66070.59
5584.460, 66395.25
5586.389, 66744.34
5588.317, 67054.27
5590.246, 67300.09
5592.174, 67630.68
5594.103, 67954.55
5596.031, 68270.81
5597.960, 68752.90
5599.888, 69196.59
5601.816, 69539.24
5603.745, 69788.48
5605.674, 70025.80
5607.602, 70372.70
5609.530, 70710.42
5611.459, 71001.56
5613.388, 71448.76
5615.316, 71922.01
5617.244, 72280.32
5619.173, 72476.80
5621.102, 72627.85
5623.030, 73192.52
5624.958, 73714.26
5626.887, 73874.95
5628.815, 74111.16
5630.744, 74367.16
5632.672, 74751.27
5634.601, 75313.90
5636.529, 75681.59
5638.458, 75969.63
5640.386, 76267.10
5642.314, 76626.85
5644.243, 77026.96
5646.171, 77334.02
5648.100, 77645.81
5650.028, 78037.29
5651.957, 78286.73
5653.885, 78614.59
5655.813, 78953.32
5657.742, 79229.03
5659.671, 79700.40
5661.599, 80130.59
5663.527, 80489.69
5665.456, 80807.29
5667.385, 81311.80
5669.313, 81573.38
5671.241, 81824.02
5673.170, 82310.77
5675.099, 83059.00
5677.027, 83432.47
5678.955, 83719.60
5680.884, 84165.47
5682.813, 84495.29
5684.741, 84800.13
5686.669, 85251.57
5688.598, 85572.82
5690.526, 86011.11
5692.455, 86303.72
5694.383, 86664.63
5696.312, 87012.89
5698.240, 87406.76
5700.168, 87872.76
5702.097, 88330.27
5704.025, 88734.97
5705.954, 89103.34
5707.882, 89352.11
5709.811, 89674.30
5711.739, 90135.02
5713.668, 90675.80
5715.596, 90947.55
5717.524, 91419.02
5719.453, 92056.64
5721.382, 92386.90
5723.310, 92865.42
5725.238, 93143.45
5727.167, 93389.88
5729.096, 94102.14
5731.024, 94343.09
5732.952, 94757.89
5734.881, 95258.16
5736.810, 95563.66
5738.738, 96003.84
5740.666, 96574.34
5742.595, 97005.37
5744.523, 97183.23
5746.452, 97779.35
5748.380, 98171.14
5750.309, 98554.04
5752.237, 99063.73
5754.166, 99509.72
5756.094, 99916.69
5758.022, 100241.8
5759.951, 100550.9
5761.879, 101094.5
5763.808, 101513.0
5765.736, 101903.3
5767.665, 102355.3
5769.593, 102942.4
5771.521, 103310.5
5773.450, 104039.0
5775.379, 104228.3
5777.307, 104665.5
5779.235, 105257.3
5781.164, 105553.9
5783.093, 105864.1
5785.021, 106416.2
5786.949, 107040.4
5788.878, 107427.7
5790.807, 107843.7
5792.735, 108320.5
5794.663, 108527.6
5796.592, 109273.8
5798.521, 109849.0
5800.449, 110177.6
5802.377, 110506.0
5804.306, 111250.7
5806.234, 111390.2
5808.163, 111669.6
5810.091, 112680.8
5812.020, 113045.4
5813.948, 113510.2
5815.876, 113978.3
5817.805, 114343.3
5819.733, 114870.6
5821.662, 115143.9
5823.590, 115790.4
5825.519, 116306.3
5827.447, 116605.5
5829.376, 117111.3
5831.304, 117630.2
5833.232, 118164.1
5835.161, 118714.8
5837.090, 119125.6
5839.018, 119682.7
5840.946, 120065.0
5842.875, 120373.9
5844.804, 121208.0
5846.732, 121522.4
5848.660, 122087.1
5850.589, 122718.3
5852.518, 123055.8
5854.446, 123759.8
5856.374, 124501.5
5858.303, 124957.9
5860.231, 125205.7
5862.160, 125803.0
5864.088, 126094.1
5866.017, 126730.2
5867.945, 127430.9
5869.874, 127683.7
5871.802, 128044.4
5873.730, 128701.2
5875.659, 129311.2
5877.587, 129778.9
5879.516, 130490.8
5881.444, 130970.0
5883.373, 131537.5
5885.301, 132162.7
5887.229, 132682.0
5889.158, 133335.6
5891.087, 133701.4
5893.015, 134234.3
5894.943, 135040.2
5896.872, 135481.4
5898.801, 135914.3
5900.729, 136529.3
5902.657, 137059.9
5904.586, 137227.9
5906.515, 137912.8
5908.443, 138556.5
5910.371, 139325.4
5912.300, 140159.5
5914.229, 140647.1
5916.157, 141021.1
5918.085, 141774.8
5920.014, 142513.5
5921.942, 142883.2
5923.871, 143569.3
5925.799, 144267.0
5927.728, 144616.5
5929.656, 144964.1
5931.584, 145923.0
5933.513, 146090.0
5935.441, 146378.5
5937.370, 146942.6
5939.298, 147651.9
5941.227, 148247.6
5943.155, 148887.2
5945.084, 149105.9
5947.012, 149307.7
5948.940, 149946.4
5950.869, 150685.0
5952.798, 151526.8
5954.726, 151956.3
5956.654, 152246.8
5958.583, 153071.6
5960.512, 153597.8
5962.440, 153976.3
5964.368, 154612.4
5966.297, 155471.9
5968.226, 155783.3
5970.154, 156805.3
5972.082, 157310.8
5974.011, 157709.4
5975.939, 158425.5
5977.868, 158307.7
5979.796, 159275.8
5981.725, 159792.3
5983.653, 160079.7
5985.582, 161016.6
5987.510, 161859.2
5989.438, 162419.4
5991.367, 163102.3
5993.295, 163792.2
5995.224, 164352.6
5997.152, 164833.3
5999.081, 165532.0
6001.009, 166356.6
6002.938, 166971.4
6004.866, 167303.8
6006.795, 168148.3
6008.723, 168677.4
6010.651, 169172.7
6012.580, 169843.4
6014.509, 170340.9
6016.437, 171207.9
6018.365, 171584.0
6020.294, 172246.2
6022.223, 172964.5
6024.151, 173512.4
6026.079, 174369.5
6028.008, 174837.0
6029.937, 175512.8
6031.865, 176231.8
6033.793, 176622.1
6035.722, 177302.6
6037.650, 177802.9
6039.579, 178222.4
6041.507, 178811.0
6043.436, 179615.0
6045.364, 180107.4
6047.292, 181137.9
6049.221, 182184.2
6051.149, 182650.3
6053.078, 183182.3
6055.006, 184220.0
6056.935, 184754.9
6058.863, 184979.1
6060.792, 185384.1
6062.720, 185896.7
6064.648, 186359.6
6066.577, 186889.2
6068.506, 187557.8
6070.434, 188432.8
6072.362, 189135.0
6074.291, 190040.5
6076.220, 190686.5
6078.148, 191480.7
6080.076, 192024.4
6082.005, 192959.4
6083.934, 193669.7
6085.862, 194002.7
6087.790, 194352.0
6089.719, 194947.2
6091.647, 195465.4
6093.576, 196069.2
6095.504, 196769.6
6097.433, 197417.2
6099.361, 198122.1
6101.290, 198687.0
6103.218, 199284.8
6105.146, 199844.3
6107.075, 200386.4
6109.003, 201051.7
6110.932, 201608.6
6112.860, 202615.1
6114.789, 202993.9
6116.717, 203521.0
6118.646, 204573.5
6120.574, 205855.0
6122.503, 206454.2
6124.431, 206789.1
6126.359, 207248.8
6128.288, 207828.1
6130.217, 208386.5
6132.145, 208968.6
6134.073, 209732.6
6136.002, 210630.8
6137.931, 211340.0
6139.859, 211684.8
6141.787, 211817.6
6143.716, 212701.7
6145.645, 213417.5
6147.573, 214329.3
6149.501, 215314.1
6151.430, 215628.1
6153.358, 216508.5
6155.287, 217463.0
6157.215, 218040.8
6159.144, 218257.8
6161.072, 218456.1
6163.000, 219315.9
6164.929, 220147.5
6166.857, 221216.6
6168.786, 222029.2
6170.714, 222479.7
6172.643, 223450.6
6174.571, 224141.5
6176.500, 225325.0
6178.428, 226059.9
6180.356, 226470.1
6182.285, 227435.6
6184.214, 227842.7
6186.142, 228235.2
6188.070, 228962.3
6189.999, 229988.3
6191.928, 230983.1
6193.856, 231397.6
6195.784, 231870.6
6197.713, 232567.9
6199.642, 233124.8
6201.570, 233476.7
6203.498, 233891.8
6205.427, 234652.2
6207.355, 235453.5
6209.284, 236645.0
6211.212, 237668.4
6213.141, 238188.1
6215.069, 238861.0
6216.998, 239972.5
6218.926, 240827.4
6220.854, 241217.6
6222.783, 241735.9
6224.711, 242881.0
6226.640, 243245.5
6228.568, 243852.0
6230.497, 244415.9
6232.425, 245157.6
6234.354, 245776.2
6236.282, 246548.8
6238.211, 247101.2
6240.139, 247773.3
6242.067, 248372.5
6243.996, 249284.4
6245.925, 250531.6
6247.853, 250942.3
6249.781, 252083.9
6251.710, 252601.5
6253.639, 252763.5
6255.567, 253300.0
6257.495, 254497.7
6259.424, 255125.5
6261.353, 255641.7
6263.281, 256347.1
6265.209, 257235.6
6267.138, 258109.5
6269.066, 258773.7
6270.995, 259608.8
6272.923, 260160.0
6274.852, 260711.1
6276.780, 261366.1
6278.708, 262172.4
6280.637, 263163.3
6282.565, 264048.6
6284.494, 264552.1
6286.422, 265151.8
6288.351, 265893.8
6290.279, 266603.8
6292.208, 267186.4
6294.136, 268221.9
6296.064, 268875.9
6297.993, 270027.5
6299.922, 270980.1
6301.850, 271435.4
6303.778, 272216.1
6305.707, 272499.5
6307.636, 273023.2
6309.564, 273760.2
6311.492, 274457.9
6313.421, 275230.5
6315.350, 275890.7
6317.278, 276654.2
6319.206, 277169.2
6321.135, 278129.0
6323.063, 278660.2
6324.992, 279343.4
6326.920, 280346.9
6328.849, 280929.0
6330.777, 282148.0
6332.706, 283207.1
6334.634, 283509.8
6336.563, 283627.0
6338.491, 284636.7
6340.419, 285020.8
6342.348, 286228.5
6344.276, 287105.8
6346.205, 288008.1
6348.133, 288985.6
6350.062, 289635.4
6351.990, 290445.0
6353.919, 290919.6
6355.847, 291824.4
6357.775, 292314.8
6359.704, 292976.2
6361.633, 294199.8
6363.561, 295124.8
6365.489, 295637.2
6367.418, 296265.6
6369.347, 297232.3
6371.275, 297637.7
6373.203, 297694.5
6375.132, 298941.2
6377.061, 299692.6
6378.989, 300074.1
6380.917, 301099.7
6382.846, 302138.6
6384.774, 302791.9
6386.703, 303298.8
6388.631, 304006.2
6390.560, 304799.8
6392.488, 305946.4
6394.417, 306965.9
6396.345, 307688.7
6398.273, 308332.5
6400.202, 309233.0
6402.130, 309698.2
6404.059, 310778.9
6405.987, 310875.3
6407.916, 311614.3
6409.844, 312552.5
6411.772, 313028.9
6413.701, 314224.7
6415.630, 315259.7
6417.558, 315732.6
6419.486, 316522.9
6421.415, 317463.8
6423.344, 318069.1
6425.272, 318351.0
6427.200, 319235.6
6429.129, 319866.8
6431.058, 321012.3
6432.986, 322147.3
6434.914, 322468.6
6436.843, 323477.4
6438.771, 323511.9
6440.700, 324779.8
6442.628, 325478.7
6444.557, 325971.9
6446.485, 326672.4
6448.414, 327570.9
6450.342, 328403.5
6452.271, 329045.0
6454.199, 330258.0
6456.127, 330225.8
6458.056, 330820.3
6459.984, 332349.5
6461.913, 334034.6
6463.841, 334985.1
6465.770, 334707.8
6467.698, 336046.7
6469.627, 336446.3
6471.555, 336983.5
6473.483, 337961.3
6475.412, 338674.3
6477.341, 339537.1
6479.269, 340351.2
6481.197, 341228.4
6483.126, 342270.0
6485.055, 342907.1
6486.983, 343729.3
6488.911, 344693.9
6490.840, 345382.3
6492.769, 346505.1
6494.697, 347566.7
6496.625, 348683.4
6498.554, 349392.4
6500.482, 349737.0
6502.411, 350040.5
6504.339, 350599.1
6506.268, 351574.0
6508.196, 352255.5
6510.125, 352959.7
6512.053, 353366.1
6513.981, 353952.8
6515.910, 355017.0
6517.838, 356306.8
6519.767, 357288.9
6521.695, 358360.5
6523.624, 359325.2
6525.552, 360257.3
6527.480, 361107.6
6529.409, 361798.4
6531.338, 362663.9
6533.266, 363127.0
6535.194, 363707.8
6537.123, 364745.1
6539.052, 365720.5
6540.980, 366751.0
6542.908, 367504.8
6544.837, 367963.9
6546.766, 368890.6
6548.694, 369704.9
6550.622, 370193.1
6552.551, 371494.1
6554.479, 372359.6
6556.408, 373078.3
6558.336, 373786.3
6560.265, 374614.6
6562.193, 375634.2
6564.122, 375987.1
6566.050, 376440.3
6567.979, 377700.1
6569.907, 379153.9
6571.835, 379825.2
6573.764, 380571.6
6575.692, 381382.2
6577.621, 381355.8
6579.549, 383038.8
6581.478, 382849.3
6583.406, 384690.8
6585.335, 385581.9
6587.263, 385920.5
6589.191, 386571.1
6591.120, 387643.3
6593.049, 388825.3
6594.977, 388863.6
6596.905, 390345.0
6598.834, 390979.6
6600.763, 391445.3
6602.691, 391487.5
6604.619, 392363.8
6606.548, 393835.2
6608.477, 394006.1
6610.405, 394879.5
6612.333, 395757.0
6614.262, 396441.0
6616.190, 397739.2
6618.119, 399148.7
6620.047, 400562.2
6621.976, 401273.8
6623.904, 400753.0
6625.833, 402018.3
6627.761, 402405.2
6629.689, 403342.5
##END=



