##NAMES=Spinel
##RRUFFID=R050411
##IDEAL CHEMISTRY=MgAl_2_O_4_
##LOCALITY=Mogok, Burma
##OWNER=RRUFF
##SOURCE=Marcus Origlieri
##DESCRIPTION=Pale pink gemstone
##STATUS=The identification of this mineral has been confirmed by X-ray diffraction and chemical analysis
##URL=https://www.rruff.net/odr/rruff_sample/R050411
##MEASURED CHEMISTRY=Mg_0.93_Al_2.04_O_4_
##DIFFRACTION SAMPLE DESCRIPTION=Powder
##CELL PARAMETERS=a: 8.0871 b: 8.0871 c: 8.0871 alpha: 90 beta: 90 gamma: 90 volume: 528.92 crystal system: cubic
##FILETYPE=Raman RAW
##RAMAN WAVELENGTH=780

83.81592, 94.37730
85.74438, 104.1136
87.67285, 120.0989
89.60132, 139.7741
91.52979, 162.2716
93.45825, 180.6358
95.38672, 185.2627
97.31519, 188.6189
99.24365, 191.4700
101.1721, 193.4258
103.1006, 194.2094
105.0291, 194.2346
106.9575, 194.0418
108.8860, 193.4734
110.8145, 192.8622
112.7429, 192.1800
114.6714, 191.2938
116.5999, 189.7721
118.5283, 187.9034
120.4568, 186.3709
122.3853, 185.1181
124.3137, 184.2058
126.2422, 183.4094
128.1707, 183.0152
130.0991, 183.6352
132.0276, 184.5935
133.9561, 184.5842
135.8845, 182.9932
137.8130, 181.8773
139.7415, 181.5941
141.6699, 181.4678
143.5984, 181.2026
145.5269, 180.8935
147.4553, 180.7453
149.3838, 180.9881
151.3123, 180.7026
153.2407, 179.3550
155.1692, 178.2072
157.0977, 177.7492
159.0261, 177.7233
160.9546, 177.9839
162.8831, 178.6848
164.8115, 178.6378
166.7400, 177.2271
168.6685, 176.2224
170.5969, 176.6158
172.5254, 177.2564
174.4539, 177.1126
176.3823, 176.2029
178.3108, 175.5084
180.2393, 175.0443
182.1677, 174.7336
184.0962, 174.6588
186.0247, 174.6392
187.9531, 174.6745
189.8816, 174.6798
191.8101, 174.1475
193.7385, 172.8276
195.6670, 172.3391
197.5955, 173.4941
199.5239, 174.5436
201.4524, 174.4758
203.3809, 173.9237
205.3093, 173.9347
207.2378, 174.5390
209.1663, 175.0324
211.0947, 175.5113
213.0232, 175.5599
214.9517, 174.5288
216.8801, 173.4719
218.8086, 173.5110
220.7371, 174.3494
222.6655, 174.2424
224.5940, 172.9732
226.5225, 172.0559
228.4509, 172.3371
230.3794, 172.5606
232.3079, 172.3079
234.2363, 171.6318
236.1648, 170.2524
238.0933, 168.2952
240.0217, 167.5345
241.9502, 169.0674
243.8787, 170.1010
245.8071, 169.5495
247.7356, 168.5694
249.6641, 168.0561
251.5925, 167.8817
253.5210, 167.6902
255.4495, 167.4508
257.3779, 167.3042
259.3064, 167.2451
261.2349, 167.3197
263.1633, 167.5545
265.0918, 167.9385
267.0203, 168.4480
268.9487, 169.0840
270.8772, 169.9218
272.8057, 171.3942
274.7341, 172.2023
276.6626, 171.6398
278.5911, 171.0123
280.5195, 171.0621
282.4480, 171.5125
284.3765, 171.9494
286.3049, 172.3443
288.2334, 172.9557
290.1619, 173.4340
292.0903, 174.6618
294.0188, 177.2913
295.9473, 180.2256
297.8757, 182.8250
299.8042, 185.1557
301.7327, 187.2589
303.6611, 188.8669
305.5896, 191.2040
307.5181, 195.1155
309.4465, 198.3404
311.3750, 201.0051
313.3035, 201.9148
315.2319, 200.0991
317.1604, 196.0512
319.0889, 191.1851
321.0173, 184.9181
322.9458, 179.7890
324.8743, 175.9092
326.8027, 172.9179
328.7312, 170.7744
330.6597, 169.4487
332.5882, 169.1558
334.5166, 169.6395
336.4451, 169.9308
338.3736, 169.8511
340.3020, 170.8096
342.2305, 173.2271
344.1590, 175.8000
346.0874, 177.8977
348.0159, 180.1144
349.9444, 182.5593
351.8728, 185.4619
353.8013, 189.3730
355.7298, 194.2798
357.6582, 200.3194
359.5867, 206.7453
361.5152, 216.6047
363.4436, 230.9893
365.3721, 249.2400
367.3006, 273.3344
369.2290, 300.2407
371.1575, 325.0238
373.0860, 347.6666
375.0144, 367.3071
376.9429, 383.4703
378.8714, 398.4065
380.7998, 408.9139
382.7283, 423.0324
384.6568, 440.7655
386.5852, 465.9391
388.5137, 503.0175
390.4422, 551.9338
392.3706, 612.1679
394.2991, 683.7323
396.2276, 766.3109
398.1560, 862.9550
400.0845, 966.8875
402.0130, 1099.626
403.9414, 1216.621
405.8699, 1299.914
407.7984, 1333.810
409.7268, 1286.730
411.6553, 1160.915
413.5838, 1019.303
415.5122, 851.8641
417.4407, 702.3566
419.3692, 573.2199
421.2976, 465.4441
423.2261, 382.9382
425.1546, 319.9936
427.0830, 272.1802
429.0115, 237.6296
430.9400, 212.1373
432.8684, 197.1671
434.7969, 184.9495
436.7254, 175.4942
438.6538, 168.0342
440.5823, 163.4942
442.5108, 159.7658
444.4392, 155.4884
446.3677, 151.4400
448.2962, 148.7088
450.2246, 147.1917
452.1531, 145.6324
454.0816, 143.9375
456.0100, 142.4485
457.9385, 141.2130
459.8670, 140.0832
461.7954, 138.9081
463.7239, 137.9754
465.6524, 137.7178
467.5808, 137.6268
469.5093, 136.8740
471.4378, 135.5371
473.3662, 134.6434
475.2947, 134.2861
477.2232, 133.9471
479.1516, 133.7722
481.0801, 133.1340
483.0086, 131.3916
484.9370, 129.6865
486.8655, 128.6662
488.7940, 128.0190
490.7224, 127.4823
492.6509, 126.9873
494.5794, 126.0619
496.5078, 124.6976
498.4363, 123.4557
500.3648, 122.3896
502.2932, 121.4597
504.2217, 120.6785
506.1502, 120.0121
508.0786, 119.4379
510.0071, 118.9734
511.9356, 118.6668
513.8640, 118.4735
515.7925, 118.2687
517.7209, 118.0594
519.6494, 117.9580
521.5779, 118.0043
523.5063, 117.9725
525.4348, 117.9126
527.3633, 117.5950
529.2917, 116.7920
531.2202, 115.9153
533.1487, 115.2249
535.0771, 114.6137
537.0056, 113.8239
538.9341, 113.0109
540.8625, 112.6496
542.7910, 112.7539
544.7195, 112.9929
546.6479, 113.6585
548.5764, 113.6215
550.5049, 112.1222
552.4333, 110.8268
554.3618, 110.4065
556.2903, 110.2333
558.2188, 109.7708
560.1472, 109.3363
562.0757, 109.5359
564.0042, 110.0966
565.9326, 109.9247
567.8611, 108.8347
569.7896, 108.0771
571.7180, 107.9266
573.6465, 107.7569
575.5750, 107.1952
577.5034, 107.1067
579.4319, 108.2951
581.3604, 109.4490
583.2889, 109.7834
585.2173, 109.5516
587.1458, 108.7484
589.0743, 107.6339
591.0027, 107.1485
592.9312, 107.3572
594.8597, 107.5409
596.7881, 107.7120
598.7166, 107.8077
600.6451, 107.6794
602.5735, 107.8365
604.5020, 108.7654
606.4305, 109.4595
608.3589, 109.0714
610.2874, 108.5164
612.2159, 108.4086
614.1443, 108.6450
616.0728, 109.0300
618.0013, 109.5855
619.9297, 110.5520
621.8582, 111.9709
623.7867, 113.1008
625.7151, 113.7706
627.6436, 115.0384
629.5721, 117.3531
631.5005, 119.5957
633.4290, 121.2015
635.3575, 122.9001
637.2859, 125.1041
639.2144, 127.4590
641.1429, 129.3897
643.0714, 131.4361
644.9998, 134.3233
646.9283, 138.1176
648.8568, 143.1147
650.7852, 149.2343
652.7137, 155.8129
654.6422, 162.7508
656.5706, 170.7554
658.4991, 180.8348
660.4276, 189.5800
662.3560, 196.8719
664.2845, 201.6105
666.2130, 204.0339
668.1414, 203.1079
670.0699, 197.3296
671.9984, 188.6208
673.9268, 178.0530
675.8553, 166.5881
677.7838, 155.4627
679.7122, 145.0263
681.6407, 136.6882
683.5692, 130.4667
685.4976, 125.1094
687.4261, 120.4845
689.3546, 116.8280
691.2830, 114.5394
693.2115, 112.6320
695.1400, 111.1205
697.0684, 109.8003
698.9969, 108.4342
700.9254, 107.4619
702.8538, 107.2570
704.7823, 107.4525
706.7108, 107.7771
708.6392, 108.2582
710.5677, 109.1142
712.4962, 110.1344
714.4246, 110.4787
716.3531, 110.1688
718.2816, 110.6136
720.2100, 112.1549
722.1385, 112.9577
724.0670, 112.4641
725.9954, 112.6728
727.9239, 113.6457
729.8524, 115.4575
731.7808, 118.5454
733.7093, 121.6199
735.6378, 124.0558
737.5662, 126.5019
739.4947, 129.2930
741.4232, 132.3131
743.3516, 135.0715
745.2801, 138.3670
747.2086, 142.9786
749.1370, 148.9935
751.0655, 156.7089
752.9940, 166.0267
754.9224, 176.6144
756.8509, 188.4938
758.7794, 200.6239
760.7078, 213.1011
762.6363, 224.9746
764.5648, 236.9005
766.4932, 243.0983
768.4217, 242.4314
770.3502, 236.3635
772.2786, 223.7656
774.2071, 208.9404
776.1356, 191.3380
778.0640, 174.6047
779.9925, 159.6027
781.9210, 146.6539
783.8494, 136.0575
785.7779, 127.5379
787.7064, 121.3418
789.6348, 116.6702
791.5633, 112.4946
793.4918, 108.9285
795.4202, 106.3844
797.3487, 104.6073
799.2772, 103.0112
801.2056, 101.5345
803.1341, 99.74551
805.0626, 97.65417
806.9910, 96.43254
808.9195, 96.31406
810.8480, 95.99044
812.7764, 95.25193
814.7049, 94.54143
816.6334, 93.92110
818.5618, 93.31639
820.4903, 92.67857
822.4188, 92.11543
824.3472, 91.83681
826.2757, 91.35702
828.2042, 90.27560
830.1326, 89.23270
832.0611, 88.54683
833.9896, 88.07003
835.9180, 87.83619
837.8465, 87.62100
839.7750, 87.12206
841.7034, 86.60887
843.6319, 86.54625
845.5604, 86.57732
847.4888, 85.96252
849.4173, 84.98616
851.3458, 84.43077
853.2742, 84.22675
855.2027, 84.07970
857.1312, 83.97346
859.0596, 83.60137
860.9881, 82.95285
862.9166, 82.09453
864.8450, 80.91180
866.7735, 80.20137
868.7020, 80.09615
870.6304, 79.74373
872.5589, 79.01778
874.4874, 78.42654
876.4158, 78.09406
878.3443, 77.64967
880.2728, 76.94580
882.2012, 76.36906
884.1297, 76.05569
886.0582, 75.79781
887.9866, 75.61172
889.9151, 75.28887
891.8436, 74.64799
893.7720, 74.01074
895.7005, 73.35405
897.6290, 72.95443
899.5574, 73.36169
901.4859, 73.54742
903.4144, 72.53406
905.3428, 71.39605
907.2713, 71.06197
909.1998, 70.93821
911.1282, 70.39011
913.0567, 69.77916
914.9852, 69.61532
916.9136, 69.58968
918.8421, 69.33430
920.7706, 68.87790
922.6990, 67.94991
924.6275, 67.03558
926.5560, 67.54694
928.4844, 68.61784
930.4129, 67.98324
932.3414, 66.40015
934.2698, 66.07128
936.1983, 66.62657
938.1268, 66.66336
940.0552, 66.25191
941.9837, 65.88493
943.9122, 65.59018
945.8406, 65.49442
947.7691, 65.58739
949.6976, 65.41606
951.6260, 64.95913
953.5545, 64.44559
955.4830, 63.84935
957.4114, 63.41961
959.3399, 63.10500
961.2684, 63.26020
963.1968, 64.19420
965.1253, 64.55041
967.0538, 64.06761
968.9822, 63.73262
970.9107, 63.67332
972.8392, 63.40015
974.7676, 62.78001
976.6961, 62.29551
978.6246, 61.90032
980.5530, 61.94043
982.4815, 62.74743
984.4100, 62.89986
986.3384, 61.98745
988.2669, 61.29009
990.1954, 61.02605
992.1238, 60.95331
994.0523, 61.15587
995.9808, 60.98969
997.9092, 60.12047
999.8377, 59.73808
1001.766, 60.38918
1003.695, 60.39038
1005.623, 59.01912
1007.552, 58.15739
1009.480, 58.42647
1011.409, 58.74818
1013.337, 58.88203
1015.265, 58.91796
1017.194, 58.85126
1019.122, 58.77101
1021.051, 58.72623
1022.979, 58.59206
1024.908, 58.31185
1026.836, 57.99094
1028.765, 57.58755
1030.693, 57.31628
1032.622, 57.34170
1034.550, 57.26121
1036.479, 56.80134
1038.407, 56.60769
1040.335, 57.31243
1042.264, 57.35844
1044.192, 55.63859
1046.121, 54.64437
1048.049, 55.29637
1049.978, 55.88665
1051.906, 56.21646
1053.835, 56.31135
1055.763, 56.15148
1057.692, 55.80251
1059.620, 55.08073
1061.549, 54.52732
1063.477, 54.35662
1065.406, 54.12666
1067.334, 53.63058
1069.262, 53.32360
1071.191, 53.39546
1073.120, 53.41412
1075.048, 53.38480
1076.976, 53.20190
1078.905, 52.53262
1080.833, 52.35444
1082.762, 53.23763
1084.690, 53.53498
1086.619, 52.85606
1088.547, 52.25156
1090.476, 51.75660
1092.404, 51.39654
1094.333, 51.21318
1096.261, 51.03021
1098.190, 50.76294
1100.118, 50.85812
1102.047, 51.49310
1103.975, 51.61523
1105.903, 51.07485
1107.832, 50.93162
1109.760, 51.31882
1111.689, 51.01862
1113.617, 49.92899
1115.546, 49.31071
1117.474, 49.19233
1119.403, 49.13442
1121.331, 49.11065
1123.260, 49.10051
1125.188, 49.14113
1127.117, 49.11271
1129.045, 49.00603
1130.974, 49.10517
1132.902, 49.32373
1134.830, 49.10515
1136.759, 48.62891
1138.687, 48.43742
1140.616, 48.43049
1142.544, 48.51829
1144.473, 48.62283
1146.401, 48.49260
1148.330, 48.29445
1150.258, 48.30991
1152.187, 48.37918
1154.115, 48.39842
1156.044, 48.32391
1157.972, 47.88797
1159.901, 47.46337
1161.829, 47.62048
1163.757, 47.85359
1165.686, 47.53730
1167.614, 47.22092
1169.543, 47.51984
1171.471, 47.73847
1173.400, 47.06884
1175.328, 46.81242
1177.257, 48.07339
1179.185, 48.96726
1181.114, 48.84431
1183.042, 48.34257
1184.971, 47.07184
1186.899, 46.40514
1188.828, 46.97974
1190.756, 47.47078
1192.684, 47.67204
1194.613, 47.77258
1196.541, 47.92973
1198.470, 47.68910
1200.398, 46.81928
1202.327, 46.48560
1204.255, 46.73421
1206.184, 47.52267
1208.112, 48.76609
1210.041, 48.43813
1211.969, 46.90806
1213.898, 46.53930
1215.826, 46.92289
1217.755, 46.42833
1219.683, 45.64211
1221.611, 46.28431
1223.540, 47.31696
1225.468, 46.84422
1227.397, 45.93700
1229.325, 45.93124
1231.254, 46.20115
1233.182, 46.22463
1235.111, 46.08512
1237.039, 45.75100
1238.968, 45.47813
1240.896, 45.35687
1242.825, 45.44278
1244.753, 45.82545
1246.682, 46.01148
1248.610, 45.85989
1250.538, 45.66811
1252.467, 45.52232
1254.395, 45.30757
1256.324, 44.93942
1258.252, 44.79288
1260.181, 44.96535
1262.109, 45.17003
1264.038, 45.34254
1265.966, 45.60804
1267.895, 45.78106
1269.823, 45.11782
1271.752, 44.20148
1273.680, 44.04629
1275.609, 44.28310
1277.537, 44.65826
1279.465, 45.00615
1281.394, 45.14993
1283.322, 45.09303
1285.251, 44.68483
1287.179, 44.39928
1289.108, 44.61893
1291.036, 44.69518
1292.965, 44.25271
1294.893, 44.01604
1296.822, 44.21908
1298.750, 44.27832
1300.679, 44.17561
1302.607, 44.21226
1304.536, 44.38050
1306.464, 44.25538
1308.392, 43.90487
1310.321, 43.72773
1312.249, 43.69822
1314.178, 43.99235
1316.106, 44.38425
1318.035, 44.23186
1319.963, 43.93272
1321.892, 43.99698
1323.820, 44.07786
1325.749, 44.03783
1327.677, 44.05555
1329.606, 44.15582
1331.534, 44.04653
1333.463, 43.55955
1335.391, 43.32322
1337.319, 43.59227
1339.248, 43.68052
1341.176, 43.39728
1343.105, 43.13983
1345.033, 42.96848
1346.962, 42.73819
1348.890, 42.52077
1350.819, 42.55907
1352.747, 42.69820
1354.676, 42.81770
1356.604, 42.78830
1358.533, 42.32692
1360.461, 42.02184
1362.390, 42.27300
1364.318, 42.38474
1366.246, 42.28203
1368.175, 41.99967
1370.103, 41.39243
1372.032, 41.17596
1373.960, 41.40846
1375.889, 41.48880
1377.817, 41.45872
1379.746, 41.56109
1381.674, 41.78432
1383.603, 42.01973
1385.531, 42.02157
1387.460, 41.49124
1389.388, 41.10285
1391.317, 41.45295
1393.245, 41.74775
1395.173, 41.34297
1397.102, 41.17497
1399.030, 41.84638
1400.959, 42.29828
1402.887, 42.25711
1404.816, 42.41790
1406.744, 42.95772
1408.673, 42.53564
1410.601, 41.38280
1412.530, 41.16118
1414.458, 41.53465
1416.387, 42.10806
1418.315, 42.56952
1420.244, 42.58525
1422.172, 42.49398
1424.100, 42.40266
1426.029, 42.40324
1427.957, 42.72415
1429.886, 43.03616
1431.814, 43.05052
1433.743, 42.49752
1435.671, 41.58021
1437.600, 41.53278
1439.528, 42.00857
1441.457, 41.71850
1443.385, 41.20375
1445.314, 41.38999
1447.242, 41.53821
1449.171, 41.11622
1451.099, 40.96825
1453.027, 41.20543
1454.956, 41.25253
1456.884, 41.20285
1458.813, 41.02579
1460.741, 40.74501
1462.670, 40.61449
1464.598, 40.51128
1466.527, 40.59043
1468.455, 40.64113
1470.384, 40.05494
1472.312, 39.52148
1474.241, 39.65731
1476.169, 39.89876
1478.098, 39.93728
1480.026, 40.04036
1481.954, 40.28493
1483.883, 40.25995
1485.811, 40.04452
1487.740, 39.84975
1489.668, 39.66238
1491.597, 39.32071
1493.525, 38.99131
1495.454, 39.00788
1497.382, 39.14482
1499.311, 39.19624
1501.239, 39.39144
1503.168, 39.98042
1505.096, 39.99759
1507.025, 39.39986
1508.953, 39.48961
1510.881, 39.94650
1512.810, 39.58428
1514.738, 39.22793
1516.667, 39.74686
1518.595, 40.22942
1520.524, 40.38544
1522.452, 40.36955
1524.381, 39.93777
1526.309, 39.55479
1528.238, 39.35804
1530.166, 39.70533
1532.095, 40.34362
1534.023, 40.35906
1535.952, 40.11752
1537.880, 40.00760
1539.808, 40.12120
1541.737, 40.66056
1543.665, 40.79099
1545.594, 40.17118
1547.522, 40.28942
1549.451, 41.25721
1551.379, 41.48916
1553.308, 41.17740
1555.236, 40.80411
1557.165, 40.43268
1559.093, 40.18896
1561.022, 40.01962
1562.950, 39.81239
1564.879, 39.93948
1566.807, 40.41297
1568.735, 40.31183
1570.664, 39.83809
1572.592, 40.02563
1574.521, 40.48379
1576.449, 40.26073
1578.378, 39.72864
1580.306, 39.59647
1582.235, 39.66370
1584.163, 39.73560
1586.092, 39.79882
1588.020, 39.80348
1589.949, 39.66619
1591.877, 39.50392
1593.806, 39.22948
1595.734, 38.97908
1597.662, 39.31432
1599.591, 39.70419
1601.519, 39.76479
1603.448, 39.50657
1605.376, 38.79304
1607.305, 38.14997
1609.233, 38.01685
1611.162, 38.44371
1613.090, 38.67458
1615.019, 38.42962
1616.947, 38.12308
1618.876, 37.52980
1620.804, 37.22249
1622.733, 37.80739
1624.661, 38.16941
1626.589, 38.28468
1628.518, 38.23837
1630.446, 38.16388
1632.375, 38.15902
1634.303, 37.89509
1636.232, 37.62503
1638.160, 37.68036
1640.089, 38.03773
1642.017, 37.99116
1643.946, 37.46813
1645.874, 37.07497
1647.803, 37.09289
1649.731, 37.59237
1651.660, 37.76556
1653.588, 37.72684
1655.516, 37.68102
1657.445, 37.28973
1659.373, 37.37244
1661.302, 37.93498
1663.230, 38.11522
1665.159, 38.14923
1667.087, 37.89782
1669.016, 37.43370
1670.944, 37.64164
1672.873, 37.87409
1674.801, 37.46355
1676.730, 36.97904
1678.658, 36.82571
1680.587, 36.94952
1682.515, 36.95082
1684.443, 36.59778
1686.372, 36.51760
1688.300, 36.98166
1690.229, 36.71384
1692.157, 35.88223
1694.086, 35.87446
1696.014, 36.28666
1697.943, 36.73823
1699.871, 36.99444
1701.800, 36.16185
1703.728, 35.77996
1705.657, 36.90263
1707.585, 37.09536
1709.514, 36.43245
1711.442, 36.24499
1713.370, 36.16477
1715.299, 36.06853
1717.227, 36.24514
1719.156, 36.37806
1721.084, 36.13314
1723.013, 36.02360
1724.941, 35.83731
1726.870, 35.53356
1728.798, 35.56922
1730.727, 35.59191
1732.655, 35.51850
1734.584, 35.38236
1736.512, 35.13023
1738.441, 35.54293
1740.369, 36.26997
1742.297, 36.19525
1744.226, 35.75605
1746.154, 35.25493
1748.083, 34.74537
1750.011, 34.39412
1751.940, 34.62268
1753.868, 35.22185
1755.797, 35.46080
1757.725, 35.63319
1759.654, 35.66262
1761.582, 35.25288
1763.511, 34.97734
1765.439, 34.94525
1767.368, 34.67936
1769.296, 34.35844
1771.224, 34.45017
1773.153, 35.21877
1775.081, 35.61381
1777.010, 35.22446
1778.938, 34.98493
1780.867, 35.11074
1782.795, 35.18752
1784.724, 35.14674
1786.652, 35.30451
1788.581, 35.41022
1790.509, 34.94618
1792.438, 34.46072
1794.366, 34.56037
1796.295, 35.16182
1798.223, 35.34348
1800.151, 35.17492
1802.080, 35.10748
1804.008, 34.85263
1805.937, 34.70339
1807.865, 34.80980
1809.794, 35.15900
1811.722, 35.20913
1813.651, 34.70473
1815.579, 34.60237
1817.508, 34.91219
1819.436, 34.83490
1821.365, 34.79755
1823.293, 34.43299
1825.222, 33.87045
1827.150, 33.99941
1829.078, 34.35376
1831.007, 34.61285
1832.935, 34.77113
1834.864, 34.55754
1836.792, 34.38968
1838.721, 34.43248
1840.649, 33.76119
1842.578, 33.26383
1844.506, 33.57030
1846.435, 33.90726
1848.363, 34.14655
1850.292, 33.88315
1852.220, 33.80885
1854.149, 34.41870
1856.077, 34.61151
1858.005, 34.16586
1859.934, 34.14595
1861.862, 34.40391
1863.791, 33.66396
1865.719, 32.97812
1867.648, 33.34675
1869.576, 33.74137
1871.505, 33.64518
1873.433, 33.37298
1875.362, 33.30791
1877.290, 33.89119
1879.219, 34.05744
1881.147, 33.52700
1883.076, 33.10104
1885.004, 33.06061
1886.932, 33.34101
1888.861, 33.42768
1890.789, 33.54107
1892.718, 33.32233
1894.646, 32.62380
1896.575, 33.11197
1898.503, 33.73463
1900.432, 33.14172
1902.360, 32.87809
1904.289, 33.09685
1906.217, 33.37878
1908.146, 33.75165
1910.074, 33.26844
1912.003, 32.53460
1913.931, 32.42162
1915.859, 32.83680
1917.788, 33.21696
1919.716, 33.16945
1921.645, 33.13447
1923.573, 33.42654
1925.502, 33.58440
1927.430, 33.46518
1929.359, 33.50046
1931.287, 33.47776
1933.216, 33.31363
1935.144, 33.26311
1937.073, 33.23855
1939.001, 33.01075
1940.930, 32.79570
1942.858, 33.12979
1944.786, 33.42726
1946.715, 33.21010
1948.643, 33.46791
1950.572, 34.17933
1952.500, 33.22332
1954.429, 32.02294
1956.357, 32.41453
1958.286, 32.53054
1960.214, 32.43029
1962.143, 31.95257
1964.071, 31.36521
1966.000, 32.10222
1967.928, 32.85896
1969.857, 32.91149
1971.785, 32.87874
1973.714, 32.58076
1975.642, 32.36164
1977.570, 32.49014
1979.499, 32.43349
1981.427, 32.24394
1983.356, 32.41564
1985.284, 32.57093
1987.213, 32.39670
1989.141, 32.40289
1991.070, 32.47290
1992.998, 32.35508
1994.927, 32.42952
1996.855, 32.40112
1998.784, 32.32806
2000.712, 32.56990
2002.641, 32.63546
2004.569, 32.33186
2006.497, 32.20750
2008.426, 31.80663
2010.354, 31.36496
2012.283, 31.73129
2014.211, 32.40261
2016.140, 32.71220
2018.068, 32.56301
2019.997, 32.37582
2021.925, 32.34406
2023.854, 31.98182
2025.782, 31.29639
2027.711, 31.25338
2029.639, 31.62879
2031.568, 31.71560
2033.496, 31.75915
2035.424, 32.27586
2037.353, 32.65065
2039.281, 32.47744
2041.210, 32.18410
2043.138, 31.64598
2045.067, 31.12832
2046.995, 31.11663
2048.924, 31.60478
2050.852, 32.00884
2052.781, 31.97632
2054.709, 32.02158
2056.637, 31.69242
2058.566, 31.25733
2060.495, 31.68694
2062.423, 32.18503
2064.352, 32.21170
2066.280, 32.01263
2068.208, 31.86213
2070.137, 31.66986
2072.065, 31.78735
2073.994, 31.79465
2075.922, 31.04895
2077.851, 30.88680
2079.779, 31.68093
2081.708, 31.94318
2083.636, 31.52997
2085.565, 30.55989
2087.493, 30.45121
2089.422, 31.40859
2091.350, 31.74009
2093.279, 31.50925
2095.207, 30.89783
2097.135, 30.65251
2099.064, 30.71631
2100.992, 30.86829
2102.921, 30.99260
2104.849, 30.52934
2106.778, 30.61178
2108.706, 30.86178
2110.635, 30.62401
2112.563, 30.88837
2114.492, 31.16909
2116.420, 31.10269
2118.349, 31.26491
2120.277, 32.25540
2122.206, 32.59398
2124.134, 31.85905
2126.063, 31.07160
2127.991, 30.05072
2129.919, 30.38161
2131.848, 31.10323
2133.776, 31.43945
2135.705, 31.30258
2137.633, 30.91956
2139.562, 31.15376
2141.490, 31.27265
2143.419, 30.66617
2145.347, 30.42170
2147.276, 30.46749
2149.204, 30.45051
2151.133, 30.43705
2153.061, 30.69342
2154.990, 31.07508
2156.918, 30.77224
2158.846, 30.22433
2160.775, 30.35425
2162.703, 30.65886
2164.632, 30.75123
2166.560, 30.42760
2168.489, 29.81102
2170.417, 30.19594
2172.346, 30.90041
2174.274, 30.36189
2176.203, 29.94191
2178.131, 30.40377
2180.060, 30.74611
2181.988, 30.82591
2183.917, 30.57872
2185.845, 30.42139
2187.773, 30.59451
2189.702, 30.26727
2191.630, 29.87127
2193.559, 30.21521
2195.487, 29.75043
2197.416, 29.59920
2199.344, 29.92101
2201.273, 30.06613
2203.201, 30.28858
2205.130, 29.91683
2207.058, 29.90306
2208.987, 30.66054
2210.915, 30.47533
2212.844, 29.95689
2214.772, 30.31075
2216.700, 30.76551
2218.629, 30.56355
2220.557, 30.06305
2222.486, 29.74493
2224.414, 29.52710
2226.343, 29.70945
2228.271, 30.37056
2230.200, 30.43793
2232.128, 29.83473
2234.057, 29.88006
2235.985, 30.45117
2237.914, 30.66256
2239.842, 30.40078
2241.771, 30.22436
2243.699, 29.98931
2245.627, 29.63611
2247.556, 29.83493
2249.484, 30.26609
2251.413, 30.20437
2253.341, 30.20044
2255.270, 30.03119
2257.198, 29.94328
2259.127, 29.91772
2261.055, 29.72292
2262.984, 29.61738
2264.912, 29.60524
2266.841, 29.99409
2268.769, 30.00996
2270.698, 29.62872
2272.626, 29.94694
2274.554, 29.91455
2276.483, 29.66859
2278.411, 29.74517
2280.340, 29.96411
2282.268, 30.03855
2284.197, 29.90760
2286.125, 29.65792
2288.054, 29.72998
2289.982, 29.75832
2291.911, 29.07586
2293.839, 28.94013
2295.768, 30.07606
2297.696, 30.40297
2299.625, 29.84373
2301.553, 29.13059
2303.481, 29.27751
2305.410, 29.65507
2307.338, 29.57934
2309.267, 29.38341
2311.195, 29.21454
2313.124, 29.29126
2315.052, 29.25452
2316.981, 29.74589
2318.909, 30.10142
2320.838, 30.25249
2322.766, 29.70911
2324.695, 29.19195
2326.623, 29.78376
2328.552, 30.31144
2330.480, 30.12264
2332.408, 29.55358
2334.337, 29.80584
2336.265, 29.90758
2338.194, 29.25037
2340.122, 29.10561
2342.051, 29.59921
2343.979, 29.82133
2345.908, 29.73647
2347.836, 29.46418
2349.765, 29.14815
2351.693, 29.23885
2353.622, 29.68487
2355.550, 29.76750
2357.479, 29.55656
2359.407, 29.47575
2361.335, 30.05440
2363.264, 30.89103
2365.192, 29.96237
2367.121, 29.34014
2369.049, 29.55449
2370.978, 29.14188
2372.906, 28.85293
2374.835, 29.42371
2376.763, 29.48806
2378.692, 28.96980
2380.620, 29.05150
2382.549, 29.66072
2384.477, 29.79625
2386.406, 29.25689
2388.334, 28.95569
2390.262, 28.73076
2392.191, 28.69317
2394.119, 29.16780
2396.048, 29.95688
2397.976, 30.03246
2399.905, 30.04518
2401.833, 29.97256
2403.762, 29.57337
2405.690, 29.50959
2407.619, 29.61690
2409.547, 29.68904
2411.476, 29.77200
2413.404, 29.48506
2415.333, 29.18712
2417.261, 29.44275
2419.189, 29.86706
2421.118, 29.70486
2423.046, 29.15858
2424.975, 29.29281
2426.903, 29.53279
2428.832, 29.30517
2430.760, 28.80564
2432.689, 28.61300
2434.617, 29.13071
2436.546, 29.53313
2438.474, 29.59206
2440.403, 29.49177
2442.331, 29.37816
2444.260, 29.27523
2446.188, 29.21705
2448.116, 29.21901
2450.045, 29.35412
2451.973, 29.70289
2453.902, 29.68676
2455.830, 29.21516
2457.759, 28.93546
2459.687, 28.88809
2461.616, 28.85831
2463.544, 29.02155
2465.473, 29.14660
2467.401, 29.66101
2469.330, 29.59882
2471.258, 29.00648
2473.187, 29.12770
2475.115, 28.81400
2477.043, 28.27292
2478.972, 28.90357
2480.900, 29.21842
2482.829, 29.11919
2484.757, 29.06230
2486.686, 28.92610
2488.614, 28.59835
2490.543, 28.56138
2492.471, 28.97533
2494.400, 29.45622
2496.328, 29.17668
2498.257, 28.70459
2500.185, 28.87964
2502.114, 29.07996
2504.042, 28.97107
2505.970, 28.63470
2507.899, 28.92774
2509.827, 29.21121
2511.756, 29.29310
2513.684, 29.52523
2515.613, 29.36079
2517.541, 29.18671
2519.470, 29.06269
2521.398, 29.00426
2523.327, 29.28044
2525.255, 29.28337
2527.184, 29.32079
2529.112, 29.26080
2531.041, 29.33751
2532.969, 29.97024
2534.897, 29.54795
2536.826, 28.90190
2538.754, 29.11138
2540.683, 29.57512
2542.611, 29.71650
2544.540, 29.59592
2546.468, 29.52444
2548.397, 29.63043
2550.325, 30.32148
2552.254, 30.19614
2554.182, 29.86278
2556.111, 30.02560
2558.039, 30.06034
2559.968, 29.91367
2561.896, 30.05268
2563.824, 30.02445
2565.753, 29.56780
2567.681, 29.39740
2569.610, 29.68870
2571.538, 29.93212
2573.467, 29.96389
2575.395, 29.95491
2577.324, 29.91338
2579.252, 29.79383
2581.181, 29.81559
2583.109, 30.06299
2585.038, 30.84509
2586.966, 30.33630
2588.895, 29.32105
2590.823, 29.63853
2592.751, 29.93818
2594.680, 30.20566
2596.608, 29.91471
2598.537, 29.96132
2600.465, 30.39543
2602.394, 29.97639
2604.322, 29.86571
2606.251, 30.28419
2608.179, 29.98116
2610.108, 30.12977
2612.036, 30.65583
2613.965, 30.09203
2615.893, 29.76520
2617.822, 30.00019
2619.750, 30.35034
2621.678, 30.15053
2623.607, 29.88329
2625.535, 30.49757
2627.464, 30.28104
2629.392, 29.59232
2631.321, 29.68982
2633.249, 29.94716
2635.178, 30.16586
2637.106, 30.56109
2639.035, 30.96239
2640.963, 30.79536
2642.892, 30.14259
2644.820, 30.16271
2646.749, 30.32349
2648.677, 30.74210
2650.605, 30.49355
2652.534, 29.99168
2654.462, 30.63090
2656.391, 30.63902
2658.319, 30.53401
2660.248, 30.93673
2662.176, 31.04601
2664.105, 30.86036
2666.033, 30.92566
2667.962, 30.95168
2669.890, 30.67785
2671.819, 30.63294
2673.747, 29.93015
2675.676, 29.89713
2677.604, 30.96382
2679.532, 31.10675
2681.461, 30.97149
2683.389, 30.57776
2685.318, 30.85494
2687.246, 31.05244
2689.175, 30.77755
2691.103, 30.26880
2693.032, 30.19814
2694.960, 30.64897
2696.889, 31.00964
2698.817, 31.60870
2700.746, 31.93315
2702.674, 30.35640
2704.603, 29.91579
2706.531, 30.54078
2708.459, 30.85430
2710.388, 31.01311
2712.316, 30.85325
2714.245, 30.41731
2716.173, 31.12848
2718.102, 31.77054
2720.030, 30.99049
2721.959, 30.39840
2723.887, 30.48068
2725.816, 31.05484
2727.744, 30.32406
2729.673, 30.25476
2731.601, 31.25721
2733.530, 31.30839
2735.458, 31.19114
2737.386, 31.20091
2739.315, 30.65680
2741.243, 31.00395
2743.172, 31.68683
2745.100, 31.05205
2747.029, 30.76420
2748.957, 30.91733
2750.886, 31.69445
2752.814, 31.25593
2754.743, 30.83764
2756.671, 31.53523
2758.600, 31.30962
2760.528, 31.38965
2762.457, 32.17443
2764.385, 31.70863
2766.313, 31.52529
2768.242, 31.92036
2770.170, 31.50341
2772.099, 31.22062
2774.027, 31.04243
2775.956, 31.21839
2777.884, 31.59717
2779.813, 31.82546
2781.741, 31.87350
2783.670, 31.73232
2785.598, 31.57573
2787.527, 31.92627
2789.455, 32.05692
2791.384, 32.09266
2793.312, 31.99416
2795.240, 32.81521
2797.169, 33.29452
2799.097, 32.75615
2801.026, 32.86208
2802.954, 32.77930
2804.883, 32.52310
2806.811, 31.84016
2808.740, 31.84765
2810.668, 32.29789
2812.597, 32.58170
2814.525, 32.18123
2816.454, 31.93013
2818.382, 32.31487
2820.311, 31.99216
2822.239, 32.26866
2824.167, 33.02378
2826.096, 32.10958
2828.024, 32.29952
2829.953, 32.97524
2831.881, 32.65834
2833.810, 32.22331
2835.738, 32.23741
2837.667, 32.85960
2839.595, 33.07166
2841.524, 33.00235
2843.452, 32.68262
2845.381, 32.15872
2847.309, 32.42762
2849.238, 33.02915
2851.166, 33.09710
2853.094, 32.95243
2855.023, 32.89478
2856.951, 33.02033
2858.880, 31.97869
2860.808, 31.54479
2862.737, 32.05791
2864.665, 32.51585
2866.594, 32.42082
2868.522, 32.25103
2870.451, 33.35010
2872.379, 33.15525
2874.308, 32.90372
2876.236, 33.43903
2878.165, 32.68380
2880.093, 32.24551
2882.021, 32.38726
2883.950, 32.77409
2885.878, 32.08497
2887.807, 31.49632
2889.735, 32.88446
2891.664, 33.15226
2893.592, 33.03470
2895.521, 32.98811
2897.449, 33.20093
2899.378, 32.88403
2901.306, 32.31845
2903.235, 32.26206
2905.163, 32.95214
2907.092, 33.38926
2909.020, 32.86650
2910.948, 32.82561
2912.877, 33.18448
2914.805, 33.65944
2916.734, 33.48220
2918.662, 33.26602
2920.591, 33.15078
2922.519, 33.20316
2924.448, 33.80934
2926.376, 33.94792
2928.305, 33.43658
2930.233, 33.32566
2932.162, 33.66608
2934.090, 33.98395
2936.019, 33.69462
2937.947, 34.10776
2939.875, 34.13504
2941.804, 33.53732
2943.732, 33.56108
2945.661, 34.35207
2947.589, 34.93487
2949.518, 33.54074
2951.446, 33.73717
2953.375, 33.83999
2955.303, 33.24500
2957.232, 33.83993
2959.160, 34.43572
2961.089, 34.41686
2963.017, 33.24500
2964.946, 34.06705
2966.874, 34.78514
2968.802, 34.29779
2970.731, 33.30944
2972.659, 33.44907
2974.588, 34.15395
2976.516, 34.58489
2978.445, 34.15520
2980.373, 33.77927
2982.302, 33.82385
2984.230, 33.72427
2986.159, 33.91201
2988.087, 34.25100
2990.016, 34.46410
2991.944, 34.33511
2993.873, 34.15491
2995.801, 34.04182
2997.729, 33.65961
2999.658, 34.07774
3001.586, 34.20553
3003.515, 33.33761
3005.443, 33.66222
3007.372, 34.15001
3009.300, 34.44109
3011.229, 34.57529
3013.157, 34.60314
3015.086, 34.63996
3017.014, 34.74981
3018.943, 35.15349
3020.871, 34.38519
3022.800, 33.71981
3024.728, 34.95463
3026.656, 35.02030
3028.585, 34.71497
3030.513, 34.49327
3032.442, 34.32647
3034.370, 34.48349
3036.299, 34.64009
3038.227, 34.59706
3040.156, 34.01192
3042.084, 34.72384
3044.013, 35.52375
3045.941, 34.30532
3047.870, 34.08857
3049.798, 33.80062
3051.727, 33.48354
3053.655, 33.78144
3055.583, 34.58018
3057.512, 35.19456
3059.440, 35.00937
3061.369, 33.85604
3063.297, 33.84756
3065.226, 34.61770
3067.154, 35.12967
3069.083, 33.76887
3071.011, 33.83241
3072.940, 34.93551
3074.868, 34.56347
3076.797, 33.97589
3078.725, 33.88773
3080.654, 34.41114
3082.582, 34.61793
3084.510, 34.51569
3086.439, 34.46738
3088.367, 34.74682
3090.296, 35.32033
3092.224, 34.50732
3094.153, 33.77508
3096.081, 35.01416
3098.010, 35.20538
3099.938, 35.12119
3101.867, 34.96406
3103.795, 34.41354
3105.724, 34.44672
3107.652, 34.33538
3109.581, 34.21595
3111.509, 34.75780
3113.438, 34.18245
3115.366, 34.02225
3117.294, 35.08292
3119.223, 34.97004
3121.151, 34.79166
3123.080, 34.70552
3125.008, 34.65565
3126.937, 34.08998
3128.865, 34.78382
3130.794, 35.59380
3132.722, 34.85931
3134.651, 34.64806
3136.579, 34.34061
3138.508, 34.19222
3140.436, 34.80648
3142.365, 34.03282
3144.293, 33.91280
3146.221, 34.50209
3148.150, 34.31396
3150.078, 34.24430
3152.007, 34.31994
3153.935, 34.33053
3155.864, 34.26186
3157.792, 33.98619
3159.721, 34.26957
3161.649, 34.69863
3163.578, 34.30601
3165.506, 33.89427
3167.435, 33.74878
3169.363, 34.15926
3171.292, 34.28443
3173.220, 33.80113
3175.148, 33.52347
3177.077, 33.72262
3179.005, 33.84014
3180.934, 32.89249
3182.862, 32.60514
3184.791, 33.77183
3186.719, 33.56101
3188.648, 34.16586
3190.576, 33.92684
3192.505, 32.45280
3194.433, 32.94602
3196.362, 33.05319
3198.290, 33.03321
3200.219, 32.93259
3202.147, 31.94620
3204.075, 31.99057
3206.004, 32.39930
3207.932, 32.55839
3209.861, 33.24635
3211.789, 33.35852
3213.718, 32.51141
3215.646, 31.30927
3217.575, 31.90107
3219.503, 32.98803
3221.432, 33.10410
3223.360, 31.99984
3225.289, 30.89053
3227.217, 31.40590
3229.146, 31.61389
3231.074, 31.40029
3233.002, 32.12613
3234.931, 32.23313
3236.859, 32.20136
3238.788, 31.93248
3240.716, 32.03265
3242.645, 31.84436
3244.573, 31.48748
3246.502, 31.29668
3248.430, 31.10090
3250.359, 31.38131
3252.287, 31.40779
3254.216, 31.03003
3256.144, 31.04187
3258.073, 31.22432
3260.001, 31.44353
3261.929, 31.56106
3263.858, 31.31983
3265.786, 31.25081
3267.715, 31.56997
3269.643, 31.83599
3271.572, 31.70021
3273.500, 31.25084
3275.429, 30.85560
3277.357, 30.87604
3279.286, 31.23741
3281.214, 30.95119
3283.143, 31.16060
3285.071, 31.94068
3287.000, 32.22172
3288.928, 30.87123
3290.856, 31.04976
3292.785, 31.31081
3294.713, 31.32248
3296.642, 31.23586
3298.570, 31.80048
3300.499, 31.77047
3302.427, 31.80346
3304.356, 32.26264
3306.284, 31.58403
3308.213, 31.48153
3310.141, 31.36657
3312.070, 31.38420
3313.998, 32.74966
3315.927, 33.13847
3317.855, 33.12944
3319.783, 32.50484
3321.712, 30.93864
3323.640, 31.38402
3325.569, 32.35575
3327.497, 32.48228
3329.426, 31.70737
3331.354, 31.93703
3333.283, 32.63508
3335.211, 32.48051
3337.140, 31.62232
3339.068, 31.07366
3340.997, 31.12875
3342.925, 30.75245
3344.854, 30.49666
3346.782, 30.90991
3348.710, 31.60627
3350.639, 31.37076
3352.567, 31.80028
3354.496, 32.70057
3356.424, 32.66327
3358.353, 31.76965
3360.281, 31.34043
3362.210, 31.06214
3364.138, 30.67729
3366.067, 31.16396
3367.995, 32.06174
3369.924, 31.99391
3371.852, 31.42834
3373.781, 32.51443
3375.709, 32.42049
3377.637, 32.24712
3379.566, 32.14615
3381.494, 31.89043
3383.423, 30.86664
3385.351, 29.90202
3387.280, 30.72372
3389.208, 32.34453
3391.137, 32.29760
3393.065, 32.60090
3394.994, 31.51639
3396.922, 31.10010
3398.851, 32.46572
3400.779, 33.20740
3402.708, 31.33992
3404.636, 31.42509
3406.564, 32.38527
3408.493, 31.58545
3410.421, 31.10326
3412.350, 31.62648
3414.278, 31.45806
3416.207, 31.07876
3418.135, 32.74393
3420.064, 32.26726
3421.992, 31.43493
3423.921, 31.55960
3425.849, 32.55631
3427.778, 32.63015
3429.706, 32.30467
3431.635, 32.54047
3433.563, 32.72337
3435.491, 32.15802
3437.420, 32.31638
3439.348, 33.51056
3441.277, 33.36751
3443.205, 32.64896
3445.134, 33.42279
3447.062, 33.11385
3448.991, 33.56567
3450.919, 33.81057
3452.848, 33.32663
3454.776, 32.35326
3456.705, 32.64588
3458.633, 33.35407
3460.562, 32.95346
3462.490, 31.66818
3464.418, 32.22561
3466.347, 31.96018
3468.275, 31.78703
3470.204, 32.21718
3472.132, 32.61933
3474.061, 30.65586
3475.989, 30.48745
3477.918, 30.84408
3479.846, 30.77787
3481.775, 30.34840
3483.703, 31.03720
3485.632, 30.79973
3487.560, 30.75054
3489.489, 30.58603
3491.417, 30.06764
3493.345, 30.61769
3495.274, 31.01674
3497.202, 31.20253
3499.131, 30.99105
3501.059, 30.55809
3502.988, 31.17548
3504.916, 31.93756
3506.845, 30.97469
3508.773, 30.20784
3510.702, 31.18805
3512.630, 31.96757
3514.559, 31.94301
3516.487, 30.97524
3518.416, 30.89109
3520.344, 32.24217
3522.272, 32.00768
3524.201, 31.86027
3526.129, 31.41977
3528.058, 31.34397
3529.986, 31.71616
3531.915, 31.45311
3533.843, 31.45765
3535.772, 31.67482
3537.700, 31.43056
3539.629, 31.34669
3541.557, 33.02985
3543.486, 34.86507
3545.414, 32.21041
3547.343, 31.03403
3549.271, 31.35447
3551.199, 29.51128
3553.128, 30.66761
3555.056, 30.66764
3556.985, 30.54543
3558.913, 30.66930
3560.842, 30.77186
3562.770, 30.85435
3564.699, 30.09744
3566.627, 30.20746
3568.556, 30.53746
3570.484, 30.42031
3572.413, 30.36589
3574.341, 30.31559
3576.270, 30.50301
3578.198, 30.73559
3580.126, 30.88060
3582.055, 30.94799
3583.983, 30.89008
3585.912, 30.76431
3587.840, 30.76377
3589.769, 31.01638
3591.697, 31.32030
3593.626, 30.84486
3595.554, 30.78886
3597.483, 30.71294
3599.411, 30.15105
3601.340, 29.54514
3603.268, 29.82040
3605.197, 30.09959
3607.125, 30.32824
3609.053, 29.51953
3610.982, 28.87867
3612.910, 29.24083
3614.839, 28.70430
3616.767, 29.55720
3618.696, 29.84661
3620.624, 29.84115
3622.553, 29.50276
3624.481, 28.52065
3626.410, 28.59598
3628.338, 28.83432
3630.267, 29.10568
3632.195, 28.99966
3634.124, 28.53506
3636.052, 28.35676
3637.980, 29.36569
3639.909, 29.22332
3641.837, 29.11006
3643.766, 29.94129
3645.694, 31.23382
3647.623, 30.43153
3649.551, 31.18033
3651.480, 29.56359
3653.408, 29.07399
3655.337, 30.10829
3657.265, 30.52435
3659.194, 30.62142
3661.122, 29.82725
3663.051, 30.60080
3664.979, 30.19431
3666.907, 28.67373
3668.836, 28.57148
3670.764, 29.13301
3672.693, 28.83669
3674.621, 28.18019
3676.550, 28.22624
3678.478, 28.40660
3680.407, 27.66770
3682.335, 28.74490
3684.264, 28.22322
3686.192, 27.65837
3688.121, 27.91103
3690.049, 27.73837
3691.978, 25.88700
3693.906, 27.42068
3695.834, 27.14522
3697.763, 26.14496
3699.691, 26.11267
3701.620, 26.51887
3703.548, 25.88925
3705.477, 25.94257
3707.405, 25.68228
3709.334, 26.27886
3711.262, 26.77063
3713.191, 26.27447
3715.119, 25.30751
3717.048, 26.61745
3718.976, 25.80415
3720.905, 25.81976
3722.833, 25.80814
3724.761, 25.93873
3726.690, 26.52757
3728.618, 26.41729
3730.547, 26.30314
3732.475, 26.64839
3734.404, 24.72534
3736.332, 24.09410
3738.261, 25.64569
3740.189, 25.52488
3742.118, 24.87543
3744.046, 25.84773
3745.975, 24.91290
3747.903, 24.14076
3749.832, 24.11747
3751.760, 23.86621
3753.688, 24.28308
3755.617, 23.69275
3757.545, 23.83942
3759.474, 24.21658
3761.402, 24.30611
3763.331, 24.32043
3765.259, 24.82090
3767.188, 23.99201
3769.116, 24.11103
3771.045, 23.83539
3772.973, 24.12673
3774.902, 24.93657
3776.830, 25.20991
3778.759, 24.37830
3780.687, 24.02587
3782.615, 23.67837
3784.544, 24.81024
3786.472, 24.75051
3788.401, 24.07964
3790.329, 25.05208
3792.258, 24.61512
3794.186, 23.63007
3796.115, 24.45438
3798.043, 23.94997
3799.972, 23.93577
3801.900, 24.02071
3803.829, 22.11790
3805.757, 23.30877
3807.686, 23.48586
3809.614, 23.53223
3811.542, 22.30255
3813.471, 21.16904
3815.399, 20.95938
3817.328, 20.86550
3819.256, 20.02695
3821.185, 20.20896
3823.113, 20.27829
3825.042, 20.37079
3826.970, 20.06411
3828.899, 19.51185
3830.827, 19.28384
3832.756, 18.98732
3834.684, 19.40672
3836.613, 18.37316
3838.541, 18.37718
3840.469, 19.28718
3842.398, 19.75602
3844.326, 19.39429
3846.255, 19.50367
3848.183, 20.11440
3850.112, 20.48426
3852.040, 20.34134
3853.969, 19.99481
3855.897, 20.34453
3857.826, 20.94598
3859.754, 20.35390
3861.683, 20.67905
3863.611, 21.35986
3865.540, 20.68259
3867.468, 21.19088
3869.396, 21.65975
3871.325, 21.14449
3873.253, 20.31841
3875.182, 19.55544
3877.110, 20.25918
3879.039, 20.26362
3880.967, 19.02693
3882.896, 18.83216
3884.824, 18.74157
3886.753, 17.76728
3888.681, 16.86104
3890.610, 17.07316
3892.538, 17.08852
3894.467, 17.31126
3896.395, 16.07448
3898.323, 15.75373
3900.252, 16.20253
3902.180, 16.13607
3904.109, 15.70205
3906.037, 15.89012
3907.966, 15.76507
3909.894, 15.31332
3911.823, 14.91799
3913.751, 15.66544
3915.680, 15.72403
3917.608, 14.98908
3919.537, 15.55796
3921.465, 16.29944
3923.394, 15.42225
3925.322, 16.21395
3927.250, 15.35653
3929.179, 15.30941
3931.107, 15.67190
3933.036, 15.83855
3934.964, 15.86844
3936.893, 14.60179
3938.821, 15.52891
3940.750, 15.68745
3942.678, 15.52587
3944.607, 15.86984
3946.535, 15.69907
3948.464, 15.41479
3950.392, 15.19105
3952.321, 14.12024
3954.249, 13.27718
3956.177, 13.77003
3958.106, 14.26802
3960.034, 13.40442
3961.963, 13.10727
3963.891, 13.12528
3965.820, 13.26975
3967.748, 13.41344
3969.677, 13.04821
3971.605, 13.19101
3973.534, 13.50476
3975.462, 13.34536
3977.391, 13.37042
3979.319, 13.10813
3981.248, 12.81692
3983.176, 12.30403
3985.104, 11.93894
3987.033, 11.69470
3988.961, 9.809538
3990.890, 11.13986
3992.818, 10.28525
3994.747, 10.88796
3996.675, 10.15918
3998.604, 9.567006
4000.532, 9.375205
4002.461, 9.120788
4004.389, 8.962936
4006.318, 8.905439
4008.246, 9.027826
4010.175, 9.924433
4012.103, 9.828890
4014.031, 9.582384
4015.960, 8.701680
4017.888, 8.158464
4019.817, 8.327585
4021.745, 8.777386
4023.674, 9.198798
4025.602, 9.017092
4027.531, 8.034525
4029.459, 7.779998
4031.388, 7.742013
4033.316, 7.789324
4035.245, 8.174517
4037.173, 7.981147
4039.102, 7.235543
4041.030, 7.118372
4042.958, 7.894432
4044.887, 7.506087
4046.815, 7.342682
4048.744, 6.819992
4050.672, 7.228258
4052.601, 7.047416
4054.529, 6.842577
4056.458, 6.725198
4058.386, 6.185483
4060.315, 5.962901
4062.243, 7.056019
4064.172, 6.465448
4066.100, 5.581698
4068.029, 5.905934
4069.957, 5.730268
4071.885, 5.631547
4073.814, 5.859974
4075.742, 5.141990
4077.671, 4.869452
4079.599, 5.329472
4081.528, 5.020763
4083.456, 4.803183
4085.385, 4.313720
4087.313, 4.806211
4089.242, 5.698546
4091.170, 5.333790
4093.099, 4.788490
4095.027, 4.975953
4096.956, 5.352800
4098.884, 5.141198
4100.813, 4.729828
4102.741, 4.691600
4104.669, 4.534150
4106.598, 4.535485
4108.526, 4.353981
4110.455, 4.477746
4112.383, 3.616868
4114.312, 4.206269
4116.240, 4.057011
4118.169, 4.837055
4120.097, 4.228428
4122.026, 3.544568
4123.954, 4.256263
4125.883, 3.756291
4127.811, 3.389616
4129.740, 2.554953
4131.668, 3.692753
4133.597, 2.922132
4135.525, 3.261945
4137.454, 2.843579
4139.382, 2.877266
4141.311, 2.781255
4143.239, 2.232330
4145.167, 2.466566
4147.096, 3.101040
4149.024, 2.790849
4150.953, 2.474404
4152.881, 2.914099
4154.810, 2.603179
4156.738, 2.231927
4158.667, 1.955020
4160.595, 1.864800
4162.523, 1.892570
4164.452, 0.8739778
4166.380, 0.7840497
4168.309, 1.231907
4170.237, 1.154206
4172.166, 1.257869
4174.094, 1.733746
4176.023, 1.624613
4177.951, 1.530221
4179.880, 0.4959976
4181.808, 0.8725328
4183.737, 1.857799
4185.665, 1.728348
4187.594, 1.095477
4189.522, 0.8240324
4191.451, 1.509499
4193.379, 1.598840
4195.308, 0.8110273
4197.236, 0.6099387
4199.165, 0.6769281
4201.093, 0.6416238
4203.021, 1.156510
4204.950, 0.8432538
4206.878, 0.5284314
4208.807, 1.079303
4210.735, 1.336951
4212.664, -1.8582860E-02
4214.592, 6.5293707E-02
4216.521, 0.4776736
4218.449, 1.477834
4220.377, 1.919549
4222.306, 0.5658332
4224.234, 0.4830596
4226.163, 0.9541427
4228.091, 0.6013139
4230.020, 0.5256358
4231.948, 1.114945
4233.877, 1.505332
4235.805, 1.372015
4237.734, 1.347396
4239.662, 0.4530433
4241.591, 1.115127
4243.519, 1.474391
4245.448, 1.076446
4247.376, 0.5035577
4249.305, 0.4374788
4251.233, 1.064922
4253.162, 0.1160178
4255.090, -0.1304633
4257.019, 0.8497301
4258.947, 1.882364
4260.875, 1.062714
4262.804, -0.3098326
4264.732, 0.1514125
4266.661, 1.090392
4268.589, 0.6489292
4270.518, -2.6664890E-02
4272.446, 1.288314
4274.375, 0.4961878
4276.303, 0.7387811
4278.231, 0.3002847
4280.160, 1.509547
4282.088, 0.8817748
4284.017, 0.8015237
4285.945, 0.7951027
4287.874, 0.3743201
4289.802, 1.159120
4291.731, 1.712001
4293.659, 1.098700
4295.588, 0.5448213
4297.516, 0.8088967
4299.445, 1.046646
4301.373, 0.9513311
4303.302, 0.4173271
4305.230, 0.1329726
4307.159, 0.9857959
4309.087, 1.429179
4311.016, 1.444801
4312.944, 1.199373
4314.873, 0.2899310
4316.801, 1.030339
4318.729, 0.7692760
4320.658, 0.8762980
4322.586, 0.8290583
4324.515, 0.8246371
4326.443, 0.1200357
4328.372, -0.5552952
4330.300, 0.2968840
4332.229, 0.4874088
4334.157, 0.4696106
4336.085, 0.8218049
4338.014, 1.333431
4339.942, 0.9382703
4341.871, 0.2633441
4343.799, 0.1394797
4345.728, 0.1295995
4347.656, 0.5325748
4349.585, 0.7809986
4351.513, 0.5849643
4353.442, 0.6910650
4355.370, 1.163867
4357.299, 1.113342
4359.227, 0.2760497
4361.156, 3.4491468E-02
4363.084, -0.1971995
4365.013, 0.6332054
4366.941, 1.103492
4368.870, -0.8105109
4370.798, 0.1719473
4372.727, 0.4605505
4374.655, 1.072287
4376.583, 0.8758656
4378.512, -2.9477660E-02
4380.440, 0.8924788
4382.369, 0.2828467
##END=



