##NAMES=Spinel
##RRUFFID=R100133
##IDEAL CHEMISTRY=MgAl_2_O_4_
##LOCALITY=Sri Lanka
##OWNER=RRUFF
##SOURCE=William W. Pinch
##DESCRIPTION=Blue and red cut gemstones. The bottom red stone is the one that was studied.
##STATUS=The identification of this mineral has been confirmed only by single crystal X-ray diffraction
##URL=https://www.rruff.net/odr/rruff_sample/R100133
##DIFFRACTION SAMPLE DESCRIPTION=Single crystal, powder profile is calculated
##CELL PARAMETERS=a: 8.046 b: 8.046 c: 8.046 alpha: 90 beta: 90 gamma: 90 volume: 520.9 crystal system: cubic
##FILETYPE=Raman RAW
##RAMAN WAVELENGTH=780

115.9595, 466.1067
117.8879, 466.5674
119.8164, 467.2774
121.7449, 466.3341
123.6733, 463.9545
125.6018, 459.5674
127.5303, 453.0890
129.4587, 447.7948
131.3872, 443.5946
133.3157, 440.5020
135.2441, 439.1924
137.1726, 438.3663
139.1011, 437.2352
141.0295, 435.7705
142.9580, 433.8498
144.8865, 431.3106
146.8149, 428.9759
148.7434, 427.2694
150.6719, 425.6682
152.6003, 423.7818
154.5288, 421.7141
156.4573, 419.8527
158.3857, 418.1521
160.3142, 416.8466
162.2427, 416.3647
164.1711, 415.9249
166.0996, 415.3179
168.0281, 414.4640
169.9565, 413.1949
171.8850, 411.5182
173.8135, 409.5940
175.7419, 407.1055
177.6704, 404.7744
179.5989, 403.0253
181.5273, 401.4553
183.4558, 399.1809
185.3843, 396.3330
187.3127, 394.5929
189.2412, 395.1981
191.1697, 395.4005
193.0981, 394.4128
195.0266, 392.9189
196.9551, 391.7102
198.8835, 389.6378
200.8120, 388.5086
202.7405, 384.9267
204.6689, 381.8210
206.5974, 378.7597
208.5259, 376.9410
210.4543, 377.9745
212.3828, 380.4518
214.3113, 382.0114
216.2397, 382.4767
218.1682, 382.5105
220.0967, 382.0029
222.0251, 381.3278
223.9536, 380.6747
225.8821, 379.8420
227.8105, 378.5740
229.7390, 376.9062
231.6675, 375.4317
233.5959, 374.3686
235.5244, 373.2131
237.4529, 371.6032
239.3813, 370.2133
241.3098, 369.5602
243.2383, 369.3798
245.1667, 369.1459
247.0952, 368.8255
249.0237, 368.5456
250.9521, 368.1407
252.8806, 368.0493
254.8091, 368.9923
256.7375, 369.8359
258.6660, 369.2726
260.5945, 367.4691
262.5229, 366.7157
264.4514, 367.2173
266.3799, 368.1795
268.3083, 369.4727
270.2368, 371.3006
272.1653, 373.4572
274.0938, 376.3581
276.0222, 380.9081
277.9507, 387.3350
279.8792, 393.4034
281.8076, 399.1776
283.7361, 404.5218
285.6646, 409.3246
287.5930, 413.7491
289.5215, 417.5034
291.4500, 421.0182
293.3784, 424.9459
295.3069, 429.0828
297.2354, 436.0264
299.1638, 446.0961
301.0923, 458.5863
303.0208, 472.8516
304.9492, 489.9143
306.8777, 515.5491
308.8062, 544.5469
310.7346, 559.3778
312.6631, 560.8748
314.5916, 549.6611
316.5200, 519.9039
318.4485, 489.7849
320.3770, 463.7485
322.3054, 441.6756
324.2339, 423.7904
326.1624, 409.9688
328.0908, 399.5189
330.0193, 392.4328
331.9477, 387.2896
333.8762, 383.9464
335.8047, 382.5697
337.7331, 384.2677
339.6616, 386.7755
341.5901, 388.2262
343.5185, 389.0162
345.4470, 389.8725
347.3755, 390.7367
349.3039, 393.3985
351.2324, 398.8459
353.1609, 405.0281
355.0893, 411.4336
357.0178, 418.4145
358.9463, 424.9536
360.8747, 432.8960
362.8032, 444.4477
364.7317, 459.6646
366.6601, 481.8510
368.5886, 511.0998
370.5171, 548.6347
372.4455, 599.5232
374.3740, 653.0021
376.3025, 707.6185
378.2309, 757.7659
380.1594, 794.6971
382.0879, 819.4833
384.0163, 844.3992
385.9448, 862.6024
387.8733, 897.4696
389.8017, 942.0574
391.7302, 1013.583
393.6587, 1113.703
395.5871, 1250.648
397.5156, 1438.394
399.4441, 1666.665
401.3725, 1905.309
403.3010, 2206.840
405.2295, 2360.792
407.1579, 2347.751
409.0864, 2229.320
411.0149, 1954.301
412.9433, 1647.444
414.8718, 1369.667
416.8003, 1125.013
418.7287, 923.1936
420.6572, 764.7753
422.5857, 640.5416
424.5141, 555.1141
426.4426, 490.1789
428.3711, 449.2703
430.2995, 419.8539
432.2280, 400.4267
434.1565, 386.6257
436.0849, 376.0077
438.0134, 368.1219
439.9419, 361.7155
441.8703, 356.9716
443.7988, 352.8576
445.7273, 349.2843
447.6557, 346.6386
449.5842, 345.7617
451.5127, 344.6019
453.4411, 341.6900
455.3696, 338.3856
457.2981, 336.0885
459.2265, 334.5833
461.1550, 332.9400
463.0835, 331.1267
465.0119, 329.7993
466.9404, 329.0059
468.8689, 328.7130
470.7973, 328.9632
472.7258, 329.6945
474.6543, 331.5268
476.5827, 333.2921
478.5112, 333.8589
480.4397, 333.3033
482.3681, 331.6772
484.2966, 329.0530
486.2251, 326.6429
488.1535, 324.6216
490.0820, 322.5903
492.0105, 320.2393
493.9389, 318.0849
495.8674, 316.0983
497.7959, 314.5519
499.7243, 314.1166
501.6528, 314.1741
503.5813, 313.0364
505.5097, 310.9920
507.4382, 310.0674
509.3667, 310.5852
511.2951, 311.5953
513.2236, 313.3786
515.1521, 314.9991
517.0806, 316.2461
519.0090, 317.2225
520.9375, 317.7003
522.8660, 318.1172
524.7944, 319.3267
526.7229, 320.9783
528.6514, 321.8408
530.5798, 321.7626
532.5083, 322.0127
534.4368, 323.2121
536.3652, 323.9417
538.2937, 323.6213
540.2222, 323.4245
542.1506, 324.3294
544.0791, 325.0543
546.0076, 324.1751
547.9360, 322.5337
549.8645, 321.2697
551.7930, 320.3890
553.7214, 320.0368
555.6499, 320.7352
557.5784, 320.4403
559.5068, 318.3668
561.4353, 316.6676
563.3638, 315.8243
565.2922, 315.1592
567.2207, 314.2137
569.1492, 313.4814
571.0776, 313.3791
573.0061, 313.6969
574.9345, 314.1861
576.8630, 314.8093
578.7914, 315.0827
580.7199, 314.8925
582.6484, 314.7223
584.5768, 314.2973
586.5053, 314.7133
588.4338, 316.4180
590.3622, 318.5718
592.2907, 321.4374
594.2192, 323.8389
596.1476, 324.3727
598.0761, 324.4726
600.0046, 327.1019
601.9330, 325.6962
603.8615, 330.1644
605.7900, 324.2956
607.7184, 320.9394
609.6469, 320.4707
611.5754, 320.1854
613.5038, 319.7456
615.4323, 319.2002
617.3608, 317.9617
619.2892, 317.5432
621.2177, 318.9004
623.1462, 320.9865
625.0746, 322.2160
627.0031, 324.0506
628.9316, 329.1245
630.8600, 336.9827
632.7885, 345.7183
634.7170, 355.2832
636.6454, 365.2456
638.5739, 375.6020
640.5024, 385.8627
642.4308, 395.2766
644.3593, 406.1836
646.2878, 418.1943
648.2162, 433.1954
650.1447, 449.5068
652.0732, 471.7854
654.0016, 505.9437
655.9301, 546.3022
657.8586, 589.3517
659.7870, 631.1273
661.7155, 666.4572
663.6440, 693.1366
665.5724, 697.5364
667.5009, 677.9427
669.4294, 646.5464
671.3578, 599.8339
673.2863, 553.4225
675.2148, 506.9867
677.1432, 464.7620
679.0717, 426.6859
681.0002, 394.4260
682.9286, 369.8643
684.8571, 350.2956
686.7856, 333.9916
688.7141, 321.1686
690.6425, 312.6491
692.5710, 307.3383
694.4995, 302.6977
696.4279, 298.7719
698.3564, 296.5601
700.2849, 296.3628
702.2133, 296.6230
704.1418, 297.4722
706.0703, 298.5520
707.9987, 300.3417
709.9272, 301.4711
711.8557, 301.1658
713.7841, 301.0054
715.7126, 301.6698
717.6411, 302.6008
719.5695, 303.4434
721.4980, 304.3917
723.4265, 305.2218
725.3549, 306.5382
727.2834, 309.0063
729.2119, 312.7905
731.1403, 318.4735
733.0688, 326.0461
734.9973, 335.0900
736.9257, 345.7715
738.8542, 357.2222
740.7827, 369.5638
742.7111, 381.7778
744.6396, 393.0349
746.5681, 406.6947
748.4965, 423.5936
750.4250, 442.8415
752.3535, 462.8991
754.2819, 487.2184
756.2104, 518.2996
758.1389, 552.9185
760.0673, 594.6365
761.9958, 633.4206
763.9243, 663.8649
765.8527, 681.1861
767.7812, 675.2297
769.7097, 650.1129
771.6381, 614.1954
773.5666, 569.2873
775.4951, 524.8965
777.4235, 481.5897
779.3520, 445.5187
781.2805, 417.1536
783.2089, 393.3337
785.1374, 373.8905
787.0659, 357.8688
788.9943, 345.4004
790.9228, 335.6157
792.8513, 329.1093
794.7797, 324.1143
796.7082, 320.2812
798.6367, 317.7982
800.5651, 317.3148
802.4936, 317.4793
804.4221, 317.3986
806.3505, 317.6623
808.2790, 319.9329
810.2075, 321.8447
812.1359, 321.1828
814.0644, 317.7955
815.9929, 310.1563
817.9213, 300.3413
819.8498, 293.0401
821.7783, 287.8129
823.7067, 282.3195
825.6352, 278.1329
827.5637, 275.1763
829.4921, 272.0618
831.4206, 271.0442
833.3491, 270.0410
835.2775, 268.8271
837.2060, 267.3537
839.1345, 265.7971
841.0629, 264.2072
842.9914, 262.4904
844.9199, 260.4763
846.8483, 258.6452
848.7768, 257.2105
850.7053, 255.7725
852.6337, 254.3549
854.5622, 252.5762
856.4907, 250.0644
858.4191, 247.3720
860.3476, 244.5407
862.2761, 242.0358
864.2045, 240.4558
866.1330, 239.0694
868.0615, 237.3944
869.9899, 235.3794
871.9184, 233.3293
873.8469, 229.4779
875.7753, 228.7575
877.7038, 226.0846
879.6323, 223.9128
881.5607, 222.4532
883.4892, 219.5026
885.4177, 217.5765
887.3461, 215.9603
889.2746, 214.6395
891.2031, 213.5141
893.1315, 212.5681
895.0600, 211.5476
896.9885, 210.4443
898.9169, 209.2858
900.8454, 208.0775
902.7739, 206.5939
904.7023, 204.7692
906.6308, 203.1436
908.5593, 201.7789
910.4877, 200.7941
912.4162, 200.3449
914.3447, 199.8012
916.2731, 199.1763
918.2016, 198.0517
920.1301, 195.6980
922.0585, 194.2074
923.9870, 194.7205
925.9155, 195.0641
927.8439, 194.8873
929.7724, 194.1797
931.7009, 192.3629
933.6293, 190.8379
935.5578, 190.1923
937.4863, 189.8889
939.4147, 189.7199
941.3432, 189.7972
943.2717, 190.6698
945.2001, 191.1980
947.1286, 190.3458
949.0571, 189.3140
950.9855, 188.7117
952.9140, 188.5987
954.8425, 189.4227
956.7709, 190.2967
958.6994, 190.0453
960.6279, 189.8412
962.5563, 190.7986
964.4848, 192.4159
966.4133, 195.1820
968.3417, 197.3371
970.2702, 196.1208
972.1987, 193.8478
974.1271, 193.6010
976.0556, 194.0948
977.9841, 193.5311
979.9125, 192.3998
981.8410, 191.5406
983.7695, 190.6611
985.6979, 188.7897
987.6264, 186.7523
989.5549, 186.8093
991.4833, 185.0858
993.4118, 186.2552
995.3403, 183.5229
997.2687, 182.6304
999.1972, 182.6368
1001.126, 180.8853
1003.054, 177.8589
1004.983, 174.5319
1006.911, 171.3156
1008.840, 169.6787
1010.768, 169.2763
1012.696, 169.2465
1014.625, 169.3274
1016.553, 168.3006
1018.482, 168.0696
1020.410, 166.1186
1022.339, 166.3825
1024.267, 165.5252
1026.196, 163.8067
1028.124, 161.8473
1030.053, 159.9932
1031.981, 159.7053
1033.910, 160.6428
1035.838, 161.9685
1037.767, 163.2751
1039.695, 162.6577
1041.624, 160.7707
1043.552, 159.8548
1045.480, 159.7031
1047.409, 159.8344
1049.337, 160.1139
1051.266, 160.1514
1053.194, 159.9949
1055.123, 159.8447
1057.051, 159.5940
1058.980, 158.9868
1060.908, 158.0086
1062.837, 156.2626
1064.765, 154.2858
1066.694, 153.3868
1068.622, 153.2720
1070.550, 153.3807
1072.479, 153.6522
1074.407, 154.1536
1076.336, 154.6221
1078.264, 154.2846
1080.193, 154.7644
1082.121, 154.1177
1084.050, 154.8819
1085.978, 155.2364
1087.907, 154.8254
1089.835, 152.1714
1091.764, 149.1660
1093.692, 148.7456
1095.620, 149.5813
1097.549, 150.4900
1099.477, 151.0189
1101.406, 150.0653
1103.334, 149.0078
1105.263, 149.7582
1107.191, 150.7086
1109.120, 150.0947
1111.048, 149.1788
1112.977, 149.2991
1114.905, 149.2784
1116.834, 147.4964
1118.762, 146.1866
1120.691, 147.5761
1122.619, 148.9103
1124.547, 148.5898
1126.476, 147.5940
1128.404, 145.7068
1130.333, 144.5500
1132.261, 145.3707
1134.190, 146.1814
1136.118, 146.1557
1138.047, 145.9888
1139.975, 146.0570
1141.904, 145.6956
1143.832, 144.3681
1145.761, 143.5726
1147.689, 143.9580
1149.618, 144.0340
1151.546, 143.3364
1153.474, 142.7835
1155.403, 142.4749
1157.331, 142.8798
1159.260, 144.2543
1161.188, 144.8080
1163.117, 144.2517
1165.045, 143.9935
1166.974, 144.1694
1168.902, 144.2898
1170.831, 144.3283
1172.759, 144.7270
1174.688, 145.4452
1176.616, 146.2175
1178.545, 146.8448
1180.473, 146.0448
1182.401, 146.2731
1184.330, 145.7958
1186.258, 145.2047
1188.187, 144.7313
1190.115, 144.0425
1192.044, 143.0253
1193.972, 142.6358
1195.901, 141.6906
1197.829, 140.9328
1199.758, 141.5132
1201.686, 142.3259
1203.615, 142.6745
1205.543, 142.4176
1207.472, 140.8430
1209.400, 139.5682
1211.328, 140.0905
1213.257, 140.1821
1215.185, 138.4447
1217.114, 136.9203
1219.042, 135.9596
1220.971, 136.0909
1222.899, 138.0786
1224.828, 139.3909
1226.756, 139.6984
1228.685, 138.8631
1230.613, 136.3125
1232.542, 135.2909
1234.470, 136.1524
1236.399, 136.9560
1238.327, 137.6978
1240.255, 137.5157
1242.184, 136.6265
1244.112, 136.8429
1246.041, 137.4717
1247.969, 135.4529
1249.898, 136.2917
1251.826, 133.7549
1253.755, 135.9896
1255.683, 135.9398
1257.612, 135.0360
1259.540, 133.9588
1261.469, 133.5741
1263.397, 135.4837
1265.326, 136.6834
1267.254, 135.4160
1269.182, 133.8730
1271.111, 132.3117
1273.039, 131.5553
1274.968, 131.9556
1276.896, 132.5231
1278.825, 133.2057
1280.753, 132.8666
1282.682, 131.4172
1284.610, 130.9455
1286.539, 131.4453
1288.467, 131.9673
1290.396, 132.3992
1292.324, 132.3843
1294.253, 132.1705
1296.181, 132.2962
1298.109, 132.5623
1300.038, 132.6027
1301.966, 132.7437
1303.895, 133.4514
1305.823, 134.1479
1307.752, 134.6086
1309.680, 134.6753
1311.609, 134.8337
1313.537, 134.8205
1315.466, 134.2405
1317.394, 134.4366
1319.323, 133.3415
1321.251, 132.7614
1323.180, 132.8073
1325.108, 132.7842
1327.036, 132.6991
1328.965, 132.7196
1330.893, 132.9056
1332.822, 133.7998
1334.750, 134.7745
1336.679, 134.3589
1338.607, 134.8691
1340.536, 134.1639
1342.464, 134.5151
1344.393, 133.7595
1346.321, 132.9185
1348.250, 132.4742
1350.178, 131.8713
1352.107, 130.8256
1354.035, 130.2838
1355.964, 130.4658
1357.892, 130.6556
1359.820, 130.7993
1361.749, 130.8453
1363.677, 130.7951
1365.606, 130.6792
1367.534, 130.4695
1369.463, 130.0363
1371.391, 129.5470
1373.320, 129.0618
1375.248, 128.8341
1377.177, 129.2510
1379.105, 129.6503
1381.034, 129.7077
1382.962, 129.8736
1384.891, 130.3294
1386.819, 130.4315
1388.747, 130.0882
1390.676, 129.8379
1392.604, 129.7939
1394.533, 130.6985
1396.461, 132.0482
1398.390, 132.1650
1400.318, 131.7968
1402.247, 131.9013
1404.175, 132.3258
1406.104, 133.4656
1408.032, 133.9961
1409.961, 132.4842
1411.889, 131.5724
1413.818, 132.4545
1415.746, 132.8183
1417.674, 132.2701
1419.603, 133.0907
1421.531, 135.1895
1423.460, 136.2000
1425.388, 136.5052
1427.317, 137.3696
1429.245, 138.3155
1431.174, 138.4320
1433.102, 138.8010
1435.031, 140.7833
1436.959, 142.0556
1438.888, 140.9711
1440.816, 140.8055
1442.745, 142.4510
1444.673, 144.5576
1446.601, 147.2254
1448.530, 146.6428
1450.458, 147.4810
1452.387, 144.4232
1454.315, 146.0610
1456.244, 144.5461
1458.172, 142.4536
1460.101, 141.8254
1462.029, 141.5241
1463.958, 141.4489
1465.886, 140.3306
1467.815, 137.6928
1469.743, 135.5840
1471.672, 134.2085
1473.600, 132.4716
1475.528, 131.5372
1477.457, 130.1043
1479.385, 130.1690
1481.314, 130.1071
1483.242, 129.8409
1485.171, 129.1043
1487.099, 128.5647
1489.028, 128.8492
1490.956, 127.6818
1492.885, 124.5625
1494.813, 123.2106
1496.742, 123.5785
1498.670, 123.6411
1500.599, 123.2223
1502.527, 121.6632
1504.455, 120.0838
1506.384, 119.7046
1508.312, 119.7216
1510.241, 119.7974
1512.169, 120.0199
1514.098, 120.4988
1516.026, 120.7384
1517.955, 120.7046
1519.883, 120.1093
1521.812, 119.4243
1523.740, 120.5248
1525.669, 121.8515
1527.597, 121.2367
1529.526, 120.8240
1531.454, 122.6247
1533.382, 123.4441
1535.311, 122.0890
1537.239, 120.5390
1539.168, 118.7748
1541.096, 119.0450
1543.025, 120.4549
1544.953, 119.9814
1546.882, 118.9576
1548.810, 118.4041
1550.739, 118.8756
1552.667, 121.5025
1554.596, 122.3559
1556.524, 120.0443
1558.453, 118.5750
1560.381, 118.1764
1562.309, 118.4254
1564.238, 119.0892
1566.166, 120.3585
1568.095, 120.7607
1570.023, 117.7447
1571.952, 115.6588
1573.880, 116.1944
1575.809, 116.4276
1577.737, 115.8813
1579.666, 116.2269
1581.594, 117.2226
1583.523, 117.5325
1585.451, 117.4198
1587.380, 117.0759
1589.308, 116.7648
1591.236, 116.7624
1593.165, 116.5917
1595.093, 116.1879
1597.022, 115.2227
1598.950, 113.8669
1600.879, 113.5035
1602.807, 113.6940
1604.736, 113.7671
1606.664, 113.7078
1608.593, 113.6196
1610.521, 113.1741
1612.450, 113.0939
1614.378, 112.7880
1616.307, 112.2328
1618.235, 111.3364
1620.163, 110.3132
1622.092, 109.4106
1624.020, 108.9808
1625.949, 109.6895
1627.877, 110.2829
1629.806, 110.4367
1631.734, 110.0937
1633.663, 109.2833
1635.591, 106.6366
1637.520, 107.2303
1639.448, 104.9815
1641.377, 107.1851
1643.305, 107.6815
1645.234, 107.8831
1647.162, 108.3336
1649.090, 108.2003
1651.019, 107.4305
1652.947, 108.1047
1654.876, 107.1387
1656.804, 107.7649
1658.733, 106.0293
1660.661, 105.1871
1662.590, 105.1059
1664.518, 105.9116
1666.447, 106.1164
1668.375, 105.6600
1670.304, 105.0784
1672.232, 104.6808
1674.161, 105.3998
1676.089, 105.8473
1678.017, 105.3891
1679.946, 103.7118
1681.874, 104.0830
1683.803, 103.4957
1685.731, 103.3505
1687.660, 103.4437
1689.588, 102.7253
1691.517, 102.9536
1693.445, 103.0582
1695.374, 102.5784
1697.302, 102.1597
1699.231, 101.9050
1701.159, 102.3772
1703.088, 103.3143
1705.016, 104.5962
1706.944, 105.3916
1708.873, 104.6429
1710.801, 104.2206
1712.730, 104.4080
1714.658, 105.4592
1716.587, 106.9590
1718.515, 107.2500
1720.444, 106.9809
1722.372, 106.2475
1724.301, 106.2343
1726.229, 108.2851
1728.158, 108.6169
1730.086, 107.2530
1732.015, 106.7055
1733.943, 106.3907
1735.871, 105.1311
1737.800, 104.3965
1739.728, 103.7188
1741.657, 102.4842
1743.585, 102.3228
1745.514, 100.7681
1747.442, 100.1141
1749.371, 100.3377
1751.299, 100.3698
1753.228, 99.40549
1755.156, 99.00746
1757.085, 99.57844
1759.013, 98.06444
1760.942, 95.52229
1762.870, 95.29018
1764.798, 95.59801
1766.727, 95.11118
1768.655, 94.68584
1770.584, 94.49203
1772.512, 94.57491
1774.441, 94.86834
1776.369, 95.30462
1778.298, 95.61355
1780.226, 95.70656
1782.155, 94.99409
1784.083, 93.22825
1786.012, 94.01745
1787.940, 93.07951
1789.869, 94.87371
1791.797, 92.86275
1793.725, 92.29575
1795.654, 92.71812
1797.582, 94.20230
1799.511, 94.24738
1801.439, 93.27128
1803.368, 92.58149
1805.296, 92.34556
1807.225, 91.68652
1809.153, 93.27340
1811.082, 91.01347
1813.010, 89.79497
1814.939, 89.62508
1816.867, 91.25774
1818.796, 92.34424
1820.724, 90.43062
1822.652, 89.93082
1824.581, 91.88799
1826.509, 91.55859
1828.438, 90.06674
1830.366, 89.77497
1832.295, 89.73085
1834.223, 89.43479
1836.152, 89.50024
1838.080, 89.98734
1840.009, 90.13105
1841.937, 90.20229
1843.866, 91.11105
1845.794, 91.01636
1847.723, 89.02025
1849.651, 88.00797
1851.579, 88.08617
1853.508, 88.29123
1855.436, 88.63268
1857.365, 89.68401
1859.293, 89.13100
1861.222, 89.71510
1863.150, 89.59388
1865.079, 89.55594
1867.007, 89.08391
1868.936, 87.89016
1870.864, 87.23082
1872.793, 86.87577
1874.721, 86.77311
1876.650, 86.71762
1878.578, 86.70745
1880.506, 86.94300
1882.435, 86.84199
1884.363, 86.20471
1886.292, 85.09496
1888.220, 83.86302
1890.149, 83.74335
1892.077, 83.92474
1894.006, 83.76659
1895.934, 83.76566
1897.863, 83.98420
1899.791, 83.89912
1901.720, 83.65080
1903.648, 83.42351
1905.577, 83.22425
1907.505, 83.10368
1909.433, 82.72190
1911.362, 82.28743
1913.290, 83.18330
1915.219, 83.74262
1917.147, 82.70407
1919.076, 81.34809
1921.004, 79.91834
1922.933, 80.29627
1924.861, 81.51316
1926.790, 82.60109
1928.718, 83.09073
1930.647, 82.78848
1932.575, 82.20051
1934.504, 81.35181
1936.432, 79.81678
1938.360, 78.69841
1940.289, 78.42736
1942.217, 79.45251
1944.146, 81.40065
1946.074, 82.22799
1948.003, 81.90435
1949.931, 79.49796
1951.860, 78.73888
1953.788, 80.00847
1955.717, 80.03299
1957.645, 79.47372
1959.574, 79.29171
1961.502, 79.16891
1963.431, 79.02010
1965.359, 79.02724
1967.287, 78.88670
1969.216, 77.28251
1971.144, 76.72350
1973.073, 76.65185
1975.001, 79.01949
1976.930, 77.15934
1978.858, 78.24783
1980.787, 79.58748
1982.715, 79.45084
1984.644, 78.45871
1986.572, 76.86106
1988.501, 75.80576
1990.429, 75.35625
1992.358, 75.93876
1994.286, 76.11462
1996.214, 75.69881
1998.143, 75.43246
2000.071, 75.46471
2002.000, 76.21159
2003.928, 76.36142
2005.857, 75.53772
2007.785, 74.28204
2009.714, 73.34498
2011.642, 72.48620
2013.571, 72.03375
2015.499, 71.60734
2017.428, 71.64397
2019.356, 72.97045
2021.285, 73.17037
2023.213, 73.30161
2025.141, 73.65336
2027.070, 74.26362
2028.998, 74.63571
2030.927, 73.52496
2032.855, 72.21670
2034.784, 71.06923
2036.712, 71.23538
2038.641, 72.08707
2040.569, 72.43530
2042.498, 72.37303
2044.426, 71.91267
2046.355, 72.09136
2048.283, 72.29021
2050.212, 70.53433
2052.140, 69.49010
2054.068, 70.24567
2055.997, 71.10462
2057.925, 71.64724
2059.854, 70.84738
2061.782, 70.57613
2063.711, 71.76157
2065.639, 72.74312
2067.568, 72.98499
2069.496, 71.15417
2071.425, 69.44027
2073.353, 68.54420
2075.281, 68.81428
2077.210, 69.80641
2079.138, 71.14210
2081.067, 71.73198
2082.995, 71.08342
2084.924, 70.20557
2086.852, 69.20407
2088.781, 67.92197
2090.709, 67.65051
2092.638, 68.89082
2094.566, 68.27225
2096.495, 67.53277
2098.423, 69.32642
2100.352, 69.67119
2102.280, 67.80233
2104.208, 66.68775
2106.137, 66.45542
2108.065, 67.58687
2109.994, 68.00215
2111.922, 67.48019
2113.851, 66.88441
2115.779, 66.50455
2117.708, 66.55284
2119.636, 66.97021
2121.565, 67.49734
2123.493, 67.16848
2125.422, 66.79012
2127.350, 66.78454
2129.279, 66.77782
2131.207, 66.66780
2133.135, 65.94376
2135.064, 66.07865
2136.992, 67.67403
2138.921, 67.16253
2140.849, 65.58484
2142.778, 64.50502
2144.706, 63.16867
2146.635, 63.22756
2148.563, 62.23429
2150.492, 63.74200
2152.420, 64.96933
2154.349, 65.23480
2156.277, 64.62081
2158.206, 63.25749
2160.134, 62.28196
2162.063, 62.47363
2163.991, 62.56880
2165.919, 62.63548
2167.848, 63.11739
2169.776, 63.43906
2171.705, 63.39067
2173.633, 63.46224
2175.562, 63.34574
2177.490, 63.11715
2179.419, 62.98285
2181.347, 62.64125
2183.276, 62.54958
2185.204, 62.57817
2187.133, 62.48725
2189.061, 62.10552
2190.990, 62.03531
2192.918, 61.40441
2194.846, 61.11756
2196.775, 61.15330
2198.703, 59.86895
2200.632, 58.66915
2202.560, 59.85712
2204.489, 59.98340
2206.417, 59.15004
2208.346, 59.89802
2210.274, 60.78882
2212.203, 61.17283
2214.131, 59.99854
2216.060, 58.17332
2217.988, 56.74390
2219.917, 57.21886
2221.845, 59.59996
2223.773, 60.80599
2225.702, 61.02542
2227.630, 61.67929
2229.559, 60.03861
2231.487, 61.10477
2233.416, 59.47842
2235.344, 58.57811
2237.273, 59.79558
2239.201, 59.80564
2241.130, 58.98772
2243.058, 59.69509
2244.987, 59.62571
2246.915, 59.68650
2248.844, 59.92747
2250.772, 59.54609
2252.700, 58.94044
2254.629, 58.68800
2256.557, 58.51178
2258.486, 58.01298
2260.414, 57.84644
2262.343, 58.05893
2264.271, 57.63081
2266.200, 58.68815
2268.128, 57.46316
2270.057, 57.56481
2271.985, 58.04852
2273.914, 57.32737
2275.842, 58.02045
2277.771, 58.07383
2279.699, 59.20827
2281.627, 58.80150
2283.556, 59.18563
2285.484, 59.94712
2287.413, 59.93749
2289.341, 59.32725
2291.270, 56.32742
2293.198, 57.53966
2295.127, 56.35979
2297.055, 55.65845
2298.984, 56.32490
2300.912, 57.18319
2302.841, 57.46387
2304.769, 55.91429
2306.698, 55.95233
2308.626, 56.61930
2310.554, 55.03569
2312.483, 54.87305
2314.411, 56.79359
2316.340, 58.95068
2318.268, 59.73931
2320.197, 57.93267
2322.125, 57.60183
2324.054, 57.97126
2325.982, 57.99831
2327.911, 56.96141
2329.839, 55.31466
2331.768, 55.41921
2333.696, 55.18611
2335.625, 54.04854
2337.553, 54.86647
2339.481, 56.27674
2341.410, 57.39529
2343.338, 56.46107
2345.267, 54.89434
2347.195, 55.97365
2349.124, 56.05912
2351.052, 54.67054
2352.981, 51.85141
2354.909, 50.46615
2356.838, 51.45417
2358.766, 53.64565
2360.695, 55.30124
2362.623, 54.74445
2364.552, 52.97010
2366.480, 51.26375
2368.408, 51.89965
2370.337, 53.05796
2372.265, 54.04480
2374.194, 53.06239
2376.122, 51.68244
2378.051, 50.39278
2379.979, 51.49413
2381.908, 52.37218
2383.836, 50.64242
2385.765, 49.73735
2387.693, 49.91346
2389.622, 51.93653
2391.550, 50.95465
2393.479, 48.18742
2395.407, 50.98486
2397.335, 51.81842
2399.264, 49.10154
2401.192, 50.48260
2403.121, 50.96868
2405.049, 48.14619
2406.978, 47.84628
2408.906, 48.51086
2410.835, 48.54928
2412.763, 48.46957
2414.692, 48.42682
2416.620, 48.75987
2418.549, 48.31446
2420.477, 47.75051
2422.406, 50.69188
2424.334, 51.30413
2426.262, 48.77340
2428.191, 47.16064
2430.119, 47.15838
2432.048, 48.99927
2433.976, 49.85315
2435.905, 49.94543
2437.833, 49.53164
2439.762, 47.44537
2441.690, 45.79335
2443.619, 48.13786
2445.547, 49.22166
2447.476, 48.86224
2449.404, 47.44658
2451.333, 46.46484
2453.261, 46.18214
2455.189, 45.95794
2457.118, 47.36871
2459.046, 46.61434
2460.975, 47.34981
2462.903, 47.94466
2464.832, 47.59172
2466.760, 48.15007
2468.689, 48.09084
2470.617, 46.36264
2472.546, 46.55570
2474.474, 46.41582
2476.403, 43.25267
2478.331, 42.53977
2480.260, 43.76814
2482.188, 46.19155
2484.116, 47.07428
2486.045, 46.51289
2487.973, 44.76679
2489.902, 44.74307
2491.830, 46.06666
2493.759, 45.65382
2495.687, 45.81123
2497.616, 46.61089
2499.544, 45.67416
2501.473, 44.30860
2503.401, 43.08502
2505.330, 42.53373
2507.258, 43.72346
2509.187, 47.16500
2511.115, 47.11036
2513.043, 46.11324
2514.972, 45.89836
2516.900, 43.95073
2518.829, 42.35348
2520.757, 43.13908
2522.686, 43.50350
2524.614, 43.15152
2526.543, 41.40680
2528.471, 43.48463
2530.400, 45.67658
2532.328, 42.95062
2534.257, 44.12423
2536.185, 46.28962
2538.114, 43.80156
2540.042, 42.83302
2541.970, 43.50032
2543.899, 45.04605
2545.827, 46.05017
2547.756, 46.01776
2549.684, 43.37142
2551.613, 42.53909
2553.541, 43.09202
2555.470, 41.71400
2557.398, 42.31289
2559.327, 44.06771
2561.255, 41.93304
2563.184, 41.26092
2565.112, 42.37378
2567.041, 42.65293
2568.969, 43.40218
2570.897, 43.66280
2572.826, 44.18849
2574.754, 43.80143
2576.683, 43.76673
2578.611, 43.45597
2580.540, 43.30997
2582.468, 43.25225
2584.397, 43.14340
2586.325, 43.50179
2588.254, 43.72429
2590.182, 42.04165
2592.111, 41.12923
2594.039, 41.52727
2595.968, 42.22665
2597.896, 42.58178
2599.824, 42.42063
2601.753, 41.49822
2603.681, 41.09782
2605.610, 41.47309
2607.538, 42.27137
2609.467, 42.39160
2611.395, 41.85952
2613.324, 42.46111
2615.252, 42.56054
2617.181, 42.08167
2619.109, 42.79075
2621.038, 42.75850
2622.966, 42.00052
2624.895, 42.84815
2626.823, 41.46893
2628.751, 41.57360
2630.680, 40.15279
2632.608, 41.50734
2634.537, 42.21061
2636.465, 43.30983
2638.394, 43.04776
2640.322, 41.75132
2642.251, 40.54836
2644.179, 39.97251
2646.108, 40.04098
2648.036, 40.76468
2649.965, 41.53725
2651.893, 42.12733
2653.822, 42.54808
2655.750, 41.42334
2657.678, 39.45503
2659.607, 37.28888
2661.535, 38.74702
2663.464, 40.63708
2665.392, 39.29968
2667.321, 38.89169
2669.249, 39.26982
2671.178, 40.00651
2673.106, 40.14001
2675.035, 39.74433
2676.963, 38.97495
2678.892, 38.78320
2680.820, 39.39503
2682.749, 40.66573
2684.677, 40.67810
2686.605, 39.92079
2688.534, 38.91707
2690.462, 38.99700
2692.391, 40.34440
2694.319, 42.09291
2696.248, 40.20020
2698.176, 39.73242
2700.105, 40.66729
2702.033, 39.21186
2703.962, 38.82781
2705.890, 39.03689
2707.819, 37.35601
2709.747, 37.19482
2711.676, 37.90079
2713.604, 38.17112
2715.532, 37.93304
2717.461, 37.78499
2719.389, 38.37861
2721.318, 38.23804
2723.246, 38.02622
2725.175, 38.22085
2727.103, 39.27082
2729.032, 38.65983
2730.960, 35.73693
2732.889, 35.77644
2734.817, 37.07394
2736.746, 38.69489
2738.674, 39.00537
2740.603, 39.51886
2742.531, 39.71183
2744.459, 37.03648
2746.388, 36.85143
2748.316, 38.32294
2750.245, 39.98589
2752.173, 38.66615
2754.102, 37.57465
2756.030, 39.21544
2757.959, 38.89031
2759.887, 38.66939
2761.816, 39.45027
2763.744, 40.27881
2765.673, 39.88472
2767.601, 38.71525
2769.530, 39.67340
2771.458, 39.11298
2773.386, 37.82505
2775.315, 38.49089
2777.243, 38.26552
2779.172, 38.18961
2781.100, 39.72454
2783.029, 40.10408
2784.957, 39.96729
2786.886, 39.76241
2788.814, 39.94401
2790.743, 40.28002
2792.671, 40.56348
2794.600, 40.12491
2796.528, 40.01884
2798.457, 40.19447
2800.385, 40.42948
2802.313, 40.30035
2804.242, 40.35427
2806.170, 40.15285
2808.099, 40.41064
2810.027, 40.26904
2811.956, 40.77251
2813.884, 40.07908
2815.813, 40.83965
2817.741, 40.81143
2819.670, 41.46999
2821.598, 41.07727
2823.527, 41.16482
2825.455, 41.02250
2827.384, 40.91336
2829.312, 41.63717
2831.240, 43.59835
2833.169, 43.98867
2835.097, 43.73757
2837.026, 43.60749
2838.954, 45.49901
2840.883, 45.59316
2842.811, 44.62485
2844.740, 44.20025
2846.668, 42.69514
2848.597, 42.00047
2850.525, 43.20046
2852.454, 43.45686
2854.382, 42.45923
2856.311, 40.88329
2858.239, 40.66709
2860.167, 42.51485
2862.096, 43.99607
2864.024, 42.53708
2865.953, 43.51917
2867.881, 43.92281
2869.810, 42.71964
2871.738, 42.93849
2873.667, 43.39036
2875.595, 43.50842
2877.524, 43.53123
2879.452, 42.76180
2881.381, 43.46321
2883.309, 43.63137
2885.238, 43.80362
2887.166, 46.77942
2889.094, 43.57563
2891.023, 45.24529
2892.951, 44.61940
2894.880, 42.85908
2896.808, 42.27703
2898.737, 44.41265
2900.665, 46.40602
2902.594, 46.75188
2904.522, 44.37851
2906.451, 43.31635
2908.379, 43.55951
2910.308, 43.89202
2912.236, 46.73340
2914.165, 48.57475
2916.093, 47.85725
2918.021, 49.80646
2919.950, 49.77007
2921.878, 48.75193
2923.807, 51.08243
2925.735, 51.55145
2927.664, 52.22240
2929.592, 54.45582
2931.521, 56.91129
2933.449, 58.16760
2935.378, 58.35619
2937.306, 58.41941
2939.235, 58.24689
2941.163, 58.17931
2943.092, 58.40363
2945.020, 58.06976
2946.948, 57.41319
2948.877, 56.98482
2950.805, 57.63570
2952.734, 59.44155
2954.662, 60.53815
2956.591, 59.72204
2958.519, 57.18713
2960.448, 55.56731
2962.376, 54.79893
2964.305, 53.92269
2966.233, 52.78746
2968.162, 48.61996
2970.090, 51.21978
2972.019, 48.31312
2973.947, 48.02225
2975.875, 48.68406
2977.804, 46.23696
2979.732, 46.63164
2981.661, 47.29356
2983.589, 46.87595
2985.518, 44.89778
2987.446, 44.68151
2989.375, 45.22951
2991.303, 45.25362
2993.232, 47.07681
2995.160, 48.29156
2997.089, 48.30047
2999.017, 46.93967
3000.946, 48.15984
3002.874, 48.97041
3004.802, 47.81597
3006.731, 48.82681
3008.659, 51.51995
3010.588, 49.34246
3012.516, 50.30836
3014.445, 50.99850
3016.373, 50.70748
3018.302, 49.89688
3020.230, 50.71028
3022.159, 50.30727
3024.087, 49.46896
3026.016, 49.09317
3027.944, 50.54652
3029.873, 49.26607
3031.801, 47.59400
3033.729, 49.81076
3035.658, 49.55005
3037.586, 48.85613
3039.515, 48.43710
3041.443, 46.86663
3043.372, 48.30353
3045.300, 50.88465
3047.229, 52.81665
3049.157, 51.90760
3051.086, 51.35862
3053.014, 51.58327
3054.943, 51.16844
3056.871, 51.41285
3058.800, 51.34402
3060.728, 52.23664
3062.656, 52.73874
3064.585, 52.26607
3066.513, 51.41433
3068.442, 50.70987
3070.370, 50.80630
3072.299, 52.62267
3074.227, 54.17495
3076.156, 54.09595
3078.084, 53.15027
3080.013, 55.08120
3081.941, 56.75055
3083.870, 54.64413
3085.798, 54.30703
3087.727, 54.60701
3089.655, 55.38359
3091.583, 57.07752
3093.512, 58.98122
3095.440, 59.20436
3097.369, 59.75937
3099.297, 58.76586
3101.226, 58.46404
3103.154, 56.64199
3105.083, 53.79894
3107.011, 51.99005
3108.940, 52.31206
3110.868, 52.09665
3112.797, 50.20832
3114.725, 53.30306
3116.654, 55.07320
3118.582, 55.45393
3120.510, 55.39992
3122.439, 56.61921
3124.367, 57.72567
3126.296, 57.49232
3128.224, 57.91960
3130.153, 56.64424
3132.081, 57.62173
3134.010, 57.75934
3135.938, 57.82299
3137.867, 54.74063
3139.795, 55.19845
3141.724, 57.01518
3143.652, 54.02245
3145.581, 54.98790
3147.509, 54.64298
3149.438, 53.05949
3151.366, 53.84198
3153.294, 54.58890
3155.223, 55.30637
3157.151, 55.23865
3159.080, 52.21311
3161.008, 52.22756
3162.937, 53.63364
3164.865, 55.03502
3166.794, 55.04993
3168.722, 55.22271
3170.651, 56.01473
3172.579, 57.03439
3174.508, 57.23231
3176.436, 55.99296
3178.365, 57.10378
3180.293, 59.54490
3182.221, 58.16190
3184.150, 61.39414
3186.078, 61.17990
3188.007, 58.39223
3189.935, 61.25293
3191.864, 62.30324
3193.792, 62.66151
3195.721, 63.44130
3197.649, 65.35800
3199.578, 65.17343
3201.506, 68.01453
3203.435, 65.85890
3205.363, 65.30939
3207.292, 65.96159
3209.220, 66.70892
3211.148, 66.86491
3213.077, 65.97799
3215.005, 66.46474
3216.934, 66.48466
3218.862, 65.90526
3220.791, 67.07983
3222.719, 65.93886
3224.648, 66.12440
3226.576, 67.06892
3228.505, 67.47059
3230.433, 64.95462
3232.362, 66.53301
3234.290, 68.45338
3236.219, 68.18018
3238.147, 71.07275
3240.075, 69.63402
3242.004, 68.99998
3243.932, 70.97718
3245.861, 71.32706
3247.789, 67.94209
3249.718, 67.15820
3251.646, 69.29682
3253.575, 69.48196
3255.503, 71.22264
3257.432, 70.72811
3259.360, 70.19713
3261.289, 71.10218
3263.217, 70.34121
3265.146, 71.82080
3267.074, 70.18990
3269.002, 70.53676
3270.931, 71.34895
3272.859, 73.80846
3274.788, 76.15295
3276.716, 76.39269
3278.645, 75.78205
3280.573, 71.71670
3282.502, 71.65592
3284.430, 69.37875
3286.359, 66.15694
3288.287, 67.03834
3290.216, 65.07363
3292.144, 62.97677
3294.073, 65.28538
3296.001, 65.47194
3297.929, 66.00832
3299.858, 67.56673
3301.786, 69.06474
3303.715, 68.61186
3305.643, 66.58598
3307.572, 67.19722
3309.500, 66.05479
3311.429, 63.92089
3313.357, 66.07477
3315.286, 65.92382
3317.214, 64.11107
3319.143, 62.86813
3321.071, 62.02232
3323.000, 62.96767
3324.928, 64.42141
3326.856, 65.40345
3328.785, 65.66335
3330.713, 64.14153
3332.642, 61.66106
3334.570, 59.67744
3336.499, 59.55747
3338.427, 63.21208
3340.356, 62.83914
3342.284, 61.17538
3344.213, 60.35019
3346.141, 59.60600
3348.070, 58.82804
3349.998, 60.20038
3351.927, 61.48030
3353.855, 59.70128
3355.783, 57.99906
3357.712, 60.03724
3359.640, 59.52961
3361.569, 59.63814
3363.497, 58.71818
3365.426, 59.99519
3367.354, 59.35443
3369.283, 59.50073
3371.211, 59.30315
3373.140, 59.49773
3375.068, 59.96925
3376.997, 59.88820
3378.925, 59.23462
3380.854, 58.42085
3382.782, 58.73861
3384.710, 59.15228
3386.639, 59.29378
3388.567, 58.78032
3390.496, 56.03086
3392.424, 58.23245
3394.353, 57.69666
3396.281, 64.92259
3398.210, 59.95554
3400.138, 64.80777
3402.067, 67.55369
3403.995, 67.42649
3405.924, 65.70891
3407.852, 63.16698
3409.781, 64.93636
3411.709, 66.16150
3413.637, 68.51067
3415.566, 70.06767
3417.494, 72.09418
3419.423, 74.76180
3421.351, 77.08306
3423.280, 81.67051
3425.208, 86.20718
3427.137, 89.00294
3429.065, 89.35624
3430.994, 91.82787
3432.922, 93.51599
3434.851, 90.87581
3436.779, 94.77433
3438.708, 93.18056
3440.636, 89.21716
3442.564, 87.02449
3444.493, 88.85707
3446.421, 89.64546
3448.350, 85.80485
3450.278, 82.37220
3452.207, 81.48344
3454.135, 81.92847
3456.064, 81.98160
##END=



