##NAMES=Spodumene
##RRUFFID=R060039
##IDEAL CHEMISTRY=LiAlSi_2_O_6_
##LOCALITY=Black Hills, South Dakota, USA
##OWNER=RRUFF
##SOURCE=University of Arizona Mineral Museum
##DESCRIPTION=Light green massive
##STATUS=The identification of this mineral has been confirmed by X-ray diffraction and chemical analysis
##URL=https://www.rruff.net/odr/rruff_sample/R060039
##MEASURED CHEMISTRY=Li_1.00_(Al_0.99_Fe^3+^_0.01_)Si_2.00_O_6_
##DIFFRACTION SAMPLE DESCRIPTION=Powder
##CELL PARAMETERS=a: 9.4739 b: 8.4006 c: 5.2249 alpha: 90 beta: 110.16 gamma: 90 volume: 390.35 crystal system: monoclinic
##FILETYPE=Raman RAW
##RAMAN WAVELENGTH=532

138.2507, 2919.299
140.1792, 2937.042
142.1077, 2952.735
144.0361, 2966.896
145.9646, 2980.581
147.8931, 2994.051
149.8215, 3006.096
151.7500, 3013.427
153.6785, 3011.368
155.6069, 3016.723
157.5354, 3038.885
159.4639, 3078.320
161.3923, 3102.502
163.3208, 3103.049
165.2493, 3096.255
167.1777, 3095.828
169.1062, 3102.602
171.0347, 3114.589
172.9632, 3132.302
174.8916, 3157.633
176.8201, 3179.783
178.7486, 3194.807
180.6770, 3207.583
182.6055, 3223.205
184.5340, 3236.889
186.4624, 3257.554
188.3909, 3295.837
190.3194, 3354.323
192.2478, 3393.634
194.1763, 3388.020
196.1048, 3360.576
198.0332, 3350.131
199.9617, 3363.249
201.8902, 3386.244
203.8186, 3420.056
205.7471, 3466.742
207.6756, 3504.499
209.6040, 3524.605
211.5325, 3532.813
213.4610, 3545.525
215.3894, 3566.012
217.3179, 3587.078
219.2464, 3605.142
221.1748, 3618.357
223.1033, 3633.312
225.0318, 3653.352
226.9602, 3676.054
228.8887, 3692.650
230.8172, 3689.177
232.7456, 3694.507
234.6741, 3722.877
236.6026, 3808.815
238.5310, 3874.055
240.4595, 3906.136
242.3880, 3914.851
244.3164, 3925.214
246.2449, 3932.432
248.1734, 3947.198
250.1018, 3980.375
252.0303, 4050.823
253.9588, 4099.849
255.8872, 4100.321
257.8157, 4070.459
259.7442, 4058.765
261.6726, 4080.793
263.6011, 4111.734
265.5296, 4139.271
267.4580, 4161.639
269.3865, 4187.452
271.3150, 4223.193
273.2434, 4265.008
275.1719, 4297.549
277.1004, 4321.949
279.0288, 4337.683
280.9573, 4338.306
282.8858, 4319.191
284.8142, 4314.605
286.7427, 4335.771
288.6712, 4376.860
290.5996, 4420.136
292.5281, 4477.351
294.4566, 4525.528
296.3850, 4551.609
298.3135, 4549.131
300.2420, 4552.611
302.1704, 4574.090
304.0989, 4603.575
306.0274, 4617.815
307.9558, 4605.302
309.8843, 4594.403
311.8128, 4596.989
313.7412, 4619.041
315.6697, 4639.197
317.5982, 4650.174
319.5266, 4661.430
321.4551, 4687.168
323.3836, 4739.954
325.3120, 4786.427
327.2405, 4815.763
329.1690, 4823.997
331.0974, 4826.913
333.0259, 4813.104
334.9544, 4800.341
336.8828, 4803.513
338.8113, 4830.525
340.7398, 4862.110
342.6682, 4891.794
344.5967, 4919.875
346.5252, 4956.220
348.4536, 5010.589
350.3821, 5065.601
352.3106, 5109.810
354.2390, 5136.361
356.1675, 5161.988
358.0960, 5197.961
360.0244, 5236.132
361.9529, 5249.617
363.8814, 5217.794
365.8098, 5183.077
367.7383, 5165.985
369.6668, 5177.569
371.5952, 5190.112
373.5237, 5197.483
375.4522, 5207.119
377.3806, 5230.814
379.3091, 5285.236
381.2376, 5328.850
383.1660, 5339.965
385.0945, 5305.894
387.0230, 5299.140
388.9514, 5345.313
390.8799, 5405.767
392.8084, 5449.973
394.7368, 5477.162
396.6653, 5487.798
398.5938, 5466.173
400.5222, 5419.721
402.4507, 5411.453
404.3792, 5472.015
406.3076, 5541.135
408.2361, 5586.260
410.1646, 5595.364
412.0930, 5607.844
414.0215, 5629.282
415.9500, 5655.945
417.8784, 5680.164
419.8069, 5699.305
421.7354, 5720.225
423.6638, 5747.629
425.5923, 5784.559
427.5208, 5809.828
429.4492, 5814.259
431.3777, 5813.365
433.3062, 5820.880
435.2346, 5839.345
437.1631, 5856.942
439.0916, 5865.627
441.0201, 5869.474
442.9485, 5888.458
444.8770, 5942.392
446.8055, 5991.637
448.7339, 6013.029
450.6624, 6005.800
452.5909, 6014.769
454.5193, 6070.254
456.4478, 6135.687
458.3763, 6164.401
460.3047, 6132.999
462.2332, 6111.460
464.1617, 6124.449
466.0901, 6161.938
468.0186, 6195.482
469.9471, 6222.049
471.8755, 6243.851
473.8040, 6260.413
475.7325, 6271.015
477.6609, 6280.020
479.5894, 6279.877
481.5179, 6282.651
483.4464, 6301.956
485.3748, 6360.312
487.3033, 6412.050
489.2318, 6449.154
491.1602, 6474.310
493.0887, 6500.471
495.0172, 6532.639
496.9456, 6560.535
498.8741, 6576.965
500.8026, 6569.162
502.7310, 6577.823
504.6595, 6619.634
506.5880, 6668.450
508.5164, 6690.718
510.4449, 6668.551
512.3734, 6664.971
514.3018, 6710.726
516.2303, 6795.291
518.1588, 6851.099
520.0872, 6864.609
522.0157, 6867.754
523.9442, 6869.532
525.8726, 6869.982
527.8011, 6877.864
529.7296, 6904.119
531.6580, 6933.763
533.5865, 6954.097
535.5150, 6961.883
537.4434, 6968.448
539.3719, 6965.329
541.3004, 6963.972
543.2288, 6984.718
545.1573, 7045.789
547.0858, 7109.082
549.0142, 7163.302
550.9427, 7206.567
552.8712, 7250.063
554.7996, 7308.634
556.7281, 7352.168
558.6566, 7358.593
560.5850, 7309.958
562.5135, 7290.292
564.4420, 7329.490
566.3704, 7393.387
568.2989, 7433.493
570.2274, 7443.525
572.1558, 7452.470
574.0843, 7466.887
576.0128, 7486.076
577.9412, 7510.022
579.8697, 7539.232
581.7982, 7571.504
583.7266, 7609.209
585.6551, 7651.575
587.5836, 7686.894
589.5120, 7716.282
591.4405, 7735.890
593.3690, 7740.676
595.2974, 7713.376
597.2259, 7709.712
599.1544, 7748.585
601.0828, 7804.631
603.0113, 7844.945
604.9398, 7866.192
606.8682, 7883.337
608.7967, 7899.146
610.7252, 7914.500
612.6536, 7932.408
614.5821, 7937.697
616.5106, 7961.251
618.4390, 8035.757
620.3675, 8147.088
622.2960, 8213.541
624.2244, 8188.224
626.1529, 8150.403
628.0814, 8140.181
630.0098, 8167.940
631.9383, 8197.313
633.8668, 8231.550
635.7952, 8264.689
637.7237, 8288.646
639.6522, 8299.424
641.5806, 8319.579
643.5091, 8366.391
645.4376, 8423.052
647.3660, 8462.346
649.2945, 8468.841
651.2230, 8477.664
653.1514, 8494.526
655.0799, 8518.013
657.0084, 8543.569
658.9368, 8568.815
660.8653, 8600.579
662.7938, 8648.603
664.7222, 8713.787
666.6507, 8753.786
668.5792, 8734.115
670.5076, 8721.458
672.4361, 8761.691
674.3646, 8850.945
676.2930, 8919.454
678.2215, 8934.544
680.1500, 8938.470
682.0784, 8955.816
684.0069, 8994.447
685.9354, 9031.867
687.8638, 9055.977
689.7923, 9085.154
691.7208, 9141.653
693.6492, 9238.979
695.5777, 9317.108
697.5062, 9350.074
699.4346, 9360.268
701.3631, 9386.616
703.2916, 9443.715
705.2200, 9497.902
707.1485, 9548.784
709.0770, 9592.498
711.0054, 9621.284
712.9339, 9631.570
714.8624, 9629.658
716.7908, 9611.847
718.7193, 9579.831
720.6478, 9555.168
722.5762, 9509.630
724.5047, 9495.734
726.4332, 9566.121
728.3616, 9697.185
730.2901, 9776.761
732.2186, 9751.274
734.1470, 9709.430
736.0755, 9683.576
738.0040, 9675.064
739.9324, 9686.074
741.8609, 9733.939
743.7894, 9788.381
745.7178, 9833.452
747.6463, 9870.139
749.5748, 9900.093
751.5032, 9912.392
753.4317, 9924.992
755.3602, 9950.512
757.2886, 9999.449
759.2171, 10034.17
761.1456, 10039.95
763.0740, 10039.00
765.0025, 10047.52
766.9310, 10063.86
768.8594, 10099.06
770.7879, 10183.06
772.7164, 10274.18
774.6448, 10330.21
776.5733, 10312.65
778.5018, 10317.99
780.4302, 10368.77
782.3587, 10434.80
784.2872, 10477.20
786.2156, 10486.54
788.1441, 10503.07
790.0726, 10544.65
792.0010, 10595.99
793.9295, 10635.60
795.8580, 10641.78
797.7864, 10663.49
799.7149, 10722.18
801.6434, 10792.99
803.5718, 10837.10
805.5003, 10847.64
807.4288, 10851.52
809.3572, 10846.92
811.2857, 10843.46
813.2142, 10859.22
815.1426, 10919.13
817.0711, 10968.86
818.9996, 10991.16
820.9280, 11001.69
822.8565, 11030.14
824.7850, 11079.88
826.7134, 11136.18
828.6420, 11202.97
830.5704, 11270.75
832.4989, 11321.29
834.4274, 11338.08
836.3558, 11357.17
838.2843, 11389.40
840.2128, 11426.91
842.1412, 11451.00
844.0697, 11455.33
845.9982, 11465.05
847.9266, 11487.87
849.8551, 11520.83
851.7836, 11560.86
853.7120, 11618.83
855.6405, 11665.26
857.5690, 11691.75
859.4974, 11703.95
861.4259, 11714.08
863.3544, 11724.34
865.2828, 11729.81
867.2113, 11713.30
869.1398, 11697.39
871.0682, 11717.75
872.9967, 11795.51
874.9252, 11869.90
876.8536, 11928.24
878.7821, 11977.46
880.7106, 12028.73
882.6390, 12083.58
884.5675, 12135.88
886.4960, 12205.72
888.4244, 12261.99
890.3529, 12261.44
892.2814, 12174.44
894.2098, 12131.29
896.1383, 12186.32
898.0668, 12278.04
899.9952, 12340.07
901.9237, 12345.61
903.8522, 12374.40
905.7806, 12456.57
907.7091, 12543.69
909.6376, 12588.08
911.5660, 12584.47
913.4945, 12594.37
915.4230, 12646.87
917.3514, 12707.81
919.2799, 12757.78
921.2084, 12796.44
923.1368, 12829.88
925.0653, 12841.47
926.9938, 12862.87
928.9222, 12925.02
930.8507, 13022.52
932.7792, 13099.97
934.7076, 13139.24
936.6361, 13166.57
938.5646, 13192.42
940.4930, 13216.05
942.4215, 13241.62
944.3500, 13273.49
946.2784, 13302.80
948.2069, 13317.52
950.1354, 13324.73
952.0638, 13363.10
953.9923, 13459.15
955.9208, 13542.21
957.8492, 13576.16
959.7777, 13578.18
961.7062, 13584.13
963.6346, 13592.58
965.5631, 13609.39
967.4916, 13637.52
969.4200, 13674.58
971.3485, 13717.42
973.2770, 13769.99
975.2054, 13820.90
977.1339, 13873.22
979.0624, 13920.46
980.9908, 13953.41
982.9193, 13967.76
984.8478, 13992.21
986.7762, 14036.99
988.7047, 14088.51
990.6332, 14139.58
992.5616, 14191.67
994.4901, 14231.62
996.4186, 14252.63
998.3470, 14268.03
1000.276, 14285.20
1002.204, 14304.60
1004.132, 14322.97
1006.061, 14338.87
1007.989, 14361.79
1009.918, 14389.51
1011.846, 14426.25
1013.775, 14492.04
1015.703, 14625.25
1017.632, 14735.25
1019.560, 14788.78
1021.489, 14809.91
1023.417, 14847.76
1025.346, 14906.96
1027.274, 14960.11
1029.203, 15007.67
1031.131, 15043.06
1033.059, 15057.48
1034.988, 15048.05
1036.916, 15053.07
1038.845, 15104.96
1040.773, 15153.45
1042.702, 15157.40
1044.630, 15108.02
1046.559, 15121.40
1048.487, 15264.73
1050.416, 15391.36
1052.344, 15423.25
1054.273, 15395.04
1056.201, 15413.10
1058.130, 15499.98
1060.058, 15584.80
1061.986, 15646.56
1063.915, 15689.15
1065.843, 15713.84
1067.772, 15705.25
1069.700, 15711.96
1071.629, 15751.03
1073.557, 15797.86
1075.486, 15828.45
1077.414, 15839.68
1079.343, 15875.43
1081.271, 15967.42
1083.200, 16053.55
1085.128, 16091.77
1087.057, 16096.74
1088.985, 16117.43
1090.913, 16159.20
1092.842, 16209.99
1094.770, 16274.50
1096.699, 16341.99
1098.627, 16393.93
1100.556, 16429.68
1102.484, 16451.70
1104.413, 16428.36
1106.341, 16415.65
1108.270, 16482.57
1110.198, 16625.64
1112.127, 16722.36
1114.055, 16723.93
1115.984, 16720.79
1117.912, 16766.04
1119.840, 16843.74
1121.769, 16890.05
1123.697, 16872.06
1125.626, 16873.44
1127.554, 16923.96
1129.483, 16997.90
1131.411, 17058.96
1133.340, 17100.08
1135.268, 17149.20
1137.197, 17216.78
1139.125, 17285.46
1141.054, 17346.63
1142.982, 17399.53
1144.911, 17435.24
1146.839, 17434.77
1148.767, 17447.00
1150.696, 17494.27
1152.624, 17566.10
1154.553, 17643.20
1156.481, 17733.99
1158.410, 17815.05
1160.338, 17898.25
1162.267, 17961.34
1164.195, 17972.66
1166.124, 17919.91
1168.052, 17904.68
1169.981, 17947.20
1171.909, 18001.17
1173.838, 18061.52
1175.766, 18118.99
1177.694, 18149.46
1179.623, 18141.55
1181.551, 18151.24
1183.480, 18213.54
1185.408, 18289.79
1187.337, 18342.96
1189.265, 18357.30
1191.194, 18412.11
1193.122, 18536.72
1195.051, 18661.48
1196.979, 18768.29
1198.908, 18853.06
1200.836, 18901.04
1202.765, 18898.73
1204.693, 18898.32
1206.621, 18913.16
1208.550, 18935.75
1210.478, 18956.64
1212.407, 18977.36
1214.335, 19017.69
1216.264, 19095.75
1218.192, 19172.93
1220.121, 19234.99
1222.049, 19285.11
1223.978, 19330.59
1225.906, 19358.61
1227.835, 19401.90
1229.763, 19458.01
1231.692, 19529.84
1233.620, 19637.78
1235.548, 19784.39
1237.477, 19860.45
1239.405, 19809.61
1241.334, 19770.69
1243.262, 19816.90
1245.191, 19898.62
1247.119, 19930.27
1249.048, 19898.86
1250.976, 19908.83
1252.905, 20014.03
1254.833, 20130.17
1256.762, 20207.29
1258.690, 20247.24
1260.619, 20293.97
1262.547, 20348.10
1264.475, 20407.28
1266.404, 20498.10
1268.332, 20581.33
1270.261, 20598.08
1272.189, 20520.39
1274.118, 20517.92
1276.046, 20659.47
1277.975, 20796.32
1279.903, 20855.61
1281.832, 20867.75
1283.760, 20900.74
1285.689, 20957.67
1287.617, 21014.85
1289.546, 21075.33
1291.474, 21131.09
1293.402, 21191.50
1295.331, 21255.22
1297.259, 21275.40
1299.188, 21202.39
1301.116, 21176.20
1303.045, 21243.04
1304.973, 21352.37
1306.902, 21451.89
1308.830, 21535.29
1310.759, 21615.29
1312.687, 21701.60
1314.616, 21768.32
1316.544, 21793.35
1318.473, 21799.07
1320.401, 21833.19
1322.329, 21905.63
1324.258, 21960.80
1326.186, 21969.21
1328.115, 21982.63
1330.043, 22042.44
1331.972, 22128.45
1333.900, 22187.14
1335.829, 22205.06
1337.757, 22232.21
1339.686, 22287.37
1341.614, 22353.04
1343.543, 22415.66
1345.471, 22475.49
1347.400, 22555.65
1349.328, 22674.71
1351.256, 22783.26
1353.185, 22869.37
1355.113, 22938.79
1357.042, 22994.89
1358.970, 23034.45
1360.899, 23077.01
1362.827, 23134.16
1364.756, 23183.66
1366.684, 23223.21
1368.613, 23255.41
1370.541, 23279.18
1372.470, 23295.49
1374.398, 23323.37
1376.327, 23358.40
1378.255, 23412.92
1380.183, 23495.83
1382.112, 23597.22
1384.040, 23714.77
1385.969, 23854.31
1387.897, 23946.77
1389.826, 23944.79
1391.754, 23937.44
1393.683, 23966.26
1395.611, 24021.08
1397.540, 24075.63
1399.468, 24138.76
1401.397, 24182.50
1403.325, 24177.25
1405.254, 24182.32
1407.182, 24242.54
1409.110, 24335.35
1411.039, 24383.58
1412.967, 24341.17
1414.896, 24344.63
1416.824, 24426.90
1418.753, 24533.93
1420.681, 24661.49
1422.610, 24792.86
1424.538, 24862.51
1426.467, 24849.95
1428.395, 24859.32
1430.324, 24919.94
1432.252, 24996.01
1434.181, 25058.31
1436.109, 25114.35
1438.037, 25191.34
1439.966, 25293.56
1441.894, 25390.15
1443.823, 25485.57
1445.751, 25560.05
1447.680, 25597.93
1449.608, 25609.95
1451.537, 25629.44
1453.465, 25657.89
1455.394, 25698.33
1457.322, 25774.97
1459.251, 25840.78
1461.179, 25863.86
1463.108, 25856.43
1465.036, 25858.57
1466.964, 25849.12
1468.893, 25891.24
1470.821, 26022.95
1472.750, 26162.74
1474.678, 26277.08
1476.607, 26366.06
1478.535, 26429.67
1480.464, 26458.30
1482.392, 26485.48
1484.321, 26520.98
1486.249, 26549.05
1488.178, 26558.26
1490.106, 26560.57
1492.035, 26575.68
1493.963, 26603.94
1495.891, 26650.19
1497.820, 26714.00
1499.748, 26794.77
1501.677, 26898.67
1503.605, 27012.11
1505.534, 27117.90
1507.462, 27214.38
1509.391, 27301.83
1511.319, 27384.66
1513.248, 27447.95
1515.176, 27470.71
1517.105, 27483.55
1519.033, 27525.33
1520.962, 27592.21
1522.890, 27622.40
1524.818, 27587.62
1526.747, 27575.54
1528.675, 27624.48
1530.604, 27695.39
1532.532, 27761.44
1534.461, 27824.79
1536.389, 27908.53
1538.318, 28040.81
1540.246, 28123.14
1542.175, 28074.60
1544.103, 28042.87
1546.032, 28133.86
1547.960, 28298.54
1549.889, 28392.77
1551.817, 28365.04
1553.745, 28394.44
1555.674, 28511.37
1557.602, 28645.95
1559.531, 28801.16
1561.459, 28940.65
1563.388, 28999.61
1565.316, 28957.56
1567.245, 28954.07
1569.173, 29003.09
1571.102, 29072.66
1573.030, 29204.92
1574.959, 29323.18
1576.887, 29338.84
1578.816, 29270.36
1580.744, 29261.81
1582.673, 29345.29
1584.601, 29405.93
1586.530, 29395.67
1588.458, 29391.35
1590.386, 29441.77
1592.315, 29527.10
1594.243, 29612.90
1596.172, 29706.31
1598.100, 29767.79
1600.029, 29755.52
1601.957, 29773.95
1603.886, 29880.22
1605.814, 30015.30
1607.743, 30110.73
1609.671, 30170.54
1611.600, 30244.42
1613.528, 30343.00
1615.457, 30417.28
1617.385, 30446.70
1619.313, 30461.37
1621.242, 30480.38
1623.170, 30502.60
1625.099, 30518.68
1627.027, 30529.26
1628.956, 30564.91
1630.884, 30641.75
1632.813, 30720.21
1634.741, 30772.93
1636.670, 30827.56
1638.598, 30913.19
1640.527, 31021.98
1642.455, 31128.94
1644.384, 31241.18
1646.312, 31310.22
1648.240, 31286.93
1650.169, 31269.69
1652.097, 31317.53
1654.026, 31401.57
1655.954, 31490.69
1657.883, 31582.58
1659.811, 31638.06
1661.740, 31623.51
1663.668, 31646.88
1665.597, 31791.86
1667.525, 31939.94
1669.454, 32008.82
1671.382, 32023.40
1673.311, 32038.99
1675.239, 32055.63
1677.167, 32088.89
1679.096, 32133.60
1681.024, 32200.38
1682.953, 32303.24
1684.881, 32414.07
1686.810, 32520.70
1688.738, 32615.34
1690.667, 32653.57
1692.595, 32615.51
1694.524, 32625.64
1696.452, 32762.52
1698.381, 32881.95
1700.309, 32883.64
1702.238, 32858.30
1704.166, 32929.51
1706.094, 33081.80
1708.023, 33168.00
1709.951, 33148.58
1711.880, 33154.17
1713.808, 33220.80
1715.737, 33303.75
1717.665, 33395.16
1719.594, 33476.95
1721.522, 33522.30
1723.451, 33533.70
1725.379, 33531.41
1727.308, 33513.83
1729.236, 33509.21
1731.165, 33530.19
1733.093, 33571.37
1735.021, 33635.55
1736.950, 33719.00
1738.878, 33819.63
1740.807, 33934.68
1742.735, 34024.43
1744.664, 34060.01
1746.592, 34130.11
1748.521, 34285.84
1750.449, 34439.95
1752.378, 34545.88
1754.306, 34612.80
1756.235, 34648.97
1758.163, 34658.45
1760.092, 34672.33
1762.020, 34692.11
1763.948, 34731.59
1765.877, 34811.30
1767.805, 34892.26
1769.734, 34946.59
1771.662, 34989.32
1773.591, 35042.27
1775.519, 35102.87
1777.448, 35153.79
1779.376, 35190.00
1781.305, 35230.68
1783.233, 35282.90
1785.162, 35338.97
1787.090, 35403.25
1789.019, 35464.85
1790.947, 35490.68
1792.875, 35496.89
1794.804, 35586.39
1796.732, 35792.77
1798.661, 35939.92
1800.589, 35938.48
1802.518, 35949.22
1804.446, 36087.31
1806.375, 36229.98
1808.303, 36234.31
1810.232, 36133.32
1812.160, 36061.05
1814.089, 36013.04
1816.017, 36026.81
1817.946, 36173.55
1819.874, 36284.03
1821.802, 36273.87
1823.731, 36251.34
1825.659, 36302.05
1827.588, 36403.10
1829.516, 36506.57
1831.445, 36617.44
1833.373, 36688.89
1835.302, 36667.25
1837.230, 36684.18
1839.159, 36797.10
1841.087, 36896.04
1843.016, 36911.88
1844.944, 36885.63
1846.873, 36857.30
1848.801, 36830.67
1850.729, 36869.00
1852.658, 37046.64
1854.586, 37141.59
1856.515, 37083.39
1858.443, 37044.81
1860.372, 37075.39
1862.300, 37145.45
1864.229, 37243.53
1866.157, 37361.13
1868.086, 37486.26
1870.014, 37626.69
1871.943, 37685.11
1873.871, 37602.96
1875.800, 37560.96
1877.728, 37615.00
1879.656, 37687.94
1881.585, 37763.74
1883.513, 37829.52
1885.442, 37856.14
1887.370, 37859.57
1889.299, 37907.83
1891.227, 38004.57
1893.156, 38101.27
1895.084, 38200.07
1897.013, 38270.29
1898.941, 38304.16
1900.870, 38307.79
1902.798, 38263.74
1904.727, 38212.32
1906.655, 38203.45
1908.583, 38235.68
1910.512, 38292.29
1912.440, 38370.25
1914.369, 38477.52
1916.297, 38659.44
1918.226, 38786.78
1920.154, 38773.28
1922.083, 38741.49
1924.011, 38776.62
1925.940, 38853.28
1927.868, 38934.81
1929.797, 39020.39
1931.725, 39085.71
1933.654, 39134.48
1935.582, 39142.71
1937.510, 39020.18
1939.439, 38974.88
1941.367, 39132.62
1943.296, 39306.81
1945.224, 39370.69
1947.153, 39376.07
1949.081, 39402.93
1951.010, 39454.10
1952.938, 39526.80
1954.867, 39638.88
1956.795, 39694.36
1958.724, 39642.55
1960.652, 39606.02
1962.581, 39593.52
1964.509, 39635.09
1966.438, 39808.40
1968.366, 40000.89
1970.294, 40053.96
1972.223, 39997.85
1974.151, 39958.07
1976.080, 39941.57
1978.008, 39939.80
1979.937, 39957.20
1981.865, 39996.22
1983.794, 40098.25
1985.722, 40180.84
1987.651, 40161.14
1989.579, 40131.15
1991.508, 40208.85
1993.436, 40351.46
1995.365, 40415.66
1997.293, 40375.48
1999.221, 40408.14
2001.150, 40604.35
2003.078, 40717.94
2005.007, 40670.77
2006.935, 40636.46
2008.864, 40673.17
2010.792, 40734.58
2012.721, 40784.85
2014.649, 40835.72
2016.578, 40921.25
2018.506, 41031.13
2020.435, 41095.53
2022.363, 41111.09
2024.292, 41138.60
2026.220, 41197.71
2028.148, 41247.23
2030.077, 41250.30
2032.005, 41272.63
2033.934, 41381.96
2035.862, 41484.82
2037.791, 41451.87
2039.719, 41352.50
2041.648, 41368.74
2043.576, 41501.50
2045.505, 41570.61
2047.433, 41520.88
2049.362, 41537.11
2051.290, 41741.06
2053.219, 41838.66
2055.147, 41693.92
2057.075, 41535.67
2059.004, 41427.60
2060.932, 41404.72
2062.861, 41563.61
2064.789, 41818.90
2066.718, 41915.19
2068.646, 41869.33
2070.575, 41918.85
2072.503, 42094.50
2074.432, 42210.41
2076.360, 42212.18
2078.289, 42205.71
2080.217, 42220.43
2082.146, 42242.90
2084.074, 42289.16
2086.002, 42324.99
2087.931, 42299.38
2089.859, 42248.71
2091.788, 42253.66
2093.716, 42312.64
2095.645, 42366.30
2097.573, 42416.47
2099.502, 42451.29
2101.430, 42455.00
2103.359, 42474.28
2105.287, 42519.91
2107.216, 42579.16
2109.144, 42680.48
2111.073, 42757.52
2113.001, 42714.73
2114.929, 42649.90
2116.858, 42721.05
2118.786, 42878.24
2120.715, 42948.22
2122.643, 42924.48
2124.572, 42931.47
2126.500, 42991.14
2128.429, 43037.32
2130.357, 43055.27
2132.286, 43075.95
2134.214, 43131.20
2136.143, 43164.63
2138.071, 43115.85
2140.000, 43068.45
2141.928, 43102.39
2143.856, 43190.78
2145.785, 43305.11
2147.713, 43428.70
2149.642, 43450.55
2151.570, 43365.19
2153.499, 43426.91
2155.427, 43717.74
2157.356, 43881.61
2159.284, 43740.32
2161.213, 43657.50
2163.141, 43820.34
2165.070, 43968.54
2166.998, 43946.97
2168.927, 43874.13
2170.855, 43877.00
2172.783, 43903.80
2174.712, 43827.99
2176.640, 43686.61
2178.569, 43699.87
2180.497, 43871.03
2182.426, 43987.84
2184.354, 44018.63
2186.283, 44069.71
2188.211, 44161.72
2190.140, 44239.71
2192.068, 44256.93
2193.997, 44295.73
2195.925, 44462.53
2197.854, 44593.48
2199.782, 44520.25
2201.710, 44385.65
2203.639, 44375.75
2205.567, 44447.34
2207.496, 44474.78
2209.424, 44459.25
2211.353, 44495.20
2213.281, 44588.34
2215.210, 44659.03
2217.138, 44707.15
2219.067, 44703.68
2220.995, 44600.39
2222.924, 44554.88
2224.852, 44685.53
2226.781, 44801.04
2228.709, 44768.47
2230.637, 44731.93
2232.566, 44832.40
2234.494, 44966.11
2236.423, 44982.74
2238.351, 44924.02
2240.280, 44908.63
2242.208, 44932.86
2244.137, 44951.62
2246.065, 44967.26
2247.994, 45011.79
2249.922, 45102.63
2251.851, 45149.98
2253.779, 45094.66
2255.708, 45100.02
2257.636, 45256.41
2259.564, 45409.48
2261.493, 45514.21
2263.421, 45581.38
2265.350, 45581.82
2267.278, 45582.50
2269.207, 45676.64
2271.135, 45796.23
2273.064, 45813.17
2274.992, 45760.23
2276.921, 45737.00
2278.849, 45743.19
2280.778, 45782.82
2282.706, 45862.71
2284.635, 45910.17
2286.563, 45904.48
2288.491, 45915.69
2290.420, 45993.23
2292.348, 46023.86
2294.277, 45925.95
2296.205, 45869.27
2298.134, 45917.28
2300.062, 46005.57
2301.991, 46151.03
2303.919, 46268.48
2305.848, 46264.63
2307.776, 46209.51
2309.705, 46170.91
2311.633, 46161.11
2313.562, 46229.88
2315.490, 46358.84
2317.418, 46423.47
2319.347, 46414.09
2321.275, 46408.38
2323.204, 46408.28
2325.132, 46407.01
2327.061, 46414.90
2328.989, 46392.19
2330.918, 46315.74
2332.846, 46266.64
2334.775, 46263.20
2336.703, 46304.03
2338.632, 46434.15
2340.560, 46543.39
2342.489, 46555.15
2344.417, 46529.86
2346.345, 46482.63
2348.274, 46454.45
2350.202, 46508.15
2352.131, 46610.65
2354.059, 46730.15
2355.988, 46838.96
2357.916, 46840.81
2359.845, 46747.18
2361.773, 46666.79
2363.702, 46600.55
2365.630, 46574.24
2367.559, 46605.69
2369.487, 46639.98
2371.416, 46675.64
2373.344, 46722.63
2375.272, 46800.30
2377.201, 46831.50
2379.129, 46749.45
2381.058, 46706.65
2382.986, 46806.68
2384.915, 46905.50
2386.843, 46935.54
2388.772, 46939.34
2390.700, 46904.09
2392.629, 46904.38
2394.557, 47075.92
2396.486, 47278.52
2398.414, 47282.48
2400.343, 47179.04
2402.271, 47148.96
2404.199, 47170.04
2406.128, 47189.61
2408.056, 47203.73
2409.985, 47181.55
2411.913, 47120.17
2413.842, 47119.68
2415.770, 47224.75
2417.699, 47224.92
2419.627, 47087.72
2421.556, 46977.44
2423.484, 46885.17
2425.413, 46930.61
2427.341, 47226.71
2429.270, 47455.05
2431.198, 47511.35
2433.126, 47498.50
2435.055, 47389.88
2436.983, 47304.84
2438.912, 47291.66
2440.840, 47326.67
2442.769, 47450.55
2444.697, 47549.64
2446.626, 47530.66
2448.554, 47445.65
2450.483, 47305.27
2452.411, 47175.95
2454.340, 47178.05
2456.268, 47263.48
2458.197, 47328.21
2460.125, 47381.52
2462.053, 47443.02
2463.982, 47508.87
2465.910, 47556.45
2467.839, 47583.74
2469.767, 47648.95
2471.696, 47755.85
2473.624, 47773.43
2475.553, 47652.44
2477.481, 47615.70
2479.410, 47708.07
2481.338, 47761.50
2483.267, 47763.94
2485.195, 47751.96
2487.124, 47700.68
2489.052, 47740.50
2490.980, 48012.68
2492.909, 48161.08
2494.837, 47926.95
2496.766, 47798.20
2498.694, 48070.83
2500.623, 48273.29
2502.551, 48174.52
2504.480, 48049.32
2506.408, 48018.60
2508.337, 48035.46
2510.265, 48101.15
2512.194, 48158.72
2514.122, 48151.20
2516.051, 48118.61
2517.979, 48110.00
2519.907, 48096.89
2521.836, 48016.21
2523.764, 47931.89
2525.693, 47948.08
2527.621, 48027.28
2529.550, 48120.98
2531.478, 48212.67
2533.407, 48258.46
2535.335, 48262.18
2537.264, 48232.75
2539.192, 48177.10
2541.121, 48141.64
2543.049, 48134.93
2544.978, 48254.91
2546.906, 48490.91
2548.834, 48585.49
2550.763, 48511.61
2552.691, 48440.35
2554.620, 48364.84
2556.548, 48318.97
2558.477, 48303.02
2560.405, 48352.63
2562.334, 48497.82
2564.262, 48517.46
2566.191, 48313.79
2568.119, 48233.31
2570.048, 48424.53
2571.976, 48553.61
2573.905, 48556.72
2575.833, 48599.40
2577.761, 48740.48
2579.690, 48801.25
2581.618, 48697.34
2583.547, 48599.65
2585.475, 48546.10
2587.404, 48533.45
2589.332, 48617.96
2591.261, 48661.83
2593.189, 48563.30
2595.118, 48536.06
2597.046, 48726.20
2598.975, 48882.56
2600.903, 48819.96
2602.832, 48766.86
2604.760, 48873.83
2606.688, 48962.78
2608.617, 48892.06
2610.545, 48814.31
2612.474, 48867.39
2614.402, 48896.83
2616.331, 48762.70
2618.259, 48628.92
2620.188, 48641.73
2622.116, 48694.01
2624.045, 48677.04
2625.973, 48667.34
2627.902, 48723.71
2629.830, 48825.39
2631.759, 49008.64
2633.687, 49158.62
2635.615, 49104.40
2637.544, 48992.91
2639.472, 49005.42
2641.401, 49068.10
2643.329, 49122.72
2645.258, 49140.07
2647.186, 49041.64
2649.115, 48915.55
2651.043, 48882.08
2652.972, 48902.19
2654.900, 48915.05
2656.829, 48929.89
2658.757, 48970.07
2660.686, 49015.44
2662.614, 49016.66
2664.542, 49005.84
2666.471, 49057.24
2668.399, 49134.66
2670.328, 49181.26
2672.256, 49187.86
2674.185, 49084.37
2676.113, 48943.26
2678.042, 48962.05
2679.970, 49078.55
2681.899, 49176.52
2683.827, 49249.39
2685.756, 49282.09
2687.684, 49279.09
2689.613, 49237.62
2691.541, 49170.41
2693.469, 49087.31
2695.398, 49016.48
2697.326, 49056.18
2699.255, 49161.25
2701.183, 49236.05
2703.112, 49272.66
2705.040, 49224.92
2706.969, 49129.71
2708.897, 49100.67
2710.826, 49124.49
2712.754, 49176.91
2714.683, 49241.99
2716.611, 49277.75
2718.540, 49287.36
2720.468, 49273.47
2722.396, 49244.80
2724.325, 49235.76
2726.253, 49233.55
2728.182, 49193.57
2730.110, 49140.15
2732.039, 49138.60
2733.967, 49172.53
2735.896, 49203.83
2737.824, 49229.43
2739.753, 49238.79
2741.681, 49234.65
2743.610, 49196.09
2745.538, 49164.06
2747.467, 49269.41
2749.395, 49429.63
2751.323, 49454.50
2753.252, 49406.00
2755.180, 49398.30
2757.109, 49420.68
2759.037, 49496.83
2760.966, 49557.34
2762.894, 49431.86
2764.823, 49237.10
2766.751, 49147.22
2768.680, 49138.84
2770.608, 49233.90
2772.537, 49336.38
2774.465, 49294.54
2776.394, 49206.58
2778.322, 49196.93
2780.250, 49225.63
2782.179, 49254.66
2784.107, 49279.70
2786.036, 49289.80
2787.964, 49301.06
2789.893, 49360.46
2791.821, 49401.03
2793.750, 49321.19
2795.678, 49242.50
2797.607, 49260.28
2799.535, 49315.26
2801.464, 49378.73
2803.392, 49428.34
2805.321, 49469.18
2807.249, 49454.38
2809.177, 49295.18
2811.106, 49174.39
2813.034, 49231.84
2814.963, 49310.23
2816.891, 49332.95
2818.820, 49352.83
2820.748, 49406.78
2822.677, 49427.76
2824.605, 49367.96
2826.534, 49307.60
2828.462, 49293.88
2830.391, 49254.03
2832.319, 49128.13
2834.248, 49049.40
2836.176, 49050.69
2838.104, 49099.59
2840.033, 49237.97
2841.961, 49296.21
2843.890, 49182.91
2845.818, 49094.61
2847.747, 49033.22
2849.675, 49041.33
2851.604, 49137.19
2853.532, 49176.68
2855.461, 49110.19
2857.389, 49104.53
2859.318, 49185.55
2861.246, 49218.17
2863.175, 49200.16
2865.103, 49186.27
2867.031, 49179.47
2868.960, 49126.02
2870.888, 49029.51
2872.817, 49102.79
2874.745, 49305.83
2876.674, 49303.41
2878.602, 49163.04
2880.531, 49191.06
2882.459, 49304.30
2884.388, 49213.14
2886.316, 49018.06
2888.245, 48930.91
2890.173, 48945.62
2892.102, 49116.94
2894.030, 49313.07
2895.958, 49353.90
2897.887, 49308.18
2899.815, 49189.41
2901.744, 49096.93
2903.672, 49138.30
2905.601, 49195.59
2907.529, 49155.81
2909.458, 49123.89
2911.386, 49229.16
2913.315, 49262.89
2915.243, 49096.88
2917.172, 48941.79
2919.100, 48910.38
2921.029, 48880.86
2922.957, 48787.20
2924.885, 48763.11
2926.814, 48841.19
2928.742, 48924.53
2930.671, 49001.13
2932.599, 49022.43
2934.528, 48947.03
2936.456, 48965.97
2938.385, 49098.60
2940.313, 49102.52
2942.242, 48960.12
2944.170, 48862.18
2946.099, 48814.60
2948.027, 48778.42
2949.956, 48765.29
2951.884, 48874.85
2953.813, 49037.29
2955.741, 49025.46
2957.669, 48916.43
2959.598, 48863.85
2961.526, 48840.84
2963.455, 48802.55
2965.383, 48773.60
2967.312, 48821.43
2969.240, 48844.27
2971.169, 48697.18
2973.097, 48585.31
2975.026, 48696.18
2976.954, 48758.85
2978.883, 48554.53
2980.811, 48410.40
2982.740, 48542.00
2984.668, 48522.52
2986.596, 48178.80
2988.525, 48055.49
2990.453, 48422.28
2992.382, 48562.38
2994.310, 48371.11
2996.239, 48257.97
2998.167, 48236.81
3000.096, 48322.70
3002.024, 48498.73
3003.953, 48524.11
3005.881, 48426.79
3007.810, 48425.90
3009.738, 48466.67
3011.667, 48428.59
3013.595, 48335.55
3015.523, 48176.00
3017.452, 48046.61
3019.380, 48126.40
3021.309, 48222.27
3023.237, 48158.48
3025.166, 48088.25
3027.094, 48138.21
3029.023, 48136.68
3030.951, 47934.41
3032.880, 47887.38
3034.808, 48249.67
3036.737, 48415.86
3038.665, 48142.04
3040.594, 48041.51
3042.522, 48165.71
3044.450, 48200.20
3046.379, 48112.33
3048.307, 48048.91
3050.236, 48010.84
3052.165, 47994.21
3054.093, 48001.20
3056.021, 48078.82
3057.950, 48151.85
3059.878, 48042.58
3061.807, 47875.31
3063.735, 47774.21
3065.664, 47745.86
3067.592, 47863.37
3069.521, 47953.93
3071.449, 47888.41
3073.378, 47810.98
3075.306, 47751.67
3077.235, 47729.72
3079.163, 47763.11
3081.092, 47802.76
3083.020, 47854.96
3084.948, 47872.75
3086.877, 47855.63
3088.805, 47761.91
3090.734, 47608.93
3092.662, 47612.12
3094.591, 47711.82
3096.519, 47680.23
3098.448, 47578.38
3100.376, 47484.25
3102.305, 47417.06
3104.233, 47429.47
3106.162, 47445.35
3108.090, 47407.87
3110.019, 47374.79
3111.947, 47383.93
3113.875, 47383.56
3115.804, 47353.66
3117.732, 47313.29
3119.661, 47250.86
3121.589, 47239.51
3123.518, 47295.63
3125.446, 47344.52
3127.375, 47380.00
3129.303, 47307.47
3131.232, 47182.05
3133.160, 47187.86
3135.089, 47238.98
3137.017, 47162.82
3138.946, 47070.17
3140.874, 47068.44
3142.802, 47088.97
3144.731, 47114.61
3146.659, 47092.48
3148.588, 46969.58
3150.516, 46897.47
3152.445, 46935.17
3154.373, 46967.21
3156.302, 46982.21
3158.230, 47027.57
3160.159, 47094.61
3162.087, 47052.03
3164.016, 46934.24
3165.944, 46865.48
3167.873, 46825.22
3169.801, 46779.98
3171.729, 46737.97
3173.658, 46694.55
3175.586, 46682.98
3177.515, 46782.91
3179.443, 46788.72
3181.372, 46507.71
3183.300, 46397.92
3185.229, 46607.41
3187.157, 46740.51
3189.086, 46773.68
3191.014, 46730.33
3192.943, 46622.71
3194.871, 46491.49
3196.800, 46367.72
3198.728, 46344.46
3200.656, 46369.10
3202.585, 46405.74
3204.513, 46419.00
3206.442, 46340.69
3208.370, 46291.20
3210.299, 46334.90
3212.227, 46364.74
3214.156, 46359.89
3216.084, 46314.38
3218.013, 46228.21
3219.941, 46185.51
3221.870, 46188.52
3223.798, 46185.29
3225.727, 46191.02
3227.655, 46281.57
3229.583, 46366.98
3231.512, 46325.29
3233.440, 46245.91
3235.369, 46209.93
3237.297, 46128.48
3239.226, 45913.16
3241.154, 45801.32
3243.083, 45876.14
3245.011, 45929.67
3246.940, 45950.32
3248.868, 45902.73
3250.797, 45805.70
3252.725, 45767.20
3254.654, 45758.20
3256.582, 45736.03
3258.510, 45705.30
3260.439, 45658.96
3262.367, 45631.23
3264.296, 45651.05
3266.224, 45653.48
3268.153, 45577.43
3270.081, 45603.32
3272.010, 45759.75
3273.938, 45739.16
3275.867, 45572.73
3277.795, 45564.63
3279.724, 45631.13
3281.652, 45577.11
3283.581, 45468.99
3285.509, 45389.02
3287.438, 45271.42
3289.366, 44998.75
3291.294, 44840.09
3293.223, 44874.22
3295.151, 44949.79
3297.080, 45049.86
3299.008, 45171.82
3300.937, 45298.87
3302.865, 45311.46
3304.794, 45258.28
3306.722, 45231.39
3308.651, 45204.31
3310.579, 45141.50
3312.508, 45084.74
3314.436, 45066.66
3316.365, 45038.12
3318.293, 44981.24
3320.221, 44980.84
3322.150, 45052.30
3324.078, 45005.19
3326.007, 44883.00
3327.935, 44953.28
3329.864, 45076.49
3331.792, 45058.72
3333.721, 44966.07
3335.649, 44795.55
3337.578, 44667.11
3339.506, 44639.77
3341.435, 44617.96
3343.363, 44592.64
3345.292, 44549.98
3347.220, 44501.22
3349.148, 44537.51
3351.077, 44603.74
3353.005, 44559.39
3354.934, 44475.27
3356.862, 44393.42
3358.791, 44341.96
3360.719, 44367.77
3362.648, 44361.41
3364.576, 44301.38
3366.505, 44236.21
3368.433, 44169.04
3370.362, 44213.43
3372.290, 44318.07
3374.219, 44405.73
3376.147, 44402.93
3378.075, 44090.64
3380.004, 43874.00
3381.932, 44019.43
3383.861, 44140.63
3385.789, 44143.54
3387.718, 44099.63
3389.646, 44018.19
3391.575, 43978.39
3393.503, 43962.84
3395.432, 43889.60
3397.360, 43839.87
3399.289, 43932.22
3401.217, 44014.12
3403.146, 44013.59
3405.074, 43937.16
3407.002, 43761.58
3408.931, 43734.23
3410.859, 43863.74
3412.788, 43769.31
3414.716, 43555.47
3416.645, 43396.18
3418.573, 43325.65
3420.502, 43481.18
3422.430, 43549.36
3424.359, 43334.28
3426.287, 43231.01
3428.216, 43322.63
3430.144, 43423.53
3432.073, 43505.60
3434.001, 43440.29
3435.929, 43296.08
3437.858, 43136.57
3439.786, 43040.62
3441.715, 43119.80
3443.643, 43157.41
3445.572, 43070.22
3447.500, 43076.65
3449.429, 43197.28
3451.357, 43125.37
3453.286, 42931.01
3455.214, 42812.82
3457.143, 42768.29
3459.071, 42851.66
3461.000, 42910.00
3462.928, 42868.89
3464.856, 42837.41
3466.785, 42855.75
3468.713, 42758.61
3470.642, 42577.66
3472.570, 42513.07
3474.499, 42508.23
3476.427, 42518.13
3478.356, 42491.74
3480.284, 42366.38
3482.213, 42301.84
3484.141, 42391.03
3486.070, 42425.70
3487.998, 42404.49
3489.927, 42271.72
3491.855, 42134.88
3493.783, 42275.18
3495.712, 42416.09
3497.640, 42286.68
3499.569, 42230.73
3501.497, 42381.30
3503.426, 42396.88
3505.354, 42252.88
3507.283, 42151.64
3509.211, 42081.79
3511.140, 42020.70
3513.068, 41957.55
3514.997, 41878.09
3516.925, 41813.68
3518.854, 41776.14
3520.782, 41747.30
3522.710, 41724.29
3524.639, 41751.93
3526.567, 41781.30
3528.496, 41639.59
3530.424, 41524.68
3532.353, 41694.12
3534.281, 41793.25
3536.210, 41709.09
3538.138, 41600.54
3540.067, 41487.73
3541.995, 41347.12
3543.924, 41234.14
3545.852, 41293.66
3547.781, 41374.58
3549.709, 41349.58
3551.637, 41329.75
3553.566, 41375.88
3555.494, 41307.37
3557.423, 41148.65
3559.351, 41235.75
3561.280, 41408.74
3563.208, 41386.73
3565.137, 41294.71
3567.065, 41197.86
3568.994, 41093.54
3570.922, 40973.13
3572.851, 40950.87
3574.779, 41010.30
3576.708, 41028.81
3578.636, 41016.53
3580.564, 40986.56
3582.493, 40933.29
3584.421, 40816.40
3586.350, 40761.49
3588.278, 40781.23
3590.207, 40746.66
3592.135, 40678.25
3594.064, 40645.81
3595.992, 40635.19
3597.921, 40667.75
3599.849, 40637.04
3601.778, 40488.33
3603.706, 40430.28
3605.635, 40471.88
3607.563, 40484.54
3609.491, 40473.57
3611.420, 40474.77
3613.348, 40432.47
3615.277, 40284.88
3617.205, 40184.91
3619.134, 40170.57
3621.062, 40111.22
3622.991, 40029.09
3624.919, 40030.05
3626.848, 40063.59
3628.776, 40098.81
3630.705, 40113.01
3632.633, 40090.53
3634.562, 40090.34
3636.490, 40110.03
3638.418, 40043.44
3640.347, 39946.83
3642.275, 39906.30
3644.204, 39876.04
3646.132, 39832.92
3648.061, 39819.60
3649.989, 39855.66
3651.918, 39795.53
3653.846, 39699.01
3655.775, 39726.22
3657.703, 39750.96
3659.632, 39655.36
3661.560, 39590.05
3663.489, 39628.85
3665.417, 39547.70
3667.345, 39402.79
3669.274, 39430.92
3671.202, 39499.46
3673.131, 39456.05
3675.059, 39423.82
3676.988, 39468.46
3678.916, 39406.61
3680.845, 39257.88
3682.773, 39222.22
3684.702, 39238.53
3686.630, 39245.56
3688.559, 39235.97
3690.487, 39201.58
3692.416, 39185.85
3694.344, 39189.88
3696.272, 39112.73
3698.201, 39023.23
3700.129, 39055.82
3702.058, 39081.17
3703.986, 39032.74
3705.915, 38964.59
3707.843, 38884.86
3709.772, 38784.56
3711.700, 38689.64
3713.629, 38660.91
3715.557, 38636.04
3717.486, 38577.14
3719.414, 38533.40
3721.343, 38510.68
3723.271, 38430.31
3725.199, 38351.60
3727.128, 38426.21
3729.056, 38515.62
3730.985, 38559.01
3732.913, 38546.88
3734.842, 38484.39
3736.770, 38306.66
3738.699, 38116.22
3740.627, 38156.23
3742.556, 38211.09
3744.484, 38160.46
3746.413, 38075.21
3748.341, 37959.81
3750.270, 37932.38
3752.198, 37951.48
3754.126, 37966.35
3756.055, 37941.11
3757.983, 37857.50
3759.912, 37734.89
3761.840, 37577.84
3763.769, 37668.43
3765.697, 37828.99
3767.626, 37709.45
3769.554, 37617.07
3771.483, 37721.28
3773.411, 37732.02
3775.340, 37626.14
3777.268, 37505.53
3779.197, 37404.59
3781.125, 37383.88
3783.053, 37380.43
3784.982, 37374.84
3786.910, 37348.71
3788.839, 37306.44
3790.767, 37315.85
3792.696, 37335.75
3794.624, 37350.50
3796.553, 37294.71
3798.481, 37136.23
3800.410, 36999.39
3802.338, 36903.58
3804.267, 36924.00
3806.195, 36974.07
3808.124, 36959.65
3810.052, 37019.44
3811.980, 37196.04
3813.909, 37165.02
3815.837, 37013.14
3817.766, 36938.96
3819.694, 36899.32
3821.623, 36888.25
3823.551, 36845.09
3825.480, 36761.66
3827.408, 36625.82
3829.337, 36502.50
3831.265, 36495.63
3833.194, 36488.17
3835.122, 36432.61
3837.051, 36465.80
3838.979, 36550.14
3840.907, 36382.62
3842.836, 36208.49
3844.764, 36315.70
3846.693, 36290.56
3848.621, 36060.35
3850.550, 35954.09
3852.478, 35957.59
3854.407, 36110.56
3856.335, 36185.52
3858.264, 35975.89
3860.192, 35885.55
3862.121, 35904.21
3864.049, 35712.00
3865.978, 35542.03
3867.906, 35726.82
3869.834, 35859.07
3871.763, 35814.54
3873.691, 35705.80
3875.620, 35593.20
3877.548, 35639.59
3879.477, 35708.14
3881.405, 35739.06
3883.334, 35732.51
3885.262, 35696.11
3887.191, 35544.26
3889.119, 35351.59
3891.048, 35198.05
3892.976, 35151.71
3894.905, 35250.70
3896.833, 35333.93
3898.761, 35362.48
3900.690, 35229.00
3902.618, 35131.68
3904.547, 35177.30
3906.475, 35200.62
3908.404, 35185.17
3910.332, 35087.46
3912.261, 34982.49
3914.189, 34873.50
3916.118, 34787.74
3918.046, 34766.87
3919.975, 34754.61
3921.903, 34752.31
3923.832, 34699.23
3925.760, 34643.43
3927.688, 34636.82
3929.617, 34588.84
3931.545, 34504.56
3933.474, 34505.95
3935.402, 34532.48
3937.331, 34372.07
3939.259, 34356.32
3941.188, 34520.72
3943.116, 34448.92
3945.045, 34302.71
3946.973, 34224.36
3948.902, 34150.86
3950.830, 34136.20
3952.759, 34088.51
3954.687, 34010.07
3956.615, 34074.65
3958.544, 34104.41
3960.472, 34009.13
3962.401, 33949.39
3964.329, 33883.74
3966.258, 33842.31
3968.186, 33807.26
3970.115, 33707.25
3972.043, 33702.39
3973.972, 33780.50
3975.900, 33730.38
3977.829, 33629.94
3979.757, 33539.73
3981.686, 33554.64
3983.614, 33626.66
3985.542, 33471.90
3987.471, 33388.25
3989.399, 33447.88
3991.328, 33406.53
3993.256, 33376.20
3995.185, 33399.19
3997.113, 33362.25
3999.042, 33245.24
4000.970, 33193.21
4002.899, 33115.18
4004.827, 33071.05
4006.756, 33102.28
4008.684, 33075.52
4010.613, 33030.57
4012.541, 32953.80
4014.469, 32888.64
4016.398, 32859.54
4018.326, 32815.93
4020.255, 32830.53
4022.183, 32907.74
4024.112, 32877.52
4026.040, 32782.27
4027.969, 32747.93
4029.897, 32692.95
4031.826, 32640.93
4033.754, 32577.44
4035.683, 32522.11
4037.611, 32458.51
4039.540, 32404.27
4041.468, 32392.23
4043.396, 32351.05
4045.325, 32351.37
4047.253, 32391.39
4049.182, 32385.03
4051.110, 32335.39
4053.039, 32285.79
4054.967, 32210.82
4056.896, 32054.67
4058.824, 31992.28
4060.753, 32092.12
4062.681, 32046.06
4064.610, 31895.37
4066.538, 31879.17
4068.467, 31886.77
4070.395, 31886.79
4072.323, 31867.56
4074.252, 31795.67
4076.180, 31611.97
4078.109, 31547.32
4080.037, 31713.76
4081.966, 31704.01
4083.894, 31610.03
4085.823, 31581.17
4087.751, 31536.06
4089.680, 31420.57
4091.608, 31303.15
4093.537, 31211.32
4095.465, 31240.52
4097.394, 31270.03
4099.322, 31249.35
4101.250, 31317.80
4103.179, 31418.23
4105.107, 31230.18
4107.036, 31013.13
4108.964, 31042.22
4110.893, 30990.10
4112.821, 30841.64
4114.750, 30803.35
4116.678, 30793.92
4118.607, 30765.71
4120.535, 30817.48
4122.464, 30884.15
4124.392, 30656.66
4126.321, 30437.66
4128.249, 30489.21
4130.178, 30554.70
4132.106, 30577.73
4134.035, 30489.24
4135.963, 30378.17
4137.892, 30275.17
4139.820, 30260.80
4141.749, 30328.51
4143.677, 30305.23
4145.605, 30229.91
4147.534, 30116.15
4149.462, 30096.95
4151.391, 30168.31
4153.319, 30193.80
4155.248, 30169.11
4157.176, 30066.17
4159.104, 29973.23
4161.033, 29900.59
4162.961, 29822.39
4164.890, 29769.08
4166.818, 29777.13
4168.747, 29774.73
4170.675, 29754.00
4172.604, 29711.01
4174.532, 29667.29
4176.461, 29656.45
4178.389, 29581.86
4180.318, 29482.50
4182.246, 29540.19
4184.175, 29556.49
4186.103, 29396.86
4188.032, 29317.92
4189.960, 29322.35
4191.889, 29435.38
4193.817, 29435.49
4195.746, 29207.16
4197.674, 29140.50
4199.603, 29190.86
4201.531, 29271.70
4203.459, 29218.03
4205.388, 28960.94
4207.316, 28842.45
4209.245, 28815.06
4211.173, 28794.52
4213.102, 28695.90
4215.030, 28486.64
4216.958, 28560.50
4218.887, 28705.73
4220.815, 28611.90
4222.744, 28514.60
4224.672, 28467.96
4226.601, 28372.23
4228.529, 28283.83
4230.458, 28265.83
4232.386, 28264.59
4234.315, 28268.38
4236.243, 28241.06
4238.172, 28217.65
4240.100, 28257.44
4242.029, 28099.79
4243.957, 27817.36
4245.886, 27838.63
4247.814, 27904.31
4249.743, 27892.86
4251.671, 27841.88
4253.600, 27765.23
4255.528, 27663.91
4257.457, 27607.03
4259.385, 27628.40
4261.313, 27693.20
4263.242, 27735.29
4265.170, 27620.98
4267.099, 27527.35
4269.027, 27487.01
4270.956, 27385.46
4272.884, 27290.47
4274.813, 27291.51
4276.741, 27247.75
4278.669, 27160.74
4280.598, 27096.25
4282.526, 27081.22
4284.455, 27168.06
4286.383, 27185.28
4288.312, 27144.21
4290.240, 27071.53
4292.169, 26987.78
4294.097, 26886.69
4296.026, 26892.82
4297.954, 26898.86
4299.883, 26689.64
4301.811, 26643.46
4303.740, 26791.08
4305.668, 26670.91
4307.597, 26533.40
4309.525, 26585.40
4311.454, 26587.71
4313.382, 26537.20
4315.311, 26432.69
4317.239, 26420.31
4319.167, 26593.54
4321.096, 26548.84
4323.024, 26411.39
4324.953, 26355.34
4326.881, 26318.36
4328.810, 26288.35
4330.738, 26276.62
4332.667, 26260.13
4334.595, 26226.64
4336.523, 26137.07
4338.452, 26030.35
4340.380, 26062.48
4342.309, 26056.08
4344.237, 25953.13
4346.166, 25822.54
4348.094, 25750.68
4350.023, 25897.38
4351.951, 25877.76
4353.880, 25687.60
4355.808, 25683.87
4357.737, 25677.31
4359.665, 25552.56
4361.594, 25557.69
4363.522, 25621.99
4365.451, 25576.29
4367.379, 25509.61
4369.308, 25445.94
4371.236, 25393.96
4373.165, 25319.95
4375.093, 25142.14
4377.021, 25146.06
4378.950, 25268.94
4380.878, 25288.02
4382.807, 25232.98
4384.735, 25105.24
4386.664, 25112.14
4388.592, 25128.62
4390.521, 24962.19
4392.449, 24858.38
4394.377, 24834.37
4396.306, 24850.71
4398.234, 24834.22
4400.163, 24727.65
4402.091, 24729.75
4404.020, 24761.36
4405.948, 24715.37
4407.877, 24595.11
4409.805, 24434.35
4411.734, 24531.93
4413.662, 24616.05
4415.591, 24548.20
4417.519, 24422.86
4419.448, 24303.10
4421.376, 24294.75
4423.305, 24260.39
4425.233, 24185.40
4427.162, 24111.46
4429.090, 24069.06
4431.019, 24080.80
4432.947, 24092.47
4434.875, 24070.69
4436.804, 23951.65
4438.732, 23826.21
4440.661, 23722.78
4442.589, 23748.39
4444.518, 23768.85
4446.446, 23687.95
4448.375, 23650.29
4450.303, 23639.80
4452.231, 23637.99
4454.160, 23608.30
4456.088, 23563.56
4458.017, 23684.44
4459.945, 23722.38
4461.874, 23561.93
4463.802, 23448.46
4465.731, 23384.42
4467.659, 23378.35
4469.588, 23326.33
4471.516, 23225.68
4473.445, 23090.91
4475.373, 23012.87
4477.302, 23035.73
4479.230, 23062.37
4481.159, 23064.53
4483.087, 23000.38
4485.016, 22958.36
4486.944, 22930.16
4488.873, 22861.02
4490.801, 22793.33
4492.729, 22737.29
4494.658, 22692.87
4496.586, 22707.72
4498.515, 22835.89
4500.443, 22762.79
4502.372, 22578.07
4504.300, 22420.14
4506.229, 22410.70
4508.157, 22517.97
4510.085, 22419.60
4512.014, 22344.67
4513.942, 22450.40
4515.871, 22318.49
4517.799, 22158.08
4519.728, 22194.10
4521.656, 22279.87
4523.585, 22339.32
4525.513, 22163.26
4527.442, 22054.24
4529.370, 22067.28
4531.299, 22080.51
4533.227, 22077.72
4535.156, 22055.10
4537.084, 21997.80
4539.013, 21910.44
4540.941, 21755.44
4542.870, 21738.04
4544.798, 21821.74
4546.727, 21793.62
4548.655, 21735.27
4550.583, 21673.86
4552.512, 21712.83
4554.440, 21727.26
4556.369, 21634.38
4558.297, 21585.05
4560.226, 21556.76
4562.154, 21510.51
4564.083, 21447.41
4566.011, 21365.46
4567.939, 21216.44
4569.868, 21152.72
4571.796, 21216.18
4573.725, 21166.66
4575.653, 21107.87
4577.582, 21095.85
4579.510, 21206.08
4581.439, 21275.08
4583.367, 21044.21
4585.296, 20944.49
4587.224, 20948.13
4589.153, 20834.85
4591.081, 20788.32
4593.010, 20832.56
4594.938, 20635.48
4596.867, 20528.36
4598.795, 20656.38
4600.724, 20588.57
4602.652, 20496.51
4604.581, 20586.17
4606.509, 20536.13
4608.438, 20421.07
4610.366, 20427.31
4612.294, 20407.04
4614.223, 20345.54
4616.151, 20255.56
4618.080, 20226.53
4620.008, 20268.33
4621.937, 20198.44
4623.865, 20163.11
4625.793, 20271.19
4627.722, 20096.14
4629.650, 19900.00
4631.579, 20046.55
4633.507, 19991.75
4635.436, 19838.21
4637.364, 19859.76
4639.293, 19844.81
4641.221, 19791.69
4643.150, 19841.21
4645.078, 19871.57
4647.007, 19839.01
4648.935, 19665.29
4650.864, 19499.64
4652.792, 19410.49
4654.721, 19582.55
4656.649, 19711.23
4658.578, 19526.58
4660.506, 19492.40
4662.435, 19521.29
4664.363, 19414.17
4666.292, 19360.39
4668.220, 19346.38
4670.148, 19259.29
4672.077, 19273.02
4674.005, 19365.79
4675.934, 19154.76
4677.862, 19006.44
4679.791, 19026.39
4681.719, 18966.71
4683.647, 18925.21
4685.576, 18970.06
4687.504, 18987.56
4689.433, 18992.98
4691.361, 19004.27
4693.290, 18952.29
4695.218, 18860.24
4697.147, 18743.16
4699.075, 18698.48
4701.004, 18688.19
4702.932, 18627.57
4704.861, 18469.83
4706.789, 18285.48
4708.718, 18384.71
4710.646, 18476.98
4712.575, 18491.67
4714.503, 18477.30
4716.432, 18420.20
4718.360, 18311.78
4720.289, 18344.16
4722.217, 18328.98
4724.146, 18175.11
4726.074, 18112.73
4728.002, 18075.64
4729.931, 17975.94
4731.859, 18012.65
4733.788, 18074.77
4735.716, 18037.86
4737.645, 17989.61
4739.573, 17925.76
4741.501, 17781.77
4743.430, 17809.60
4745.358, 17913.55
4747.287, 17790.94
4749.215, 17750.68
4751.144, 17770.46
4753.072, 17570.65
4755.001, 17470.97
4756.929, 17506.10
4758.858, 17515.32
4760.786, 17513.66
4762.715, 17499.12
4764.643, 17352.16
4766.572, 17266.78
4768.500, 17301.03
4770.429, 17357.33
4772.357, 17362.40
4774.286, 17278.39
4776.214, 17091.76
4778.143, 17006.26
4780.071, 17146.30
4782.000, 17132.52
4783.928, 17064.53
4785.856, 17029.18
4787.785, 17056.58
4789.713, 17056.36
4791.642, 16926.02
4793.570, 16906.71
4795.499, 16944.56
4797.427, 16986.09
4799.355, 16907.52
4801.284, 16773.71
4803.212, 16681.74
4805.141, 16608.92
4807.069, 16567.60
4808.998, 16607.18
4810.926, 16598.16
4812.855, 16554.40
4814.783, 16527.84
4816.712, 16541.34
4818.640, 16557.14
4820.569, 16459.81
4822.497, 16402.96
4824.426, 16383.72
4826.354, 16310.80
4828.283, 16252.62
4830.211, 16215.05
4832.140, 16169.57
4834.068, 16147.32
4835.997, 16138.14
4837.925, 16060.87
4839.854, 16043.93
4841.782, 16081.23
4843.710, 15966.53
4845.639, 15949.02
4847.567, 16035.16
4849.496, 15917.06
4851.424, 15817.93
4853.353, 15787.31
4855.281, 15759.95
4857.209, 15717.62
4859.138, 15666.31
4861.066, 15689.50
4862.995, 15654.00
4864.923, 15546.51
4866.852, 15534.93
4868.780, 15576.98
4870.709, 15634.03
4872.637, 15531.65
4874.566, 15452.12
4876.494, 15449.67
4878.423, 15550.86
4880.351, 15556.99
4882.280, 15431.19
4884.208, 15358.92
4886.137, 15282.10
4888.065, 15198.13
4889.994, 15220.70
4891.922, 15163.92
4893.851, 15014.37
4895.779, 15055.30
4897.708, 15125.56
4899.636, 15166.02
4901.564, 15109.15
4903.493, 14995.30
4905.421, 14869.12
4907.350, 14925.23
4909.278, 14948.77
4911.207, 14898.33
4913.135, 14790.11
4915.063, 14720.46
4916.992, 14703.04
4918.920, 14710.85
4920.849, 14707.23
4922.777, 14673.57
4924.706, 14565.36
4926.634, 14497.50
4928.563, 14468.01
4930.491, 14394.27
4932.420, 14436.85
4934.348, 14514.65
4936.277, 14348.39
4938.205, 14258.17
4940.134, 14245.91
4942.062, 14270.04
4943.991, 14176.05
4945.919, 14073.30
4947.848, 14181.76
4949.776, 14222.79
4951.705, 14194.69
4953.633, 14098.66
4955.562, 14134.57
4957.490, 14171.65
4959.418, 14051.47
4961.347, 14016.98
4963.275, 14007.95
4965.204, 13942.23
4967.132, 13917.52
4969.061, 13914.00
4970.989, 13916.99
4972.917, 13847.94
4974.846, 13772.99
4976.774, 13733.18
4978.703, 13745.48
4980.631, 13728.51
4982.560, 13648.65
4984.488, 13581.42
4986.417, 13564.25
4988.345, 13591.85
4990.274, 13563.03
4992.202, 13499.46
4994.131, 13440.78
4996.059, 13605.84
4997.988, 13509.19
4999.916, 13260.43
5001.845, 13482.95
5003.773, 13506.89
5005.702, 13336.59
5007.630, 13128.52
5009.559, 13050.44
5011.487, 13097.86
5013.416, 13280.50
5015.344, 13193.62
5017.272, 13021.45
5019.201, 12970.80
5021.129, 13031.91
5023.058, 13025.01
5024.986, 12837.29
5026.915, 12769.43
5028.843, 12783.55
5030.771, 12847.97
5032.700, 12891.09
5034.628, 12882.77
5036.557, 12827.54
5038.485, 12831.05
5040.414, 12762.57
5042.342, 12629.74
5044.271, 12520.07
5046.199, 12511.29
5048.128, 12544.03
5050.056, 12469.37
5051.985, 12471.01
5053.913, 12483.16
5055.842, 12391.67
5057.770, 12300.74
5059.699, 12252.65
5061.627, 12289.93
5063.556, 12226.25
5065.484, 12201.49
5067.413, 12270.22
5069.341, 12254.63
5071.270, 12197.80
5073.198, 12131.59
5075.126, 12152.47
5077.055, 12133.22
5078.983, 12082.32
5080.912, 12110.46
5082.840, 12067.07
5084.769, 11997.48
5086.697, 12018.06
5088.625, 11937.50
5090.554, 11846.94
5092.482, 11833.01
5094.411, 11836.29
5096.339, 11836.36
5098.268, 11825.28
5100.196, 11840.13
5102.125, 11771.95
5104.053, 11626.77
5105.982, 11620.16
5107.910, 11622.91
5109.839, 11605.66
5111.767, 11545.39
5113.696, 11602.00
5115.624, 11655.52
5117.553, 11518.63
5119.481, 11478.43
5121.410, 11464.71
5123.338, 11425.16
5125.267, 11322.07
5127.195, 11318.91
5129.124, 11426.16
5131.052, 11275.18
5132.980, 11285.55
5134.909, 11407.52
5136.837, 11287.61
5138.766, 11231.50
5140.694, 11226.12
5142.623, 11209.83
5144.551, 11191.93
5146.479, 11163.96
5148.408, 11120.00
5150.336, 11076.70
5152.265, 11064.82
5154.193, 11067.21
5156.122, 10946.92
5158.050, 10935.96
5159.979, 10981.05
5161.907, 10874.80
5163.836, 10929.09
5165.764, 10961.85
5167.693, 10792.82
5169.621, 10842.39
5171.550, 10863.73
5173.478, 10754.81
5175.407, 10747.75
5177.335, 10731.51
5179.264, 10676.67
5181.192, 10560.62
5183.121, 10579.05
5185.049, 10642.73
5186.978, 10625.81
5188.906, 10584.69
5190.834, 10543.41
5192.763, 10510.63
5194.691, 10380.13
5196.620, 10331.81
5198.548, 10370.79
5200.477, 10374.91
5202.405, 10326.49
5204.333, 10271.54
5206.262, 10270.14
5208.190, 10270.34
5210.119, 10218.28
5212.047, 10097.22
5213.976, 10121.93
5215.904, 10148.93
5217.833, 10131.77
5219.761, 10031.45
5221.690, 9979.882
5223.618, 9966.859
5225.547, 9961.279
5227.475, 10036.20
5229.404, 10010.70
5231.332, 9845.933
5233.261, 9889.775
5235.189, 9910.934
5237.118, 9871.612
5239.046, 9803.633
5240.975, 9709.479
5242.903, 9690.550
5244.832, 9832.838
5246.760, 9790.854
5248.688, 9700.506
5250.617, 9630.839
5252.545, 9637.339
5254.474, 9600.524
5256.402, 9552.726
5258.331, 9593.637
5260.259, 9494.186
5262.188, 9428.051
5264.116, 9476.679
5266.044, 9429.672
5267.973, 9390.289
5269.901, 9362.508
5271.830, 9267.059
5273.758, 9293.939
5275.687, 9349.062
5277.615, 9342.615
5279.544, 9263.730
5281.472, 9226.177
5283.401, 9238.515
5285.329, 9202.219
5287.258, 9142.132
5289.186, 9106.273
5291.115, 9174.216
5293.043, 9066.557
5294.972, 8982.323
5296.900, 8992.396
5298.829, 8993.024
5300.757, 8981.524
5302.686, 8968.422
5304.614, 8974.087
5306.542, 8900.592
5308.471, 8856.449
5310.399, 8896.615
5312.328, 8990.588
5314.256, 8945.186
5316.185, 8814.725
5318.113, 8745.387
5320.042, 8843.220
5321.970, 8842.223
5323.898, 8621.163
5325.827, 8665.040
5327.755, 8667.695
5329.684, 8581.239
5331.612, 8437.493
5333.541, 8493.887
5335.469, 8591.762
5337.398, 8611.461
5339.326, 8484.366
5341.255, 8422.308
5343.183, 8421.869
5345.112, 8380.934
5347.040, 8364.664
5348.969, 8344.367
5350.897, 8307.542
5352.826, 8323.318
5354.754, 8384.106
5356.683, 8408.855
5358.611, 8257.306
5360.540, 8243.851
5362.468, 8251.514
5364.396, 8207.812
5366.325, 8143.668
5368.253, 8136.173
5370.182, 8141.453
5372.110, 8081.164
5374.039, 8068.505
5375.967, 8056.282
5377.896, 8020.335
5379.824, 7968.149
5381.752, 7899.683
5383.681, 7856.795
5385.609, 7892.118
5387.538, 7900.437
5389.466, 7883.489
5391.395, 7844.224
5393.323, 7771.898
5395.252, 7780.745
5397.180, 7826.568
5399.109, 7857.672
5401.037, 7731.672
5402.966, 7677.383
5404.894, 7680.216
5406.823, 7573.281
5408.751, 7548.105
5410.680, 7572.625
5412.608, 7606.071
5414.537, 7566.996
5416.465, 7594.731
5418.394, 7621.076
5420.322, 7533.799
5422.250, 7539.921
5424.179, 7463.609
5426.107, 7319.560
5428.036, 7360.386
5429.964, 7389.218
5431.893, 7370.002
5433.821, 7308.665
5435.750, 7314.327
5437.678, 7317.065
5439.606, 7281.063
5441.535, 7147.541
5443.463, 7228.230
5445.392, 7254.599
5447.320, 7159.599
5449.249, 7133.410
5451.177, 7172.901
5453.106, 7209.023
5455.034, 7186.176
5456.963, 7071.208
5458.891, 6964.866
5460.820, 6916.821
5462.748, 6985.246
5464.677, 6952.315
5466.605, 6904.830
5468.534, 6874.567
5470.462, 6818.853
5472.391, 6826.562
5474.319, 6879.029
5476.248, 6939.894
5478.176, 6917.699
5480.104, 6804.874
5482.033, 6696.630
5483.961, 6704.115
5485.890, 6813.933
5487.818, 6822.793
5489.747, 6733.870
5491.675, 6740.063
5493.604, 6675.532
5495.532, 6612.857
5497.460, 6596.719
5499.389, 6612.056
5501.317, 6578.509
5503.246, 6548.316
5505.174, 6572.059
5507.103, 6535.288
5509.031, 6514.208
5510.960, 6510.216
5512.888, 6490.433
5514.817, 6524.445
5516.745, 6506.455
5518.674, 6433.715
5520.602, 6388.295
5522.531, 6389.811
5524.459, 6364.228
5526.388, 6287.418
5528.316, 6216.530
5530.245, 6217.496
5532.173, 6224.792
5534.102, 6186.748
5536.030, 6237.586
5537.958, 6208.088
5539.887, 6172.923
5541.815, 6248.388
5543.744, 6132.095
5545.672, 6090.692
5547.601, 6128.981
5549.529, 6132.178
5551.458, 6093.209
5553.386, 6037.832
5555.314, 5992.149
5557.243, 6006.108
5559.171, 5967.102
5561.100, 5941.363
5563.028, 5949.358
5564.957, 5929.494
5566.885, 5865.466
5568.814, 5854.416
5570.742, 5921.604
5572.671, 5841.059
5574.599, 5839.307
5576.528, 5857.608
5578.456, 5821.746
5580.385, 5751.186
5582.313, 5780.901
5584.242, 5797.515
5586.170, 5644.678
5588.099, 5643.880
5590.027, 5640.485
5591.956, 5629.860
5593.884, 5655.458
5595.813, 5671.122
5597.741, 5665.281
5599.669, 5621.081
5601.598, 5515.641
5603.526, 5503.742
5605.455, 5532.816
5607.383, 5546.859
5609.312, 5462.301
5611.240, 5459.286
5613.168, 5480.674
5615.097, 5502.222
5617.025, 5536.236
5618.954, 5453.176
5620.882, 5409.232
5622.811, 5423.962
5624.739, 5379.657
5626.668, 5301.766
5628.596, 5261.061
5630.525, 5268.524
5632.453, 5271.818
5634.382, 5275.713
5636.310, 5228.463
5638.239, 5152.932
5640.167, 5220.675
5642.096, 5218.634
5644.024, 5191.659
5645.953, 5168.268
5647.881, 5131.683
5649.810, 5135.389
5651.738, 5134.142
5653.667, 5118.497
5655.595, 5144.253
5657.523, 5119.074
5659.452, 5054.878
5661.380, 5000.776
5663.309, 5104.583
5665.237, 5049.744
5667.166, 4985.204
5669.094, 4972.056
5671.022, 4939.419
5672.951, 4876.560
5674.879, 4854.670
5676.808, 4882.773
5678.736, 4908.459
5680.665, 4865.477
5682.593, 4814.069
5684.522, 4796.534
5686.450, 4841.991
5688.379, 4795.460
5690.307, 4752.024
5692.236, 4753.896
5694.164, 4812.352
5696.093, 4714.854
5698.021, 4704.715
5699.950, 4755.474
5701.878, 4645.685
5703.807, 4626.244
5705.735, 4579.900
5707.664, 4548.555
5709.592, 4636.271
5711.521, 4630.049
5713.449, 4609.571
5715.377, 4574.622
5717.306, 4509.868
5719.234, 4530.628
5721.163, 4511.781
5723.091, 4488.873
5725.020, 4501.745
5726.948, 4403.033
5728.876, 4416.182
5730.805, 4473.806
5732.733, 4495.842
5734.662, 4440.888
5736.590, 4412.834
5738.519, 4396.545
5740.447, 4376.897
5742.376, 4361.214
5744.304, 4317.845
5746.233, 4327.906
5748.161, 4356.660
5750.090, 4261.769
5752.018, 4252.528
5753.947, 4235.289
5755.875, 4207.444
5757.804, 4217.860
5759.732, 4264.607
5761.661, 4190.855
5763.589, 4111.400
5765.518, 4161.113
5767.446, 4100.630
5769.375, 4118.358
5771.303, 4137.948
5773.231, 4092.403
5775.160, 4032.961
5777.088, 4087.414
5779.017, 4124.671
5780.945, 4096.872
5782.874, 4073.140
5784.802, 3993.262
5786.730, 4005.110
5788.659, 4049.068
5790.587, 3970.789
5792.516, 3987.285
5794.444, 3985.318
5796.373, 3944.271
5798.301, 3885.805
5800.230, 3890.293
5802.158, 3885.572
5804.087, 3884.090
5806.015, 3887.172
5807.944, 3838.422
5809.872, 3799.677
5811.801, 3805.277
5813.729, 3820.302
5815.658, 3742.178
5817.586, 3761.738
5819.515, 3775.665
5821.443, 3760.646
5823.372, 3727.972
5825.300, 3728.939
5827.229, 3756.297
5829.157, 3753.444
5831.085, 3701.694
5833.014, 3640.647
5834.942, 3641.641
5836.871, 3590.580
5838.799, 3543.307
5840.728, 3622.890
5842.656, 3604.192
5844.584, 3625.686
5846.513, 3640.667
5848.441, 3603.271
5850.370, 3598.971
5852.298, 3548.021
5854.227, 3502.018
5856.155, 3487.234
5858.084, 3505.342
5860.012, 3471.453
5861.941, 3443.299
5863.869, 3430.175
5865.798, 3426.036
5867.726, 3456.301
5869.655, 3495.729
5871.583, 3447.263
5873.512, 3346.954
5875.440, 3380.592
5877.369, 3400.542
5879.297, 3367.707
5881.226, 3335.817
5883.154, 3354.542
5885.083, 3321.827
5887.011, 3329.945
5888.939, 3310.022
5890.868, 3253.635
5892.796, 3237.067
5894.725, 3288.927
5896.653, 3266.866
5898.582, 3236.756
5900.510, 3273.494
5902.438, 3236.623
5904.367, 3209.854
5906.295, 3203.195
5908.224, 3195.819
5910.152, 3149.691
5912.081, 3125.200
5914.009, 3148.149
5915.938, 3174.075
5917.866, 3167.447
5919.795, 3144.259
5921.723, 3147.719
5923.652, 3117.401
5925.580, 3061.996
5927.509, 3031.082
5929.437, 3031.464
5931.366, 3069.933
5933.294, 3037.217
5935.223, 2946.620
5937.151, 3012.568
5939.080, 3008.513
5941.008, 2949.719
5942.937, 2925.786
5944.865, 2984.938
5946.793, 2930.753
5948.722, 2938.124
5950.650, 2931.740
5952.579, 2900.572
5954.507, 2890.407
5956.436, 2899.949
5958.364, 2886.482
5960.292, 2860.157
5962.221, 2844.396
5964.149, 2863.033
5966.078, 2863.518
5968.006, 2867.951
5969.935, 2867.468
5971.863, 2852.577
5973.792, 2839.641
5975.720, 2813.356
5977.649, 2816.028
5979.577, 2815.701
5981.506, 2765.803
5983.434, 2707.880
5985.363, 2725.064
5987.291, 2785.860
5989.220, 2816.944
5991.148, 2743.254
5993.077, 2672.886
5995.005, 2684.755
5996.934, 2689.835
5998.862, 2666.675
6000.791, 2718.623
6002.719, 2650.870
6004.647, 2638.664
6006.576, 2653.555
6008.504, 2641.524
6010.433, 2586.491
6012.361, 2600.884
6014.290, 2608.293
6016.218, 2583.164
6018.147, 2546.629
6020.075, 2598.531
6022.004, 2633.799
6023.932, 2582.588
6025.861, 2522.711
6027.789, 2538.335
6029.718, 2576.607
6031.646, 2544.765
6033.575, 2495.733
6035.503, 2481.106
6037.432, 2517.080
6039.360, 2487.392
6041.289, 2451.806
6043.217, 2453.716
6045.146, 2465.196
6047.074, 2440.805
6049.002, 2415.535
6050.931, 2367.260
6052.859, 2339.185
6054.788, 2347.916
6056.716, 2383.611
6058.645, 2385.359
6060.573, 2381.382
6062.501, 2359.156
6064.430, 2341.393
6066.358, 2353.140
6068.287, 2338.010
6070.215, 2270.003
6072.144, 2252.612
6074.072, 2276.849
6076.001, 2283.096
6077.929, 2248.400
6079.858, 2258.995
6081.786, 2248.538
6083.715, 2244.952
6085.643, 2281.414
6087.572, 2243.803
6089.500, 2216.194
6091.429, 2212.615
6093.357, 2204.673
6095.286, 2176.885
6097.214, 2171.722
6099.143, 2212.476
6101.071, 2222.583
6103.000, 2200.212
6104.928, 2166.022
6106.856, 2130.179
6108.785, 2106.810
6110.713, 2134.073
6112.642, 2168.040
6114.570, 2171.049
6116.499, 2143.954
6118.427, 2115.023
6120.355, 2105.283
6122.284, 2098.619
6124.212, 2085.462
6126.141, 2071.256
6128.069, 2089.521
6129.998, 2045.574
6131.926, 2026.286
6133.855, 2025.117
6135.783, 2000.061
6137.712, 2050.006
6139.640, 2009.814
6141.569, 2004.669
6143.497, 1999.427
6145.426, 1949.772
6147.354, 1954.344
6149.283, 2005.750
6151.211, 1969.820
6153.140, 1948.738
6155.068, 1976.369
6156.997, 1950.783
6158.925, 1927.163
6160.854, 1906.781
6162.782, 1899.053
6164.710, 1899.477
6166.639, 1893.656
6168.567, 1857.314
6170.496, 1886.267
6172.424, 1874.725
6174.353, 1844.788
6176.281, 1845.038
6178.209, 1867.932
6180.138, 1818.377
6182.066, 1787.508
6183.995, 1787.276
6185.923, 1795.286
6187.852, 1785.863
6189.780, 1737.865
6191.709, 1780.228
6193.637, 1782.713
6195.566, 1770.192
6197.494, 1793.634
6199.423, 1787.074
6201.351, 1771.478
6203.280, 1768.120
6205.208, 1746.365
6207.137, 1719.594
6209.065, 1734.671
6210.994, 1737.958
6212.922, 1753.481
6214.851, 1749.190
6216.779, 1714.154
6218.708, 1673.854
6220.636, 1703.476
6222.564, 1682.027
6224.493, 1700.910
6226.421, 1691.140
6228.350, 1640.391
6230.278, 1596.175
6232.207, 1646.163
6234.135, 1604.449
6236.063, 1590.219
6237.992, 1600.919
6239.920, 1606.325
6241.849, 1601.044
6243.777, 1582.978
6245.706, 1617.357
6247.634, 1632.224
6249.563, 1602.967
6251.491, 1555.868
6253.420, 1543.868
6255.348, 1565.469
6257.277, 1570.482
6259.205, 1578.144
6261.134, 1557.087
6263.062, 1504.015
6264.991, 1561.970
6266.919, 1492.189
6268.848, 1486.217
6270.776, 1500.923
6272.705, 1502.653
6274.633, 1508.203
6276.562, 1500.659
6278.490, 1465.463
6280.418, 1477.637
6282.347, 1481.562
6284.275, 1452.712
6286.204, 1428.418
6288.132, 1437.180
6290.061, 1428.446
6291.989, 1430.186
6293.917, 1428.402
6295.846, 1405.268
6297.774, 1362.560
6299.703, 1408.272
6301.631, 1419.196
6303.560, 1407.518
6305.488, 1386.212
6307.417, 1369.286
6309.345, 1373.791
6311.274, 1384.140
6313.202, 1352.618
6315.131, 1340.823
6317.059, 1362.311
6318.988, 1385.704
6320.916, 1373.720
6322.845, 1380.509
6324.773, 1362.111
6326.702, 1310.375
6328.630, 1302.907
6330.559, 1327.009
6332.487, 1306.747
6334.416, 1320.720
6336.344, 1341.347
6338.272, 1316.703
6340.201, 1287.433
6342.129, 1278.594
6344.058, 1280.060
6345.986, 1280.674
6347.915, 1252.141
6349.843, 1268.924
6351.771, 1262.329
6353.700, 1254.893
6355.628, 1284.384
6357.557, 1242.617
6359.485, 1262.979
6361.414, 1254.110
6363.342, 1261.589
6365.271, 1254.466
6367.199, 1224.887
6369.128, 1269.919
6371.056, 1222.421
6372.985, 1210.506
6374.913, 1207.445
6376.842, 1176.242
6378.770, 1150.313
6380.699, 1182.734
6382.627, 1167.231
6384.556, 1219.490
6386.484, 1180.637
6388.413, 1170.439
6390.341, 1198.737
6392.270, 1193.708
6394.198, 1167.084
6396.126, 1136.659
6398.055, 1158.888
6399.983, 1167.279
6401.912, 1163.289
6403.840, 1162.093
6405.769, 1153.256
6407.697, 1133.620
6409.625, 1153.331
6411.554, 1156.850
6413.482, 1117.686
6415.411, 1109.701
6417.339, 1155.449
6419.268, 1085.080
6421.196, 1122.323
6423.125, 1106.979
6425.053, 1091.247
6426.982, 1068.847
6428.910, 1043.057
6430.839, 1045.218
6432.767, 1074.886
6434.696, 1124.419
6436.624, 1054.355
6438.553, 1050.872
6440.481, 1076.724
6442.410, 1062.274
6444.338, 1056.775
6446.267, 1055.370
6448.195, 1042.132
6450.124, 1016.863
6452.052, 1000.937
6453.980, 1005.694
6455.909, 1022.094
6457.837, 1028.474
6459.766, 1011.517
6461.694, 1011.049
6463.623, 980.5208
6465.551, 989.2903
6467.479, 1002.057
6469.408, 978.2166
6471.336, 990.4577
6473.265, 954.6937
6475.193, 976.8161
6477.122, 967.5262
6479.050, 951.7426
6480.979, 947.2519
6482.907, 951.0781
6484.836, 977.1655
6486.764, 974.9308
6488.693, 943.4168
6490.621, 958.6758
6492.550, 944.1466
6494.478, 919.8929
6496.407, 931.2488
6498.335, 932.1953
6500.264, 907.6463
6502.192, 932.2991
6504.121, 914.3812
6506.049, 871.3107
6507.978, 869.9714
6509.906, 910.1191
6511.834, 916.1707
6513.763, 900.1247
6515.691, 908.5286
6517.620, 920.1030
6519.548, 880.4138
6521.477, 870.4583
6523.405, 911.1273
6525.333, 924.9471
6527.262, 873.9813
6529.190, 878.9045
6531.119, 871.2803
6533.047, 860.2824
6534.976, 848.2129
6536.904, 844.6789
6538.833, 847.0907
6540.761, 827.1475
6542.690, 834.5867
6544.618, 871.9080
6546.547, 844.4326
6548.475, 841.2538
6550.404, 849.1693
6552.332, 841.0495
6554.261, 843.7498
6556.189, 842.2343
6558.118, 830.9712
6560.046, 822.9463
6561.975, 827.2142
6563.903, 819.9563
6565.832, 824.7698
6567.760, 839.0736
6569.688, 799.7350
6571.617, 787.3611
6573.545, 801.2919
6575.474, 793.2585
6577.402, 781.3667
6579.331, 773.2799
6581.259, 780.8568
6583.188, 799.2206
6585.116, 780.4384
6587.044, 775.4137
6588.973, 774.9158
6590.901, 766.4053
6592.830, 782.3972
6594.758, 775.8218
6596.687, 767.2205
6598.615, 781.0671
6600.544, 699.4382
6602.472, 755.8961
6604.401, 732.8597
6606.329, 744.7822
6608.258, 765.8265
6610.186, 757.3962
6612.115, 726.4370
6614.043, 710.3788
6615.972, 734.0414
6617.900, 718.6462
6619.829, 719.1854
6621.757, 694.6252
6623.686, 726.5687
6625.614, 739.8833
6627.542, 710.9294
##END=



