##NAMES=Steacyite
##RRUFFID=R130053
##IDEAL CHEMISTRY=K_0.3_(Na,Ca)_2_ThSi_8_O_20_
##LOCALITY=Mont Saint-Hilaire, Rouville RCM, Monteregie, Quebec, Canada
##OWNER=RRUFF
##SOURCE=Don Doell
##DESCRIPTION=Light-brown rectangular prism
##STATUS=The identification of this mineral has been confirmed only by single crystal X-ray diffraction
##URL=https://www.rruff.net/odr/rruff_sample/R130053
##DIFFRACTION SAMPLE DESCRIPTION=Single crystal, powder profile is calculated
##CELL PARAMETERS=a: 7.5959 b: 7.5959 c: 14.812 alpha: 90 beta: 90 gamma: 90 volume: 854.6 crystal system: tetragonal
##FILETYPE=Raman RAW
##RAMAN WAVELENGTH=532

213.6081, 218.4921
215.5366, 222.1673
217.4651, 225.0032
219.3935, 226.1355
221.3220, 227.1687
223.2505, 228.8957
225.1789, 231.3645
227.1074, 233.9588
229.0359, 236.9515
230.9643, 240.1564
232.8928, 242.3035
234.8213, 242.5404
236.7497, 242.5362
238.6782, 243.1703
240.6067, 244.4340
242.5351, 245.9965
244.4636, 247.8448
246.3921, 249.8877
248.3205, 251.7270
250.2490, 253.6197
252.1775, 255.0384
254.1059, 255.6846
256.0344, 255.0934
257.9629, 254.7717
259.8913, 255.0177
261.8198, 255.7959
263.7483, 256.7062
265.6767, 258.2175
267.6052, 259.4732
269.5337, 259.9879
271.4621, 258.6658
273.3906, 258.1656
275.3191, 259.0949
277.2475, 261.0121
279.1760, 262.6497
281.1045, 263.7669
283.0329, 264.6625
284.9614, 265.4404
286.8899, 265.8854
288.8183, 266.5081
290.7468, 267.5782
292.6753, 268.8274
294.6037, 269.7165
296.5322, 269.6533
298.4607, 269.6373
300.3891, 270.1938
302.3176, 271.5403
304.2461, 272.6022
306.1745, 273.0265
308.1030, 273.0799
310.0315, 273.2439
311.9599, 273.5436
313.8884, 273.9689
315.8169, 274.6195
317.7453, 275.5132
319.6738, 276.2746
321.6023, 276.5689
323.5307, 276.7057
325.4592, 277.1741
327.3877, 278.1619
329.3161, 279.1837
331.2446, 280.2355
333.1731, 281.3031
335.1015, 281.8990
337.0300, 281.5735
338.9585, 280.9515
340.8869, 280.7253
342.8154, 281.1501
344.7439, 281.6465
346.6723, 282.0105
348.6008, 282.2975
350.5292, 282.9661
352.4577, 284.5178
354.3862, 286.1529
356.3146, 287.1051
358.2431, 287.0822
360.1716, 287.3323
362.1000, 288.3805
364.0285, 289.9994
365.9570, 291.2137
367.8854, 291.5001
369.8139, 291.7644
371.7424, 292.6442
373.6708, 294.2146
375.5993, 295.2632
377.5278, 295.1872
379.4562, 294.5023
381.3847, 294.0873
383.3132, 294.2191
385.2416, 294.4092
387.1701, 294.5187
389.0986, 294.5912
391.0270, 294.8981
392.9555, 295.7089
394.8840, 296.6800
396.8124, 297.4724
398.7409, 297.9035
400.6694, 298.4332
402.5978, 299.1855
404.5263, 300.0814
406.4548, 300.9589
408.3832, 301.7552
410.3117, 302.5500
412.2402, 303.4047
414.1686, 304.3422
416.0971, 305.2389
418.0256, 305.9620
419.9540, 306.6548
421.8825, 307.5482
423.8110, 308.8733
425.7394, 310.1656
427.6679, 311.3374
429.5964, 312.3902
431.5248, 313.3378
433.4533, 314.2810
435.3818, 315.0779
437.3102, 315.6301
439.2387, 315.2401
441.1672, 315.4679
443.0956, 316.9742
445.0241, 319.0948
446.9526, 320.4378
448.8810, 320.2684
450.8095, 319.9594
452.7380, 320.0389
454.6664, 320.6406
456.5949, 321.0605
458.5234, 320.8621
460.4518, 320.7294
462.3803, 321.3121
464.3088, 323.2143
466.2372, 324.6612
468.1657, 324.9973
470.0942, 324.4982
472.0226, 324.6375
473.9511, 326.3093
475.8796, 327.6414
477.8080, 327.6303
479.7365, 326.0139
481.6650, 324.7936
483.5934, 324.2502
485.5219, 324.1057
487.4504, 323.9879
489.3788, 323.6388
491.3073, 323.8778
493.2358, 325.2990
495.1642, 327.5888
497.0927, 329.3967
499.0212, 330.2653
500.9496, 331.0226
502.8781, 332.1727
504.8066, 333.7262
506.7350, 334.6610
508.6635, 334.1394
510.5920, 333.2760
512.5204, 332.9879
514.4489, 333.5295
516.3774, 334.4435
518.3058, 336.2458
520.2343, 338.3848
522.1628, 339.6399
524.0912, 339.3365
526.0197, 338.9671
527.9482, 339.1619
529.8766, 340.0938
531.8051, 340.8554
533.7336, 341.2989
535.6620, 341.7089
537.5905, 342.2473
539.5190, 342.8739
541.4474, 343.6720
543.3759, 344.8300
545.3044, 346.0843
547.2328, 346.8851
549.1613, 346.6659
551.0898, 346.7191
553.0182, 347.7392
554.9467, 349.4300
556.8752, 350.6843
558.8036, 351.2398
560.7321, 351.4975
562.6606, 351.5208
564.5891, 351.2108
566.5175, 351.1867
568.4460, 351.4270
570.3745, 352.0360
572.3029, 353.1227
574.2314, 355.0431
576.1599, 356.6073
578.0883, 357.2867
580.0168, 357.4146
581.9453, 357.9773
583.8737, 359.3169
585.8022, 360.4590
587.7307, 360.9995
589.6591, 361.0189
591.5876, 360.9729
593.5161, 360.9127
595.4445, 360.8644
597.3729, 360.7865
599.3014, 360.6692
601.2299, 360.9157
603.1583, 361.9639
605.0868, 363.1809
607.0153, 363.9824
608.9437, 363.9361
610.8722, 364.2279
612.8007, 365.0787
614.7291, 366.3429
616.6576, 367.7320
618.5861, 369.3649
620.5145, 370.8741
622.4430, 372.0351
624.3715, 372.8841
626.2999, 373.8365
628.2284, 374.7360
630.1569, 375.7621
632.0853, 377.0072
634.0138, 378.4127
635.9423, 379.7396
637.8707, 381.0635
639.7992, 382.1611
641.7277, 382.9913
643.6561, 383.8075
645.5846, 383.8247
647.5131, 382.6837
649.4415, 381.0881
651.3700, 379.7410
653.2985, 378.5699
655.2269, 378.0366
657.1554, 378.6643
659.0839, 379.9614
661.0123, 381.0157
662.9408, 381.5160
664.8693, 382.0447
666.7977, 382.5558
668.7262, 383.0928
670.6547, 383.8739
672.5831, 385.1001
674.5116, 386.2273
676.4401, 387.0265
678.3685, 387.4627
680.2970, 387.8953
682.2255, 388.5124
684.1539, 388.9593
686.0824, 388.8136
688.0109, 388.1047
689.9393, 387.8539
691.8678, 388.7080
693.7963, 389.7464
695.7247, 390.3888
697.6532, 390.4881
699.5817, 390.4925
701.5101, 390.1631
703.4386, 389.9240
705.3671, 390.2879
707.2955, 391.3919
709.2240, 392.4545
711.1525, 393.1610
713.0809, 393.7247
715.0094, 394.4497
716.9379, 395.4900
718.8663, 396.5022
720.7948, 397.4105
722.7233, 398.2640
724.6517, 399.1273
726.5802, 399.8688
728.5087, 400.8649
730.4371, 402.4807
732.3656, 404.5177
734.2941, 405.9485
736.2225, 406.3021
738.1510, 406.5767
740.0795, 407.1783
742.0079, 407.9948
743.9364, 408.4458
745.8649, 408.1641
747.7933, 408.0237
749.7218, 408.3994
751.6503, 409.3366
753.5787, 410.3809
755.5072, 411.5962
757.4357, 412.8061
759.3641, 413.8628
761.2926, 414.7425
763.2211, 415.6212
765.1495, 416.6238
767.0780, 417.4600
769.0065, 417.9080
770.9349, 417.7729
772.8634, 418.0783
774.7919, 419.2486
776.7203, 420.6083
778.6488, 421.6882
780.5773, 422.5069
782.5057, 423.4630
784.4342, 424.6425
786.3627, 425.9008
788.2911, 427.1066
790.2196, 428.1801
792.1481, 429.1525
794.0765, 429.7286
796.0050, 430.3159
797.9335, 431.4984
799.8619, 433.4683
801.7904, 434.8857
803.7189, 435.1388
805.6473, 435.1055
807.5758, 435.5470
809.5043, 436.7486
811.4327, 437.7315
813.3612, 438.2816
815.2897, 438.6064
817.2181, 438.8400
819.1466, 438.8766
821.0751, 439.1118
823.0035, 439.9130
824.9320, 440.7903
826.8605, 441.2374
828.7889, 440.9916
830.7174, 441.2778
832.6459, 442.6293
834.5743, 444.3599
836.5028, 445.7196
838.4313, 446.6217
840.3597, 447.3466
842.2882, 447.6796
844.2167, 447.8827
846.1451, 448.2601
848.0736, 448.9319
850.0021, 449.1684
851.9305, 448.4873
853.8590, 447.5771
855.7875, 447.1138
857.7159, 447.3050
859.6444, 447.5721
861.5729, 448.0719
863.5013, 448.5833
865.4298, 448.8697
867.3583, 448.8849
869.2867, 449.0929
871.2152, 449.5699
873.1437, 450.2871
875.0721, 451.2712
877.0006, 452.6966
878.9291, 453.9673
880.8575, 454.8965
882.7860, 455.7954
884.7145, 457.0311
886.6429, 458.6129
888.5714, 459.7666
890.4999, 459.5970
892.4283, 459.5439
894.3568, 460.6150
896.2853, 463.3459
898.2137, 465.1764
900.1422, 465.3918
902.0707, 465.3811
903.9991, 466.0474
905.9276, 467.3452
907.8561, 468.4341
909.7845, 469.3028
911.7130, 469.9271
913.6415, 470.2401
915.5699, 470.2365
917.4984, 470.4494
919.4269, 470.6029
921.3553, 471.2235
923.2838, 472.8228
925.2123, 475.1949
927.1407, 476.8509
929.0692, 477.6150
930.9976, 477.8819
932.9261, 477.5496
934.8546, 476.8593
936.7830, 476.4358
938.7115, 476.3476
940.6400, 476.6126
942.5684, 477.6021
944.4969, 478.9702
946.4254, 479.7168
948.3538, 479.2466
950.2823, 479.2813
952.2108, 480.5493
954.1392, 482.3361
956.0677, 483.6772
957.9962, 484.3964
959.9246, 485.1572
961.8531, 486.1073
963.7816, 487.1370
965.7100, 488.1338
967.6385, 489.0096
969.5670, 489.9597
971.4954, 490.8144
973.4239, 491.8105
975.3524, 493.3876
977.2808, 495.5103
979.2093, 496.9449
981.1378, 497.1729
983.0662, 497.0902
984.9947, 497.0239
986.9232, 496.9929
988.8516, 497.7151
990.7801, 500.1734
992.7086, 502.4315
994.6370, 503.5999
996.5655, 503.9386
998.4940, 504.8194
1000.422, 506.4349
1002.351, 507.9806
1004.279, 509.2841
1006.208, 510.1756
1008.136, 510.3637
1010.065, 509.6065
1011.993, 508.7554
1013.922, 507.8007
1015.850, 507.1033
1017.779, 507.1910
1019.707, 509.0399
1021.636, 509.9065
1023.564, 508.6376
1025.493, 507.3433
1027.421, 507.9542
1029.349, 510.2144
1031.278, 511.5249
1033.206, 510.4780
1035.135, 509.5968
1037.063, 510.1309
1038.992, 511.9424
1040.920, 513.4948
1042.849, 514.8402
1044.777, 515.8460
1046.706, 516.2795
1048.634, 516.3969
1050.563, 516.8088
1052.491, 517.6694
1054.420, 518.3821
1056.348, 518.3878
1058.276, 518.4593
1060.205, 519.4760
1062.133, 521.6715
1064.062, 523.4357
1065.990, 524.3797
1067.919, 525.0106
1069.847, 525.4620
1071.776, 525.7007
1073.704, 526.2089
1075.633, 526.8332
1077.561, 527.7382
1079.490, 529.1884
1081.418, 530.8514
1083.347, 532.0055
1085.275, 532.5394
1087.203, 532.8624
1089.132, 532.9670
1091.060, 533.1458
1092.989, 533.7215
1094.917, 534.8369
1096.846, 536.2131
1098.774, 537.6506
1100.703, 539.4633
1102.631, 542.0214
1104.560, 545.2765
1106.488, 547.8196
1108.417, 549.1279
1110.345, 550.1859
1112.273, 551.4296
1114.202, 552.6462
1116.130, 553.5104
1118.059, 554.1667
1119.987, 554.3199
1121.916, 553.6859
1123.844, 552.8515
1125.773, 552.2970
1127.701, 552.0510
1129.630, 552.1701
1131.558, 552.8851
1133.487, 553.6321
1135.415, 553.9304
1137.344, 553.8784
1139.272, 554.3803
1141.200, 555.8528
1143.129, 556.9036
1145.057, 556.5208
1146.986, 555.5882
1148.914, 555.1857
1150.843, 555.2999
1152.771, 555.9883
1154.700, 558.3132
1156.628, 560.3024
1158.557, 560.5807
1160.485, 559.0744
1162.414, 558.1446
1164.342, 557.7621
1166.271, 558.0244
1168.199, 559.6450
1170.127, 561.8087
1172.056, 562.6973
1173.984, 561.9013
1175.913, 561.9401
1177.841, 564.1956
1179.770, 566.7870
1181.698, 568.3339
1183.627, 568.8324
1185.555, 569.3557
1187.484, 569.7020
1189.412, 570.3237
1191.341, 571.5261
1193.269, 573.0030
1195.198, 574.1176
1197.126, 574.9342
1199.054, 575.2551
1200.983, 574.4861
1202.911, 573.7465
1204.840, 574.1232
1206.768, 575.5036
1208.697, 576.5413
1210.625, 576.7736
1212.554, 577.3126
1214.482, 578.9603
1216.411, 581.0714
1218.339, 582.6307
1220.268, 583.5848
1222.196, 584.0734
1224.125, 583.2088
1226.053, 582.7505
1227.981, 584.3326
1229.910, 587.9733
1231.838, 589.8617
1233.767, 588.4828
1235.695, 587.5316
1237.624, 587.9041
1239.552, 589.0540
1241.481, 590.2652
1243.409, 591.5221
1245.338, 592.7137
1247.266, 593.5596
1249.195, 594.6455
1251.123, 596.7222
1253.052, 599.3388
1254.980, 600.8768
1256.908, 600.6954
1258.837, 600.8054
1260.765, 602.1409
1262.694, 603.5450
1264.622, 603.8615
1266.551, 602.7858
1268.479, 602.2020
1270.408, 601.9817
1272.336, 602.4026
1274.265, 604.2565
1276.193, 606.7308
1278.122, 607.9398
1280.050, 607.5143
1281.979, 607.9719
1283.907, 610.4869
1285.835, 613.1544
1287.764, 614.6087
1289.692, 615.1718
1291.621, 615.9634
1293.549, 617.0623
1295.478, 618.1691
1297.406, 619.2803
1299.335, 620.3128
1301.263, 621.2843
1303.192, 622.2917
1305.120, 622.8583
1307.049, 622.7652
1308.977, 622.5831
1310.906, 622.3064
1312.834, 622.1200
1314.762, 622.3443
1316.691, 623.1140
1318.619, 623.8818
1320.548, 624.6591
1322.476, 625.3567
1324.405, 625.7646
1326.333, 626.0557
1328.262, 626.6841
1330.190, 627.7028
1332.119, 628.8648
1334.047, 630.3625
1335.976, 631.7906
1337.904, 632.9717
1339.833, 633.9020
1341.761, 634.4305
1343.689, 634.2182
1345.618, 634.1953
1347.546, 634.3918
1349.475, 634.9314
1351.403, 636.0729
1353.332, 637.9268
1355.260, 639.5422
1357.189, 640.6505
1359.117, 642.0212
1361.046, 644.1277
1362.974, 646.4293
1364.903, 648.1393
1366.831, 649.0492
1368.760, 650.0098
1370.688, 651.1342
1372.616, 651.9740
1374.545, 652.3866
1376.473, 652.4304
1378.402, 652.2296
1380.330, 651.8701
1382.259, 651.5478
1384.187, 651.2361
1386.116, 651.2831
1388.044, 651.8226
1389.973, 652.8156
1391.901, 654.3998
1393.830, 656.7942
1395.758, 658.3757
1397.687, 657.8946
1399.615, 657.4936
1401.543, 658.3083
1403.472, 659.8719
1405.400, 660.8304
1407.329, 660.8610
1409.257, 661.0463
1411.186, 661.6777
1413.114, 662.2980
1415.043, 662.4622
1416.971, 662.4409
1418.900, 663.1269
1420.828, 664.6098
1422.757, 666.4057
1424.685, 669.2155
1426.614, 671.5135
1428.542, 671.8492
1430.470, 671.0380
1432.399, 671.5939
1434.327, 673.9182
1436.256, 675.9552
1438.184, 677.0587
1440.113, 678.0417
1442.041, 679.2964
1443.970, 680.7094
1445.898, 682.1373
1447.827, 683.5529
1449.755, 684.6068
1451.684, 685.0603
1453.612, 685.2707
1455.541, 685.4252
1457.469, 685.5918
1459.397, 685.8690
1461.326, 686.3654
1463.254, 687.0778
1465.183, 688.5025
1467.111, 689.7130
1469.040, 689.9560
1470.968, 689.6964
1472.897, 690.1140
1474.825, 691.4280
1476.754, 692.8547
1478.682, 694.4928
1480.611, 696.1010
1482.539, 697.5607
1484.468, 698.9427
1486.396, 700.2847
1488.324, 701.3873
1490.253, 703.0559
1492.181, 705.7183
1494.110, 708.2150
1496.038, 710.3405
1497.967, 711.8785
1499.895, 712.4690
1501.824, 712.1790
1503.752, 711.6144
1505.681, 710.5532
1507.609, 710.0693
1509.538, 711.1068
1511.466, 712.7266
1513.395, 714.0656
1515.323, 715.1497
1517.251, 715.9205
1519.180, 715.9492
1521.108, 716.5019
1523.037, 718.1788
1524.965, 720.0518
1526.894, 721.5591
1528.822, 722.5976
1530.751, 723.0398
1532.679, 722.9776
1534.608, 722.2374
1536.536, 719.4164
1538.465, 717.9433
1540.393, 720.9982
1542.322, 726.7062
1544.250, 729.5424
1546.178, 728.5095
1548.107, 728.6153
1550.035, 730.7813
1551.964, 733.2098
1553.892, 735.2549
1555.821, 736.9363
1557.749, 738.3593
1559.678, 739.4896
1561.606, 740.5775
1563.535, 741.9262
1565.463, 743.1210
1567.392, 743.7755
1569.320, 744.6758
1571.249, 746.8044
1573.177, 749.9094
1575.105, 751.9336
1577.034, 751.7480
1578.962, 752.0478
1580.891, 753.2057
1582.819, 754.6346
1584.748, 756.2720
1586.676, 758.0826
1588.605, 759.8333
1590.533, 761.4782
1592.462, 763.7011
1594.390, 766.5686
1596.319, 769.8288
1598.247, 773.8058
1600.176, 777.6025
1602.104, 780.1542
1604.032, 781.4053
1605.961, 782.3716
1607.889, 782.9636
1609.818, 783.3992
1611.746, 784.2300
1613.675, 784.5486
1615.603, 783.9427
1617.532, 782.5352
1619.460, 780.0432
1621.389, 776.2451
1623.317, 774.4535
1625.246, 776.3389
1627.174, 778.0401
1629.103, 777.3183
1631.031, 776.2935
1632.959, 777.5677
1634.888, 780.4514
1636.816, 781.7855
1638.745, 780.9969
1640.673, 780.4809
1642.602, 780.9972
1644.530, 781.7588
1646.459, 782.5992
1648.387, 783.3914
1650.316, 783.7903
1652.244, 783.8149
1654.173, 784.1202
1656.101, 784.5219
1658.030, 785.6089
1659.958, 788.4561
1661.886, 791.0665
1663.815, 791.3390
1665.743, 790.4106
1667.672, 791.2737
1669.600, 794.3475
1671.529, 796.2227
1673.457, 795.6046
1675.386, 795.3431
1677.314, 796.8704
1679.243, 799.1428
1681.171, 801.3406
1683.100, 803.3391
1685.028, 804.6603
1686.957, 804.9234
1688.885, 805.9704
1690.813, 809.0824
1692.742, 811.6691
1694.670, 811.9029
1696.599, 811.2625
1698.527, 811.4571
1700.456, 812.4174
1702.384, 813.4992
1704.313, 814.7988
1706.241, 815.8269
1708.170, 816.4980
1710.098, 816.9201
1712.027, 816.8284
1713.955, 816.8124
1715.884, 817.7167
1717.812, 819.5082
1719.740, 821.5372
1721.669, 823.7460
1723.597, 825.9836
1725.526, 828.4821
1727.454, 830.4371
1729.383, 831.1094
1731.311, 830.9128
1733.240, 830.4277
1735.168, 829.7111
1737.097, 829.0749
1739.025, 828.4933
1740.954, 828.5240
1742.882, 829.8801
1744.811, 831.3748
1746.739, 831.9625
1748.667, 832.3681
1750.596, 833.9788
1752.524, 836.6711
1754.453, 838.4567
1756.381, 838.8301
1758.310, 839.3478
1760.238, 840.3032
1762.167, 841.6563
1764.095, 843.6508
1766.024, 845.7560
1767.952, 846.9591
1769.880, 847.3185
1771.809, 848.3301
1773.737, 850.3534
1775.666, 852.0999
1777.594, 853.4660
1779.523, 854.4000
1781.451, 854.8580
1783.380, 855.0363
1785.308, 855.1320
1787.237, 855.1553
1789.165, 855.0354
1791.094, 854.6443
1793.022, 854.4730
1794.951, 854.9577
1796.879, 855.2036
1798.807, 854.3305
1800.736, 853.4941
1802.664, 854.0774
1804.593, 855.8464
1806.521, 857.5676
1808.450, 859.3310
1810.378, 860.5516
1812.307, 860.3199
1814.235, 860.5751
1816.164, 862.0939
1818.092, 863.9205
1820.021, 865.5780
1821.949, 866.9330
1823.878, 867.5818
1825.806, 867.4653
1827.734, 867.4434
1829.663, 867.2559
1831.591, 867.8080
1833.520, 869.9758
1835.448, 872.0772
1837.377, 873.0033
1839.305, 873.3752
1841.234, 874.1410
1843.162, 875.1924
1845.091, 875.4377
1847.019, 873.9451
1848.948, 873.8327
1850.876, 877.1823
1852.805, 879.5906
1854.733, 879.1673
1856.661, 878.1879
1858.590, 878.3593
1860.518, 879.4420
1862.447, 880.8451
1864.375, 882.5787
1866.304, 884.0361
1868.232, 885.1160
1870.161, 885.9099
1872.089, 885.9599
1874.018, 886.3415
1875.946, 887.9599
1877.875, 889.9280
1879.803, 891.1611
1881.732, 891.8954
1883.660, 893.2820
1885.589, 895.4833
1887.517, 896.3717
1889.445, 894.8590
1891.374, 893.8958
1893.302, 894.9720
1895.231, 896.3964
1897.159, 897.3856
1899.088, 897.9716
1901.016, 897.8307
1902.945, 897.1976
1904.873, 897.8065
1906.802, 900.1306
1908.730, 901.9098
1910.659, 902.3994
1912.587, 902.9291
1914.516, 903.8453
1916.444, 904.9279
1918.372, 906.0953
1920.301, 907.3279
1922.229, 908.4873
1924.158, 909.5715
1926.086, 911.0712
1928.015, 913.3317
1929.943, 915.1428
1931.872, 916.1866
1933.800, 916.9998
1935.729, 917.7511
1937.657, 918.2597
1939.586, 918.2054
1941.514, 918.0615
1943.443, 918.9991
1945.371, 920.9363
1947.299, 921.0260
1949.228, 918.5162
1951.156, 917.8902
1953.085, 920.6558
1955.013, 923.3644
1956.942, 924.9860
1958.870, 925.9818
1960.799, 926.0862
1962.727, 926.1746
1964.656, 927.7666
1966.584, 930.3746
1968.513, 931.4968
1970.441, 930.6521
1972.370, 931.3088
1974.298, 934.9764
1976.226, 937.6676
1978.155, 937.8560
1980.083, 937.5253
1982.012, 937.6854
1983.940, 938.0180
1985.869, 937.8738
1987.797, 937.6325
1989.726, 938.7569
1991.654, 941.6279
1993.583, 943.3502
1995.511, 942.7255
1997.440, 943.0446
1999.368, 945.8348
2001.297, 947.8939
2003.225, 947.8686
2005.153, 947.2720
2007.082, 947.2080
2009.010, 947.4196
2010.939, 947.2097
2012.867, 946.8284
2014.796, 947.5806
2016.724, 949.6021
2018.653, 951.6585
2020.581, 953.5256
2022.510, 955.3333
2024.438, 957.0559
2026.367, 958.6696
2028.295, 959.9451
2030.224, 961.2512
2032.152, 963.5756
2034.080, 966.0684
2036.009, 966.3231
2037.937, 964.2764
2039.866, 963.2287
2041.794, 963.8286
2043.723, 964.1834
2045.651, 963.6462
2047.580, 963.8629
2049.508, 965.5092
2051.437, 967.5051
2053.365, 969.8961
2055.294, 971.8313
2057.222, 972.0967
2059.151, 971.2870
2061.079, 970.8693
2063.008, 970.8784
2064.936, 971.5037
2066.865, 972.8881
2068.793, 974.3206
2070.721, 975.4987
2072.650, 977.2307
2074.578, 980.8787
2076.507, 983.6406
2078.435, 982.2947
2080.364, 980.7995
2082.292, 984.4294
2084.220, 990.2890
2086.149, 991.6426
2088.077, 988.6732
2090.006, 986.6886
2091.934, 985.9899
2093.863, 985.6486
2095.791, 985.4225
2097.720, 986.1603
2099.648, 988.8851
2101.577, 991.0733
2103.505, 991.1100
2105.434, 990.8044
2107.362, 991.7987
2109.291, 993.1882
2111.219, 993.4680
2113.147, 993.2188
2115.076, 994.3406
2117.004, 996.8981
2118.933, 998.9476
2120.861, 999.9287
2122.790, 1000.821
2124.718, 1001.563
2126.647, 1001.892
2128.575, 1001.614
2130.504, 1001.104
2132.432, 1001.153
2134.361, 1000.923
2136.289, 999.2227
2138.218, 997.2086
2140.146, 996.8594
2142.074, 997.9895
2144.003, 999.9748
2145.931, 1002.692
2147.860, 1003.575
2149.788, 1001.583
2151.717, 1000.621
2153.645, 1001.913
2155.574, 1003.397
2157.502, 1004.906
2159.431, 1006.069
2161.359, 1006.461
2163.288, 1006.762
2165.216, 1007.342
2167.145, 1008.372
2169.073, 1010.536
2171.001, 1013.438
2172.930, 1014.888
2174.858, 1014.796
2176.787, 1014.327
2178.715, 1013.283
2180.644, 1013.331
2182.572, 1015.332
2184.501, 1016.804
2186.429, 1016.563
2188.358, 1016.502
2190.286, 1018.116
2192.215, 1019.583
2194.143, 1019.044
2196.072, 1018.075
2198.000, 1018.883
2199.928, 1020.696
2201.857, 1021.485
2203.785, 1021.283
2205.714, 1021.279
2207.642, 1021.493
2209.571, 1022.120
2211.499, 1023.336
2213.428, 1024.384
2215.356, 1024.748
2217.285, 1025.842
2219.213, 1029.060
2221.142, 1031.680
2223.070, 1031.617
2224.999, 1031.302
2226.927, 1032.932
2228.855, 1035.091
2230.784, 1036.001
2232.712, 1036.119
2234.641, 1036.268
2236.569, 1036.595
2238.498, 1038.510
2240.426, 1042.048
2242.355, 1044.120
2244.283, 1044.254
2246.212, 1044.019
2248.140, 1043.491
2250.069, 1043.037
2251.997, 1042.151
2253.926, 1042.343
2255.854, 1045.320
2257.782, 1048.129
2259.711, 1048.795
2261.639, 1048.636
2263.568, 1048.595
2265.496, 1048.657
2267.425, 1048.766
2269.353, 1049.045
2271.282, 1050.212
2273.210, 1052.093
2275.139, 1052.779
2277.067, 1052.147
2278.996, 1052.754
2280.924, 1055.610
2282.853, 1057.095
2284.781, 1055.480
2286.709, 1054.442
2288.638, 1054.463
2290.566, 1055.008
2292.495, 1055.982
2294.423, 1057.450
2296.352, 1060.260
2298.280, 1062.847
2300.209, 1063.762
2302.137, 1064.028
2304.066, 1064.727
2305.994, 1065.701
2307.923, 1066.676
2309.851, 1067.568
2311.780, 1068.092
2313.708, 1068.142
2315.636, 1068.962
2317.565, 1070.901
2319.493, 1071.849
2321.422, 1071.543
2323.350, 1071.412
2325.279, 1071.978
2327.207, 1072.178
2329.136, 1071.218
2331.064, 1070.853
2332.993, 1071.529
2334.921, 1073.131
2336.850, 1076.466
2338.778, 1079.491
2340.707, 1080.045
2342.635, 1079.906
2344.563, 1081.394
2346.492, 1083.500
2348.420, 1084.208
2350.349, 1084.265
2352.277, 1085.914
2354.206, 1088.740
2356.134, 1089.614
2358.063, 1088.121
2359.991, 1088.672
2361.920, 1092.278
2363.848, 1094.240
2365.777, 1093.514
2367.705, 1093.838
2369.634, 1096.224
2371.562, 1098.193
2373.490, 1099.255
2375.419, 1100.075
2377.347, 1100.370
2379.276, 1101.293
2381.204, 1103.527
2383.133, 1106.288
2385.061, 1109.576
2386.990, 1112.654
2388.918, 1114.419
2390.847, 1116.040
2392.775, 1119.332
2394.704, 1123.286
2396.632, 1125.950
2398.561, 1127.655
2400.489, 1128.914
2402.417, 1129.992
2404.346, 1132.995
2406.274, 1138.093
2408.203, 1141.346
2410.131, 1142.437
2412.060, 1143.745
2413.988, 1145.270
2415.917, 1147.203
2417.845, 1149.363
2419.774, 1152.283
2421.702, 1156.306
2423.631, 1159.877
2425.559, 1161.808
2427.488, 1164.428
2429.416, 1169.475
2431.344, 1173.928
2433.273, 1176.279
2435.201, 1178.126
2437.130, 1180.126
2439.058, 1182.010
2440.987, 1183.703
2442.915, 1185.089
2444.844, 1186.055
2446.772, 1186.861
2448.701, 1188.182
2450.629, 1189.495
2452.558, 1189.155
2454.486, 1188.225
2456.415, 1189.952
2458.343, 1193.486
2460.271, 1194.699
2462.200, 1193.962
2464.128, 1194.438
2466.057, 1196.030
2467.985, 1196.038
2469.914, 1194.214
2471.842, 1191.709
2473.771, 1188.009
2475.699, 1185.857
2477.628, 1185.672
2479.556, 1186.144
2481.485, 1187.518
2483.413, 1187.716
2485.342, 1185.231
2487.270, 1184.141
2489.198, 1186.675
2491.127, 1188.811
2493.055, 1189.246
2494.984, 1189.827
2496.912, 1190.957
2498.841, 1192.829
2500.769, 1195.813
2502.698, 1198.989
2504.626, 1202.212
2506.555, 1204.694
2508.483, 1205.137
2510.412, 1205.392
2512.340, 1208.018
2514.269, 1210.538
2516.197, 1209.531
2518.125, 1207.727
2520.054, 1208.762
2521.982, 1210.993
2523.911, 1211.943
2525.839, 1212.245
2527.768, 1213.505
2529.696, 1215.017
2531.625, 1214.955
2533.553, 1213.731
2535.482, 1212.492
2537.410, 1211.421
2539.339, 1210.939
2541.267, 1211.002
2543.196, 1211.564
2545.124, 1212.432
2547.052, 1212.470
2548.981, 1211.495
2550.909, 1209.197
2552.838, 1205.143
2554.766, 1202.736
2556.695, 1202.346
2558.623, 1201.693
2560.552, 1200.674
2562.480, 1199.886
2564.409, 1199.542
2566.337, 1199.391
2568.266, 1199.998
2570.194, 1199.493
2572.123, 1196.823
2574.051, 1195.740
2575.979, 1197.073
2577.908, 1198.988
2579.836, 1201.363
2581.765, 1203.360
2583.693, 1204.571
2585.622, 1205.558
2587.550, 1206.245
2589.479, 1206.898
2591.407, 1207.447
2593.336, 1208.075
2595.264, 1208.956
2597.193, 1209.660
2599.121, 1210.069
2601.050, 1210.244
2602.978, 1209.998
2604.906, 1210.041
2606.835, 1210.777
2608.763, 1212.059
2610.692, 1214.410
2612.620, 1216.450
2614.549, 1216.375
2616.477, 1216.835
2618.406, 1220.502
2620.334, 1224.098
2622.263, 1224.669
2624.191, 1224.931
2626.120, 1227.668
2628.048, 1230.328
2629.977, 1229.880
2631.905, 1229.696
2633.833, 1233.415
2635.762, 1237.898
2637.690, 1240.543
2639.619, 1241.623
2641.547, 1240.437
2643.476, 1238.997
2645.404, 1240.153
2647.333, 1241.801
2649.261, 1241.410
2651.190, 1240.468
2653.118, 1240.634
2655.047, 1241.394
2656.975, 1242.191
2658.904, 1242.813
2660.832, 1242.811
2662.760, 1242.570
2664.689, 1242.975
2666.617, 1243.298
2668.546, 1242.208
2670.474, 1240.603
2672.403, 1239.967
2674.331, 1239.836
2676.260, 1239.564
2678.188, 1239.139
2680.117, 1237.988
2682.045, 1237.041
2683.974, 1238.455
2685.902, 1240.723
2687.831, 1241.145
2689.759, 1240.338
2691.688, 1239.061
2693.616, 1237.705
2695.544, 1236.937
2697.473, 1236.650
2699.401, 1237.048
2701.330, 1237.603
2703.258, 1237.072
2705.187, 1236.073
2707.115, 1235.504
2709.044, 1235.374
2710.972, 1235.811
2712.901, 1236.498
2714.829, 1236.900
2716.758, 1237.207
2718.686, 1237.563
2720.615, 1238.291
2722.543, 1240.365
2724.471, 1242.826
2726.400, 1244.026
2728.328, 1244.650
2730.257, 1245.865
2732.185, 1247.111
2734.114, 1247.828
2736.042, 1247.848
2737.971, 1246.128
2739.899, 1244.472
2741.828, 1245.650
2743.756, 1247.975
2745.685, 1249.538
2747.613, 1250.393
2749.542, 1250.320
2751.470, 1249.691
2753.398, 1248.664
2755.327, 1247.660
2757.255, 1246.812
2759.184, 1246.796
2761.112, 1249.324
2763.041, 1252.172
2764.969, 1253.175
2766.898, 1253.373
2768.826, 1253.278
2770.755, 1253.115
2772.683, 1251.966
2774.612, 1251.969
2776.540, 1256.627
2778.469, 1260.669
2780.397, 1259.775
2782.325, 1257.700
2784.254, 1256.207
2786.182, 1255.425
2788.111, 1256.227
2790.039, 1256.927
2791.968, 1256.583
2793.896, 1256.216
2795.825, 1256.658
2797.753, 1256.798
2799.682, 1255.209
2801.610, 1254.549
2803.539, 1256.117
2805.467, 1258.255
2807.396, 1260.782
2809.324, 1262.650
2811.252, 1263.125
2813.181, 1263.404
2815.109, 1264.386
2817.038, 1264.257
2818.966, 1262.188
2820.895, 1260.952
2822.823, 1261.507
2824.752, 1261.696
2826.680, 1260.308
2828.609, 1260.697
2830.537, 1264.181
2832.466, 1266.620
2834.394, 1267.579
2836.323, 1268.094
2838.251, 1268.182
2840.179, 1268.275
2842.108, 1268.124
2844.036, 1269.540
2845.965, 1272.680
2847.893, 1275.906
2849.822, 1279.079
2851.750, 1280.985
2853.679, 1281.528
2855.607, 1281.665
2857.536, 1281.489
2859.464, 1282.488
2861.393, 1284.478
2863.321, 1286.738
2865.250, 1289.166
2867.178, 1290.898
2869.106, 1292.536
2871.035, 1295.981
2872.963, 1299.920
2874.892, 1301.394
2876.820, 1301.768
2878.749, 1302.874
2880.677, 1304.235
2882.606, 1305.838
2884.534, 1306.929
2886.463, 1306.353
2888.391, 1305.463
2890.320, 1304.947
2892.248, 1304.900
2894.177, 1305.897
2896.105, 1306.559
2898.033, 1304.629
2899.962, 1304.885
2901.890, 1311.013
2903.819, 1316.157
2905.747, 1316.451
2907.676, 1317.488
2909.604, 1321.226
2911.533, 1323.725
2913.461, 1324.071
2915.390, 1324.394
2917.318, 1325.388
2919.247, 1325.686
2921.175, 1324.946
2923.104, 1324.882
2925.032, 1325.528
2926.960, 1326.871
2928.889, 1328.869
2930.817, 1331.386
2932.746, 1334.239
2934.674, 1333.716
2936.603, 1330.877
2938.531, 1330.455
2940.460, 1331.416
2942.388, 1330.618
2944.317, 1329.125
2946.245, 1329.075
2948.174, 1329.732
2950.102, 1330.498
2952.031, 1330.853
2953.959, 1329.358
2955.887, 1328.288
2957.816, 1330.107
2959.744, 1332.169
2961.673, 1333.310
2963.601, 1333.665
2965.530, 1332.743
2967.458, 1332.029
2969.387, 1331.716
2971.315, 1332.877
2973.244, 1336.979
2975.172, 1337.914
2977.101, 1333.204
2979.029, 1329.082
2980.958, 1325.479
2982.886, 1325.016
2984.814, 1327.598
2986.743, 1328.368
2988.671, 1327.049
2990.600, 1324.830
2992.528, 1322.102
2994.457, 1321.155
2996.385, 1321.341
2998.314, 1320.767
3000.242, 1320.195
3002.171, 1321.308
3004.099, 1322.635
3006.028, 1321.675
3007.956, 1320.832
3009.885, 1322.137
3011.813, 1323.881
3013.741, 1324.479
3015.670, 1326.023
3017.598, 1330.068
3019.527, 1333.120
3021.455, 1334.103
3023.384, 1333.950
3025.312, 1332.007
3027.241, 1330.734
3029.169, 1330.253
3031.098, 1330.592
3033.026, 1331.865
3034.955, 1333.598
3036.883, 1335.731
3038.812, 1336.602
3040.740, 1336.696
3042.668, 1337.709
3044.597, 1339.191
3046.525, 1339.802
3048.454, 1340.779
3050.382, 1344.591
3052.311, 1348.640
3054.239, 1350.193
3056.168, 1352.166
3058.096, 1357.425
3060.025, 1361.751
3061.953, 1363.416
3063.882, 1364.637
3065.810, 1365.967
3067.739, 1366.819
3069.667, 1366.785
3071.595, 1367.359
3073.524, 1368.637
3075.452, 1368.425
3077.381, 1366.654
3079.309, 1364.344
3081.238, 1361.646
3083.166, 1359.153
3085.095, 1357.088
3087.023, 1356.560
3088.952, 1356.096
3090.880, 1353.878
3092.809, 1351.245
3094.737, 1349.301
3096.666, 1347.611
3098.594, 1345.391
3100.522, 1344.440
3102.451, 1346.298
3104.379, 1347.227
3106.308, 1346.497
3108.236, 1345.851
3110.165, 1345.373
3112.093, 1345.622
3114.022, 1346.615
3115.950, 1347.640
3117.879, 1348.502
3119.807, 1348.187
3121.736, 1347.448
3123.664, 1347.493
3125.593, 1348.132
3127.521, 1349.166
3129.449, 1350.437
3131.378, 1351.639
3133.306, 1353.191
3135.235, 1355.538
3137.163, 1357.300
3139.092, 1358.097
3141.020, 1358.225
3142.949, 1357.236
3144.877, 1357.496
3146.806, 1358.893
3148.734, 1358.806
3150.663, 1357.628
3152.591, 1357.421
3154.520, 1357.808
3156.448, 1357.512
3158.376, 1357.752
3160.305, 1360.717
3162.233, 1363.481
3164.162, 1363.158
3166.090, 1362.931
3168.019, 1363.729
3169.947, 1364.638
3171.876, 1364.984
3173.804, 1366.215
3175.733, 1368.593
3177.661, 1369.152
3179.590, 1368.081
3181.518, 1367.571
3183.447, 1367.618
3185.375, 1368.165
3187.303, 1368.592
3189.232, 1367.242
3191.160, 1366.141
3193.089, 1367.460
3195.017, 1368.815
3196.946, 1368.881
3198.874, 1369.455
3200.803, 1371.694
3202.731, 1373.020
3204.660, 1372.965
3206.588, 1374.032
3208.517, 1376.103
3210.445, 1377.141
3212.374, 1377.324
3214.302, 1377.321
3216.230, 1377.324
3218.159, 1377.544
3220.087, 1378.150
3222.016, 1380.703
3223.944, 1381.146
3225.873, 1376.082
3227.801, 1373.899
3229.730, 1379.014
3231.658, 1380.754
3233.587, 1377.996
3235.515, 1376.709
3237.444, 1377.111
3239.372, 1379.353
3241.301, 1382.313
3243.229, 1382.228
3245.157, 1382.193
3247.086, 1386.495
3249.014, 1390.499
3250.943, 1390.763
3252.871, 1390.393
3254.800, 1390.354
3256.728, 1390.016
3258.657, 1389.652
3260.585, 1388.145
3262.514, 1385.815
3264.442, 1387.304
3266.371, 1390.732
3268.299, 1389.253
3270.228, 1387.187
3272.156, 1392.206
3274.084, 1397.116
3276.013, 1396.589
3277.941, 1395.684
3279.870, 1396.697
3281.798, 1396.879
3283.727, 1395.940
3285.655, 1395.365
3287.584, 1395.331
3289.512, 1396.601
3291.441, 1398.738
3293.369, 1401.182
3295.298, 1402.890
3297.226, 1401.915
3299.155, 1400.518
3301.083, 1399.746
3303.011, 1399.599
3304.940, 1400.604
3306.868, 1401.287
3308.797, 1401.630
3310.725, 1401.338
3312.654, 1400.736
3314.582, 1402.343
3316.511, 1404.673
3318.439, 1403.700
3320.368, 1402.213
3322.296, 1402.186
3324.225, 1403.666
3326.153, 1408.349
3328.082, 1409.942
3330.010, 1405.978
3331.938, 1405.499
3333.867, 1409.294
3335.795, 1412.080
3337.724, 1413.406
3339.652, 1411.308
3341.581, 1408.408
3343.509, 1408.041
3345.438, 1409.016
3347.366, 1411.901
3349.295, 1413.803
3351.223, 1414.508
3353.152, 1412.306
3355.080, 1407.195
3357.009, 1405.707
3358.937, 1407.254
3360.865, 1409.246
3362.794, 1410.920
3364.722, 1410.414
3366.651, 1410.236
3368.579, 1412.375
3370.508, 1415.072
3372.436, 1418.350
3374.365, 1419.524
3376.293, 1417.809
3378.222, 1416.839
3380.150, 1416.469
3382.079, 1415.943
3384.007, 1415.561
3385.936, 1415.592
3387.864, 1416.257
3389.792, 1417.996
3391.721, 1419.533
3393.649, 1419.994
3395.578, 1421.578
3397.506, 1424.338
3399.435, 1424.467
3401.363, 1423.252
3403.292, 1426.277
3405.220, 1430.299
3407.148, 1431.061
3409.077, 1431.333
3411.005, 1432.931
3412.934, 1433.810
3414.862, 1433.518
3416.791, 1432.613
3418.719, 1431.264
3420.648, 1430.524
3422.576, 1430.685
3424.505, 1432.688
3426.433, 1435.077
3428.362, 1437.250
3430.290, 1437.382
3432.219, 1432.949
3434.147, 1432.210
3436.075, 1437.434
3438.004, 1437.844
3439.932, 1434.666
3441.861, 1434.698
3443.789, 1435.887
3445.718, 1434.770
3447.646, 1433.922
3449.575, 1435.383
3451.503, 1437.017
3453.432, 1438.649
3455.360, 1438.557
3457.289, 1436.965
3459.217, 1440.025
3461.146, 1444.786
3463.074, 1443.710
3465.002, 1441.418
3466.931, 1441.686
3468.859, 1441.964
3470.788, 1441.448
3472.716, 1441.388
3474.645, 1441.940
3476.573, 1440.769
3478.502, 1438.758
3480.430, 1439.433
3482.359, 1440.825
3484.287, 1441.202
3486.216, 1441.553
3488.144, 1442.393
3490.073, 1442.893
3492.001, 1442.455
3493.929, 1444.228
3495.858, 1446.866
3497.786, 1446.122
3499.715, 1443.971
3501.643, 1442.287
3503.572, 1441.523
3505.500, 1442.629
3507.429, 1443.286
3509.357, 1443.206
3511.286, 1442.610
3513.214, 1442.139
3515.143, 1445.344
3517.071, 1448.678
3519.000, 1446.779
3520.928, 1445.417
3522.856, 1448.145
3524.785, 1450.782
3526.713, 1453.030
3528.642, 1453.559
3530.570, 1452.893
3532.499, 1452.747
3534.427, 1452.701
3536.356, 1451.792
3538.284, 1451.671
3540.213, 1453.756
3542.141, 1453.807
3544.070, 1451.456
3545.998, 1453.601
3547.927, 1458.363
3549.855, 1459.343
3551.783, 1459.304
3553.712, 1460.449
3555.640, 1461.377
3557.569, 1461.710
3559.497, 1460.487
3561.426, 1457.648
3563.354, 1456.255
3565.283, 1456.021
3567.211, 1456.796
3569.140, 1457.620
3571.068, 1457.753
3572.997, 1458.088
3574.925, 1458.938
3576.854, 1459.584
3578.782, 1460.075
3580.710, 1460.398
3582.639, 1461.207
3584.567, 1464.346
3586.496, 1466.188
3588.424, 1464.131
3590.353, 1464.755
3592.281, 1469.679
3594.210, 1471.472
3596.138, 1471.037
3598.067, 1470.103
3599.995, 1469.679
3601.924, 1471.353
3603.852, 1471.922
3605.781, 1469.537
3607.709, 1468.139
3609.637, 1467.990
3611.566, 1471.219
3613.494, 1474.959
3615.423, 1474.847
3617.351, 1473.785
3619.280, 1472.941
3621.208, 1471.595
3623.137, 1469.668
3625.065, 1468.246
3626.994, 1467.475
3628.922, 1467.630
3630.851, 1468.478
3632.779, 1470.143
3634.708, 1471.370
3636.636, 1471.611
3638.564, 1472.511
3640.493, 1473.495
3642.421, 1472.160
3644.350, 1469.824
3646.278, 1467.003
3648.207, 1465.913
3650.135, 1469.162
3652.064, 1469.811
3653.992, 1468.241
3655.921, 1469.596
3657.849, 1471.419
3659.778, 1468.289
3661.706, 1466.365
3663.635, 1471.307
3665.563, 1470.597
3667.491, 1463.845
3669.420, 1465.471
3671.348, 1471.064
3673.277, 1471.664
3675.205, 1471.073
3677.134, 1471.754
3679.062, 1471.609
3680.991, 1470.467
3682.919, 1471.331
3684.848, 1472.946
3686.776, 1470.217
3688.705, 1468.630
3690.633, 1473.492
3692.562, 1476.961
3694.490, 1477.610
3696.418, 1475.516
3698.347, 1472.270
3700.275, 1472.794
3702.204, 1474.847
3704.132, 1478.170
3706.061, 1478.481
3707.989, 1474.234
3709.918, 1472.999
3711.846, 1473.762
3713.775, 1471.902
3715.703, 1469.457
3717.632, 1467.331
3719.560, 1467.380
3721.489, 1470.670
3723.417, 1472.800
3725.345, 1473.609
3727.274, 1471.849
3729.202, 1471.237
3731.131, 1475.758
3733.059, 1479.296
3734.988, 1480.127
3736.916, 1479.535
3738.845, 1477.974
3740.773, 1476.737
3742.702, 1475.838
3744.630, 1475.000
3746.559, 1475.999
3748.487, 1480.019
3750.416, 1481.099
3752.344, 1480.114
3754.272, 1478.843
3756.201, 1478.489
3758.129, 1480.015
3760.058, 1481.748
3761.986, 1483.708
3763.915, 1481.847
3765.843, 1478.808
3767.772, 1481.182
3769.700, 1482.748
3771.629, 1479.557
3773.557, 1477.712
3775.486, 1478.173
3777.414, 1477.110
3779.343, 1476.037
3781.271, 1478.293
3783.199, 1479.854
3785.128, 1478.879
3787.056, 1478.055
3788.985, 1477.762
3790.913, 1479.402
3792.842, 1482.268
3794.770, 1487.373
3796.699, 1489.081
3798.627, 1485.152
3800.556, 1483.278
3802.484, 1483.320
3804.413, 1482.606
3806.341, 1481.576
3808.270, 1480.071
3810.198, 1479.856
3812.126, 1481.302
3814.055, 1480.607
3815.983, 1479.416
3817.912, 1482.587
3819.840, 1485.867
3821.769, 1486.865
3823.697, 1487.348
3825.626, 1487.523
3827.554, 1488.232
3829.483, 1488.770
3831.411, 1487.648
3833.340, 1487.262
3835.268, 1488.649
3837.197, 1488.571
3839.125, 1487.542
3841.053, 1487.982
3842.982, 1488.772
3844.910, 1489.723
3846.839, 1488.751
3848.767, 1485.652
3850.696, 1485.890
3852.624, 1488.074
3854.553, 1491.090
3856.481, 1492.948
3858.410, 1491.995
3860.338, 1493.641
3862.267, 1496.623
3864.195, 1492.523
3866.124, 1488.083
3868.052, 1489.270
3869.980, 1490.803
3871.909, 1491.209
3873.837, 1493.465
3875.766, 1495.687
3877.694, 1494.325
3879.623, 1492.580
3881.551, 1491.688
3883.480, 1492.706
3885.408, 1495.055
3887.337, 1494.877
3889.265, 1494.065
3891.194, 1493.527
3893.122, 1494.207
3895.051, 1496.185
3896.979, 1498.533
3898.907, 1499.874
3900.836, 1497.474
3902.764, 1494.856
3904.693, 1492.990
3906.621, 1494.011
3908.550, 1496.760
3910.478, 1496.891
3912.407, 1496.332
3914.335, 1496.883
3916.264, 1495.233
3918.192, 1491.863
3920.121, 1493.827
3922.049, 1497.088
3923.978, 1496.581
3925.906, 1496.172
3927.834, 1497.065
3929.763, 1496.903
3931.691, 1496.438
3933.620, 1497.770
3935.548, 1498.181
3937.477, 1496.104
3939.405, 1496.905
3941.334, 1499.736
3943.262, 1499.099
3945.191, 1497.700
3947.119, 1497.176
3949.048, 1497.566
3950.976, 1498.862
3952.905, 1499.358
3954.833, 1499.770
3956.761, 1500.987
3958.690, 1501.661
3960.618, 1501.503
3962.547, 1503.050
3964.475, 1505.168
3966.404, 1506.114
3968.332, 1506.232
3970.261, 1505.234
3972.189, 1505.454
3974.118, 1506.175
3976.046, 1505.106
3977.975, 1504.175
3979.903, 1504.265
3981.832, 1504.900
3983.760, 1505.950
3985.688, 1507.867
3987.617, 1508.811
3989.545, 1507.172
3991.474, 1504.662
3993.402, 1501.974
3995.331, 1505.523
3997.259, 1509.248
3999.188, 1505.711
4001.116, 1504.887
4003.045, 1507.882
4004.973, 1509.353
4006.902, 1509.165
4008.830, 1505.980
4010.759, 1505.114
4012.687, 1507.922
4014.615, 1509.906
4016.544, 1510.522
4018.472, 1507.700
4020.401, 1506.113
4022.329, 1507.723
4024.258, 1508.570
4026.186, 1509.191
4028.115, 1511.160
4030.043, 1511.695
4031.972, 1509.518
4033.900, 1512.037
4035.829, 1516.454
4037.757, 1514.510
4039.686, 1511.881
4041.614, 1510.896
4043.542, 1509.783
4045.471, 1508.981
4047.399, 1510.378
4049.328, 1512.429
4051.256, 1515.308
4053.185, 1515.833
4055.113, 1514.360
4057.042, 1510.832
4058.970, 1509.256
4060.899, 1511.827
4062.827, 1513.213
4064.756, 1513.547
4066.684, 1516.478
4068.613, 1517.584
4070.541, 1514.098
4072.469, 1510.553
4074.398, 1507.696
4076.326, 1506.728
4078.255, 1506.271
4080.183, 1505.271
4082.112, 1505.213
4084.040, 1506.463
4085.969, 1511.106
4087.897, 1514.398
4089.826, 1513.177
4091.754, 1512.511
4093.683, 1512.489
4095.611, 1512.813
4097.540, 1512.108
4099.468, 1509.490
4101.396, 1508.996
4103.325, 1510.250
4105.253, 1511.557
4107.182, 1512.032
4109.110, 1510.438
4111.039, 1512.072
4112.967, 1515.194
4114.896, 1515.038
4116.824, 1513.286
4118.752, 1509.468
4120.681, 1510.659
4122.609, 1513.787
4124.538, 1511.269
4126.466, 1509.638
4128.395, 1511.154
4130.323, 1511.475
4132.252, 1511.110
4134.180, 1511.669
4136.109, 1511.258
4138.037, 1509.497
4139.966, 1511.177
4141.894, 1513.793
4143.823, 1512.989
4145.751, 1513.735
4147.680, 1517.132
4149.608, 1517.197
4151.537, 1516.756
4153.465, 1519.393
4155.394, 1521.691
4157.322, 1522.969
4159.250, 1520.207
4161.179, 1517.234
4163.107, 1518.031
4165.036, 1517.886
4166.964, 1517.019
4168.893, 1519.025
4170.821, 1521.032
4172.750, 1521.184
4174.678, 1520.698
4176.606, 1520.228
4178.535, 1520.891
4180.463, 1523.042
4182.392, 1526.960
4184.320, 1527.450
4186.249, 1526.482
4188.177, 1529.332
4190.106, 1529.715
4192.034, 1526.370
4193.963, 1526.799
4195.891, 1529.481
4197.820, 1533.731
4199.748, 1534.074
4201.677, 1530.352
4203.605, 1531.587
4205.534, 1534.460
4207.462, 1537.000
4209.391, 1536.629
4211.319, 1534.114
4213.248, 1533.619
4215.176, 1535.030
4217.104, 1538.925
4219.033, 1542.780
4220.961, 1545.241
4222.890, 1542.339
4224.818, 1539.644
4226.747, 1538.692
4228.675, 1541.741
4230.604, 1545.355
4232.532, 1544.051
4234.460, 1545.274
4236.389, 1549.637
4238.317, 1553.999
4240.246, 1556.239
4242.174, 1552.671
4244.103, 1550.369
##END=



