##NAMES=Stephanite
##RRUFFID=R050306
##IDEAL CHEMISTRY=Ag_5_SbS_4_
##LOCALITY=Atlanta, Idaho, USA
##OWNER=RRUFF
##SOURCE=Eugene Schlepp
##DESCRIPTION=Dark gray metallic crystals associated with quartz
##STATUS=The identification of this mineral is confirmed by single-crystal X-ray diffraction and chemical analysis
##URL=https://www.rruff.net/odr/rruff_sample/R050306
##MEASURED CHEMISTRY=Ag_5.00_Sb_1.00_S_4.00_
##DIFFRACTION SAMPLE DESCRIPTION=Single crystal, powder profile is calculated
##CELL PARAMETERS=a: 7.821 b: 12.446 c: 8.528 alpha: 90 beta: 90 gamma: 90 volume: 830 crystal system: orthorhombic
##FILETYPE=Raman RAW
##RAMAN WAVELENGTH=532

122.0317, 7.742854
123.9602, 7.737737
125.8887, 8.311416
127.8171, 9.351170
129.7456, 10.16328
131.6741, 10.68960
133.6025, 10.97429
135.5310, 10.94297
137.4595, 10.32889
139.3879, 9.734597
141.3164, 9.392877
143.2449, 9.249728
145.1733, 9.411976
147.1018, 10.10556
149.0303, 11.24441
150.9587, 11.86977
152.8872, 11.72338
154.8157, 11.24262
156.7441, 10.77285
158.6726, 10.04989
160.6011, 9.608352
162.5295, 9.709765
164.4580, 10.27802
166.3865, 10.67736
168.3149, 10.73705
170.2434, 10.60978
172.1719, 10.44167
174.1003, 10.10253
176.0288, 9.859963
177.9573, 9.828000
179.8857, 10.02188
181.8142, 10.20411
183.7427, 10.22364
185.6711, 10.22790
187.5996, 10.53669
189.5281, 11.47182
191.4565, 12.27628
193.3850, 12.65905
195.3135, 12.35096
197.2419, 12.05394
199.1704, 11.74016
201.0989, 11.45688
203.0273, 11.28020
204.9558, 11.26581
206.8843, 11.32353
208.8127, 11.43514
210.7412, 11.69325
212.6697, 11.82404
214.5981, 11.63214
216.5266, 11.26739
218.4551, 11.13003
220.3835, 11.45714
222.3120, 11.87134
224.2405, 12.21699
226.1689, 12.54714
228.0974, 12.66663
230.0259, 12.33397
231.9543, 11.64737
233.8828, 11.31973
235.8113, 11.53785
237.7397, 11.93521
239.6682, 12.35242
241.5967, 12.86259
243.5251, 13.15379
245.4536, 13.09359
247.3821, 12.71651
249.3105, 12.39807
251.2390, 12.08108
253.1675, 11.86322
255.0959, 11.79201
257.0244, 11.92903
258.9529, 12.08974
260.8813, 12.26984
262.8098, 12.45515
264.7383, 12.58391
266.6667, 12.63737
268.5952, 12.64782
270.5237, 12.64892
272.4521, 12.76890
274.3806, 12.68229
276.3091, 12.15731
278.2375, 11.37928
280.1660, 10.87588
282.0945, 10.85697
284.0229, 10.99706
285.9514, 11.14838
287.8799, 11.39442
289.8083, 11.50492
291.7368, 11.37273
293.6653, 11.08599
295.5938, 10.83268
297.5222, 10.51955
299.4507, 10.33097
301.3792, 10.44288
303.3076, 10.98068
305.2361, 11.30542
307.1646, 11.01288
309.0930, 10.44190
311.0215, 10.30029
312.9500, 11.36885
314.8784, 12.18315
316.8069, 11.92571
318.7354, 10.56457
320.6638, 9.628273
322.5923, 9.739096
324.5208, 10.36948
326.4492, 10.79970
328.3777, 10.96147
330.3062, 11.00779
332.2346, 10.84985
334.1631, 10.51149
336.0915, 10.40229
338.0200, 11.00900
339.9485, 11.69615
341.8769, 11.70611
343.8054, 10.61518
345.7339, 9.620545
347.6623, 9.048222
349.5908, 8.840658
351.5193, 8.786579
353.4477, 9.025514
355.3762, 9.306697
357.3047, 9.446442
359.2331, 9.439219
361.1616, 9.368136
363.0901, 9.238189
365.0185, 9.060036
366.9470, 8.857801
368.8755, 8.602209
370.8039, 8.349195
372.7324, 8.051108
374.6609, 7.670992
376.5893, 7.572688
378.5178, 8.192124
380.4463, 9.068876
382.3747, 9.435190
384.3032, 8.921925
386.2317, 8.323165
388.1601, 7.682542
390.0886, 7.019445
392.0171, 6.783265
393.9455, 7.470239
395.8740, 8.364922
397.8025, 8.882414
399.7309, 8.980169
401.6594, 8.858362
403.5879, 8.272996
405.5163, 7.431688
407.4448, 7.045951
409.3733, 7.585627
411.3017, 8.233717
413.2302, 8.613920
415.1587, 8.690130
417.0871, 8.810952
419.0156, 9.112070
420.9441, 9.471862
422.8725, 9.728647
424.8010, 9.897443
426.7295, 9.936853
428.6579, 9.785316
430.5864, 9.463071
432.5149, 9.113170
434.4433, 8.615339
436.3718, 8.197027
438.3003, 8.002387
440.2287, 8.227007
442.1572, 8.441278
444.0857, 8.686033
446.0141, 8.909225
447.9426, 9.031351
449.8711, 9.043162
451.7995, 8.945718
453.7280, 8.660902
455.6565, 8.109957
457.5849, 7.843461
459.5134, 8.003251
461.4419, 8.374232
463.3703, 8.831408
465.2988, 9.542974
467.2273, 9.939543
469.1557, 9.773287
471.0842, 9.200634
473.0127, 8.784451
474.9411, 8.455201
476.8696, 8.358649
478.7981, 8.706008
480.7265, 9.637907
482.6550, 10.01487
484.5835, 9.288343
486.5119, 8.306487
488.4404, 7.925024
490.3689, 8.244371
492.2973, 8.651669
494.2258, 9.039989
496.1543, 9.397457
498.0827, 9.669271
500.0112, 9.846899
501.9397, 9.951006
503.8681, 10.08026
505.7966, 10.21478
507.7251, 9.958838
509.6535, 8.541919
511.5820, 7.154712
513.5105, 6.627486
515.4390, 8.067700
517.3674, 9.056444
519.2959, 9.333842
521.2244, 9.162027
523.1528, 9.025395
525.0813, 8.910101
527.0098, 8.879068
528.9382, 8.994870
530.8667, 9.272964
532.7952, 9.436970
534.7236, 9.366864
536.6521, 9.283167
538.5806, 9.355459
540.5090, 9.636934
542.4375, 9.770067
544.3660, 9.590076
546.2944, 9.272505
548.2229, 9.054164
550.1514, 8.869942
552.0798, 8.862029
554.0083, 9.265563
555.9368, 9.905170
557.8652, 10.27543
559.7937, 9.937791
561.7222, 9.671310
563.6506, 9.812845
565.5791, 10.43956
567.5076, 10.86508
569.4360, 11.09716
571.3645, 11.07263
573.2930, 10.69738
575.2214, 9.667891
577.1499, 9.020482
579.0784, 9.123077
581.0068, 9.602724
582.9352, 9.783908
584.8637, 9.579904
586.7922, 9.294363
588.7206, 8.934523
590.6491, 8.530672
592.5776, 8.367054
594.5060, 8.606385
596.4345, 8.929929
598.3630, 9.343184
600.2914, 9.838202
602.2199, 9.959156
604.1484, 9.258550
606.0768, 8.461107
608.0053, 8.049405
609.9338, 8.188879
611.8622, 8.444559
613.7907, 8.949462
615.7192, 9.497810
617.6476, 9.815931
619.5761, 9.887560
621.5046, 9.806014
623.4330, 9.434126
625.3615, 8.905940
627.2900, 8.715652
629.2184, 9.205479
631.1469, 9.663487
633.0754, 9.956341
635.0038, 10.06512
636.9323, 9.870496
638.8608, 8.854126
640.7892, 8.066816
642.7177, 8.137890
644.6462, 9.547036
646.5746, 10.36548
648.5031, 10.22811
650.4316, 9.772102
652.3600, 9.500527
654.2885, 9.428993
656.2170, 9.396425
658.1454, 9.348158
660.0739, 9.323580
662.0024, 9.375974
663.9308, 9.619884
665.8593, 9.804871
667.7878, 9.860823
669.7162, 9.849353
671.6447, 9.900742
673.5732, 10.08458
675.5016, 10.21010
677.4301, 10.20082
679.3586, 10.06811
681.2870, 9.947592
683.2155, 9.804723
685.1440, 9.703478
687.0724, 9.688434
689.0009, 9.745649
690.9294, 9.805902
692.8578, 9.836741
694.7863, 9.893560
696.7148, 10.03178
698.6432, 10.31917
700.5717, 10.45064
702.5002, 10.33132
704.4286, 10.12615
706.3571, 9.944525
708.2856, 9.783075
710.2141, 9.658202
712.1425, 9.401800
714.0710, 9.273239
715.9995, 9.561960
717.9279, 10.92309
719.8564, 11.72639
721.7849, 11.47775
723.7133, 10.78149
725.6418, 10.48909
727.5703, 10.83154
729.4987, 10.97404
731.4272, 10.44894
733.3557, 9.598411
735.2841, 9.214368
737.2126, 9.720473
739.1411, 10.16976
741.0695, 10.35076
742.9980, 10.36299
744.9265, 10.46617
746.8549, 10.86271
748.7834, 11.01484
750.7119, 10.61136
752.6403, 9.739722
754.5688, 9.176512
756.4973, 8.972672
758.4257, 8.972929
760.3542, 9.203000
762.2827, 9.619849
764.2111, 10.06220
766.1396, 10.56880
768.0681, 11.03188
769.9965, 11.48113
771.9250, 11.94180
773.8535, 12.02299
775.7819, 11.27432
777.7104, 10.61130
779.6389, 10.70554
781.5673, 11.42086
783.4958, 11.64005
785.4243, 10.58208
787.3527, 9.655427
789.2812, 9.754457
791.2097, 11.31299
793.1381, 11.94934
795.0666, 10.86195
796.9951, 9.619608
798.9235, 9.246500
800.8520, 9.682798
802.7805, 10.11112
804.7089, 10.37466
806.6374, 10.63384
808.5659, 11.04666
810.4943, 11.80099
812.4228, 12.08330
814.3513, 11.58136
816.2797, 10.89667
818.2082, 10.37936
820.1367, 10.01769
822.0651, 9.872552
823.9936, 10.05257
825.9221, 10.37954
827.8505, 10.79397
829.7790, 11.39382
831.7075, 11.70420
833.6359, 11.45123
835.5644, 11.14255
837.4929, 11.20765
839.4213, 11.68112
841.3498, 11.95099
843.2783, 11.87872
845.2067, 11.62265
847.1352, 11.22482
849.0637, 10.61500
850.9921, 10.26164
852.9206, 10.38468
854.8491, 10.60573
856.7775, 10.66055
858.7060, 10.51118
860.6345, 10.52632
862.5629, 10.98241
864.4914, 11.37123
866.4199, 11.35895
868.3483, 10.93003
870.2768, 10.55100
872.2053, 10.28550
874.1337, 10.07123
876.0622, 9.781803
877.9907, 9.366481
879.9191, 9.461950
881.8476, 10.66505
883.7761, 11.82210
885.7045, 12.30554
887.6330, 12.20872
889.5615, 12.05892
891.4899, 11.78082
893.4184, 11.61150
895.3469, 11.73611
897.2753, 12.15915
899.2038, 12.33124
901.1323, 12.09563
903.0607, 11.80541
904.9892, 11.59620
906.9177, 11.43486
908.8461, 11.17444
910.7746, 10.56443
912.7031, 10.25695
914.6315, 10.68004
916.5600, 11.64101
918.4885, 12.16818
920.4169, 11.90636
922.3454, 11.64209
924.2739, 11.58433
926.2023, 11.62160
928.1308, 11.46859
930.0593, 11.00991
931.9877, 10.66194
933.9162, 10.51337
935.8447, 10.57088
937.7731, 10.91818
939.7016, 11.97732
941.6301, 12.57171
943.5585, 12.30540
945.4870, 11.65344
947.4155, 11.21755
949.3439, 11.03406
951.2724, 10.86274
953.2009, 10.56427
955.1293, 10.33932
957.0578, 10.34413
958.9863, 10.60315
960.9147, 10.93517
962.8432, 11.46704
964.7717, 11.93390
966.7001, 12.14953
968.6286, 12.05935
970.5571, 12.02237
972.4855, 12.06955
974.4140, 12.13778
976.3425, 12.27618
978.2709, 12.43363
980.1994, 12.32497
982.1279, 11.56156
984.0563, 11.09954
985.9848, 11.50629
987.9133, 12.52930
989.8417, 13.07859
991.7702, 12.73792
993.6987, 12.44897
995.6271, 12.51936
997.5556, 12.68160
999.4841, 12.40136
1001.413, 11.51778
1003.341, 10.82337
1005.269, 10.49458
1007.198, 10.48775
1009.126, 10.87905
1011.055, 11.92379
1012.983, 12.49309
1014.912, 12.08639
1016.840, 11.54782
1018.769, 11.50134
1020.697, 12.04428
1022.626, 12.26142
1024.554, 11.91688
1026.483, 11.50121
1028.411, 11.21697
1030.340, 11.04507
1032.268, 10.94131
1034.197, 10.88543
1036.125, 10.93505
1038.053, 11.16192
1039.982, 11.49061
1041.910, 11.74829
1043.839, 11.97952
1045.767, 12.07645
1047.696, 11.80875
1049.624, 11.52849
1051.553, 11.72117
1053.481, 12.42928
1055.410, 12.94781
1057.338, 13.22518
1059.267, 13.17846
1061.195, 12.57387
1063.124, 11.36132
1065.052, 10.74105
1066.980, 11.34111
1068.909, 11.91000
1070.837, 11.91777
1072.766, 11.56112
1074.694, 11.67225
1076.623, 12.60178
1078.551, 13.27494
1080.480, 13.41311
1082.408, 13.14609
1084.337, 12.46639
1086.265, 11.18601
1088.193, 10.59225
1090.122, 11.74196
1092.050, 13.03106
1093.979, 13.42021
1095.907, 12.72588
1097.836, 12.50907
1099.764, 13.40173
1101.693, 14.01829
1103.621, 13.44536
1105.550, 12.20561
1107.478, 12.05018
1109.407, 13.55227
1111.335, 14.60991
1113.264, 14.12923
1115.192, 13.13682
1117.120, 12.74122
1119.049, 13.08030
1120.977, 13.33056
1122.906, 13.32885
1124.834, 13.26255
1126.763, 13.19813
1128.691, 13.13599
1130.620, 13.14906
1132.548, 13.29407
1134.477, 13.43544
1136.405, 13.61258
1138.334, 13.73480
1140.262, 13.59030
1142.191, 13.06648
1144.119, 12.78691
1146.047, 13.17307
1147.976, 13.64693
1149.904, 13.75528
1151.833, 13.44625
1153.761, 13.26790
1155.690, 13.34175
1157.618, 13.44260
1159.547, 13.58971
1161.475, 13.71612
1163.404, 13.54403
1165.332, 12.81067
1167.261, 12.34954
1169.189, 12.46921
1171.118, 12.82144
1173.046, 13.19787
1174.974, 13.59893
1176.903, 13.57791
1178.831, 12.71700
1180.760, 11.89757
1182.688, 11.33054
1184.617, 11.08904
1186.545, 11.51993
1188.474, 13.48972
1190.402, 14.80395
1192.331, 14.84784
1194.259, 14.35063
1196.188, 14.03328
1198.116, 13.93456
1200.045, 13.77835
1201.973, 13.36535
1203.901, 13.09868
1205.830, 13.29463
1207.758, 13.75663
1209.687, 14.07420
1211.615, 14.27802
1213.544, 14.19558
1215.472, 13.35042
1217.401, 12.50599
1219.329, 12.30824
1221.258, 12.87061
1223.186, 13.47129
1225.115, 14.45630
1227.043, 15.07033
1228.972, 14.72281
1230.900, 13.84593
1232.828, 13.64572
1234.757, 14.41375
1236.685, 15.00027
1238.614, 15.28336
1240.542, 15.28527
1242.471, 14.86467
1244.399, 14.11796
1246.328, 13.58329
1248.256, 13.23063
1250.185, 13.26087
1252.113, 14.20145
1254.042, 15.35678
1255.970, 15.62877
1257.899, 14.60331
1259.827, 14.05668
1261.755, 14.49859
1263.684, 15.03543
1265.612, 15.26773
1267.541, 15.23061
1269.469, 15.10434
1271.398, 14.80915
1273.326, 14.57452
1275.255, 14.56872
1277.183, 14.54903
1279.112, 14.16492
1281.040, 13.47592
1282.969, 13.17639
1284.897, 13.60684
1286.826, 13.94887
1288.754, 13.78273
1290.682, 13.34706
1292.611, 12.90800
1294.539, 12.35928
1296.468, 12.27090
1298.396, 13.08549
1300.325, 14.00807
1302.253, 14.77035
1304.182, 15.35962
1306.110, 15.72453
1308.039, 15.86570
1309.967, 15.76941
1311.896, 15.06641
1313.824, 14.41364
1315.753, 14.49224
1317.681, 15.24240
1319.609, 15.59834
1321.538, 15.31717
1323.466, 15.06003
1325.395, 15.07154
1327.323, 15.20957
1329.252, 15.27045
1331.180, 15.25001
1333.109, 15.50138
1335.037, 16.37958
1336.966, 17.06636
1338.894, 17.40176
1340.823, 17.30606
1342.751, 16.44688
1344.680, 14.18329
1346.608, 13.02417
1348.536, 13.88164
1350.465, 15.01480
1352.393, 15.82128
1354.322, 16.27220
1356.250, 16.19080
1358.179, 15.08460
1360.107, 14.44296
1362.036, 14.69185
1363.964, 15.16342
1365.893, 15.52747
1367.821, 15.75753
1369.750, 15.71767
1371.678, 15.27180
1373.607, 14.94098
1375.535, 14.92015
1377.464, 15.03201
1379.392, 15.19086
1381.320, 15.37619
1383.249, 15.43530
1385.177, 15.25282
1387.106, 15.18387
1389.034, 15.64270
1390.963, 16.02742
1392.891, 15.67488
1394.820, 14.47563
1396.748, 13.76147
1398.677, 13.72398
1400.605, 13.95020
1402.534, 14.61678
1404.462, 15.34834
1406.391, 15.72280
1408.319, 15.69297
1410.247, 15.64574
1412.176, 15.60940
1414.104, 15.52184
1416.033, 15.16584
1417.961, 14.86857
1419.890, 15.23609
1421.818, 16.26906
1423.747, 16.61494
1425.675, 15.72501
1427.604, 14.93434
1429.532, 14.67365
1431.461, 14.82616
1433.389, 15.40206
1435.318, 16.37151
1437.246, 16.93844
1439.174, 16.83403
1441.103, 16.64429
1443.031, 16.63793
1444.960, 16.63407
1446.888, 16.45427
1448.817, 16.09905
1450.745, 15.52836
1452.674, 14.19944
1454.602, 13.52940
1456.531, 14.41481
1458.459, 15.76554
1460.388, 16.39348
1462.316, 16.21026
1464.245, 16.03233
1466.173, 15.89628
1468.101, 15.71171
1470.030, 15.26377
1471.958, 14.89688
1473.887, 15.01357
1475.815, 15.62809
1477.744, 16.17827
1479.672, 16.80936
1481.601, 17.16754
1483.529, 17.08083
1485.458, 16.79085
1487.386, 16.42995
1489.315, 16.02403
1491.243, 15.73545
1493.172, 15.53295
1495.100, 15.53116
1497.028, 15.99527
1498.957, 16.45326
1500.885, 16.42015
1502.814, 16.12416
1504.742, 16.32949
1506.671, 17.27598
1508.599, 17.69604
1510.528, 16.73549
1512.456, 15.87479
1514.385, 16.22077
1516.313, 17.20162
1518.242, 17.46871
1520.170, 16.83541
1522.099, 16.59123
1524.027, 17.31832
1525.955, 17.93760
1527.884, 17.92371
1529.812, 17.57973
1531.741, 17.36596
1533.669, 17.30227
1535.598, 17.22711
1537.526, 17.11804
1539.455, 17.01832
1541.383, 16.85155
1543.312, 16.76281
1545.240, 17.02291
1547.169, 17.64890
1549.097, 17.79006
1551.026, 17.00306
1552.954, 16.36851
1554.882, 15.90699
1556.811, 15.71128
1558.739, 16.04912
1560.668, 16.73582
1562.596, 16.98089
1564.525, 16.48816
1566.453, 16.11992
1568.382, 15.87285
1570.310, 15.76609
1572.239, 15.78220
1574.167, 15.95534
1576.096, 16.40863
1578.024, 17.21493
1579.953, 17.81860
1581.881, 18.14448
1583.809, 18.36169
1585.738, 18.45318
1587.666, 18.49641
1589.595, 18.60079
1591.523, 18.73463
1593.452, 18.68347
1595.380, 18.38251
1597.309, 18.09523
1599.237, 17.68722
1601.166, 17.50768
1603.094, 18.04770
1605.023, 18.84091
1606.951, 18.91191
1608.880, 18.21858
1610.808, 17.84445
1612.736, 18.20229
1614.665, 18.35402
1616.593, 17.58298
1618.522, 16.71873
1620.450, 16.56258
1622.379, 16.98109
1624.307, 17.53940
1626.236, 18.34666
1628.164, 18.71224
1630.093, 18.14961
1632.021, 17.52742
1633.950, 17.42649
1635.878, 17.53890
1637.807, 17.32198
1639.735, 16.78152
1641.663, 16.60872
1643.592, 17.10714
1645.520, 17.43682
1647.449, 17.08188
1649.377, 16.66533
1651.306, 16.67798
1653.234, 16.99573
1655.163, 17.27111
1657.091, 17.50895
1659.020, 17.57128
1660.948, 17.23024
1662.877, 17.04225
1664.805, 17.55469
1666.734, 18.13713
1668.662, 18.01960
1670.590, 17.31131
1672.519, 16.83532
1674.447, 16.66714
1676.376, 16.63481
1678.304, 16.84522
1680.233, 16.99007
1682.161, 16.68694
1684.090, 16.32592
1686.018, 16.71276
1687.947, 17.83893
1689.875, 18.44149
1691.804, 18.20207
1693.732, 17.98803
1695.661, 18.23972
1697.589, 18.38131
1699.517, 17.88266
1701.446, 17.06787
1703.374, 16.76364
1705.303, 17.01499
1707.231, 17.07000
1709.160, 16.68702
1711.088, 16.44622
1713.017, 16.69621
1714.945, 17.00245
1716.874, 16.98492
1718.802, 16.80122
1720.731, 16.97808
1722.659, 17.58090
1724.588, 17.91029
1726.516, 17.69113
1728.444, 17.55668
1730.373, 17.90903
1732.301, 18.26744
1734.230, 18.16397
1736.158, 17.78855
1738.087, 17.79284
1740.015, 18.25601
1741.944, 18.40779
1743.872, 17.90122
1745.801, 17.56244
1747.729, 17.86403
1749.658, 18.29688
1751.586, 18.57969
1753.515, 18.66949
1755.443, 18.34601
1757.371, 17.55426
1759.300, 17.02397
1761.228, 16.87535
1763.157, 16.95643
1765.085, 17.47449
1767.014, 17.93628
1768.942, 17.75179
1770.871, 17.30964
1772.799, 17.66286
1774.728, 18.86278
1776.656, 19.38055
1778.585, 18.83146
1780.513, 18.09261
1782.442, 16.96021
1784.370, 16.27535
1786.298, 17.11421
1788.227, 18.58353
1790.155, 19.04648
1792.084, 18.53745
1794.012, 18.19309
1795.941, 18.19435
1797.869, 18.10900
1799.798, 17.51011
1801.726, 17.16211
1803.655, 17.78646
1805.583, 18.74697
1807.512, 19.11722
1809.440, 18.97233
1811.369, 18.81566
1813.297, 18.65549
1815.225, 18.51303
1817.154, 18.48052
1819.082, 18.34931
1821.011, 17.77390
1822.939, 17.26915
1824.868, 17.65747
1826.796, 18.60884
1828.725, 18.50628
1830.653, 16.86151
1832.582, 16.27082
1834.510, 17.88009
1836.439, 19.07101
1838.367, 19.15794
1840.296, 18.76958
1842.224, 18.05977
1844.152, 17.28252
1846.081, 16.97303
1848.009, 17.16930
1849.938, 17.36587
1851.866, 17.56270
1853.795, 17.75962
1855.723, 18.01107
1857.652, 18.19221
1859.580, 18.25228
1861.509, 18.21645
1863.437, 18.02093
1865.366, 17.73928
1867.294, 17.78851
1869.223, 18.32054
1871.151, 18.50762
1873.079, 18.06652
1875.008, 17.72919
1876.936, 17.70425
1878.865, 17.78363
1880.793, 17.76647
1882.722, 17.83782
1884.650, 18.49079
1886.579, 19.57984
1888.507, 19.83244
1890.436, 19.00955
1892.364, 18.47957
1894.293, 18.61402
1896.221, 18.77325
1898.150, 18.67655
1900.078, 18.55310
1902.006, 18.72092
1903.935, 18.90677
1905.863, 18.43901
1907.792, 17.43249
1909.720, 17.23282
1911.649, 18.23695
1913.577, 18.71076
1915.506, 17.74335
1917.434, 17.06565
1919.363, 17.65549
1921.291, 18.48413
1923.220, 18.68095
1925.148, 18.49544
1927.077, 18.53552
1929.005, 18.83857
1930.933, 18.79745
1932.862, 18.22184
1934.790, 17.65198
1936.719, 16.73094
1938.647, 16.32619
1940.576, 17.06496
1942.504, 18.09239
1944.433, 18.96285
1946.361, 19.52474
1948.290, 19.19564
1950.218, 17.87741
1952.147, 17.66770
1954.075, 19.10348
1956.004, 19.85443
1957.932, 19.07659
1959.860, 18.50511
1961.789, 18.96254
1963.717, 19.58765
1965.646, 19.84462
1967.574, 19.88568
1969.503, 20.04655
1971.431, 20.23560
1973.360, 19.78890
1975.288, 18.53569
1977.217, 17.87373
1979.145, 18.28973
1981.074, 18.69777
1983.002, 18.86950
1984.931, 18.80505
1986.859, 18.09643
1988.787, 17.45295
1990.716, 17.97519
1992.644, 19.33330
1994.573, 20.19381
1996.501, 20.57161
1998.430, 20.39336
2000.358, 18.77922
2002.287, 18.02812
2004.215, 19.14128
2006.144, 20.01026
2008.072, 19.62991
2010.001, 18.97131
2011.929, 18.78720
2013.858, 18.88476
2015.786, 18.93963
2017.714, 18.94323
2019.643, 18.79187
2021.571, 18.46032
2023.500, 18.14794
2025.428, 17.81855
2027.357, 17.68326
2029.285, 17.78689
2031.214, 18.13018
2033.142, 19.04611
2035.071, 19.91327
2036.999, 19.92244
2038.928, 19.44079
2040.856, 19.41825
2042.785, 19.87133
2044.713, 20.17806
2046.641, 20.36585
2048.570, 20.35510
2050.499, 19.93630
2052.427, 19.63436
2054.355, 19.52967
2056.284, 19.60267
2058.212, 20.05955
2060.141, 20.50461
2062.069, 20.44083
2063.998, 20.03425
2065.926, 19.75622
2067.854, 19.59784
2069.783, 19.43352
2071.711, 19.25287
2073.640, 19.09640
2075.568, 18.95238
2077.497, 18.88674
2079.425, 18.88870
2081.354, 19.01941
2083.282, 19.58510
2085.211, 20.04367
2087.139, 19.50596
2089.068, 18.60851
2090.996, 18.93470
2092.925, 20.40799
2094.853, 21.19792
2096.781, 21.13084
2098.710, 20.86228
2100.638, 20.24429
2102.567, 19.72490
2104.495, 19.17918
2106.424, 19.03331
2108.352, 19.84859
2110.281, 20.68143
2112.209, 20.86196
2114.138, 20.70546
2116.066, 20.58654
2117.995, 20.48023
2119.923, 20.28771
2121.852, 20.00850
2123.780, 19.79268
2125.708, 19.56702
2127.637, 19.67440
2129.565, 20.73722
2131.494, 21.23546
2133.422, 20.04576
2135.351, 19.28352
2137.279, 20.61298
2139.208, 22.11458
2141.136, 21.99326
2143.065, 20.99578
2144.993, 20.30128
2146.922, 19.87084
2148.850, 19.53833
2150.779, 19.30001
2152.707, 19.11403
2154.635, 18.94350
2156.564, 19.03326
2158.492, 19.63296
2160.421, 20.06511
2162.349, 20.02485
2164.278, 19.91262
2166.206, 19.79701
2168.135, 19.80746
2170.063, 20.30990
2171.992, 20.84135
2173.920, 20.37317
2175.849, 19.28639
2177.777, 19.50163
2179.706, 21.00812
2181.634, 21.36600
2183.563, 20.27059
2185.491, 19.66405
2187.419, 20.00094
2189.348, 20.21024
2191.276, 19.82747
2193.205, 19.56835
2195.133, 19.71048
2197.062, 20.08512
2198.990, 20.90337
2200.919, 21.62247
2202.847, 21.46911
2204.776, 20.84950
2206.704, 20.66803
2208.633, 20.85856
2210.561, 20.80830
2212.490, 20.49286
2214.418, 20.50221
2216.346, 21.00470
2218.275, 20.91486
2220.203, 19.66281
2222.132, 18.97578
2224.060, 19.73419
2225.989, 20.56850
2227.917, 20.97660
2229.846, 21.22105
2231.774, 21.60109
2233.703, 21.78714
2235.631, 21.16384
2237.560, 20.21426
2239.488, 19.96215
2241.417, 20.28153
2243.345, 20.39867
2245.273, 20.32949
2247.202, 20.58016
2249.130, 21.26915
2251.059, 21.30248
2252.987, 20.19380
2254.916, 19.51357
2256.844, 20.12962
2258.773, 20.43893
2260.701, 19.54855
2262.630, 18.82256
2264.558, 19.17081
2266.487, 19.68789
2268.415, 19.67930
2270.344, 19.42134
2272.272, 18.99066
2274.200, 18.69071
2276.129, 19.47173
2278.057, 21.01437
2279.986, 21.99284
2281.914, 22.36701
2283.843, 22.31703
2285.771, 21.74920
2287.700, 21.17340
2289.628, 20.50816
2291.557, 20.04673
2293.485, 19.86675
2295.414, 19.81218
2297.342, 19.92986
2299.271, 20.05626
2301.199, 20.12838
2303.127, 20.18221
2305.056, 20.09760
2306.984, 20.13781
2308.913, 20.95646
2310.841, 21.81395
2312.770, 21.21325
2314.698, 19.73579
2316.627, 19.30784
2318.555, 19.85205
2320.484, 19.84736
2322.412, 19.16000
2324.341, 19.22040
2326.269, 20.24519
2328.198, 20.81138
2330.126, 20.61135
2332.054, 20.49226
2333.983, 20.59643
2335.911, 20.90101
2337.840, 21.72584
2339.768, 22.28545
2341.697, 22.17009
2343.625, 21.82598
2345.554, 21.38092
2347.482, 20.97180
2349.411, 20.85123
2351.339, 20.72356
2353.268, 19.79154
2355.196, 18.80038
2357.125, 19.48038
2359.053, 21.26954
2360.981, 22.23967
2362.910, 22.41561
2364.838, 22.23482
2366.767, 21.56138
2368.695, 21.46185
2370.624, 22.27427
2372.552, 22.31790
2374.481, 21.12411
2376.409, 20.63661
2378.338, 21.54864
2380.266, 22.07805
2382.195, 21.34721
2384.123, 20.83383
2386.052, 21.36389
2387.980, 21.85280
2389.908, 21.73943
2391.837, 21.45140
2393.765, 21.11849
2395.694, 20.90863
2397.622, 20.93480
2399.551, 21.21299
2401.479, 22.17013
2403.408, 23.15110
2405.336, 22.69356
2407.265, 21.40233
2409.193, 21.18261
2411.122, 21.85350
2413.050, 21.84036
2414.979, 21.05798
2416.907, 21.14010
2418.835, 22.24134
2420.764, 22.52898
2422.692, 21.77186
2424.621, 21.21980
2426.549, 21.02373
2428.478, 21.09448
2430.406, 21.57570
2432.335, 22.01116
2434.263, 22.41675
2436.192, 22.60600
2438.120, 22.27115
2440.049, 22.09774
2441.977, 22.59139
2443.906, 22.89198
2445.834, 22.01411
2447.762, 21.47857
2449.691, 23.25442
2451.619, 24.86647
2453.548, 23.33155
2455.476, 21.00622
2457.405, 20.91660
2459.333, 21.87759
2461.262, 21.94411
2463.190, 21.53699
2465.119, 21.74762
2467.047, 22.29782
2468.976, 22.36659
2470.904, 21.99965
2472.833, 21.45313
2474.761, 20.73118
2476.689, 20.53280
2478.618, 20.89101
2480.546, 21.70277
2482.475, 23.08968
2484.403, 23.74225
2486.332, 23.50162
2488.260, 22.89814
2490.189, 21.72135
2492.117, 21.23912
2494.046, 22.41478
2495.974, 22.99329
2497.903, 22.12409
2499.831, 21.64150
2501.760, 21.97104
2503.688, 22.45844
2505.616, 23.19266
2507.545, 23.51423
2509.473, 22.67681
2511.402, 22.01141
2513.330, 22.32827
2515.259, 22.77332
2517.187, 22.98610
2519.116, 22.96597
2521.044, 22.39250
2522.973, 21.94376
2524.901, 22.34117
2526.830, 22.94659
2528.758, 23.24109
2530.687, 23.29593
2532.615, 23.09308
2534.543, 22.78937
2536.472, 22.62425
2538.400, 22.54642
2540.329, 22.57115
2542.257, 22.54977
2544.186, 21.84739
2546.114, 20.86852
2548.043, 20.91851
2549.971, 21.76268
2551.900, 22.33328
2553.828, 22.65266
2555.757, 23.04586
2557.685, 23.49125
2559.614, 23.04627
2561.542, 21.82973
2563.470, 22.22356
2565.399, 24.39489
2567.327, 25.23433
2569.256, 24.28471
2571.184, 23.27146
2573.113, 21.97519
2575.041, 21.58287
2576.970, 22.32135
2578.898, 22.70048
2580.827, 22.49199
2582.755, 22.44492
2584.684, 22.78955
2586.612, 22.95063
2588.541, 22.72005
2590.469, 22.53029
2592.397, 22.31865
2594.326, 22.38051
2596.254, 22.84762
2598.183, 23.33747
2600.111, 23.91543
2602.040, 24.12166
2603.968, 23.77459
2605.897, 23.12732
2607.825, 21.41213
2609.754, 20.81077
2611.682, 22.66308
2613.611, 24.01076
2615.539, 23.66486
2617.468, 22.96395
2619.396, 22.07161
2621.324, 21.56454
2623.253, 22.03381
2625.181, 22.44322
2627.110, 22.09133
2629.038, 21.92798
2630.967, 22.47668
2632.895, 23.13095
2634.824, 23.81990
2636.752, 24.13831
2638.681, 23.57099
2640.609, 22.92778
2642.538, 22.76335
2644.466, 22.63732
2646.395, 22.10303
2648.323, 21.75080
2650.251, 21.99357
2652.180, 22.54921
2654.108, 23.51986
2656.037, 24.33917
2657.965, 24.59883
2659.894, 24.45534
2661.822, 23.69584
2663.751, 22.97979
2665.679, 22.76473
2667.608, 22.88396
2669.536, 23.48936
2671.465, 24.01947
2673.393, 23.87147
2675.322, 23.47500
2677.250, 22.94894
2679.178, 22.70903
2681.107, 23.50004
2683.035, 24.32989
2684.964, 24.33654
2686.892, 23.77757
2688.821, 22.25563
2690.749, 21.01278
2692.678, 21.83493
2694.606, 23.08208
2696.535, 23.06547
2698.463, 22.78497
2700.392, 23.48673
2702.320, 24.22779
2704.249, 23.69973
2706.177, 22.95837
2708.105, 23.20029
2710.034, 23.75565
2711.962, 24.13208
2713.891, 24.31301
2715.819, 24.34457
2717.748, 24.10616
2719.676, 22.92666
2721.605, 21.99880
2723.533, 22.97540
2725.462, 24.31573
2727.390, 24.70405
2729.319, 24.70879
2731.247, 24.95345
2733.176, 24.97886
2735.104, 23.96230
2737.032, 22.95878
2738.961, 22.90934
2740.889, 23.31192
2742.818, 23.99261
2744.746, 24.69138
2746.675, 25.39488
2748.603, 25.77611
2750.532, 25.46092
2752.460, 24.85323
2754.389, 23.86943
2756.317, 23.22426
2758.246, 23.78479
2760.174, 24.36766
2762.103, 24.01347
2764.031, 23.60881
2765.959, 23.67050
2767.888, 23.92784
2769.816, 24.26700
2771.745, 24.71134
2773.673, 25.66950
2775.602, 26.15871
2777.530, 25.23750
2779.459, 24.38034
2781.387, 24.13062
2783.316, 24.20632
2785.244, 24.57080
2787.173, 25.09303
2789.101, 26.12265
2791.030, 26.64730
2792.958, 25.69298
2794.886, 25.30989
2796.815, 26.57719
2798.743, 26.93861
2800.672, 24.82243
2802.600, 23.26785
2804.529, 23.30898
2806.457, 23.59436
2808.386, 24.11945
2810.314, 24.26628
2812.243, 23.68278
2814.171, 23.66344
2816.100, 25.02596
2818.028, 25.59768
2819.957, 24.78438
2821.885, 24.62931
2823.813, 25.44546
2825.742, 25.44699
2827.670, 24.13759
2829.599, 24.12053
2831.527, 26.12360
2833.456, 27.22708
2835.384, 27.39627
2837.313, 27.09770
2839.241, 26.37303
2841.170, 25.73268
2843.098, 25.20438
2845.027, 24.73645
2846.955, 24.37016
2848.884, 25.21740
2850.812, 26.88177
2852.740, 27.35032
2854.669, 26.87362
2856.597, 26.33605
2858.526, 25.86000
2860.454, 25.73223
2862.383, 26.01401
2864.311, 27.30441
2866.240, 28.75950
2868.168, 28.89028
2870.097, 28.36845
2872.025, 27.99770
2873.954, 27.76180
2875.882, 27.91278
2877.811, 27.87566
2879.739, 26.49743
2881.667, 25.50424
2883.596, 26.94732
2885.524, 28.49357
2887.453, 28.13044
2889.381, 27.97408
2891.310, 29.76426
2893.238, 30.82163
2895.167, 29.19496
2897.095, 27.68799
2899.024, 27.08262
2900.952, 27.19411
2902.881, 28.57707
2904.809, 28.84904
2906.738, 26.30639
2908.666, 25.09146
2910.594, 26.34086
2912.523, 27.08209
2914.451, 27.03232
2916.380, 27.20147
2918.308, 27.76418
2920.237, 27.89688
2922.165, 27.44325
2924.094, 27.86126
2926.022, 29.04844
2927.951, 29.73864
2929.879, 29.91633
2931.808, 29.77904
2933.736, 29.34280
2935.665, 28.42926
2937.593, 27.38110
2939.521, 27.12534
2941.450, 27.31404
2943.378, 27.66349
2945.307, 27.84757
2947.235, 27.19415
2949.164, 26.43862
2951.092, 26.31355
2953.021, 26.35431
2954.949, 26.34310
2956.878, 26.22964
2958.806, 25.57303
2960.735, 25.51406
2962.663, 26.81378
2964.592, 27.90302
2966.520, 28.48517
2968.448, 28.26645
2970.377, 26.36374
2972.305, 25.47172
2974.234, 25.99469
2976.162, 26.20064
2978.091, 25.82357
2980.019, 25.55642
2981.948, 25.39100
2983.876, 25.98926
2985.805, 27.18103
2987.733, 27.28413
2989.662, 26.49501
2991.590, 25.60415
2993.519, 24.84539
2995.447, 24.90808
2997.375, 25.50333
2999.304, 26.47899
3001.232, 27.30682
3003.161, 27.42174
3005.089, 27.05497
3007.018, 25.90421
3008.946, 25.08645
3010.875, 25.39338
3012.803, 25.86116
3014.732, 26.22060
3016.660, 26.32033
3018.589, 25.94812
3020.517, 25.83600
3022.446, 26.22532
3024.374, 26.33056
3026.302, 25.87833
3028.231, 25.49574
3030.159, 25.16183
3032.088, 25.64095
3034.016, 26.78214
3035.945, 27.03572
3037.873, 26.66862
3039.802, 26.97376
3041.730, 27.57138
3043.659, 27.66973
3045.587, 27.36458
3047.516, 26.40415
3049.444, 25.55551
3051.373, 25.83889
3053.301, 26.16160
3055.229, 25.76453
3057.158, 25.42542
3059.086, 25.33295
3061.015, 25.73465
3062.943, 27.02865
3064.872, 27.73520
3066.800, 27.52245
3068.729, 27.20111
3070.657, 26.74610
3072.586, 27.01986
3074.514, 27.95839
3076.443, 27.93682
3078.371, 27.07910
3080.300, 25.78053
3082.228, 24.63004
3084.156, 25.66842
3086.085, 27.27499
3088.013, 27.04559
3089.942, 26.38976
3091.870, 26.53928
3093.799, 26.80867
3095.727, 26.87008
3097.656, 26.79044
3099.584, 26.61396
3101.513, 26.24627
3103.441, 25.36351
3105.370, 24.91422
3107.298, 24.93902
3109.227, 25.62815
3111.155, 27.01487
3113.083, 27.35229
3115.012, 26.73592
3116.940, 25.57502
3118.869, 24.40867
3120.797, 24.69297
3122.726, 25.54931
3124.654, 25.87638
3126.583, 25.97570
3128.511, 25.96075
3130.440, 26.06451
3132.368, 26.56099
3134.297, 26.95106
3136.225, 27.07761
3138.154, 27.05042
3140.082, 26.83106
3142.010, 26.81733
3143.939, 27.11615
3145.867, 27.37004
3147.796, 27.52391
3149.724, 26.83263
3151.653, 25.63746
3153.581, 24.64643
3155.510, 24.13153
3157.438, 24.98198
3159.367, 25.99508
3161.295, 25.92231
3163.224, 25.94407
3165.152, 27.44101
3167.081, 27.80467
3169.009, 25.77053
3170.938, 24.83629
3172.866, 26.27625
3174.794, 26.82562
3176.723, 26.27734
3178.651, 25.99868
3180.580, 25.93094
3182.508, 25.47066
3184.437, 24.96018
3186.365, 25.22764
3188.294, 25.96769
3190.222, 27.23980
3192.151, 28.14724
3194.079, 27.82343
3196.008, 27.26306
3197.936, 26.57882
3199.865, 26.55531
3201.793, 27.90661
3203.721, 27.82754
3205.650, 25.83705
3207.578, 24.92420
3209.507, 25.01283
3211.435, 25.50059
3213.364, 26.10855
3215.292, 26.13596
3217.221, 25.93431
3219.149, 26.06682
3221.078, 25.99329
3223.006, 24.70309
3224.935, 24.26604
3226.863, 25.89255
3228.792, 26.64274
3230.720, 25.37136
3232.648, 25.47368
3234.577, 27.30611
3236.505, 28.39781
3238.434, 28.69077
3240.362, 27.66630
3242.291, 26.30092
3244.219, 26.60474
3246.148, 27.52907
3248.076, 28.63349
3250.005, 29.02794
3251.933, 27.41158
3253.862, 26.52720
3255.790, 27.19539
3257.719, 27.47563
3259.647, 26.90471
3261.575, 26.88685
3263.504, 27.41769
3265.432, 28.67666
3267.361, 29.84604
3269.289, 28.58177
3271.218, 26.74526
3273.146, 26.68469
3275.075, 26.93954
3277.003, 26.58792
3278.932, 26.47688
3280.860, 26.98648
3282.789, 27.52692
3284.717, 28.07148
3286.646, 28.22615
3288.574, 27.99420
3290.502, 27.49044
3292.431, 26.92483
3294.359, 26.79170
3296.288, 26.95948
3298.216, 27.64857
3300.145, 27.99903
3302.073, 27.24150
3304.002, 26.91605
3305.930, 28.13985
3307.859, 28.27698
3309.787, 27.11715
3311.716, 26.69720
3313.644, 27.06300
3315.573, 28.15780
3317.501, 29.31666
3319.429, 28.97013
3321.358, 28.27065
3323.286, 28.05553
3325.215, 28.03667
3327.143, 28.19918
3329.072, 28.22729
3331.000, 28.04589
3332.929, 27.80399
3334.857, 27.51374
3336.786, 27.42301
3338.714, 27.39475
3340.643, 26.82839
3342.571, 26.38944
3344.500, 27.33796
3346.428, 28.09959
3348.356, 27.57175
3350.285, 27.21098
3352.213, 27.48799
3354.142, 27.75378
3356.070, 27.98334
3357.999, 28.79277
3359.927, 29.83813
3361.856, 29.55766
3363.784, 28.66365
3365.713, 27.89350
3367.641, 27.37470
3369.570, 27.39373
3371.498, 27.26323
3373.427, 26.61313
3375.355, 26.96063
3377.283, 28.84238
3379.212, 28.44661
3381.140, 26.55438
3383.069, 25.97661
3384.997, 26.32694
3386.926, 27.91154
3388.854, 28.79614
3390.783, 27.18304
3392.711, 26.12368
3394.640, 27.21090
3396.568, 27.52642
3398.497, 26.98042
3400.425, 26.47663
3402.354, 26.15406
3404.282, 26.69492
3406.210, 27.25212
3408.139, 26.43964
3410.067, 25.83441
3411.996, 26.50841
3413.924, 27.54041
3415.853, 28.99279
3417.781, 29.05038
3419.710, 27.61712
3421.638, 26.74778
3423.567, 26.45516
3425.495, 26.95765
3427.424, 27.64907
3429.352, 27.92542
3431.281, 28.20045
3433.209, 28.81458
3435.137, 28.76920
3437.066, 27.64297
3438.994, 27.92993
3440.923, 29.13617
3442.851, 28.36482
3444.780, 27.17293
3446.708, 28.83655
3448.637, 30.08136
3450.565, 28.31279
3452.494, 26.68850
3454.422, 25.76920
3456.351, 25.94906
3458.279, 27.18591
3460.208, 28.17986
3462.136, 28.69334
3464.064, 27.58350
3465.993, 26.45680
3467.921, 26.85928
3469.850, 27.36581
3471.778, 27.58573
3473.707, 27.47841
3475.635, 26.92962
3477.564, 27.78936
3479.492, 29.41158
3481.421, 29.49428
3483.349, 28.88748
3485.278, 27.99343
3487.206, 27.67827
3489.135, 28.60845
3491.063, 28.92010
3492.991, 27.99880
3494.920, 27.92867
3496.848, 28.42241
3498.777, 28.29171
3500.705, 28.04810
3502.634, 28.70192
3504.562, 28.98571
3506.491, 27.61160
3508.419, 27.49911
3510.348, 29.27285
3512.276, 28.72946
3514.205, 26.61745
3516.133, 27.64380
3518.062, 29.57653
3519.990, 29.21029
3521.918, 28.82479
3523.847, 30.11436
3525.775, 30.42896
3527.704, 29.38587
3529.632, 29.33438
3531.561, 30.03785
3533.489, 29.95815
3535.418, 29.45899
3537.346, 28.58305
3539.275, 28.23206
3541.203, 29.11884
3543.132, 29.72396
3545.060, 29.81256
3546.989, 29.87672
3548.917, 29.89875
3550.845, 29.69085
3552.774, 29.41949
3554.702, 29.06974
3556.631, 29.13042
3558.559, 29.99390
3560.488, 30.03366
3562.416, 28.97971
3564.345, 28.00043
3566.273, 27.31327
3568.202, 27.38355
3570.130, 27.89347
3572.059, 28.88769
3573.987, 29.57154
3575.916, 29.77538
3577.844, 29.12693
3579.772, 27.79597
3581.701, 27.37825
3583.629, 27.54562
3585.558, 28.11890
3587.486, 28.50339
3589.415, 28.28781
3591.343, 28.18207
3593.272, 28.37989
3595.200, 27.98955
3597.129, 27.49692
3599.057, 28.97583
3600.986, 30.58684
3602.914, 30.33636
3604.843, 29.76368
3606.771, 29.29658
3608.699, 29.03650
3610.628, 28.96961
3612.556, 28.98701
3614.485, 28.98859
3616.413, 28.71905
3618.342, 28.47833
3620.270, 28.55066
3622.199, 28.36041
3624.127, 27.78076
3626.056, 28.13250
3627.984, 29.13633
3629.913, 29.94632
3631.841, 30.38624
3633.770, 30.21252
3635.698, 29.90306
3637.626, 29.53813
3639.555, 29.42213
3641.483, 29.50605
3643.412, 29.26124
3645.340, 28.85737
3647.269, 28.23856
3649.197, 28.11680
3651.126, 29.45188
3653.054, 29.90822
3654.983, 29.34697
3656.911, 28.47060
3658.840, 27.76206
3660.768, 28.76140
3662.697, 29.57096
3664.625, 28.39626
3666.553, 28.21340
3668.482, 29.44069
3670.410, 30.12218
3672.339, 30.30916
3674.267, 30.24287
3676.196, 30.13917
3678.124, 30.26954
3680.053, 30.19083
3681.981, 29.81063
3683.910, 29.31788
3685.838, 28.86760
3687.767, 29.29171
3689.695, 29.75072
3691.624, 28.83649
3693.552, 29.19230
3695.480, 31.93421
3697.409, 32.01369
3699.337, 29.72175
3701.266, 28.44101
3703.194, 28.14163
3705.123, 29.05959
3707.051, 30.13694
3708.980, 31.11814
3710.908, 31.75052
3712.837, 31.93421
3714.765, 30.82542
3716.694, 29.65640
3718.622, 29.92666
3720.551, 30.56645
3722.479, 31.51048
3724.407, 30.84468
3726.336, 28.85930
3728.264, 28.83637
3730.193, 29.69525
3732.121, 30.41825
3734.050, 30.81709
3735.978, 30.79384
3737.907, 30.59197
3739.835, 30.21807
3741.764, 29.43226
3743.692, 28.81312
3745.621, 29.04826
3747.549, 29.62460
3749.478, 30.59957
3751.406, 30.39295
3753.334, 29.40540
3755.263, 30.82967
3757.191, 32.12572
3759.120, 29.88586
3761.048, 28.75161
3762.977, 30.29550
3764.905, 31.21973
3766.834, 31.51542
3768.762, 31.85924
3770.691, 31.96950
3772.619, 31.72617
3774.548, 30.78761
3776.476, 28.83486
3778.405, 29.78620
3780.333, 32.16387
3782.261, 31.35216
3784.190, 30.04899
3786.118, 30.02641
3788.047, 30.16625
3789.975, 30.29818
3791.904, 29.42840
3793.832, 28.54206
3795.761, 30.30838
3797.689, 31.54449
3799.618, 30.11739
3801.546, 29.94605
3803.475, 31.18679
3805.403, 31.63957
3807.332, 31.63812
3809.260, 31.51475
3811.188, 31.31872
3813.117, 31.10700
3815.045, 30.48983
3816.974, 29.65904
3818.902, 29.32096
3820.831, 29.56415
3822.759, 31.03273
3824.688, 31.61619
3826.616, 30.47829
3828.545, 31.27494
3830.473, 32.83693
3832.402, 32.56882
3834.330, 31.91405
3836.259, 31.55466
3838.187, 31.45488
3840.115, 31.58836
3842.044, 31.66150
3843.972, 31.58056
3845.901, 31.35382
3847.829, 30.53500
3849.758, 28.84625
3851.686, 28.90611
3853.615, 30.28452
3855.543, 31.60641
3857.472, 32.36503
3859.400, 31.86068
3861.329, 31.39170
3863.257, 31.12597
3865.186, 31.15238
3867.114, 31.43623
3869.042, 31.92355
3870.971, 32.63813
3872.899, 34.00942
3874.828, 33.54220
3876.756, 31.80153
3878.685, 32.06981
3880.613, 32.54467
3882.542, 31.75278
3884.470, 31.28362
3886.399, 31.23664
3888.327, 31.54423
3890.256, 32.03933
3892.184, 32.68831
3894.113, 32.80120
3896.041, 31.56926
3897.969, 31.41663
3899.898, 32.46283
3901.826, 32.87052
3903.755, 32.54374
3905.683, 31.75193
3907.612, 31.66570
3909.540, 32.40999
3911.469, 32.74804
3913.397, 32.78300
3915.326, 32.98122
3917.254, 32.95288
3919.183, 32.35984
3921.111, 32.47688
3923.040, 33.13834
3924.968, 34.23013
3926.896, 34.40349
3928.825, 32.59666
3930.753, 32.33392
3932.682, 32.92334
3934.610, 33.37169
3936.539, 33.57654
3938.467, 32.54264
3940.396, 32.98245
3942.324, 35.06159
3944.253, 34.71723
3946.181, 33.29202
3948.110, 34.22263
3950.038, 35.01091
3951.967, 33.76739
3953.895, 33.47665
3955.823, 33.71756
3957.752, 32.05976
3959.680, 31.77336
3961.609, 34.56388
3963.537, 35.68343
3965.466, 34.86168
3967.394, 34.24115
3969.323, 33.87882
3971.251, 33.41975
3973.180, 33.72019
3975.108, 34.88314
3977.037, 34.58693
3978.965, 33.84370
3980.894, 33.83672
3982.822, 34.69254
3984.750, 35.81993
3986.679, 34.82001
3988.607, 33.75842
3990.536, 34.05807
3992.464, 35.14895
3994.393, 36.15363
3996.321, 36.07135
3998.250, 35.45583
4000.178, 35.61254
4002.107, 35.65408
4004.035, 34.55381
4005.964, 35.20774
4007.892, 36.43681
4009.821, 36.00123
4011.749, 35.10122
4013.677, 35.87437
4015.606, 36.97553
4017.534, 36.50212
4019.463, 35.55972
4021.391, 35.40192
4023.320, 35.71791
4025.248, 36.34043
4027.177, 36.44094
4029.105, 35.70876
4031.034, 35.27724
4032.962, 35.16736
4034.891, 35.91278
4036.819, 36.68223
4038.748, 37.19654
4040.676, 37.21045
4042.604, 36.34403
4044.533, 35.98043
4046.461, 35.85110
4048.390, 35.93101
4050.318, 36.40784
4052.247, 36.50903
4054.175, 36.30037
4056.104, 36.19233
4058.032, 36.46267
4059.961, 37.01903
4061.889, 37.12124
4063.818, 37.04052
4065.746, 36.88521
4067.675, 36.71177
4069.603, 37.13845
4071.531, 37.55063
4073.460, 37.34596
4075.388, 37.44143
4077.317, 37.83863
4079.245, 38.13859
4081.174, 38.16158
4083.102, 37.73872
4085.031, 36.96149
4086.959, 36.84324
4088.888, 37.37382
4090.816, 37.60280
4092.745, 37.94712
4094.673, 38.34988
4096.602, 38.05128
4098.530, 37.62354
4100.458, 36.72432
4102.387, 36.83246
4104.315, 37.91286
4106.244, 38.99426
4108.172, 39.51474
4110.101, 38.99139
4112.029, 38.46747
4113.958, 38.13898
4115.886, 39.44157
4117.814, 40.18820
4119.743, 37.59772
4121.671, 37.13663
4123.600, 38.71695
4125.528, 39.43493
4127.457, 39.58550
4129.385, 38.92376
4131.314, 39.46617
4133.242, 40.78219
4135.171, 39.00449
4137.099, 37.13189
4139.028, 37.62889
4140.956, 38.69169
4142.885, 39.75994
4144.813, 39.38441
4146.742, 39.07063
4148.670, 40.12482
4150.599, 40.62812
4152.527, 40.47195
4154.456, 40.26445
4156.384, 39.95441
4158.313, 39.28098
4160.241, 39.01590
4162.169, 39.28225
4164.098, 40.20839
4166.026, 41.03983
4167.955, 40.64374
4169.883, 40.96203
4171.812, 42.18781
4173.740, 42.02119
4175.668, 41.44851
4177.597, 41.39058
4179.525, 41.22039
4181.454, 40.94339
4183.382, 40.58809
4185.311, 40.19604
4187.239, 40.06232
4189.168, 40.39691
4191.096, 40.98539
4193.025, 42.58904
4194.953, 43.27973
4196.882, 41.22604
4198.810, 39.94133
4200.739, 39.93309
4202.667, 41.49981
4204.596, 43.22289
4206.524, 44.93109
4208.453, 43.46109
4210.381, 40.51864
4212.310, 40.78438
4214.238, 42.02866
4216.167, 43.64733
4218.095, 42.12387
4220.023, 39.73254
4221.952, 41.66453
4223.880, 43.19849
4225.809, 43.13331
4227.737, 43.71961
4229.666, 44.25961
4231.594, 43.54703
4233.522, 42.89678
4235.451, 42.61480
4237.379, 43.04753
4239.308, 43.75204
4241.236, 44.64767
4243.165, 44.03024
4245.093, 42.12593
4247.022, 43.18575
4248.950, 44.16708
4250.879, 42.61645
4252.807, 43.00104
4254.736, 44.85304
4256.664, 44.45219
4258.593, 43.89765
4260.521, 44.12525
4262.450, 44.99274
4264.378, 45.90568
4266.307, 45.29008
4268.235, 45.11497
4270.164, 46.04456
4272.092, 45.26902
4274.021, 44.27547
4275.949, 45.72974
4277.877, 45.37879
4279.806, 42.64017
4281.734, 42.79534
4283.663, 44.01746
4285.591, 45.12681
4287.520, 45.44360
4289.448, 45.11022
4291.376, 44.90041
4293.305, 44.95170
4295.233, 45.44144
4297.162, 44.82470
4299.090, 43.98388
4301.019, 45.14103
4302.947, 46.73179
4304.876, 48.31113
4306.804, 46.52183
4308.733, 44.23220
4310.661, 44.61816
4312.590, 46.34663
4314.518, 48.65187
4316.447, 47.94625
4318.375, 46.63353
4320.304, 46.07883
4322.232, 46.39484
4324.161, 47.05028
4326.089, 46.72965
4328.018, 46.09995
4329.946, 45.39237
4331.875, 46.21685
4333.803, 47.45745
4335.731, 47.74387
4337.660, 47.49055
4339.588, 47.12350
4341.517, 49.30621
4343.445, 50.74189
4345.374, 48.90956
4347.302, 48.52608
4349.230, 49.13352
4351.159, 49.18211
4353.087, 48.64052
4355.016, 47.50074
4356.944, 46.77327
4358.873, 46.53140
4360.801, 47.00004
4362.730, 47.37236
4364.658, 47.61703
4366.587, 48.44857
4368.515, 48.63424
4370.444, 47.00827
4372.372, 46.26329
4374.301, 46.36462
4376.229, 47.52360
4378.158, 48.77671
4380.086, 49.91829
4382.015, 50.55468
4383.943, 50.83133
4385.872, 50.73820
4387.800, 50.96154
4389.729, 51.18128
4391.657, 50.01493
4393.585, 49.79404
4395.514, 51.06468
4397.442, 50.51525
4399.371, 49.90211
4401.299, 51.06557
4403.228, 51.48078
4405.156, 51.14571
4407.084, 50.68046
4409.013, 50.75558
4410.941, 51.58486
4412.870, 52.18006
4414.798, 52.44524
4416.727, 52.49630
4418.655, 51.48599
4420.584, 49.89338
4422.512, 49.69961
4424.441, 50.62809
4426.369, 53.03561
4428.298, 54.27007
4430.226, 54.24494
4432.155, 51.63370
4434.083, 52.18037
4436.012, 55.32969
4437.940, 53.99689
4439.869, 52.97331
4441.797, 54.23135
4443.726, 55.31435
4445.654, 55.67504
4447.583, 54.38398
4449.511, 54.37009
4451.439, 55.09493
4453.368, 52.13693
4455.296, 50.68266
4457.225, 52.90679
4459.153, 54.51990
4461.082, 55.29476
4463.010, 54.69147
4464.938, 55.00921
4466.867, 55.86259
4468.795, 54.53176
4470.724, 53.92545
4472.652, 55.21760
4474.581, 55.16653
4476.509, 54.99957
4478.438, 55.74012
4480.366, 57.31520
4482.295, 58.91765
4484.223, 58.47993
4486.152, 57.76248
4488.080, 57.24361
4490.009, 57.28391
4491.937, 56.79359
4493.866, 54.31539
4495.794, 54.05232
4497.723, 55.44386
4499.651, 58.07841
4501.580, 59.05455
4503.508, 58.19913
4505.437, 58.21719
4507.365, 57.95095
4509.293, 56.82832
4511.222, 56.17504
4513.150, 56.43884
4515.079, 58.56718
4517.007, 59.10300
4518.936, 58.50649
4520.864, 59.25965
4522.792, 59.84077
4524.721, 59.77924
4526.649, 58.95805
4528.578, 58.63749
4530.506, 59.97012
4532.435, 60.97036
4534.363, 61.85989
4536.292, 63.49823
4538.220, 63.61091
4540.149, 62.34756
4542.077, 61.60119
4544.006, 61.28029
4545.934, 61.37025
4547.863, 63.78890
4549.791, 65.42062
4551.720, 62.16982
4553.648, 62.39523
4555.577, 64.31844
4557.505, 63.61323
4559.434, 63.71114
4561.362, 64.78516
4563.291, 64.13634
4565.219, 63.04219
4567.147, 62.03817
4569.076, 62.75542
4571.004, 63.49242
4572.933, 62.04086
4574.861, 63.12029
4576.790, 65.35066
4578.718, 65.93876
4580.646, 65.93398
4582.575, 65.65385
4584.503, 65.88724
4586.432, 65.89748
4588.360, 65.50096
4590.289, 65.83382
4592.217, 66.02290
4594.146, 65.17510
4596.074, 65.42866
4598.003, 66.70259
4599.931, 69.72769
4601.860, 70.27380
4603.788, 68.85701
4605.717, 68.33711
4607.645, 68.09273
4609.574, 67.91090
4611.502, 67.38643
4613.431, 67.04898
4615.359, 67.08812
4617.288, 69.43718
4619.216, 71.47774
4621.145, 70.32770
4623.073, 68.47581
4625.001, 67.49812
4626.930, 70.90743
4628.858, 71.54589
4630.787, 69.57111
4632.715, 69.05409
4634.644, 69.13243
4636.572, 69.49816
4638.500, 69.68641
4640.429, 69.95640
4642.357, 70.51610
4644.286, 69.94139
4646.214, 69.74840
4648.143, 71.51303
4650.071, 71.87907
4652.000, 71.83682
4653.928, 74.01171
4655.857, 74.07942
4657.785, 72.73818
4659.714, 74.73770
4661.642, 75.26106
4663.571, 73.72121
4665.499, 75.08588
4667.428, 75.59319
4669.356, 73.86436
4671.285, 74.81789
4673.213, 76.06609
4675.142, 75.88869
4677.070, 73.56099
4678.999, 72.10538
4680.927, 75.03019
4682.855, 79.04633
4684.784, 81.45708
4686.712, 76.77614
4688.641, 75.29704
4690.569, 76.99517
4692.498, 76.41815
4694.426, 76.71047
4696.354, 78.23371
4698.283, 77.81513
4700.211, 77.53625
4702.140, 78.03591
4704.068, 76.83158
4705.997, 75.89474
4707.925, 76.69017
4709.854, 76.52629
4711.782, 76.10616
4713.711, 76.03026
4715.639, 75.55598
4717.568, 75.35978
4719.496, 76.34071
4721.425, 78.33788
4723.353, 80.17561
4725.282, 79.05308
4727.210, 79.71886
4729.139, 81.58736
4731.067, 80.49807
4732.996, 79.89424
4734.924, 80.26016
4736.853, 79.37777
4738.781, 80.02051
4740.709, 82.78984
4742.638, 82.69044
4744.566, 82.33096
4746.495, 82.69186
4748.423, 80.50781
4750.352, 79.83331
4752.280, 84.18950
4754.208, 83.49720
4756.137, 81.52937
4758.065, 81.08585
4759.994, 82.08105
4761.922, 83.61364
4763.851, 84.82062
4765.779, 86.43789
4767.708, 87.01979
4769.636, 84.00282
4771.565, 82.16591
4773.493, 81.52419
4775.422, 80.58299
4777.350, 82.20107
4779.279, 85.43073
4781.207, 87.35056
4783.136, 88.02070
4785.064, 87.61904
4786.993, 85.83446
4788.921, 85.46777
4790.850, 86.72613
4792.778, 87.66290
4794.707, 88.22382
4796.635, 88.29234
4798.563, 86.58034
4800.492, 86.01363
4802.420, 87.33509
4804.349, 86.42293
4806.277, 85.89403
4808.206, 86.77644
4810.134, 88.82350
4812.063, 89.26134
4813.991, 86.92522
4815.919, 87.98939
4817.848, 89.48204
4819.776, 89.68924
4821.705, 88.66850
4823.633, 87.29377
4825.562, 85.99744
4827.490, 87.25887
4829.419, 88.67844
4831.347, 88.26698
4833.276, 90.21605
4835.204, 91.80549
4837.133, 90.67489
4839.061, 90.58959
4840.990, 90.72252
4842.918, 90.18352
4844.847, 88.45248
4846.775, 87.93767
4848.704, 91.60622
4850.632, 90.60188
4852.561, 88.68903
4854.489, 90.75065
4856.417, 90.17290
4858.346, 88.96980
4860.274, 89.71263
4862.203, 90.74318
4864.131, 91.46370
4866.060, 91.17147
4867.988, 92.17816
4869.917, 92.78770
4871.845, 90.28512
4873.773, 89.23491
4875.702, 90.09025
4877.630, 93.64315
4879.559, 93.58566
4881.487, 92.54546
4883.416, 94.92066
4885.344, 93.59174
4887.273, 92.08488
4889.201, 95.51514
4891.130, 94.34485
4893.058, 91.45372
4894.987, 91.01299
4896.915, 90.04381
4898.844, 89.83293
4900.772, 92.14447
4902.701, 92.71872
4904.629, 92.60634
4906.558, 93.45928
4908.486, 93.63951
4910.415, 93.28740
4912.343, 92.48971
4914.271, 93.16933
4916.200, 93.73183
4918.128, 92.26250
4920.057, 92.75770
4921.985, 92.73228
4923.914, 90.03615
4925.842, 90.88366
4927.771, 92.27476
4929.699, 91.60916
4931.627, 94.37222
4933.556, 95.84742
4935.484, 92.93967
4937.413, 93.98830
4939.341, 94.41298
4941.270, 91.76910
4943.198, 91.86380
4945.127, 93.30470
4947.055, 95.27957
4948.984, 92.59093
4950.912, 90.54390
4952.841, 90.98294
4954.769, 91.99052
4956.698, 92.32346
4958.626, 91.84332
4960.555, 94.01146
4962.483, 93.94363
4964.412, 91.34771
4966.340, 90.12534
4968.269, 92.19484
4970.197, 95.94387
4972.125, 93.36532
4974.054, 92.11997
4975.982, 92.58595
4977.911, 91.54274
4979.839, 91.46169
4981.768, 91.93571
4983.696, 91.34701
4985.625, 91.46945
4987.553, 92.00102
4989.481, 92.35087
4991.410, 91.43780
4993.338, 90.44240
4995.267, 90.90422
4997.195, 91.39087
4999.124, 91.58273
5001.052, 91.30669
5002.981, 90.10748
5004.909, 89.49567
5006.838, 90.31619
5008.766, 88.38136
5010.695, 87.32333
5012.623, 88.88332
5014.552, 90.26073
5016.480, 90.90515
5018.409, 90.82149
5020.337, 91.10126
5022.266, 90.14859
5024.194, 88.39693
5026.123, 89.29079
5028.051, 89.08946
5029.979, 87.93622
5031.908, 87.32402
5033.836, 89.41676
5035.765, 91.30910
5037.693, 87.66194
5039.622, 86.87984
5041.550, 87.12547
5043.479, 86.05355
5045.407, 88.33613
5047.335, 90.07163
5049.264, 88.48150
5051.192, 87.29924
5053.121, 86.10989
5055.049, 84.79451
5056.978, 85.59636
5058.906, 86.03320
5060.835, 85.93345
5062.763, 88.30006
5064.692, 87.38487
5066.620, 84.27287
5068.549, 84.12758
5070.477, 85.02559
5072.406, 86.11050
5074.334, 86.72027
5076.263, 85.62700
5078.191, 85.02892
5080.120, 87.83782
5082.048, 85.23591
5083.977, 83.23528
5085.905, 84.63795
5087.833, 83.73708
5089.762, 83.23965
5091.690, 83.74917
5093.619, 83.38063
5095.547, 82.72034
5097.476, 81.93156
5099.404, 80.91954
5101.333, 80.31185
5103.261, 80.53078
5105.189, 82.19997
5107.118, 83.68064
5109.046, 83.70480
5110.975, 80.74981
5112.903, 82.13032
5114.832, 82.44771
5116.760, 80.06120
5118.689, 80.35876
5120.617, 80.35829
5122.546, 79.81155
5124.474, 81.50054
5126.403, 80.11484
5128.331, 77.89938
5130.260, 79.63365
5132.188, 81.85279
5134.117, 82.80162
5136.045, 81.28129
5137.974, 79.92912
5139.902, 79.70589
5141.831, 80.82693
5143.759, 81.39993
5145.688, 80.63643
5147.616, 78.91057
5149.544, 77.21059
5151.473, 77.93977
5153.401, 79.04128
5155.330, 76.72033
5157.258, 76.58251
5159.187, 76.11492
5161.115, 73.69364
5163.043, 76.51180
5164.972, 78.78935
5166.900, 78.33582
5168.829, 74.75801
5170.757, 76.83738
5172.686, 81.30998
5174.614, 77.63634
5176.543, 76.47210
5178.471, 76.22345
5180.400, 74.27086
5182.328, 74.67603
5184.257, 75.30758
5186.185, 75.04052
5188.114, 73.87766
5190.042, 73.98302
5191.971, 75.01557
5193.899, 74.88852
5195.828, 75.13982
5197.756, 75.42872
5199.685, 75.30628
5201.613, 73.36543
5203.542, 72.32352
5205.470, 73.36695
5207.398, 74.81255
5209.327, 73.51997
5211.255, 70.70553
5213.184, 71.21020
5215.112, 70.90309
5217.041, 69.80418
5218.969, 67.69341
5220.897, 69.80000
5222.826, 72.60566
5224.754, 73.86620
5226.683, 68.66167
5228.611, 67.75346
5230.540, 70.18846
5232.468, 69.08060
5234.397, 68.45868
5236.325, 68.80860
5238.254, 70.28234
5240.182, 68.86539
5242.111, 69.40318
5244.039, 72.17949
5245.968, 70.77374
5247.896, 69.49950
5249.825, 68.75966
5251.753, 67.75332
5253.682, 68.61648
5255.610, 68.85754
5257.539, 67.24223
5259.467, 66.91228
5261.396, 66.63200
5263.324, 66.28264
5265.252, 66.76846
5267.181, 65.86109
5269.109, 64.62040
5271.038, 64.11941
5272.966, 65.31241
5274.895, 66.81072
5276.823, 67.49785
5278.751, 64.49315
5280.680, 63.69065
5282.608, 63.94218
5284.537, 62.38702
5286.465, 61.86945
5288.394, 61.89159
5290.322, 62.10725
5292.251, 61.76030
5294.179, 63.32954
5296.108, 65.37797
5298.036, 64.80309
5299.965, 62.83932
5301.893, 61.24952
5303.822, 61.00874
5305.750, 60.21128
5307.679, 59.92862
5309.607, 60.12185
5311.536, 60.02624
5313.464, 61.68422
5315.393, 62.76019
5317.321, 61.51589
5319.250, 59.86353
5321.178, 59.27358
5323.106, 59.38132
5325.035, 57.96133
5326.963, 58.91485
5328.892, 59.88491
5330.820, 58.84508
5332.749, 56.65938
5334.677, 57.33193
5336.605, 60.11217
5338.534, 60.05361
5340.462, 60.21311
5342.391, 59.89144
5344.319, 58.32778
5346.248, 54.82839
5348.176, 55.02238
5350.105, 57.88291
5352.033, 57.76450
5353.962, 57.69469
5355.890, 57.18068
5357.819, 55.65785
5359.747, 56.74795
5361.676, 55.99836
5363.604, 54.19709
5365.533, 55.29224
5367.461, 56.94569
5369.390, 56.60301
5371.318, 53.65375
5373.247, 54.07409
5375.175, 55.08160
5377.104, 55.80026
5379.032, 55.97503
5380.960, 55.88842
5382.889, 55.85035
5384.817, 55.60884
5386.746, 51.94256
5388.674, 53.50384
5390.603, 55.79145
5392.531, 51.85759
5394.459, 51.24783
5396.388, 51.60789
5398.316, 52.00202
5400.245, 53.61117
5402.173, 53.43359
5404.102, 52.46161
5406.030, 51.84323
5407.959, 51.43711
5409.887, 52.35488
5411.816, 53.40605
5413.744, 51.12971
5415.673, 51.48110
5417.601, 51.80375
5419.530, 50.72017
5421.458, 50.34167
5423.387, 50.17435
5425.315, 49.17707
5427.244, 46.45500
5429.172, 48.55043
5431.101, 51.09704
5433.029, 51.98461
5434.958, 49.73306
5436.886, 49.14072
5438.814, 49.95916
5440.743, 51.33499
5442.671, 46.73809
5444.600, 46.90450
5446.528, 49.50933
5448.457, 48.61278
5450.385, 48.99041
5452.313, 48.91001
5454.242, 48.28696
5456.170, 49.99491
5458.099, 47.99983
5460.027, 46.82855
5461.956, 49.37644
5463.884, 48.13773
5465.813, 47.39713
5467.741, 47.16555
5469.670, 46.31049
5471.598, 46.84271
5473.527, 46.94053
5475.455, 46.52562
5477.384, 47.48666
5479.312, 47.18401
5481.241, 46.14558
5483.169, 45.10519
5485.098, 46.37865
5487.026, 47.46087
5488.955, 48.01980
5490.883, 48.07712
5492.812, 44.47672
5494.740, 44.10642
5496.668, 45.96239
5498.597, 45.26126
5500.525, 44.08931
5502.454, 44.19152
5504.382, 45.32821
5506.311, 43.98695
5508.239, 43.96033
5510.167, 44.41602
5512.096, 44.52830
5514.024, 44.69344
5515.953, 43.70084
5517.881, 42.45390
5519.810, 42.02832
5521.738, 41.62429
5523.667, 43.32175
5525.595, 44.99810
5527.524, 41.41462
5529.452, 41.09042
5531.381, 42.29997
5533.309, 43.56682
5535.238, 43.17908
5537.166, 43.02310
5539.095, 42.50806
5541.023, 41.32592
5542.952, 39.45698
5544.880, 39.62791
5546.809, 40.91212
5548.737, 42.34866
5550.666, 44.55041
5552.594, 42.62285
5554.522, 40.28490
5556.451, 42.22604
5558.379, 41.86863
5560.308, 39.26489
5562.236, 37.12524
5564.165, 38.73613
5566.093, 39.21041
5568.021, 40.94981
5569.950, 42.25286
5571.878, 37.92455
5573.807, 39.38206
5575.735, 39.51720
5577.664, 37.43106
5579.592, 40.00319
5581.521, 38.76878
5583.449, 37.66840
5585.378, 38.54259
5587.306, 40.34394
5589.235, 40.28263
5591.163, 38.88013
5593.092, 37.34534
5595.020, 38.88833
5596.949, 38.06858
5598.877, 37.69654
5600.806, 39.52520
5602.734, 38.40533
5604.663, 37.38691
5606.591, 37.16500
5608.520, 37.77871
5610.448, 38.42019
5612.376, 39.22955
5614.305, 38.95130
5616.233, 36.93789
5618.162, 37.46589
5620.090, 37.98127
5622.019, 37.68485
5623.947, 36.57467
5625.875, 37.61326
5627.804, 38.42188
5629.732, 38.07472
5631.661, 36.13659
5633.589, 36.76365
5635.518, 36.48625
5637.446, 36.33853
5639.375, 38.31982
5641.303, 38.66656
5643.232, 38.90070
5645.160, 38.42610
5647.089, 36.39634
5649.017, 35.93996
5650.946, 35.68451
5652.874, 35.85038
5654.803, 37.01460
5656.731, 38.05322
5658.660, 36.56451
5660.588, 35.60586
5662.517, 39.35679
5664.445, 38.51337
5666.374, 36.96258
5668.302, 36.42915
5670.230, 37.46114
5672.159, 35.56484
5674.087, 33.77311
5676.016, 32.57990
5677.944, 32.00828
5679.873, 34.94338
5681.801, 34.87231
5683.729, 33.61770
5685.658, 33.76045
5687.586, 34.56867
5689.515, 35.80852
5691.443, 36.49760
5693.372, 35.93897
5695.300, 33.60441
5697.229, 32.27258
5699.157, 32.00023
5701.086, 32.54862
5703.014, 34.52155
5704.943, 34.60314
5706.871, 34.68104
5708.800, 35.43822
5710.728, 34.35852
5712.657, 34.42617
5714.585, 35.17731
5716.514, 35.33094
5718.442, 32.10841
5720.371, 32.77536
5722.299, 33.86708
5724.228, 34.07818
5726.156, 34.27178
5728.084, 33.67056
5730.013, 34.23057
5731.941, 34.63939
5733.870, 31.85922
5735.798, 33.92149
5737.727, 32.52060
5739.655, 30.72882
5741.583, 33.47635
5743.512, 32.20247
5745.440, 31.81383
5747.369, 32.59587
5749.297, 33.51055
5751.226, 31.98194
5753.154, 30.97744
5755.083, 32.23317
5757.011, 35.39086
5758.940, 37.03382
5760.868, 33.44299
5762.797, 31.51814
5764.725, 32.31178
5766.654, 30.60555
5768.582, 31.72761
5770.511, 33.17920
5772.439, 33.86307
5774.368, 33.54188
5776.296, 32.49798
5778.225, 30.91797
5780.153, 31.03928
5782.082, 33.68349
5784.010, 31.95057
5785.938, 30.76715
5787.867, 31.73550
5789.795, 33.59904
5791.724, 30.89089
5793.652, 28.84004
5795.581, 30.89727
5797.509, 34.06818
5799.438, 30.56078
5801.366, 32.23907
5803.294, 32.65860
5805.223, 31.52727
5807.151, 30.62789
5809.080, 30.66029
5811.008, 30.59970
5812.937, 30.16807
5814.865, 29.80934
5816.794, 31.44390
5818.722, 31.45512
5820.651, 30.57658
5822.579, 29.91860
5824.508, 30.42085
5826.436, 31.08956
5828.365, 31.23010
5830.293, 31.27092
5832.222, 31.60976
5834.150, 31.55323
5836.079, 30.08372
5838.007, 29.21815
5839.936, 29.52332
5841.864, 29.10131
5843.792, 31.15221
5845.721, 30.37748
5847.649, 28.64645
5849.578, 30.53259
5851.506, 29.20696
5853.435, 28.32858
5855.363, 28.01917
5857.292, 28.06371
5859.220, 29.90565
5861.148, 28.11469
5863.077, 27.84098
5865.005, 28.87507
5866.934, 27.92904
5868.862, 28.75215
5870.791, 29.14907
5872.719, 29.92969
5874.648, 31.33276
5876.576, 30.69610
5878.505, 29.48082
5880.433, 28.87803
5882.362, 28.98359
5884.290, 29.17031
5886.219, 25.59006
5888.147, 28.24611
5890.076, 30.20924
5892.004, 27.43868
5893.933, 29.01250
5895.861, 28.01640
5897.790, 27.75147
5899.718, 28.35107
5901.646, 28.05542
5903.575, 29.46134
5905.503, 28.03379
5907.432, 27.20874
5909.360, 28.35174
5911.289, 27.12095
5913.217, 29.74804
5915.146, 29.00698
5917.074, 27.01662
5919.002, 28.22444
5920.931, 27.32133
5922.859, 27.15556
5924.788, 26.66639
5926.716, 25.73630
5928.645, 25.46771
5930.573, 27.43972
5932.502, 24.99693
5934.430, 23.60440
5936.359, 26.91288
5938.287, 28.10475
5940.216, 29.49267
5942.144, 30.45897
5944.073, 29.72381
5946.001, 26.85226
5947.930, 26.57916
5949.858, 28.04815
5951.787, 27.93621
5953.715, 26.60997
5955.644, 27.51190
5957.572, 27.53457
5959.500, 25.84976
5961.429, 27.90065
5963.357, 29.02675
5965.286, 29.27769
5967.214, 26.03242
5969.143, 27.30178
5971.071, 26.76191
5973.000, 26.14780
5974.928, 28.05261
5976.856, 25.31587
5978.785, 27.18070
5980.713, 27.20870
5982.642, 28.07734
5984.570, 27.12559
5986.499, 26.73606
5988.427, 28.16761
5990.356, 28.59080
5992.284, 27.42947
5994.213, 28.35157
5996.141, 25.55121
5998.070, 26.01736
5999.998, 27.89288
6001.927, 26.82306
6003.855, 27.77846
6005.784, 27.53658
6007.712, 28.41814
6009.641, 26.55632
6011.569, 26.20651
6013.498, 22.63307
6015.426, 22.51885
6017.354, 23.72740
6019.283, 23.49826
6021.211, 25.54424
6023.140, 23.51776
6025.068, 24.44672
6026.997, 26.56801
6028.925, 26.23649
6030.854, 25.77831
6032.782, 24.24477
6034.710, 23.32037
6036.639, 24.30579
6038.567, 26.39548
6040.496, 22.29043
6042.424, 23.76600
6044.353, 25.90458
6046.281, 25.39695
6048.210, 22.68319
6050.138, 24.89569
6052.067, 24.02398
6053.995, 24.02621
6055.924, 23.98313
6057.852, 22.05322
6059.781, 23.31574
6061.709, 23.82930
6063.638, 24.61757
6065.566, 24.25935
6067.495, 21.98027
6069.423, 23.18723
6071.352, 22.99447
6073.280, 23.13008
6075.208, 24.04917
6077.137, 24.94436
6079.065, 23.73358
6080.994, 25.40865
6082.922, 23.29570
6084.851, 22.31522
6086.779, 25.50659
6088.708, 22.83789
6090.636, 22.59258
6092.564, 23.16457
6094.493, 24.43277
6096.421, 25.20017
6098.350, 21.37095
6100.278, 22.52453
6102.207, 24.11557
6104.135, 23.99048
6106.064, 22.89395
6107.992, 23.41113
6109.921, 24.61193
6111.849, 22.16188
6113.778, 22.57835
6115.706, 25.36431
6117.635, 24.28226
6119.563, 23.46203
6121.492, 22.84916
6123.420, 23.26150
6125.349, 22.97323
6127.277, 20.79367
6129.206, 23.87134
6131.134, 20.46798
6133.063, 21.04822
6134.991, 22.90639
6136.919, 22.21669
6138.848, 25.09456
6140.776, 22.33838
6142.705, 23.25645
6144.633, 24.47141
6146.562, 23.07197
6148.490, 21.01605
6150.418, 23.69516
6152.347, 23.45868
6154.275, 23.78920
6156.204, 25.13581
6158.132, 25.09036
6160.061, 21.99505
6161.989, 24.31890
6163.918, 22.85659
6165.846, 20.65997
6167.775, 21.07583
6169.703, 19.05872
6171.632, 22.45776
6173.560, 23.14011
6175.489, 21.48194
6177.417, 20.70475
6179.346, 22.69792
6181.274, 20.70235
6183.203, 21.51501
6185.131, 22.11807
6187.060, 21.21633
6188.988, 20.38317
6190.917, 23.54444
6192.845, 21.74900
6194.773, 20.51207
6196.702, 21.49888
6198.630, 22.37443
6200.559, 20.56069
6202.487, 23.61259
6204.416, 21.82885
6206.344, 19.41805
6208.272, 19.09787
6210.201, 20.67426
6212.129, 21.75851
6214.058, 22.39424
6215.986, 21.00553
6217.915, 20.19078
6219.843, 21.05727
6221.772, 22.31119
6223.700, 19.55531
6225.629, 21.09459
6227.557, 21.18196
6229.486, 20.55448
6231.414, 20.23540
6233.343, 18.84036
6235.271, 18.62578
6237.200, 18.55513
6239.128, 20.69253
6241.057, 22.15170
6242.985, 20.88099
6244.914, 20.70471
6246.842, 21.22535
6248.771, 18.20574
6250.699, 19.24957
6252.627, 22.05587
6254.556, 20.84933
6256.484, 23.43134
6258.413, 20.11105
6260.341, 18.85373
6262.270, 19.49647
6264.198, 20.60565
6266.126, 21.79704
6268.055, 20.91003
6269.983, 20.26564
6271.912, 19.50096
6273.840, 21.13723
6275.769, 22.48706
6277.697, 17.71486
6279.626, 19.77982
6281.554, 20.06163
6283.483, 21.27032
6285.411, 20.67842
6287.340, 18.81714
6289.268, 20.47196
6291.197, 18.45888
6293.125, 18.79647
6295.054, 18.68102
6296.982, 19.90699
6298.911, 21.28809
6300.839, 18.16720
6302.768, 18.63739
6304.696, 21.95226
6306.625, 22.50437
6308.553, 21.58591
6310.481, 20.07170
6312.410, 16.86092
6314.338, 21.06928
6316.267, 20.97384
6318.195, 19.61007
6320.124, 19.37053
6322.052, 19.16764
6323.980, 16.91936
6325.909, 21.21583
6327.837, 18.48144
6329.766, 19.41626
6331.694, 20.58000
6333.623, 19.39398
6335.551, 18.11901
6337.480, 16.99005
6339.408, 19.00761
6341.337, 21.02315
6343.265, 20.15780
6345.194, 17.92854
6347.122, 17.66442
6349.051, 21.44108
6350.979, 20.18213
6352.908, 19.95152
6354.836, 21.09352
6356.765, 20.33154
6358.693, 17.41654
6360.622, 17.56998
6362.550, 17.12397
6364.479, 17.67685
6366.407, 17.97659
6368.335, 19.11556
6370.264, 20.02036
6372.192, 18.03751
6374.121, 18.92672
6376.049, 21.66798
6377.978, 21.89580
6379.906, 19.95062
6381.834, 17.58789
6383.763, 16.29479
6385.691, 17.62313
6387.620, 19.47980
6389.548, 17.29248
6391.477, 16.42992
6393.405, 16.64823
6395.334, 17.06910
6397.262, 19.53020
6399.191, 17.71605
6401.119, 17.44342
6403.048, 17.08967
6404.976, 19.04049
6406.905, 20.71629
6408.833, 18.69593
6410.762, 16.35218
6412.690, 18.25171
6414.619, 19.61883
6416.547, 17.29676
6418.476, 16.72038
6420.404, 19.28160
6422.333, 20.07689
6424.261, 17.47885
6426.189, 20.49667
6428.118, 18.00347
6430.046, 17.55120
6431.975, 18.81981
6433.903, 18.05615
6435.832, 15.72332
6437.760, 16.09048
6439.688, 17.27780
6441.617, 18.15572
6443.545, 17.48224
6445.474, 17.35782
6447.402, 18.14451
6449.331, 15.27592
6451.259, 14.25533
6453.188, 15.72718
6455.116, 18.02314
6457.045, 17.98027
6458.973, 16.64391
6460.902, 16.36701
6462.830, 16.32109
6464.759, 18.07105
6466.687, 16.28298
6468.616, 14.03998
6470.544, 14.56498
6472.473, 15.97530
6474.401, 16.11657
6476.330, 18.65220
6478.258, 16.83576
6480.187, 16.81048
6482.115, 16.64688
6484.043, 16.92029
6485.972, 17.75382
6487.900, 18.05273
6489.829, 16.98918
6491.757, 16.63505
6493.686, 17.60793
6495.614, 18.20028
6497.542, 16.58067
6499.471, 15.11782
6501.399, 15.54991
6503.328, 15.69063
6505.256, 13.58035
6507.185, 17.01346
6509.113, 17.52601
6511.042, 16.34432
6512.970, 15.31016
6514.899, 15.15014
6516.827, 16.26952
6518.756, 18.76657
6520.684, 16.01464
6522.613, 15.25715
6524.541, 14.95016
6526.470, 16.01501
6528.398, 16.41871
6530.327, 14.56057
6532.255, 15.13597
6534.184, 16.22298
6536.112, 17.22615
6538.041, 16.51296
6539.969, 15.67659
6541.897, 15.45668
6543.826, 15.32863
6545.754, 14.93182
6547.683, 16.06274
6549.611, 16.13749
6551.540, 15.42984
6553.468, 16.34265
6555.396, 16.74481
6557.325, 16.26609
6559.253, 16.64803
6561.182, 17.85752
6563.110, 14.31445
6565.039, 18.09189
6566.967, 18.01718
6568.896, 16.76577
6570.824, 15.34360
6572.753, 14.05552
6574.681, 14.36529
6576.610, 17.54172
6578.538, 19.20238
6580.467, 14.60226
6582.395, 16.24699
6584.324, 14.28453
6586.252, 13.24102
6588.181, 14.41430
6590.109, 13.68154
6592.038, 16.49002
6593.966, 16.98399
6595.895, 15.94057
6597.823, 17.12578
6599.751, 15.31534
6601.680, 14.09865
6603.608, 14.13788
6605.537, 13.17891
6607.465, 14.97033
6609.394, 13.53706
6611.322, 16.50170
6613.250, 16.79092
6615.179, 14.08348
6617.107, 14.17852
6619.036, 16.12666
6620.964, 15.90818
6622.893, 14.51752
6624.821, 14.88121
6626.750, 14.87970
##END=



