##NAMES=Stevensite
##RRUFFID=R070332
##IDEAL CHEMISTRY=(Ca,Na)_x_Mg_3-y_Si_4_O_10_(OH)_2_
##LOCALITY=Kovdor, Kola Peninsula, Russia
##OWNER=RRUFF
##SOURCE=Michael Scott
##DESCRIPTION=Colorless fine-grained, pseudomorph after pectolite
##STATUS=The identification of this mineral is not yet confirmed
##URL=https://www.rruff.net/odr/rruff_sample/R070332
##FILETYPE=Raman RAW
##RAMAN WAVELENGTH=532

181.6360, 7548.040
183.5645, 7634.100
185.4929, 7647.283
187.4214, 7674.082
189.3499, 7722.894
191.2783, 7786.777
193.2068, 7848.132
195.1353, 7904.879
197.0637, 7960.049
198.9922, 8015.516
200.9207, 8076.091
202.8491, 8129.486
204.7776, 8167.341
206.7061, 8194.944
208.6345, 8230.718
210.5630, 8284.989
212.4915, 8343.402
214.4199, 8396.261
216.3484, 8445.756
218.2769, 8487.555
220.2053, 8514.877
222.1338, 8527.528
224.0623, 8551.641
225.9907, 8594.264
227.9192, 8644.938
229.8477, 8694.725
231.7761, 8749.620
233.7046, 8792.280
235.6331, 8814.090
237.5615, 8805.733
239.4900, 8811.907
241.4185, 8844.373
243.3469, 8886.248
245.2754, 8916.556
247.2039, 8925.116
249.1323, 8936.333
251.0608, 8958.580
252.9893, 8996.344
254.9177, 9034.605
256.8462, 9081.118
258.7747, 9125.688
260.7031, 9155.827
262.6316, 9152.701
264.5601, 9153.136
266.4885, 9171.277
268.4170, 9212.756
270.3455, 9250.129
272.2739, 9281.831
274.2024, 9307.756
276.1309, 9327.083
278.0593, 9323.217
279.9878, 9326.874
281.9163, 9355.239
283.8447, 9411.917
285.7732, 9457.242
287.7017, 9473.258
289.6301, 9474.253
291.5586, 9484.697
293.4871, 9513.979
295.4155, 9544.145
297.3440, 9569.806
299.2725, 9591.688
301.2009, 9608.206
303.1294, 9608.947
305.0579, 9604.850
306.9863, 9618.659
308.9148, 9667.223
310.8433, 9716.117
312.7717, 9752.975
314.7002, 9777.986
316.6287, 9801.085
318.5571, 9826.560
320.4856, 9851.052
322.4141, 9866.938
324.3425, 9862.782
326.2710, 9864.407
328.1995, 9884.403
330.1279, 9924.153
332.0564, 9958.543
333.9849, 9983.222
335.9133, 10001.83
337.8418, 10018.85
339.7703, 10032.67
341.6987, 10047.77
343.6272, 10065.44
345.5557, 10085.59
347.4841, 10108.14
349.4126, 10134.32
351.3411, 10162.06
353.2695, 10188.77
355.1980, 10213.46
357.1265, 10239.33
359.0549, 10270.86
360.9834, 10309.78
362.9119, 10334.47
364.8403, 10331.97
366.7688, 10325.15
368.6973, 10333.39
370.6257, 10360.16
372.5542, 10388.58
374.4827, 10417.53
376.4111, 10446.27
378.3396, 10464.53
380.2681, 10460.36
382.1965, 10456.48
384.1250, 10465.35
386.0535, 10486.85
387.9819, 10516.89
389.9104, 10567.27
391.8389, 10626.66
393.7673, 10659.03
395.6958, 10637.47
397.6243, 10618.25
399.5527, 10625.79
401.4812, 10660.91
403.4097, 10693.40
405.3381, 10718.42
407.2666, 10738.51
409.1951, 10756.08
411.1235, 10767.25
413.0520, 10781.70
414.9805, 10807.65
416.9089, 10843.36
418.8374, 10867.05
420.7659, 10859.87
422.6943, 10850.27
424.6228, 10863.74
426.5513, 10910.54
428.4797, 10951.05
430.4082, 10967.04
432.3367, 10968.15
434.2651, 10983.05
436.1936, 11026.80
438.1221, 11072.72
440.0505, 11111.10
441.9790, 11141.76
443.9075, 11166.93
445.8359, 11185.34
447.7644, 11198.58
449.6929, 11208.38
451.6213, 11210.75
453.5498, 11213.43
455.4783, 11216.57
457.4067, 11220.63
459.3352, 11228.45
461.2637, 11239.25
463.1921, 11255.25
465.1206, 11278.18
467.0491, 11316.73
468.9775, 11349.08
470.9060, 11369.31
472.8345, 11382.60
474.7629, 11401.27
476.6914, 11428.81
478.6199, 11457.02
480.5483, 11486.39
482.4768, 11521.95
484.4053, 11536.52
486.3337, 11502.49
488.2622, 11464.61
490.1907, 11468.45
492.1191, 11528.24
494.0476, 11581.46
495.9761, 11605.77
497.9045, 11608.04
499.8330, 11620.27
501.7615, 11649.04
503.6899, 11680.44
505.6184, 11711.04
507.5469, 11741.15
509.4753, 11764.50
511.4038, 11772.13
513.3323, 11775.99
515.2607, 11786.94
517.1892, 11808.56
519.1177, 11833.04
521.0461, 11860.99
522.9746, 11891.42
524.9031, 11922.41
526.8315, 11959.50
528.7600, 11990.51
530.6885, 12008.22
532.6169, 12005.66
534.5454, 12011.96
536.4739, 12034.36
538.4023, 12061.66
540.3308, 12083.61
542.2593, 12098.46
544.1877, 12112.38
546.1162, 12125.33
548.0447, 12138.17
549.9731, 12154.72
551.9016, 12173.48
553.8301, 12196.52
555.7585, 12230.19
557.6870, 12273.19
559.6155, 12304.48
561.5439, 12307.52
563.4724, 12306.15
565.4009, 12317.86
567.3293, 12354.50
569.2578, 12382.67
571.1863, 12386.51
573.1147, 12383.31
575.0432, 12400.62
576.9717, 12459.83
578.9001, 12509.13
580.8286, 12529.49
582.7571, 12520.43
584.6855, 12517.34
586.6140, 12511.65
588.5425, 12518.68
590.4709, 12553.08
592.3994, 12618.24
594.3279, 12671.07
596.2563, 12699.60
598.1848, 12715.18
600.1133, 12728.23
602.0417, 12735.04
603.9702, 12745.43
605.8987, 12761.78
607.8271, 12782.88
609.7556, 12806.59
611.6841, 12836.90
613.6125, 12864.38
615.5410, 12882.90
617.4695, 12891.28
619.3979, 12909.45
621.3264, 12951.18
623.2549, 12991.35
625.1833, 13009.90
627.1118, 13002.97
629.0403, 13011.67
630.9688, 13064.04
632.8972, 13125.57
634.8257, 13158.45
636.7542, 13140.90
638.6826, 13128.76
640.6111, 13127.04
642.5396, 13136.01
644.4680, 13155.09
646.3965, 13186.41
648.3250, 13225.92
650.2534, 13280.65
652.1819, 13350.02
654.1104, 13393.42
656.0388, 13392.97
657.9673, 13384.96
659.8958, 13385.16
661.8242, 13392.89
663.7527, 13405.16
665.6812, 13423.75
667.6096, 13445.38
669.5381, 13467.80
671.4666, 13485.97
673.3950, 13513.59
675.3235, 13562.98
677.2520, 13617.01
679.1804, 13653.24
681.1089, 13663.69
683.0374, 13676.94
684.9658, 13703.99
686.8943, 13740.08
688.8228, 13770.29
690.7512, 13788.41
692.6797, 13807.77
694.6082, 13831.00
696.5366, 13858.12
698.4651, 13889.98
700.3936, 13936.84
702.3220, 13975.73
704.2505, 13993.81
706.1790, 13984.53
708.1074, 13985.60
710.0359, 13996.71
711.9644, 14016.87
713.8928, 14052.80
715.8213, 14106.17
717.7498, 14143.90
719.6782, 14141.95
721.6067, 14132.00
723.5352, 14140.02
725.4636, 14174.91
727.3921, 14213.84
729.3206, 14266.42
731.2490, 14318.15
733.1775, 14343.88
735.1060, 14332.51
737.0344, 14329.25
738.9629, 14357.52
740.8914, 14402.13
742.8198, 14433.10
744.7483, 14429.85
746.6768, 14436.80
748.6052, 14467.47
750.5337, 14516.45
752.4622, 14559.62
754.3906, 14599.50
756.3191, 14630.37
758.2476, 14646.44
760.1760, 14650.33
762.1045, 14655.45
764.0330, 14651.48
765.9614, 14659.84
767.8899, 14698.08
769.8184, 14769.35
771.7468, 14813.38
773.6753, 14801.98
775.6038, 14789.14
777.5322, 14804.80
779.4607, 14848.21
781.3892, 14890.98
783.3176, 14932.61
785.2461, 14969.78
787.1746, 14998.22
789.1030, 15011.78
791.0315, 15035.95
792.9600, 15090.66
794.8884, 15141.93
796.8169, 15154.07
798.7454, 15120.49
800.6738, 15115.44
802.6023, 15181.13
804.5308, 15265.44
806.4592, 15329.57
808.3877, 15361.44
810.3162, 15391.37
812.2446, 15414.42
814.1731, 15438.19
816.1016, 15474.68
818.0300, 15528.79
819.9585, 15570.21
821.8870, 15575.34
823.8154, 15571.20
825.7439, 15585.95
827.6724, 15636.06
829.6008, 15677.84
831.5293, 15702.17
833.4578, 15718.77
835.3862, 15743.10
837.3147, 15779.74
839.2432, 15808.53
841.1716, 15812.30
843.1001, 15809.93
845.0286, 15826.44
846.9570, 15871.78
848.8855, 15916.48
850.8140, 15956.23
852.7424, 15992.39
854.6709, 16027.14
856.5994, 16061.58
858.5278, 16092.73
860.4563, 16117.77
862.3848, 16139.95
864.3132, 16163.68
866.2417, 16190.40
868.1702, 16215.27
870.0986, 16236.54
872.0271, 16255.76
873.9556, 16274.87
875.8840, 16283.13
877.8125, 16306.27
879.7410, 16368.66
881.6694, 16438.02
883.5979, 16465.32
885.5264, 16435.68
887.4548, 16418.32
889.3833, 16436.55
891.3118, 16476.08
893.2402, 16522.81
895.1687, 16589.42
897.0972, 16641.64
899.0256, 16669.92
900.9541, 16685.89
902.8826, 16700.35
904.8110, 16707.10
906.7395, 16734.44
908.6680, 16809.96
910.5964, 16897.28
912.5249, 16963.46
914.4534, 17008.45
916.3818, 17030.76
918.3103, 17004.50
920.2388, 16973.21
922.1672, 16979.69
924.0957, 17041.69
926.0242, 17097.98
927.9526, 17148.50
929.8811, 17190.44
931.8096, 17220.25
933.7380, 17237.78
935.6665, 17252.69
937.5950, 17262.78
939.5234, 17274.19
941.4519, 17288.46
943.3804, 17301.77
945.3088, 17332.96
947.2373, 17400.59
949.1658, 17467.79
951.0942, 17507.99
953.0227, 17522.76
954.9512, 17552.90
956.8796, 17623.26
958.8081, 17682.41
960.7366, 17690.64
962.6650, 17655.54
964.5935, 17656.72
966.5220, 17731.63
968.4504, 17810.13
970.3789, 17881.48
972.3074, 17942.98
974.2358, 17973.62
976.1643, 17947.30
978.0928, 17927.75
980.0212, 17928.26
981.9497, 17949.11
983.8782, 17993.15
985.8066, 18072.99
987.7351, 18145.57
989.6636, 18204.48
991.5920, 18246.49
993.5205, 18262.77
995.4490, 18213.22
997.3774, 18200.36
999.3059, 18250.41
1001.234, 18329.10
1003.163, 18404.09
1005.091, 18479.99
1007.020, 18529.41
1008.948, 18518.99
1010.877, 18503.78
1012.805, 18524.61
1014.734, 18584.40
1016.662, 18638.13
1018.591, 18671.69
1020.519, 18705.33
1022.448, 18753.02
1024.376, 18816.23
1026.304, 18857.92
1028.233, 18855.19
1030.161, 18858.21
1032.090, 18892.50
1034.018, 18946.59
1035.947, 18982.11
1037.875, 18981.65
1039.804, 18997.96
1041.732, 19070.86
1043.661, 19166.56
1045.589, 19225.51
1047.518, 19223.40
1049.446, 19232.83
1051.375, 19270.30
1053.303, 19318.71
1055.231, 19363.28
1057.160, 19407.97
1059.088, 19433.53
1061.017, 19399.44
1062.945, 19378.25
1064.874, 19436.62
1066.802, 19561.47
1068.731, 19650.00
1070.659, 19672.54
1072.588, 19679.11
1074.516, 19683.10
1076.445, 19687.06
1078.373, 19705.95
1080.302, 19745.54
1082.230, 19794.19
1084.158, 19860.70
1086.087, 19932.83
1088.015, 19985.67
1089.944, 20012.91
1091.872, 20044.92
1093.801, 20103.08
1095.729, 20156.15
1097.658, 20172.08
1099.586, 20149.93
1101.515, 20144.67
1103.443, 20168.12
1105.372, 20207.67
1107.300, 20266.10
1109.229, 20341.57
1111.157, 20397.92
1113.085, 20423.20
1115.014, 20444.29
1116.942, 20452.79
1118.871, 20463.54
1120.799, 20514.49
1122.728, 20623.97
1124.656, 20710.51
1126.585, 20739.49
1128.513, 20750.77
1130.442, 20775.24
1132.370, 20813.06
1134.299, 20856.41
1136.227, 20913.73
1138.156, 20965.29
1140.084, 21001.89
1142.012, 21024.52
1143.941, 21043.37
1145.869, 21038.42
1147.798, 21054.99
1149.726, 21121.90
1151.655, 21207.73
1153.583, 21255.68
1155.512, 21254.51
1157.440, 21270.03
1159.369, 21323.19
1161.297, 21388.09
1163.226, 21447.61
1165.154, 21502.72
1167.083, 21562.97
1169.011, 21639.91
1170.939, 21705.55
1172.868, 21752.39
1174.796, 21780.90
1176.725, 21790.58
1178.653, 21744.65
1180.582, 21739.23
1182.510, 21815.15
1184.439, 21911.13
1186.367, 21968.63
1188.296, 21981.51
1190.224, 21999.08
1192.153, 22017.99
1194.081, 22047.07
1196.010, 22098.16
1197.938, 22161.87
1199.866, 22214.60
1201.795, 22250.76
1203.723, 22288.91
1205.652, 22341.66
1207.580, 22394.14
1209.509, 22432.22
1211.437, 22453.31
1213.366, 22471.21
1215.294, 22474.73
1217.223, 22487.98
1219.151, 22522.11
1221.080, 22574.76
1223.008, 22634.64
1224.937, 22711.49
1226.865, 22779.50
1228.793, 22834.09
1230.722, 22878.43
1232.650, 22909.78
1234.579, 22928.20
1236.507, 22963.57
1238.436, 23032.92
1240.364, 23102.05
1242.293, 23153.16
1244.221, 23191.22
1246.150, 23231.73
1248.078, 23285.85
1250.007, 23314.51
1251.935, 23266.68
1253.864, 23223.93
1255.792, 23265.63
1257.720, 23413.30
1259.649, 23517.99
1261.577, 23549.41
1263.506, 23578.02
1265.434, 23631.99
1267.363, 23697.37
1269.291, 23740.94
1271.220, 23756.55
1273.148, 23775.73
1275.077, 23799.78
1277.005, 23832.25
1278.934, 23876.21
1280.862, 23930.65
1282.791, 23998.54
1284.719, 24101.60
1286.647, 24171.33
1288.576, 24145.40
1290.504, 24095.29
1292.433, 24107.59
1294.361, 24196.39
1296.290, 24275.48
1298.218, 24331.68
1300.147, 24383.32
1302.075, 24438.06
1304.004, 24493.44
1305.932, 24541.60
1307.861, 24574.63
1309.789, 24612.09
1311.718, 24657.01
1313.646, 24704.53
1315.574, 24755.53
1317.503, 24808.47
1319.431, 24844.29
1321.360, 24847.96
1323.288, 24861.72
1325.217, 24906.75
1327.145, 24964.95
1329.074, 25018.07
1331.002, 25066.12
1332.931, 25106.19
1334.859, 25128.99
1336.788, 25156.77
1338.716, 25200.61
1340.645, 25255.58
1342.573, 25312.66
1344.501, 25375.58
1346.430, 25428.71
1348.358, 25451.58
1350.287, 25482.49
1352.215, 25549.55
1354.144, 25646.15
1356.072, 25727.47
1358.001, 25800.48
1359.929, 25848.12
1361.858, 25843.38
1363.786, 25832.78
1365.715, 25859.95
1367.643, 25924.99
1369.572, 25973.55
1371.500, 25982.40
1373.428, 26012.96
1375.357, 26110.16
1377.285, 26220.61
1379.214, 26279.57
1381.142, 26289.51
1383.071, 26308.45
1384.999, 26349.70
1386.928, 26389.35
1388.856, 26401.56
1390.785, 26413.50
1392.713, 26471.27
1394.642, 26582.11
1396.570, 26671.74
1398.499, 26726.11
1400.427, 26760.88
1402.355, 26770.83
1404.284, 26769.07
1406.212, 26782.41
1408.141, 26808.49
1410.069, 26857.10
1411.998, 26943.21
1413.926, 27035.50
1415.855, 27134.94
1417.783, 27229.30
1419.712, 27279.83
1421.640, 27235.89
1423.569, 27231.91
1425.497, 27300.15
1427.426, 27376.06
1429.354, 27421.78
1431.282, 27445.83
1433.211, 27478.94
1435.139, 27521.26
1437.068, 27571.12
1438.996, 27645.62
1440.925, 27711.03
1442.853, 27730.91
1444.782, 27725.00
1446.710, 27760.30
1448.639, 27854.93
1450.567, 27922.95
1452.496, 27918.36
1454.424, 27907.99
1456.353, 27936.35
1458.281, 27992.69
1460.209, 28049.12
1462.138, 28105.18
1464.066, 28159.75
1465.995, 28219.16
1467.923, 28269.69
1469.852, 28292.26
1471.780, 28298.33
1473.709, 28333.85
1475.637, 28405.02
1477.566, 28487.95
1479.494, 28612.08
1481.423, 28712.20
1483.351, 28734.42
1485.280, 28704.33
1487.208, 28717.98
1489.136, 28799.79
1491.065, 28869.52
1492.993, 28913.01
1494.922, 28952.52
1496.850, 28998.15
1498.779, 29048.22
1500.707, 29098.11
1502.636, 29146.27
1504.564, 29197.77
1506.493, 29260.51
1508.421, 29317.47
1510.350, 29356.91
1512.278, 29386.76
1514.207, 29423.87
1516.135, 29472.47
1518.063, 29513.43
1519.992, 29522.87
1521.920, 29553.23
1523.849, 29653.45
1525.777, 29770.53
1527.706, 29815.66
1529.634, 29783.28
1531.563, 29782.78
1533.491, 29843.16
1535.420, 29898.72
1537.348, 29915.33
1539.277, 29926.38
1541.205, 29966.23
1543.134, 30032.57
1545.062, 30116.44
1546.990, 30233.95
1548.919, 30326.73
1550.847, 30360.25
1552.776, 30377.78
1554.704, 30398.76
1556.633, 30430.38
1558.561, 30512.12
1560.490, 30669.70
1562.418, 30768.05
1564.347, 30734.93
1566.275, 30683.96
1568.204, 30663.13
1570.132, 30677.19
1572.061, 30756.02
1573.989, 30910.35
1575.917, 31011.30
1577.846, 31007.38
1579.774, 30999.40
1581.703, 31033.34
1583.631, 31086.93
1585.560, 31138.36
1587.488, 31187.45
1589.417, 31228.44
1591.345, 31249.71
1593.274, 31288.99
1595.202, 31382.23
1597.131, 31475.90
1599.059, 31527.25
1600.988, 31545.39
1602.916, 31570.18
1604.844, 31597.66
1606.773, 31650.52
1608.701, 31767.60
1610.630, 31867.53
1612.558, 31904.08
1614.487, 31903.76
1616.415, 31903.27
1618.344, 31898.05
1620.272, 31942.28
1622.201, 32079.81
1624.129, 32198.59
1626.058, 32260.71
1627.986, 32297.22
1629.915, 32330.72
1631.843, 32361.25
1633.771, 32387.87
1635.700, 32405.34
1637.628, 32433.00
1639.557, 32474.48
1641.485, 32526.54
1643.414, 32593.66
1645.342, 32668.22
1647.271, 32738.46
1649.199, 32805.32
1651.128, 32860.25
1653.056, 32900.18
1654.985, 32932.44
1656.913, 32964.13
1658.842, 32984.53
1660.770, 32968.00
1662.698, 32928.68
1664.627, 32949.89
1666.555, 33061.32
1668.484, 33141.14
1670.412, 33132.29
1672.341, 33143.43
1674.269, 33230.75
1676.198, 33346.64
1678.126, 33435.32
1680.055, 33496.32
1681.983, 33534.53
1683.912, 33526.84
1685.840, 33546.09
1687.769, 33636.14
1689.697, 33723.06
1691.625, 33768.69
1693.554, 33784.04
1695.482, 33785.39
1697.411, 33767.48
1699.339, 33775.93
1701.268, 33827.18
1703.196, 33880.45
1705.125, 33913.41
1707.053, 33956.11
1708.982, 34043.02
1710.910, 34157.25
1712.839, 34233.75
1714.767, 34262.39
1716.696, 34306.00
1718.624, 34385.80
1720.552, 34457.90
1722.481, 34515.73
1724.409, 34553.45
1726.338, 34553.82
1728.266, 34526.79
1730.195, 34523.16
1732.123, 34542.73
1734.052, 34591.20
1735.980, 34688.66
1737.909, 34784.60
1739.837, 34860.88
1741.766, 34923.76
1743.694, 34979.59
1745.623, 35027.26
1747.551, 35056.33
1749.479, 35059.29
1751.408, 35080.18
1753.336, 35136.95
1755.265, 35197.66
1757.193, 35241.86
1759.122, 35287.16
1761.050, 35365.24
1762.979, 35462.84
1764.907, 35510.67
1766.836, 35494.52
1768.764, 35489.50
1770.693, 35504.14
1772.621, 35543.08
1774.550, 35631.06
1776.478, 35727.55
1778.406, 35788.57
1780.335, 35822.49
1782.263, 35863.07
1784.192, 35913.73
1786.120, 35958.24
1788.049, 35994.55
1789.977, 36023.21
1791.906, 36034.42
1793.834, 36046.10
1795.763, 36066.85
1797.691, 36102.64
1799.620, 36180.95
1801.548, 36312.25
1803.477, 36428.83
1805.405, 36547.69
1807.333, 36615.04
1809.262, 36566.78
1811.190, 36505.63
1813.119, 36507.32
1815.047, 36563.37
1816.976, 36661.64
1818.904, 36825.15
1820.833, 36928.25
1822.761, 36918.30
1824.690, 36926.21
1826.618, 36994.39
1828.547, 37064.14
1830.475, 37095.21
1832.404, 37104.97
1834.332, 37121.39
1836.260, 37143.50
1838.189, 37184.97
1840.117, 37261.03
1842.046, 37327.90
1843.974, 37376.96
1845.903, 37421.95
1847.831, 37459.07
1849.760, 37501.84
1851.688, 37574.12
1853.617, 37669.36
1855.545, 37737.82
1857.474, 37776.77
1859.402, 37800.88
1861.331, 37791.81
1863.259, 37806.97
1865.188, 37900.40
1867.116, 37987.88
1869.044, 37993.60
1870.973, 37961.81
1872.901, 37975.81
1874.830, 38034.33
1876.758, 38113.38
1878.687, 38228.36
1880.615, 38295.14
1882.544, 38250.56
1884.472, 38216.32
1886.401, 38247.48
1888.329, 38322.41
1890.258, 38445.14
1892.186, 38593.38
1894.115, 38680.71
1896.043, 38701.61
1897.971, 38696.96
1899.900, 38610.09
1901.828, 38593.84
1903.757, 38736.36
1905.685, 38893.76
1907.614, 38994.68
1909.542, 39050.72
1911.471, 39069.20
1913.399, 39052.82
1915.328, 39043.23
1917.256, 39029.53
1919.185, 39048.79
1921.113, 39130.85
1923.042, 39205.93
1924.970, 39246.43
1926.898, 39288.30
1928.827, 39366.79
1930.755, 39456.38
1932.684, 39505.07
1934.612, 39517.75
1936.541, 39553.31
1938.469, 39620.08
1940.398, 39676.65
1942.326, 39714.46
1944.255, 39744.23
1946.183, 39771.93
1948.112, 39791.23
1950.040, 39778.32
1951.969, 39763.36
1953.897, 39799.33
1955.825, 39882.46
1957.754, 39985.62
1959.682, 40127.99
1961.611, 40217.10
1963.539, 40198.96
1965.468, 40187.62
1967.396, 40211.36
1969.325, 40253.96
1971.253, 40320.84
1973.182, 40390.41
1975.110, 40415.38
1977.039, 40400.72
1978.967, 40437.49
1980.896, 40550.27
1982.824, 40628.52
1984.752, 40639.39
1986.681, 40664.64
1988.609, 40756.86
1990.538, 40829.44
1992.466, 40808.48
1994.395, 40765.83
1996.323, 40788.19
1998.252, 40858.32
2000.180, 40924.48
2002.109, 40985.12
2004.037, 41045.13
2005.966, 41115.38
2007.894, 41153.95
2009.823, 41097.75
2011.751, 41077.86
2013.679, 41192.71
2015.608, 41324.95
2017.536, 41355.08
2019.465, 41330.07
2021.393, 41358.57
2023.322, 41442.02
2025.250, 41497.89
2027.179, 41512.93
2029.107, 41534.98
2031.036, 41570.74
2032.964, 41606.63
2034.893, 41619.61
2036.821, 41655.46
2038.750, 41764.96
2040.678, 41887.90
2042.606, 41947.70
2044.535, 41968.91
2046.463, 42026.52
2048.392, 42119.79
2050.320, 42176.77
2052.249, 42183.11
2054.177, 42185.86
2056.106, 42192.27
2058.034, 42198.70
2059.963, 42171.95
2061.891, 42180.84
2063.820, 42312.73
2065.748, 42478.66
2067.677, 42556.10
2069.605, 42559.54
2071.533, 42553.52
2073.462, 42535.02
2075.390, 42526.32
2077.319, 42517.52
2079.247, 42557.23
2081.176, 42689.22
2083.104, 42800.18
2085.033, 42837.14
2086.961, 42852.85
2088.890, 42866.38
2090.818, 42889.52
2092.747, 42954.50
2094.675, 43039.26
2096.604, 43063.92
2098.532, 43020.91
2100.460, 43009.53
2102.389, 43038.88
2104.317, 43081.83
2106.246, 43154.96
2108.174, 43216.07
2110.103, 43252.05
2112.031, 43279.20
2113.960, 43300.51
2115.888, 43321.51
2117.817, 43329.57
2119.745, 43348.60
2121.674, 43456.99
2123.602, 43631.51
2125.531, 43719.72
2127.459, 43706.45
2129.387, 43696.57
2131.316, 43701.39
2133.244, 43712.54
2135.173, 43727.49
2137.101, 43749.63
2139.030, 43787.40
2140.958, 43824.71
2142.887, 43846.03
2144.815, 43863.32
2146.744, 43890.41
2148.672, 43926.82
2150.601, 43972.42
2152.529, 44026.68
2154.458, 44082.13
2156.386, 44138.91
2158.314, 44191.40
2160.243, 44235.45
2162.171, 44285.14
2164.100, 44371.51
2166.028, 44426.27
2167.957, 44385.02
2169.885, 44343.36
2171.814, 44371.33
2173.742, 44440.23
2175.671, 44531.93
2177.599, 44629.22
2179.528, 44663.07
2181.456, 44634.38
2183.385, 44664.08
2185.313, 44764.77
2187.241, 44835.09
2189.170, 44861.91
2191.098, 44861.84
2193.027, 44815.34
2194.955, 44785.55
2196.884, 44793.58
2198.812, 44830.27
2200.741, 44896.75
2202.669, 44983.07
2204.598, 45107.06
2206.526, 45230.04
2208.455, 45258.42
2210.383, 45206.22
2212.312, 45189.89
2214.240, 45210.73
2216.168, 45229.80
2218.097, 45244.14
2220.025, 45258.58
2221.954, 45265.15
2223.882, 45295.47
2225.811, 45385.57
2227.739, 45464.06
2229.668, 45499.78
2231.596, 45517.82
2233.525, 45528.85
2235.453, 45536.95
2237.382, 45539.30
2239.310, 45545.48
2241.239, 45583.01
2243.167, 45645.30
2245.095, 45692.25
2247.024, 45723.63
2248.952, 45756.45
2250.881, 45790.84
2252.809, 45836.87
2254.738, 45923.00
2256.666, 45960.18
2258.595, 45864.92
2260.523, 45812.94
2262.452, 45899.63
2264.380, 45997.23
2266.309, 46046.57
2268.237, 46062.27
2270.166, 46021.56
2272.094, 45979.94
2274.022, 46039.87
2275.951, 46159.74
2277.879, 46232.63
2279.808, 46261.88
2281.736, 46287.81
2283.665, 46306.48
2285.593, 46351.11
2287.522, 46467.03
2289.450, 46524.56
2291.379, 46485.64
2293.307, 46456.67
2295.236, 46456.65
2297.164, 46464.58
2299.093, 46464.34
2301.021, 46482.72
2302.949, 46554.54
2304.878, 46631.41
2306.806, 46674.33
2308.735, 46696.52
2310.663, 46709.60
2312.592, 46718.69
2314.520, 46737.37
2316.449, 46764.47
2318.377, 46792.79
2320.306, 46822.60
2322.234, 46833.70
2324.163, 46821.99
2326.091, 46829.62
2328.020, 46866.49
2329.948, 46903.13
2331.876, 46943.42
2333.805, 46964.40
2335.733, 46923.65
2337.662, 46915.81
2339.590, 46995.59
2341.519, 47092.20
2343.447, 47197.60
2345.376, 47270.21
2347.304, 47233.20
2349.233, 47180.38
2351.161, 47254.55
2353.090, 47374.02
2355.018, 47371.47
2356.947, 47280.62
2358.875, 47233.71
2360.803, 47230.29
2362.732, 47221.80
2364.660, 47196.21
2366.589, 47265.42
2368.517, 47466.50
2370.446, 47538.95
2372.374, 47400.07
2374.303, 47345.24
2376.231, 47497.04
2378.160, 47612.36
2380.088, 47563.27
2382.017, 47550.64
2383.945, 47708.55
2385.874, 47840.75
2387.802, 47810.29
2389.730, 47753.26
2391.659, 47775.48
2393.587, 47815.70
2395.516, 47805.12
2397.444, 47780.31
2399.373, 47795.90
2401.301, 47837.46
2403.230, 47872.76
2405.158, 47902.82
2407.087, 47934.62
2409.015, 47968.19
2410.944, 47988.94
2412.872, 47996.43
2414.801, 48000.86
2416.729, 47998.16
2418.657, 48054.36
2420.586, 48218.39
2422.514, 48297.75
2424.443, 48190.62
2426.371, 48117.25
2428.300, 48132.32
2430.228, 48143.59
2432.157, 48113.76
2434.085, 48105.90
2436.014, 48151.28
2437.942, 48212.26
2439.871, 48287.43
2441.799, 48346.92
2443.728, 48360.66
2445.656, 48357.48
2447.584, 48349.03
2449.513, 48353.94
2451.441, 48420.89
2453.370, 48503.04
2455.298, 48500.64
2457.227, 48453.13
2459.155, 48458.11
2461.084, 48500.75
2463.012, 48511.30
2464.941, 48493.90
2466.869, 48519.56
2468.798, 48598.63
2470.726, 48594.42
2472.655, 48491.82
2474.583, 48482.81
2476.511, 48593.76
2478.440, 48662.74
2480.368, 48661.35
2482.297, 48647.44
2484.225, 48598.67
2486.154, 48594.17
2488.082, 48674.83
2490.011, 48748.08
2491.939, 48809.36
2493.868, 48842.01
2495.796, 48828.41
2497.725, 48808.66
2499.653, 48785.91
2501.582, 48782.52
2503.510, 48845.69
2505.438, 48886.59
2507.367, 48810.94
2509.295, 48731.80
2511.224, 48734.21
2513.152, 48779.83
2515.081, 48858.02
2517.009, 48936.13
2518.938, 48973.70
2520.866, 48990.29
2522.795, 49012.46
2524.723, 49037.53
2526.652, 49057.78
2528.580, 49077.11
2530.509, 49100.62
2532.437, 49133.91
2534.365, 49217.52
2536.294, 49329.78
2538.222, 49339.30
2540.151, 49255.95
2542.079, 49261.71
2544.008, 49365.45
2545.936, 49421.22
2547.865, 49428.95
2549.793, 49371.40
2551.722, 49241.79
2553.650, 49204.62
2555.579, 49297.16
2557.507, 49365.70
2559.436, 49383.80
2561.364, 49408.21
2563.292, 49450.29
2565.221, 49459.87
2567.149, 49419.69
2569.078, 49390.34
2571.006, 49370.69
2572.935, 49400.62
2574.863, 49557.49
2576.792, 49650.76
2578.720, 49585.33
2580.649, 49550.94
2582.577, 49605.27
2584.506, 49655.96
2586.434, 49675.18
2588.363, 49681.54
2590.291, 49663.47
2592.219, 49663.09
2594.148, 49735.32
2596.076, 49777.99
2598.005, 49701.12
2599.933, 49636.65
2601.862, 49653.61
2603.790, 49695.97
2605.719, 49736.78
2607.647, 49780.11
2609.576, 49855.46
2611.504, 49902.61
2613.433, 49829.68
2615.361, 49757.96
2617.290, 49795.00
2619.218, 49876.34
2621.146, 49986.65
2623.075, 50070.99
2625.003, 50040.66
2626.932, 49985.60
2628.860, 50025.69
2630.789, 50088.81
2632.717, 50065.85
2634.646, 50024.60
2636.574, 50070.19
2638.503, 50138.71
2640.431, 50132.06
2642.360, 50093.42
2644.288, 50090.59
2646.217, 50109.76
2648.145, 50118.37
2650.073, 50134.60
2652.002, 50212.95
2653.930, 50312.92
2655.859, 50358.02
2657.787, 50365.79
2659.716, 50368.73
2661.644, 50370.86
2663.573, 50381.97
2665.501, 50401.18
2667.430, 50437.31
2669.358, 50475.09
2671.287, 50469.35
2673.215, 50434.35
2675.144, 50414.84
2677.072, 50404.91
2679.000, 50371.98
2680.929, 50333.14
2682.857, 50352.82
2684.786, 50413.99
2686.714, 50467.88
2688.643, 50507.99
2690.571, 50484.63
2692.500, 50425.69
2694.428, 50480.46
2696.357, 50612.01
2698.285, 50693.69
2700.214, 50727.74
2702.142, 50733.43
2704.071, 50710.50
2705.999, 50636.22
2707.927, 50532.05
2709.856, 50513.48
2711.784, 50561.09
2713.713, 50614.95
2715.641, 50668.35
2717.570, 50687.76
2719.498, 50689.09
2721.427, 50769.61
2723.355, 50896.66
2725.284, 50890.77
2727.212, 50798.93
2729.141, 50779.34
2731.069, 50814.46
2732.998, 50850.52
2734.926, 50881.98
2736.854, 50885.76
2738.783, 50867.05
2740.711, 50828.74
2742.640, 50790.26
2744.568, 50812.80
2746.497, 50875.73
2748.425, 50929.39
2750.354, 50970.26
2752.282, 50982.59
2754.211, 50975.70
2756.139, 50967.38
2758.068, 50961.32
2759.996, 50950.05
2761.925, 50956.05
2763.853, 51064.89
2765.781, 51205.75
2767.710, 51207.13
2769.638, 51151.35
2771.567, 51187.95
2773.495, 51257.94
2775.424, 51278.49
2777.352, 51256.57
2779.281, 51160.98
2781.209, 51066.51
2783.138, 51088.72
2785.066, 51170.53
2786.995, 51279.25
2788.923, 51375.32
2790.852, 51400.72
2792.780, 51399.20
2794.708, 51406.49
2796.637, 51425.89
2798.565, 51470.77
2800.494, 51515.83
2802.422, 51539.95
2804.351, 51552.86
2806.279, 51559.46
2808.208, 51562.11
2810.136, 51563.84
2812.065, 51560.56
2813.993, 51542.23
2815.922, 51528.47
2817.850, 51546.99
2819.779, 51548.87
2821.707, 51481.14
2823.635, 51444.09
2825.564, 51502.95
2827.492, 51567.70
2829.421, 51621.52
2831.349, 51640.17
2833.278, 51591.63
2835.206, 51554.41
2837.135, 51538.59
2839.063, 51561.64
2840.992, 51695.01
2842.920, 51742.28
2844.849, 51591.37
2846.777, 51541.87
2848.706, 51657.33
2850.634, 51742.64
2852.563, 51773.80
2854.491, 51729.26
2856.419, 51522.45
2858.348, 51482.41
2860.276, 51636.82
2862.205, 51743.23
2864.133, 51783.40
2866.062, 51784.54
2867.990, 51743.14
2869.919, 51732.56
2871.847, 51752.90
2873.776, 51827.16
2875.704, 51937.97
2877.633, 51966.14
2879.561, 51925.80
2881.490, 51891.09
2883.418, 51858.32
2885.346, 51800.77
2887.275, 51740.23
2889.203, 51734.82
2891.132, 51759.83
2893.060, 51771.32
2894.989, 51784.56
2896.917, 51836.05
2898.846, 51890.05
2900.774, 51908.36
2902.703, 51905.68
2904.631, 51859.23
2906.560, 51844.13
2908.488, 51971.93
2910.417, 52080.56
2912.345, 52069.31
2914.273, 52031.97
2916.202, 52001.84
2918.130, 51982.60
2920.059, 51983.98
2921.987, 51982.73
2923.916, 51975.21
2925.844, 51959.06
2927.773, 51920.50
2929.701, 51904.27
2931.630, 51910.30
2933.558, 51966.43
2935.487, 52086.46
2937.415, 52157.66
2939.344, 52164.38
2941.272, 52140.74
2943.200, 52082.02
2945.129, 52066.78
2947.057, 52093.01
2948.986, 52158.46
2950.914, 52248.05
2952.843, 52290.30
2954.771, 52298.33
2956.700, 52329.97
2958.628, 52349.15
2960.557, 52239.32
2962.485, 52107.86
2964.414, 52095.57
2966.342, 52146.23
2968.271, 52265.32
2970.199, 52329.04
2972.127, 52158.50
2974.056, 52036.59
2975.984, 52207.25
2977.913, 52363.60
2979.841, 52354.59
2981.770, 52329.57
2983.698, 52325.28
2985.627, 52315.87
2987.555, 52278.88
2989.484, 52270.59
2991.412, 52306.72
2993.341, 52312.11
2995.269, 52277.41
2997.198, 52265.81
2999.126, 52285.39
3001.054, 52265.25
3002.983, 52210.67
3004.911, 52190.68
3006.840, 52197.95
3008.768, 52208.34
3010.697, 52219.83
3012.625, 52215.72
3014.554, 52221.13
3016.482, 52306.02
3018.411, 52385.85
3020.339, 52359.04
3022.268, 52318.45
3024.196, 52342.66
3026.125, 52364.99
3028.053, 52347.66
3029.981, 52336.83
3031.910, 52368.78
3033.838, 52374.29
3035.767, 52320.23
3037.695, 52314.77
3039.624, 52387.66
3041.552, 52381.54
3043.481, 52248.74
3045.409, 52211.08
3047.338, 52265.03
3049.266, 52326.11
3051.195, 52389.06
3053.123, 52453.54
3055.052, 52500.29
3056.980, 52458.47
3058.908, 52384.34
3060.837, 52348.46
3062.765, 52347.26
3064.694, 52392.97
3066.622, 52452.20
3068.551, 52540.73
3070.479, 52569.27
3072.408, 52465.90
3074.336, 52374.83
3076.265, 52330.83
3078.193, 52338.06
3080.122, 52409.45
3082.050, 52452.04
3083.979, 52450.42
3085.907, 52500.59
3087.835, 52605.83
3089.764, 52573.41
3091.692, 52441.27
3093.621, 52323.00
3095.549, 52257.44
3097.478, 52396.07
3099.406, 52567.71
3101.335, 52501.46
3103.263, 52399.53
3105.192, 52424.37
3107.120, 52462.09
3109.049, 52451.34
3110.977, 52433.16
3112.906, 52412.82
3114.834, 52404.70
3116.762, 52408.45
3118.691, 52448.14
3120.619, 52536.77
3122.548, 52522.83
3124.476, 52412.03
3126.405, 52325.50
3128.333, 52274.17
3130.262, 52313.75
3132.190, 52399.04
3134.119, 52465.98
3136.047, 52497.51
3137.976, 52448.64
3139.904, 52390.60
3141.833, 52375.07
3143.761, 52360.79
3145.689, 52306.16
3147.618, 52302.98
3149.546, 52419.93
3151.475, 52455.37
3153.403, 52386.40
3155.332, 52347.31
3157.260, 52349.39
3159.189, 52380.07
3161.117, 52428.85
3163.046, 52445.30
3164.974, 52437.93
3166.903, 52405.79
3168.831, 52378.96
3170.760, 52407.36
3172.688, 52432.83
3174.616, 52434.11
3176.545, 52399.28
3178.473, 52273.92
3180.402, 52216.66
3182.330, 52261.50
3184.259, 52293.21
3186.187, 52298.68
3188.116, 52241.78
3190.044, 52136.98
3191.973, 52202.93
3193.901, 52349.78
3195.830, 52363.50
3197.758, 52317.82
3199.687, 52302.23
3201.615, 52291.18
3203.543, 52268.66
3205.472, 52241.04
3207.400, 52215.05
3209.329, 52167.58
3211.257, 52075.73
3213.186, 52087.88
3215.114, 52257.95
3217.043, 52250.61
3218.971, 52090.18
3220.900, 52102.54
3222.828, 52205.42
3224.757, 52222.81
3226.685, 52190.63
3228.614, 52123.60
3230.542, 52073.10
3232.470, 52095.16
3234.399, 52102.49
3236.327, 52029.08
3238.256, 52006.43
3240.184, 52057.76
3242.113, 52090.83
3244.041, 52094.87
3245.970, 52114.25
3247.898, 52137.21
3249.827, 52085.25
3251.755, 52017.55
3253.684, 52031.35
3255.612, 52077.35
3257.541, 52155.48
3259.469, 52170.19
3261.397, 52019.21
3263.326, 51903.69
3265.254, 51866.20
3267.183, 51847.44
3269.111, 51842.57
3271.040, 51911.21
3272.968, 52033.51
3274.897, 52086.09
3276.825, 52091.40
3278.754, 52087.85
3280.682, 52071.54
3282.611, 52032.16
3284.539, 51987.25
3286.468, 51936.82
3288.396, 51902.71
3290.324, 51913.96
3292.253, 51879.69
3294.181, 51797.72
3296.110, 51784.25
3298.038, 51825.91
3299.967, 51837.59
3301.895, 51838.72
3303.824, 51886.01
3305.752, 51911.01
3307.681, 51826.59
3309.609, 51753.64
3311.538, 51734.02
3313.466, 51749.82
3315.395, 51817.83
3317.323, 51816.71
3319.251, 51743.05
3321.180, 51676.32
3323.108, 51626.42
3325.037, 51624.18
3326.965, 51639.87
3328.894, 51626.33
3330.822, 51626.82
3332.751, 51677.89
3334.679, 51731.30
3336.608, 51797.73
3338.536, 51767.76
3340.465, 51628.09
3342.393, 51548.94
3344.322, 51525.51
3346.250, 51504.17
3348.178, 51494.07
3350.107, 51529.32
3352.035, 51550.09
3353.964, 51483.84
3355.892, 51434.23
3357.821, 51453.02
3359.749, 51417.96
3361.678, 51295.73
3363.606, 51173.90
3365.535, 51083.93
3367.463, 51249.29
3369.392, 51484.75
3371.320, 51418.10
3373.249, 51270.50
3375.177, 51179.17
3377.105, 51133.50
3379.034, 51146.32
3380.962, 51165.78
3382.891, 51187.41
3384.819, 51206.24
3386.748, 51221.05
3388.676, 51241.38
3390.605, 51233.20
3392.533, 51113.31
3394.462, 50990.17
3396.390, 50928.38
3398.319, 50948.79
3400.247, 51115.55
3402.176, 51138.42
3404.104, 50951.59
3406.032, 50913.78
3407.961, 50972.93
3409.889, 50884.28
3411.818, 50771.17
3413.746, 50858.48
3415.675, 50944.76
3417.603, 50909.49
3419.532, 50833.96
3421.460, 50702.89
3423.389, 50729.68
3425.317, 50914.51
3427.246, 50900.10
3429.174, 50761.56
3431.103, 50712.16
3433.031, 50688.02
3434.959, 50618.50
3436.888, 50569.59
3438.816, 50567.62
3440.745, 50590.50
3442.673, 50643.59
3444.602, 50655.58
3446.530, 50631.55
3448.459, 50613.57
3450.387, 50583.55
3452.316, 50494.39
3454.244, 50414.03
3456.173, 50393.00
3458.101, 50357.14
3460.030, 50232.18
3461.958, 50252.20
3463.886, 50392.83
3465.815, 50360.13
3467.743, 50250.18
3469.672, 50279.11
3471.600, 50334.58
3473.529, 50353.63
3475.457, 50318.89
3477.386, 50199.34
3479.314, 50099.47
3481.243, 50029.33
3483.171, 50044.16
3485.100, 50099.42
3487.028, 50046.89
3488.957, 49980.59
3490.885, 50000.95
3492.813, 50014.07
3494.742, 49988.08
3496.670, 49947.38
3498.599, 49894.23
3500.527, 49828.48
3502.456, 49757.80
3504.384, 49689.29
3506.313, 49657.38
3508.241, 49749.47
3510.170, 49796.96
3512.098, 49716.22
3514.027, 49684.25
3515.955, 49742.55
3517.884, 49712.01
3519.812, 49629.82
3521.740, 49593.14
3523.669, 49589.25
3525.597, 49634.18
3527.526, 49650.39
3529.454, 49580.24
3531.383, 49550.04
3533.311, 49567.72
3535.240, 49569.39
3537.168, 49543.80
3539.097, 49439.64
3541.025, 49335.39
3542.954, 49308.64
3544.882, 49279.77
3546.811, 49209.25
3548.739, 49173.13
3550.667, 49171.86
3552.596, 49148.51
3554.524, 49114.59
3556.453, 49098.07
3558.381, 49085.11
3560.310, 49065.05
3562.238, 49051.55
3564.167, 49052.29
3566.095, 48996.75
3568.024, 48898.19
3569.952, 48924.79
3571.881, 48974.78
3573.809, 48889.62
3575.738, 48796.98
3577.666, 48752.62
3579.594, 48759.31
3581.523, 48822.84
3583.451, 48886.75
3585.380, 48933.65
3587.308, 48897.65
3589.237, 48818.13
3591.165, 48685.29
3593.094, 48613.29
3595.022, 48651.99
3596.951, 48642.55
3598.879, 48572.88
3600.808, 48506.99
3602.736, 48462.29
3604.665, 48495.15
3606.593, 48509.01
3608.521, 48458.25
3610.450, 48341.46
3612.378, 48118.88
3614.307, 48086.81
3616.235, 48182.64
3618.164, 48222.64
3620.092, 48233.27
3622.021, 48239.18
3623.949, 48224.05
3625.878, 48169.00
3627.806, 48165.41
3629.735, 48200.20
3631.663, 48084.75
3633.592, 47935.91
3635.520, 47927.75
3637.448, 47941.43
3639.377, 47921.01
3641.305, 47931.85
3643.234, 47984.14
3645.162, 47891.38
3647.091, 47743.81
3649.019, 47732.62
3650.948, 47767.71
3652.876, 47810.61
3654.805, 47818.88
3656.733, 47778.18
3658.662, 47730.06
3660.590, 47679.64
3662.519, 47623.50
3664.447, 47601.02
3666.375, 47686.87
3668.304, 47705.84
3670.232, 47548.38
3672.161, 47513.64
3674.089, 47558.49
3676.018, 47468.49
3677.946, 47346.61
3679.875, 47305.05
3681.803, 47283.15
3683.732, 47262.49
3685.660, 47258.82
3687.589, 47261.82
3689.517, 47183.29
3691.446, 47105.77
3693.374, 47186.82
3695.302, 47226.80
3697.231, 47096.72
3699.159, 47043.14
3701.088, 47062.90
3703.016, 47052.64
3704.945, 47031.84
3706.873, 47045.93
3708.802, 47034.98
3710.730, 46964.16
3712.659, 46873.33
3714.587, 46774.98
3716.516, 46776.04
3718.444, 46813.49
3720.373, 46812.29
3722.301, 46776.66
3724.229, 46682.94
3726.158, 46626.38
3728.086, 46612.01
3730.015, 46671.29
3731.943, 46724.25
3733.872, 46608.89
3735.800, 46531.95
3737.729, 46617.88
3739.657, 46598.97
3741.586, 46482.64
3743.514, 46441.09
3745.443, 46426.04
3747.371, 46373.98
3749.300, 46325.73
3751.228, 46309.08
3753.156, 46221.23
3755.085, 46088.39
3757.013, 46087.83
3758.942, 46131.01
3760.870, 46138.54
3762.799, 46115.72
3764.727, 46047.08
3766.656, 46043.26
3768.584, 46068.34
3770.513, 45936.59
3772.441, 45816.99
3774.370, 45887.30
3776.298, 45943.46
3778.227, 45936.02
3780.155, 45916.28
3782.083, 45883.35
3784.012, 45814.32
3785.940, 45774.46
3787.869, 45838.76
3789.797, 45810.94
3791.726, 45650.47
3793.654, 45617.84
3795.583, 45644.36
3797.511, 45623.14
3799.440, 45588.99
3801.368, 45554.48
3803.297, 45531.76
3805.225, 45516.36
3807.154, 45444.40
3809.082, 45362.01
3811.010, 45335.43
3812.939, 45279.87
3814.867, 45169.63
3816.796, 45107.84
3818.724, 45083.74
3820.653, 45022.80
3822.581, 45003.96
3824.510, 45153.31
3826.438, 45189.87
3828.367, 45085.28
3830.295, 45017.52
3832.224, 44980.63
3834.152, 44959.52
3836.081, 44948.58
3838.009, 44956.00
3839.938, 44939.66
3841.866, 44898.64
3843.794, 44841.72
3845.723, 44780.07
3847.651, 44720.91
3849.580, 44632.16
3851.508, 44545.53
3853.437, 44487.88
3855.365, 44449.71
3857.294, 44430.62
3859.222, 44384.56
3861.151, 44271.91
3863.079, 44191.58
3865.008, 44144.07
3866.936, 44071.37
3868.865, 43971.36
3870.793, 43801.66
3872.721, 43706.33
3874.650, 43740.61
3876.578, 43768.37
3878.507, 43768.64
3880.435, 43685.71
3882.364, 43601.28
3884.292, 43553.16
3886.221, 43530.19
3888.149, 43513.86
3890.078, 43362.96
3892.006, 43197.75
3893.935, 43124.70
3895.863, 43087.19
3897.792, 43074.52
3899.720, 43006.93
3901.648, 42912.58
3903.577, 42858.18
3905.505, 42789.21
3907.434, 42670.14
3909.362, 42602.44
3911.291, 42562.88
3913.219, 42467.99
3915.148, 42392.55
3917.076, 42407.30
3919.005, 42363.80
3920.933, 42256.36
3922.862, 42199.47
3924.790, 42156.00
3926.719, 42089.18
3928.647, 41995.92
3930.575, 41855.16
3932.504, 41830.52
3934.432, 41841.16
3936.361, 41681.29
3938.289, 41600.50
3940.218, 41686.39
3942.146, 41669.05
3944.075, 41582.34
3946.003, 41483.85
3947.932, 41383.90
3949.860, 41285.16
3951.789, 41211.02
3953.717, 41189.43
3955.646, 41157.09
3957.574, 41094.91
3959.502, 40934.82
3961.431, 40829.28
3963.359, 40826.27
3965.288, 40705.87
3967.216, 40590.21
3969.145, 40666.96
3971.073, 40679.41
3973.002, 40598.28
3974.930, 40536.37
3976.859, 40441.42
3978.787, 40370.80
3980.716, 40340.50
3982.644, 40307.64
3984.573, 40243.84
3986.501, 40121.21
3988.429, 40067.41
3990.358, 40067.35
3992.286, 40006.94
3994.215, 39958.62
3996.143, 39917.89
3998.072, 39793.50
4000.000, 39627.62
4001.929, 39506.75
4003.857, 39498.11
4005.786, 39522.51
4007.714, 39519.71
4009.643, 39466.62
4011.571, 39440.32
4013.500, 39380.73
4015.428, 39254.63
4017.356, 39209.93
4019.285, 39164.31
4021.213, 39150.27
4023.142, 39122.52
4025.070, 39019.67
4026.999, 38882.03
4028.927, 38797.08
4030.856, 38869.39
4032.784, 38868.64
4034.713, 38738.39
4036.641, 38637.29
4038.570, 38607.62
4040.498, 38587.32
4042.427, 38566.53
4044.355, 38524.89
4046.283, 38376.34
4048.212, 38281.70
4050.140, 38329.69
4052.069, 38319.21
4053.997, 38234.56
4055.926, 38141.01
4057.854, 38019.34
4059.783, 37994.02
4061.711, 37947.86
4063.640, 37834.31
4065.568, 37770.94
4067.497, 37742.09
4069.425, 37736.25
4071.354, 37675.64
4073.282, 37603.65
4075.210, 37577.95
4077.139, 37510.99
4079.067, 37329.18
4080.996, 37261.64
4082.924, 37303.05
4084.853, 37265.00
4086.781, 37189.59
4088.710, 37137.34
4090.638, 37062.91
4092.567, 36988.11
4094.495, 36988.14
4096.424, 36962.21
4098.352, 36869.19
4100.280, 36853.27
4102.209, 36891.52
4104.138, 36731.96
4106.066, 36573.75
4107.994, 36618.76
4109.923, 36618.33
4111.852, 36543.96
4113.780, 36510.43
4115.708, 36475.62
4117.637, 36397.55
4119.565, 36346.67
4121.494, 36333.80
4123.422, 36288.12
4125.351, 36220.85
4127.279, 36124.91
4129.208, 36048.38
4131.136, 35999.12
4133.064, 35967.50
4134.993, 35936.09
4136.921, 35881.43
4138.850, 35836.72
4140.778, 35792.26
4142.707, 35666.97
4144.635, 35569.96
4146.563, 35654.95
4148.492, 35655.60
4150.421, 35510.12
4152.349, 35380.88
4154.277, 35296.32
4156.206, 35294.72
4158.135, 35280.38
4160.063, 35231.04
4161.991, 35258.02
4163.920, 35247.72
4165.849, 35033.87
4167.777, 34910.33
4169.705, 34939.19
4171.634, 35026.11
4173.563, 35049.32
4175.491, 34899.86
4177.419, 34767.73
4179.348, 34647.47
4181.276, 34595.10
4183.205, 34596.39
4185.133, 34616.84
4187.062, 34590.74
4188.990, 34488.80
4190.918, 34369.26
4192.847, 34280.08
4194.775, 34318.71
4196.704, 34333.54
4198.632, 34273.37
4200.561, 34296.93
4202.489, 34299.64
4204.418, 34094.98
4206.346, 34006.12
4208.274, 34089.51
4210.203, 34020.12
4212.132, 33908.86
4214.060, 33883.05
4215.988, 33849.66
4217.917, 33798.67
4219.846, 33777.27
4221.774, 33732.85
4223.702, 33595.35
4225.631, 33526.91
4227.560, 33527.13
4229.488, 33475.77
4231.416, 33436.86
4233.345, 33487.27
4235.273, 33463.51
4237.202, 33378.56
4239.130, 33347.59
4241.059, 33337.60
4242.987, 33356.34
4244.916, 33333.02
4246.844, 33259.51
4248.772, 33148.12
4250.701, 33078.45
4252.629, 33100.63
4254.558, 33151.27
4256.486, 33205.47
4258.415, 33228.39
4260.343, 33200.79
4262.271, 33103.47
4264.200, 33023.34
4266.129, 32984.17
4268.057, 33059.28
4269.985, 33081.18
4271.914, 33015.50
4273.843, 32972.32
4275.771, 32935.07
4277.699, 32889.72
4279.628, 32829.49
4281.557, 32764.77
4283.485, 32770.80
4285.413, 32800.16
4287.342, 32824.58
4289.271, 32859.59
4291.199, 32888.06
4293.127, 32826.57
4295.056, 32796.74
4296.984, 32887.73
4298.913, 32840.05
4300.841, 32719.60
4302.770, 32595.07
4304.698, 32597.30
4306.626, 32779.36
4308.555, 32649.88
4310.483, 32479.19
4312.412, 32581.91
4314.340, 32605.14
4316.269, 32524.48
4318.197, 32510.54
4320.126, 32525.44
4322.054, 32560.73
4323.982, 32533.31
4325.911, 32471.83
4327.840, 32458.95
4329.768, 32466.71
4331.696, 32489.57
4333.625, 32371.63
4335.554, 32243.61
4337.482, 32302.83
4339.410, 32297.49
4341.339, 32207.43
4343.268, 32210.44
4345.196, 32230.36
4347.124, 32214.15
4349.053, 32202.51
4350.981, 32203.24
4352.910, 32243.20
4354.838, 32250.59
4356.767, 32200.73
4358.695, 32211.90
4360.624, 32233.48
4362.552, 32191.06
4364.480, 32144.26
4366.409, 32109.56
4368.337, 32146.71
4370.266, 32167.81
4372.194, 32096.93
4374.123, 32023.23
4376.051, 31972.45
4377.979, 32026.39
4379.908, 32049.72
4381.837, 31998.25
4383.765, 31929.07
4385.693, 31878.39
4387.622, 31895.82
4389.551, 31899.41
4391.479, 31877.43
4393.407, 31807.95
4395.336, 31739.71
4397.265, 31690.35
4399.193, 31710.12
4401.121, 31749.42
4403.050, 31741.36
4404.979, 31709.21
4406.907, 31664.61
4408.835, 31643.39
4410.764, 31632.46
4412.692, 31623.35
4414.621, 31630.40
4416.549, 31630.84
4418.478, 31583.82
4420.406, 31499.83
4422.334, 31386.57
4424.263, 31395.40
4426.191, 31453.78
4428.120, 31537.75
4430.048, 31496.38
4431.977, 31392.54
4433.905, 31417.91
4435.834, 31421.63
4437.762, 31365.11
4439.690, 31387.26
4441.619, 31406.72
4443.548, 31336.87
4445.476, 31396.85
4447.404, 31505.53
4449.333, 31341.76
4451.262, 31270.16
4453.190, 31389.70
4455.118, 31325.03
4457.047, 31203.83
4458.976, 31128.32
4460.904, 31144.65
4462.832, 31200.48
4464.761, 31125.11
4466.689, 31053.66
4468.618, 31023.94
4470.546, 31089.59
4472.475, 31116.50
4474.403, 30974.38
4476.332, 30954.01
4478.260, 31005.67
4480.188, 30951.80
4482.117, 30878.08
4484.045, 30816.85
4485.974, 30908.42
4487.902, 30970.80
4489.831, 30812.09
4491.759, 30757.02
4493.688, 30774.90
4495.616, 30814.47
4497.545, 30792.38
4499.473, 30702.25
4501.401, 30650.42
4503.330, 30650.35
4505.259, 30716.52
4507.187, 30682.82
4509.115, 30614.08
4511.044, 30617.51
4512.973, 30594.10
4514.901, 30551.28
4516.829, 30592.05
4518.758, 30620.47
4520.687, 30596.99
4522.615, 30509.16
4524.543, 30417.53
4526.472, 30376.29
4528.400, 30361.45
4530.329, 30376.50
4532.257, 30476.74
4534.186, 30507.82
4536.114, 30448.23
4538.042, 30380.35
4539.971, 30340.30
4541.899, 30368.20
4543.828, 30335.94
4545.756, 30276.40
4547.685, 30220.42
4549.613, 30233.41
4551.542, 30295.60
4553.470, 30320.65
4555.398, 30277.71
4557.327, 30167.61
4559.256, 30096.54
4561.184, 30076.83
4563.112, 30140.39
4565.041, 30120.68
4566.970, 30070.20
4568.898, 30092.04
4570.826, 30137.75
4572.755, 30181.29
4574.684, 30127.34
4576.612, 30027.78
4578.540, 29906.47
4580.469, 29882.94
4582.397, 29864.49
4584.326, 29743.27
4586.254, 29764.13
4588.183, 29852.99
4590.111, 29865.51
4592.040, 29881.22
4593.968, 29894.72
4595.896, 29804.37
4597.825, 29731.61
4599.753, 29710.58
4601.682, 29672.31
4603.610, 29638.46
4605.539, 29626.09
4607.467, 29635.19
4609.396, 29638.96
4611.324, 29574.45
4613.253, 29618.37
4615.181, 29706.62
4617.109, 29525.28
4619.038, 29426.58
4620.967, 29472.03
4622.895, 29487.97
4624.823, 29480.92
4626.752, 29457.32
4628.681, 29384.55
4630.609, 29329.04
4632.537, 29367.62
4634.466, 29347.98
4636.395, 29298.10
4638.323, 29289.98
4640.251, 29290.65
4642.180, 29280.27
4644.108, 29184.75
4646.037, 29133.39
4647.965, 29166.58
4649.894, 29201.91
4651.822, 29176.57
4653.750, 29054.23
4655.679, 29082.68
4657.607, 29139.23
4659.536, 29082.13
4661.464, 29028.37
4663.393, 28979.21
4665.321, 28907.57
4667.250, 28905.24
4669.178, 28946.28
4671.106, 28863.40
4673.035, 28856.71
4674.964, 28949.67
4676.892, 28903.54
4678.820, 28820.08
4680.749, 28744.41
4682.678, 28721.85
4684.606, 28709.88
4686.534, 28675.75
4688.463, 28698.16
4690.392, 28730.38
4692.320, 28706.98
4694.248, 28678.28
4696.177, 28642.79
4698.105, 28574.26
4700.034, 28552.73
4701.962, 28561.36
4703.891, 28472.07
4705.819, 28399.44
4707.748, 28381.80
4709.676, 28495.75
4711.604, 28517.99
4713.533, 28349.29
4715.461, 28307.60
4717.390, 28329.12
4719.318, 28376.26
4721.247, 28356.24
4723.175, 28279.08
4725.104, 28110.17
4727.032, 28157.29
4728.961, 28258.13
4730.889, 28125.87
4732.817, 28049.68
4734.746, 28039.49
4736.675, 28024.71
4738.603, 28049.44
4740.531, 28097.17
4742.460, 28062.25
4744.389, 28030.52
4746.317, 28002.29
4748.245, 27809.43
4750.174, 27668.92
4752.103, 27669.87
4754.031, 27722.23
4755.959, 27739.78
4757.888, 27680.40
4759.816, 27629.37
4761.745, 27618.83
4763.673, 27694.87
4765.602, 27681.81
4767.530, 27634.76
4769.458, 27608.96
4771.387, 27590.87
4773.315, 27560.52
4775.244, 27486.93
4777.172, 27408.53
4779.101, 27358.44
4781.029, 27405.53
4782.958, 27433.41
4784.886, 27424.36
4786.814, 27373.86
4788.743, 27286.91
4790.672, 27189.46
4792.600, 27166.18
4794.528, 27178.37
4796.457, 27195.46
4798.386, 27091.21
4800.314, 27008.36
4802.242, 26990.14
4804.171, 27053.00
4806.100, 27049.87
4808.028, 26946.22
4809.956, 26958.62
4811.885, 26974.32
4813.813, 26940.81
4815.742, 26948.54
4817.670, 26947.87
4819.599, 26913.31
4821.527, 26889.50
4823.456, 26852.92
4825.384, 26783.76
4827.313, 26730.27
4829.241, 26705.72
4831.169, 26725.05
4833.098, 26599.18
4835.026, 26477.72
4836.955, 26511.80
4838.883, 26520.73
4840.812, 26523.79
4842.740, 26551.36
4844.669, 26481.31
4846.597, 26389.59
4848.525, 26388.33
4850.454, 26283.14
4852.383, 26180.18
4854.311, 26225.75
4856.239, 26218.03
4858.168, 26187.16
4860.097, 26213.50
4862.025, 26186.06
4863.953, 26116.26
4865.882, 26016.32
4867.811, 25991.24
4869.739, 26002.46
4871.667, 25979.57
4873.596, 25941.38
4875.524, 25905.78
4877.453, 25899.71
4879.381, 25895.64
4881.310, 25886.29
4883.238, 25877.48
4885.167, 25800.06
4887.095, 25704.80
4889.023, 25689.75
4890.952, 25688.70
4892.880, 25665.02
4894.809, 25540.17
4896.737, 25553.98
4898.666, 25615.57
4900.594, 25515.96
4902.522, 25488.34
4904.451, 25492.22
4906.380, 25417.04
4908.308, 25373.67
4910.236, 25345.59
4912.165, 25270.35
4914.094, 25286.34
4916.022, 25304.60
4917.950, 25158.42
4919.879, 25134.32
4921.808, 25159.11
4923.736, 25074.38
4925.664, 25011.91
4927.593, 24988.93
4929.521, 25023.57
4931.450, 25061.17
4933.378, 25060.66
4935.307, 24971.95
4937.235, 24883.46
4939.164, 24840.39
4941.092, 24908.49
4943.021, 24882.55
4944.949, 24845.78
4946.877, 24887.91
4948.806, 24700.70
4950.734, 24533.44
4952.663, 24639.10
4954.591, 24732.04
4956.520, 24734.71
4958.448, 24600.01
4960.377, 24535.18
4962.305, 24511.04
4964.233, 24504.44
4966.162, 24380.71
4968.091, 24305.91
4970.019, 24363.59
4971.947, 24318.46
4973.876, 24308.35
4975.805, 24365.20
4977.733, 24286.56
4979.661, 24193.78
4981.590, 24136.54
4983.519, 24176.71
4985.447, 24114.26
4987.375, 23958.56
4989.304, 23982.92
4991.232, 24022.38
4993.161, 24026.62
4995.089, 23928.04
4997.018, 23922.87
4998.946, 23966.26
5000.875, 23865.55
5002.803, 23808.54
5004.731, 23810.86
5006.660, 23885.63
5008.588, 23867.21
5010.517, 23770.04
5012.445, 23606.66
5014.374, 23531.85
5016.302, 23528.61
5018.230, 23574.38
5020.159, 23613.80
5022.088, 23596.40
5024.016, 23474.33
5025.944, 23386.63
5027.873, 23345.46
5029.802, 23349.25
5031.730, 23327.60
5033.658, 23278.25
5035.587, 23205.83
5037.516, 23128.67
5039.444, 23077.72
5041.372, 23061.17
5043.301, 23098.05
5045.229, 23075.93
5047.158, 23012.07
5049.086, 22983.13
5051.015, 22985.81
5052.943, 22982.26
5054.872, 22900.25
5056.800, 22880.46
5058.729, 22898.74
5060.657, 22926.30
5062.585, 22804.31
5064.514, 22689.93
5066.442, 22700.91
5068.371, 22653.81
5070.299, 22666.85
5072.228, 22762.78
5074.156, 22557.47
5076.085, 22455.41
5078.013, 22509.04
5079.941, 22485.44
5081.870, 22460.52
5083.799, 22434.01
5085.727, 22349.58
5087.655, 22348.19
5089.584, 22365.88
5091.513, 22301.20
5093.441, 22184.60
5095.369, 22099.33
5097.298, 22120.04
5099.227, 22132.24
5101.155, 22097.37
5103.083, 22005.61
5105.012, 21925.44
5106.940, 21955.01
5108.869, 22050.25
5110.797, 21926.11
5112.726, 21802.80
5114.654, 21734.41
5116.583, 21759.61
5118.511, 21730.85
5120.439, 21679.74
5122.368, 21659.73
5124.296, 21632.53
5126.225, 21615.00
5128.153, 21622.74
5130.082, 21555.15
5132.010, 21501.01
5133.938, 21484.81
5135.867, 21425.72
5137.796, 21393.99
5139.724, 21375.30
5141.652, 21286.23
5143.581, 21243.82
5145.510, 21229.78
5147.438, 21199.07
5149.366, 21232.85
5151.295, 21222.53
5153.224, 21102.14
5155.152, 20984.33
5157.080, 20957.06
5159.009, 21020.75
5160.938, 21022.45
5162.866, 20959.01
5164.794, 20878.25
5166.723, 20893.53
5168.651, 20803.87
5170.580, 20734.80
5172.508, 20842.64
5174.437, 20863.33
5176.365, 20851.28
5178.293, 20844.05
5180.222, 20744.79
5182.150, 20661.92
5184.079, 20605.90
5186.007, 20484.04
5187.936, 20477.72
5189.864, 20532.25
5191.793, 20545.64
5193.721, 20503.08
5195.649, 20446.52
5197.578, 20402.98
5199.507, 20419.69
5201.435, 20419.20
5203.363, 20388.78
5205.292, 20394.39
5207.221, 20330.29
5209.149, 20242.81
5211.077, 20246.92
5213.006, 20155.01
5214.935, 20079.86
5216.863, 20105.57
5218.791, 20042.67
5220.720, 19991.90
5222.648, 19965.65
5224.577, 19842.79
5226.505, 19854.07
5228.434, 19914.02
5230.362, 19813.09
5232.291, 19836.22
5234.219, 19858.83
5236.147, 19797.98
5238.076, 19778.50
5240.004, 19726.05
5241.933, 19643.54
5243.861, 19604.14
5245.790, 19604.83
5247.718, 19611.77
5249.646, 19593.52
5251.575, 19478.91
5253.504, 19442.33
5255.432, 19542.38
5257.360, 19557.06
5259.289, 19540.12
5261.218, 19482.22
5263.146, 19300.41
5265.074, 19205.71
5267.003, 19176.03
5268.932, 19185.21
5270.860, 19100.20
5272.788, 19029.54
5274.717, 19013.74
5276.646, 19083.18
5278.574, 19058.57
5280.502, 18997.89
5282.431, 19012.06
5284.359, 18981.09
5286.288, 18929.48
5288.216, 18874.04
5290.145, 18818.33
5292.073, 18825.33
5294.001, 18847.22
5295.930, 18775.82
5297.858, 18708.30
5299.787, 18664.55
5301.715, 18651.04
5303.644, 18663.01
5305.572, 18614.81
5307.501, 18531.91
5309.429, 18540.08
5311.357, 18523.69
5313.286, 18479.47
5315.215, 18422.94
5317.143, 18496.49
5319.071, 18468.03
5321.000, 18320.22
5322.929, 18251.31
5324.857, 18198.43
5326.785, 18165.18
5328.714, 18162.76
5330.643, 18190.01
5332.571, 18134.69
5334.499, 18012.45
5336.428, 18025.58
5338.356, 17918.62
5340.285, 17827.11
5342.213, 17947.83
5344.142, 17900.76
5346.070, 17879.16
5347.999, 17900.01
5349.927, 17729.33
5351.855, 17662.53
5353.784, 17689.05
5355.712, 17751.48
5357.641, 17783.55
5359.569, 17755.39
5361.498, 17667.13
5363.426, 17520.82
5365.354, 17470.15
5367.283, 17479.48
5369.212, 17496.90
5371.140, 17363.04
5373.068, 17296.90
5374.997, 17311.49
5376.926, 17241.80
5378.854, 17262.26
5380.782, 17273.35
5382.711, 17184.98
5384.640, 17152.70
5386.568, 17113.64
5388.496, 17072.34
5390.425, 17084.27
5392.354, 16999.68
5394.282, 16942.75
5396.210, 16976.46
5398.139, 16968.19
5400.067, 16885.20
5401.996, 16792.84
5403.924, 16807.65
5405.853, 16771.59
5407.781, 16740.22
5409.709, 16736.48
5411.638, 16743.96
5413.566, 16738.40
5415.495, 16685.64
5417.423, 16564.55
5419.352, 16539.16
5421.280, 16494.00
5423.209, 16441.15
5425.137, 16552.54
5427.065, 16501.77
5428.994, 16414.43
5430.923, 16381.50
5432.851, 16326.25
5434.779, 16294.66
5436.708, 16277.63
5438.637, 16250.37
5440.565, 16195.13
5442.493, 16144.50
5444.422, 16101.90
5446.351, 16023.83
5448.279, 15972.38
5450.207, 15963.89
5452.136, 16003.20
5454.064, 16015.26
5455.993, 16015.94
5457.921, 15993.16
5459.850, 15923.53
5461.778, 15794.42
5463.707, 15751.30
5465.635, 15802.39
5467.563, 15773.47
5469.492, 15731.75
5471.420, 15674.67
5473.349, 15596.59
5475.277, 15629.90
5477.206, 15656.56
5479.134, 15628.46
5481.063, 15517.92
5482.991, 15420.37
5484.920, 15360.78
5486.848, 15352.37
5488.776, 15429.80
5490.705, 15392.34
5492.634, 15323.54
5494.562, 15291.05
5496.490, 15302.99
5498.419, 15239.19
5500.348, 15149.08
5502.276, 15108.58
5504.204, 15107.99
5506.133, 15084.54
5508.062, 15048.08
5509.990, 15048.21
5511.918, 15051.12
5513.847, 15079.72
5515.775, 15092.94
5517.704, 14872.01
5519.632, 14850.74
5521.561, 14862.86
5523.489, 14776.42
5525.417, 14723.69
5527.346, 14740.75
5529.274, 14749.42
5531.203, 14665.66
5533.131, 14664.66
5535.060, 14637.26
5536.988, 14580.25
5538.917, 14534.86
5540.845, 14507.09
5542.773, 14471.96
5544.702, 14431.52
5546.631, 14404.90
5548.559, 14484.03
5550.487, 14480.58
5552.416, 14346.23
5554.345, 14346.52
5556.273, 14254.31
5558.201, 14188.33
5560.130, 14232.89
5562.059, 14204.71
5563.987, 14079.74
5565.915, 14016.77
5567.844, 14137.54
5569.772, 14098.03
5571.701, 14021.46
5573.629, 13947.46
5575.558, 13877.54
5577.486, 13859.32
5579.415, 13854.57
5581.343, 13848.16
5583.271, 13842.44
5585.200, 13779.20
5587.128, 13731.77
5589.057, 13725.57
5590.985, 13756.68
5592.914, 13757.70
5594.842, 13731.25
5596.771, 13675.80
5598.699, 13566.71
5600.628, 13467.82
5602.556, 13475.17
5604.484, 13562.84
5606.413, 13386.11
5608.342, 13385.42
5610.270, 13425.63
5612.198, 13404.99
5614.127, 13391.43
5616.056, 13369.12
5617.984, 13285.47
5619.912, 13146.22
5621.841, 13215.75
5623.770, 13211.84
5625.698, 13177.43
5627.626, 13173.49
5629.555, 13148.22
5631.483, 13037.91
5633.412, 12956.70
5635.340, 12985.14
5637.269, 12905.52
5639.197, 12908.16
5641.125, 12935.42
5643.054, 12905.44
5644.982, 12800.69
5646.911, 12717.41
5648.839, 12679.34
5650.768, 12682.00
5652.696, 12626.75
5654.625, 12633.82
5656.553, 12670.56
5658.481, 12678.39
5660.410, 12588.12
5662.339, 12571.94
5664.267, 12564.74
5666.195, 12492.40
5668.124, 12474.63
5670.053, 12454.07
5671.981, 12429.33
5673.909, 12408.14
5675.838, 12363.98
5677.767, 12315.92
5679.695, 12313.26
5681.623, 12368.88
5683.552, 12256.22
5685.480, 12105.10
5687.409, 12040.76
5689.337, 12103.96
5691.266, 12110.02
5693.194, 12064.58
5695.123, 11996.00
5697.051, 11932.14
5698.979, 11907.22
5700.908, 11925.61
5702.836, 11956.94
5704.765, 11966.69
5706.693, 11876.35
5708.622, 11843.23
5710.550, 11809.60
5712.479, 11754.19
5714.407, 11737.15
5716.336, 11644.22
5718.264, 11596.68
5720.192, 11608.42
5722.121, 11588.18
5724.050, 11613.17
5725.978, 11589.13
5727.906, 11524.07
5729.835, 11485.68
5731.764, 11495.26
5733.692, 11479.75
5735.620, 11439.22
5737.549, 11401.15
5739.478, 11392.73
5741.406, 11379.23
5743.334, 11343.56
5745.263, 11285.08
5747.191, 11293.51
5749.120, 11221.41
5751.048, 11146.78
5752.977, 11132.01
5754.905, 11106.98
5756.833, 11109.95
5758.762, 11084.34
5760.690, 11024.98
5762.619, 11014.43
5764.547, 10975.77
5766.476, 10960.21
5768.404, 10947.17
5770.333, 10861.91
5772.261, 10874.42
5774.189, 10863.93
5776.118, 10818.33
5778.047, 10775.65
5779.975, 10823.03
5781.903, 10806.48
5783.832, 10776.96
5785.761, 10782.78
5787.689, 10707.15
5789.617, 10713.05
5791.546, 10688.77
5793.475, 10608.28
5795.403, 10632.77
5797.331, 10610.55
5799.260, 10583.32
5801.188, 10557.61
5803.117, 10509.60
5805.045, 10445.77
5806.974, 10427.73
5808.902, 10432.77
5810.831, 10418.07
5812.759, 10327.62
5814.688, 10259.60
5816.616, 10245.50
5818.544, 10257.25
5820.473, 10185.62
5822.401, 10159.89
5824.330, 10156.71
5826.258, 10173.44
5828.187, 10221.41
5830.115, 10151.41
5832.044, 10025.30
5833.972, 9966.991
5835.900, 10026.43
5837.829, 9974.919
5839.758, 9946.583
5841.686, 9917.617
5843.614, 9881.218
5845.543, 9881.650
5847.472, 9858.028
5849.400, 9826.299
5851.328, 9803.500
5853.257, 9800.542
5855.186, 9755.957
5857.114, 9691.479
5859.042, 9653.597
5860.971, 9655.306
5862.899, 9660.112
5864.828, 9627.048
5866.756, 9600.233
5868.685, 9601.571
5870.613, 9633.003
5872.542, 9531.021
5874.470, 9488.543
5876.398, 9470.646
5878.327, 9429.323
5880.255, 9391.563
5882.184, 9326.096
5884.112, 9323.309
5886.041, 9344.765
5887.969, 9300.441
5889.897, 9303.756
5891.826, 9296.362
5893.755, 9263.979
5895.683, 9231.884
5897.611, 9289.165
5899.540, 9194.844
5901.469, 9176.390
5903.397, 9192.276
5905.325, 9095.718
5907.254, 9075.496
5909.183, 9050.336
5911.111, 9060.277
5913.039, 9083.368
5914.968, 8943.810
5916.896, 8923.441
5918.825, 8948.385
5920.753, 8939.691
5922.682, 8863.731
5924.610, 8860.197
5926.539, 8801.057
5928.467, 8767.694
5930.396, 8754.784
5932.324, 8635.755
5934.252, 8720.061
5936.181, 8740.884
5938.109, 8691.596
5940.038, 8633.242
5941.966, 8634.729
5943.895, 8580.454
5945.823, 8568.265
5947.752, 8576.192
5949.680, 8537.513
5951.608, 8467.438
5953.537, 8475.129
5955.466, 8484.793
5957.394, 8469.611
5959.322, 8462.485
5961.251, 8438.487
5963.180, 8371.896
5965.108, 8318.017
5967.036, 8316.770
5968.965, 8362.317
5970.894, 8215.082
5972.822, 8189.702
5974.750, 8230.604
5976.679, 8201.597
5978.607, 8163.508
5980.536, 8138.724
5982.464, 8128.796
5984.393, 8112.133
5986.321, 8068.787
5988.250, 8034.045
5990.178, 8038.748
5992.106, 8070.325
5994.035, 8067.575
5995.963, 7963.508
5997.892, 7952.292
5999.820, 7910.895
6001.749, 7861.929
6003.677, 7843.377
6005.605, 7866.051
6007.534, 7867.021
6009.463, 7816.559
6011.391, 7765.808
6013.319, 7737.607
6015.248, 7682.180
6017.177, 7678.352
6019.105, 7685.162
6021.033, 7685.603
6022.962, 7671.188
6024.891, 7614.218
6026.819, 7645.822
6028.747, 7600.911
6030.676, 7538.553
6032.604, 7535.996
6034.533, 7468.290
6036.461, 7506.038
6038.390, 7543.459
6040.318, 7528.400
6042.247, 7464.658
6044.175, 7394.939
6046.104, 7399.579
6048.032, 7388.449
6049.960, 7347.691
6051.889, 7307.393
6053.817, 7323.417
6055.746, 7248.481
6057.674, 7220.661
6059.603, 7214.008
6061.531, 7165.812
6063.460, 7172.940
6065.388, 7212.357
6067.316, 7194.207
6069.245, 7138.731
6071.174, 7100.701
6073.102, 7109.671
6075.030, 7112.910
6076.959, 7092.996
6078.888, 7055.992
6080.816, 7014.441
6082.744, 6979.942
6084.673, 6954.743
6086.602, 6892.068
6088.530, 6879.516
6090.458, 6940.263
6092.387, 6872.844
6094.315, 6857.444
6096.244, 6834.870
6098.172, 6811.921
6100.101, 6807.250
6102.029, 6827.131
6103.958, 6712.064
6105.886, 6670.862
6107.814, 6676.034
6109.743, 6666.944
6111.671, 6618.292
6113.600, 6589.262
6115.528, 6586.884
6117.457, 6574.521
6119.385, 6545.521
6121.313, 6517.489
6123.242, 6478.572
6125.171, 6529.955
6127.099, 6510.621
6129.027, 6437.116
6130.956, 6406.363
6132.885, 6454.934
6134.813, 6414.917
6136.741, 6367.448
6138.670, 6346.163
6140.599, 6350.166
6142.527, 6370.223
6144.455, 6318.302
6146.384, 6255.519
6148.313, 6215.416
6150.241, 6198.191
6152.169, 6185.636
6154.098, 6201.349
6156.026, 6136.891
6157.955, 6139.172
6159.883, 6187.116
6161.812, 6172.712
6163.740, 6064.214
6165.668, 6052.331
6167.597, 6088.528
6169.525, 6089.553
6171.454, 6030.441
6173.382, 5967.849
6175.311, 5923.871
6177.239, 5968.067
6179.168, 5970.298
6181.096, 5912.792
6183.024, 5874.154
6184.953, 5885.239
6186.882, 5842.542
6188.810, 5831.992
6190.738, 5830.574
6192.667, 5785.317
6194.596, 5686.047
6196.524, 5714.016
6198.452, 5722.963
6200.381, 5711.150
6202.310, 5716.301
6204.238, 5750.454
6206.166, 5679.121
6208.095, 5658.561
6210.023, 5682.518
6211.952, 5667.748
6213.880, 5608.237
6215.809, 5619.289
6217.737, 5516.121
6219.666, 5548.327
6221.594, 5532.331
6223.522, 5490.329
6225.451, 5520.239
6227.379, 5442.769
6229.308, 5415.911
6231.236, 5400.788
6233.165, 5389.000
6235.093, 5389.935
6237.021, 5412.752
6238.950, 5448.723
6240.879, 5357.804
6242.807, 5316.059
6244.735, 5324.825
6246.664, 5323.339
6248.593, 5285.411
6250.521, 5233.157
6252.449, 5206.997
6254.378, 5215.362
6256.307, 5225.884
6258.235, 5213.146
6260.163, 5193.837
6262.092, 5193.953
6264.021, 5155.080
6265.949, 5124.310
6267.877, 5124.994
6269.806, 5136.733
6271.734, 5109.952
6273.663, 5090.194
6275.591, 5085.522
6277.520, 5020.480
6279.448, 4965.377
6281.376, 5018.987
6283.305, 4970.936
6285.233, 4942.267
6287.162, 4941.756
6289.090, 4938.290
6291.019, 4921.996
6292.947, 4900.832
6294.876, 4854.044
6296.804, 4826.045
6298.732, 4827.909
6300.661, 4820.790
6302.590, 4806.062
6304.518, 4810.909
6306.446, 4752.055
6308.375, 4742.754
6310.304, 4790.009
6312.232, 4781.242
6314.160, 4721.129
6316.089, 4697.925
6318.018, 4702.389
6319.946, 4672.385
6321.874, 4600.190
6323.803, 4579.928
6325.731, 4602.900
6327.660, 4596.218
6329.588, 4561.199
6331.517, 4576.747
6333.445, 4608.378
6335.374, 4591.685
6337.302, 4537.159
6339.230, 4500.535
6341.159, 4528.043
6343.087, 4426.473
6345.016, 4413.293
6346.944, 4453.806
6348.873, 4424.161
6350.801, 4339.227
6352.729, 4432.936
6354.658, 4386.747
6356.587, 4437.243
6358.515, 4373.884
6360.443, 4313.087
6362.372, 4321.522
6364.301, 4288.316
6366.229, 4247.702
6368.157, 4296.450
6370.086, 4218.413
6372.015, 4209.441
6373.943, 4257.842
6375.871, 4219.159
6377.800, 4177.285
6379.729, 4174.661
6381.657, 4144.708
6383.585, 4136.295
6385.514, 4121.028
6387.442, 4094.204
6389.371, 4123.581
6391.299, 4128.544
6393.228, 4122.917
6395.156, 4133.268
6397.084, 4071.033
6399.013, 4013.401
6400.941, 4069.750
6402.870, 4022.655
6404.798, 4018.578
6406.727, 4016.451
6408.655, 4028.873
6410.584, 4018.521
6412.512, 3986.735
6414.440, 3986.131
6416.369, 3959.996
6418.298, 3907.770
6420.226, 3871.661
6422.154, 3884.425
6424.083, 3902.156
6426.012, 3893.166
6427.940, 3906.088
6429.868, 3859.033
6431.797, 3851.031
6433.726, 3846.717
6435.654, 3821.183
6437.582, 3781.046
6439.511, 3752.510
6441.439, 3783.126
6443.368, 3827.050
6445.296, 3771.855
6447.225, 3722.834
6449.153, 3684.639
6451.082, 3663.391
6453.010, 3679.266
6454.938, 3668.621
6456.867, 3694.434
6458.795, 3699.396
6460.724, 3675.582
6462.652, 3647.953
6464.581, 3608.398
6466.509, 3549.574
6468.438, 3601.807
6470.366, 3601.422
6472.295, 3582.995
6474.223, 3565.938
6476.151, 3548.121
6478.080, 3517.583
6480.009, 3475.137
6481.937, 3475.124
6483.865, 3505.364
6485.794, 3527.573
6487.723, 3475.812
6489.651, 3464.541
6491.579, 3477.527
6493.508, 3426.307
6495.437, 3430.477
6497.365, 3418.877
6499.293, 3444.707
6501.222, 3412.385
6503.150, 3370.671
6505.079, 3378.023
6507.007, 3412.538
6508.936, 3377.822
6510.864, 3324.210
6512.792, 3320.008
6514.721, 3297.955
6516.649, 3296.534
6518.578, 3317.682
6520.506, 3319.238
6522.435, 3280.633
6524.363, 3260.707
6526.292, 3262.156
6528.220, 3254.333
6530.148, 3236.341
6532.077, 3225.082
6534.006, 3221.189
6535.934, 3213.738
6537.862, 3204.201
6539.791, 3163.211
6541.720, 3151.948
6543.648, 3128.870
6545.576, 3103.371
6547.505, 3107.486
6549.434, 3118.186
6551.362, 3098.008
6553.290, 3156.264
6555.219, 3092.231
6557.147, 3104.681
##END=



