##NAMES=Stichtite
##RRUFFID=R050328
##IDEAL CHEMISTRY=Mg_6_Cr_2_(OH)_16_(CO_3_)·4H_2_O
##LOCALITY=Dundas, Tasmania, Australia
##OWNER=RRUFF
##SOURCE=Marcus Origlieri
##DESCRIPTION=Aggregate of contorted purple plates
##STATUS=The identification of this mineral has been confirmed by X-ray diffraction and chemical analysis
##URL=https://www.rruff.net/odr/rruff_sample/R050328
##MEASURED CHEMISTRY=Mg_6.00_(Cr_1.11_Al_0.71_Fe^3+^_0.18_)(CO_3_)(OH)_16_·4H_2_O
##DIFFRACTION SAMPLE DESCRIPTION=Powder
##CELL PARAMETERS=a: 3.0868 b: 3.0868 c: 23.517 alpha: 90 beta: 90 gamma: 120 volume: 194.06 crystal system: hexagonal
##FILETYPE=Raman RAW
##RAMAN WAVELENGTH=532

87.31934, 38.03944
89.24780, 41.36503
91.17627, 39.78574
93.10474, 38.46988
95.03320, 38.23879
96.96167, 39.00077
98.89014, 41.18367
100.8186, 46.74306
102.7471, 52.30468
104.6755, 54.98410
106.6040, 52.29166
108.5325, 51.54226
110.4609, 55.63544
112.3894, 66.05830
114.3179, 73.70446
116.2463, 75.86260
118.1748, 75.70925
120.1033, 77.35912
122.0317, 82.56827
123.9602, 88.19159
125.8887, 91.46098
127.8171, 91.24485
129.7456, 91.04772
131.6741, 90.87674
133.6025, 90.84557
135.5310, 91.51920
137.4595, 94.06552
139.3879, 96.12930
141.3164, 96.41808
143.2449, 94.01723
145.1733, 92.54465
147.1018, 93.07684
149.0303, 95.39643
150.9587, 96.66870
152.8872, 96.18333
154.8157, 95.12527
156.7441, 94.40555
158.6726, 94.58874
160.6011, 94.53753
162.5295, 93.96819
164.4580, 92.94994
166.3865, 91.99313
168.3149, 91.25951
170.2434, 90.58662
172.1719, 89.72269
174.1003, 87.34679
176.0288, 86.14397
177.9573, 87.95776
179.8857, 93.45643
181.8142, 96.17128
183.7427, 93.88097
185.6711, 88.74213
187.5996, 85.12579
189.5281, 83.33038
191.4565, 82.63075
193.3850, 82.70883
195.3135, 84.45213
197.2419, 85.37692
199.1704, 84.67134
201.0989, 83.13756
203.0273, 82.47998
204.9558, 83.85487
206.8843, 85.18726
208.8127, 85.20682
210.7412, 82.24917
212.6697, 81.18389
214.5981, 84.66935
216.5266, 90.72172
218.4551, 94.11469
220.3835, 91.98590
222.3120, 88.85725
224.2405, 86.99043
226.1689, 86.39009
228.0974, 86.54102
230.0259, 88.28192
231.9543, 91.20919
233.8828, 91.97269
235.8113, 88.07189
237.7397, 84.06770
239.6682, 83.04944
241.5967, 85.74303
243.5251, 88.35944
245.4536, 89.97778
247.3821, 90.67348
249.3105, 91.37872
251.2390, 91.94189
253.1675, 92.61626
255.0959, 93.62014
257.0244, 95.33473
258.9529, 96.49805
260.8813, 96.71709
262.8098, 96.10593
264.7383, 95.57684
266.6667, 94.84048
268.5952, 94.49235
270.5237, 94.92955
272.4521, 97.83591
274.3806, 99.15263
276.3091, 97.14553
278.2375, 93.12872
280.1660, 90.88256
282.0945, 91.48213
284.0229, 93.38934
285.9514, 96.03262
287.8799, 100.7665
289.8083, 103.9798
291.7368, 104.5797
293.6653, 103.4100
295.5938, 102.2494
297.5222, 101.4720
299.4507, 100.5192
301.3792, 98.82774
303.3076, 95.94344
305.2361, 94.22185
307.1646, 95.38081
309.0930, 97.98077
311.0215, 99.07975
312.9500, 96.45386
314.8784, 94.32455
316.8069, 94.61401
318.7354, 97.32958
320.6638, 99.94007
322.5923, 101.7301
324.5208, 103.1877
326.4492, 105.0293
328.3777, 109.3718
330.3062, 112.0567
332.2346, 110.7349
334.1631, 105.8998
336.0915, 101.8061
338.0200, 99.15353
339.9485, 97.50498
341.8769, 96.64988
343.8054, 96.89422
345.7339, 97.31466
347.6623, 97.69239
349.5908, 98.03509
351.5193, 98.47718
353.4477, 99.22778
355.3762, 99.94764
357.3047, 100.2549
359.2331, 99.94251
361.1616, 100.0183
363.0901, 101.2126
365.0185, 103.1561
366.9470, 104.2402
368.8755, 103.2832
370.8039, 102.5121
372.7324, 103.4683
374.6609, 106.2559
376.5893, 108.1347
378.5178, 107.7943
380.4463, 106.3404
382.3747, 105.4926
384.3032, 105.3837
386.2317, 105.6594
388.1601, 106.6529
390.0886, 108.2375
392.0171, 109.0816
393.9455, 108.2681
395.8740, 107.0670
397.8025, 106.6505
399.7309, 107.6663
401.6594, 108.0981
403.5879, 106.7352
405.5163, 104.2802
407.4448, 102.9688
409.3733, 103.8207
411.3017, 105.0976
413.2302, 106.1800
415.1587, 107.0936
417.0871, 107.7081
419.0156, 107.5257
420.9441, 107.1358
422.8725, 107.3421
424.8010, 108.0196
426.7295, 109.4412
428.6579, 112.5296
430.5864, 116.8545
432.5149, 119.7073
434.4433, 120.4194
436.3718, 119.6695
438.3003, 117.7900
440.2287, 112.8897
442.1572, 109.3354
444.0857, 107.3801
446.0141, 106.9108
447.9426, 107.6118
449.8711, 110.6139
451.7995, 113.4179
453.7280, 115.2077
455.6565, 115.7977
457.5849, 115.9180
459.5134, 114.9393
461.4419, 113.8785
463.3703, 113.3615
465.2988, 113.3143
467.2273, 114.1146
469.1557, 116.5231
471.0842, 119.9018
473.0127, 122.0337
474.9411, 122.8808
476.8696, 122.6101
478.7981, 120.8736
480.7265, 117.2829
482.6550, 114.9937
484.5835, 113.9903
486.5119, 114.2803
488.4404, 116.6189
490.3689, 122.0440
492.2973, 125.7596
494.2258, 125.0548
496.1543, 121.4798
498.0827, 119.6586
500.0112, 121.1334
501.9397, 122.8169
503.8681, 123.7282
505.7966, 123.9203
507.7251, 123.9364
509.6535, 123.4204
511.5820, 123.0276
513.5105, 123.2048
515.4390, 123.3971
517.3674, 124.9844
519.2959, 129.7828
521.2244, 135.6756
523.1528, 138.9247
525.0813, 137.4501
527.0098, 136.1911
528.9382, 136.8927
530.8667, 139.7272
532.7952, 142.4294
534.7236, 145.4559
536.6521, 148.0025
538.5806, 149.4774
540.5090, 149.7061
542.4375, 150.0558
544.3660, 151.7829
546.2944, 153.4780
548.2229, 152.7823
550.1514, 148.4343
552.0798, 144.1480
554.0083, 141.3822
555.9368, 139.4439
557.8652, 136.3549
559.7937, 129.5777
561.7222, 123.7374
563.6506, 120.7399
565.5791, 121.0466
567.5076, 121.2680
569.4360, 120.6734
571.3645, 120.4629
573.2930, 121.7701
575.2214, 126.0623
577.1499, 128.3316
579.0784, 127.0090
581.0068, 123.6403
582.9352, 120.9632
584.8637, 119.0712
586.7922, 117.5375
588.7206, 115.8646
590.6491, 114.1939
592.5776, 114.0347
594.5060, 117.0006
596.4345, 119.9638
598.3630, 121.5638
600.2914, 121.8316
602.2199, 122.2630
604.1484, 123.2867
606.0768, 124.3176
608.0053, 124.9899
609.9338, 125.2756
611.8622, 125.1766
613.7907, 124.5319
615.7192, 123.5723
617.6476, 122.4163
619.5761, 120.5532
621.5046, 119.8357
623.4330, 122.2061
625.3615, 126.3783
627.2900, 127.7088
629.2184, 123.1877
631.1469, 119.0534
633.0754, 117.0590
635.0038, 117.0018
636.9323, 117.7993
638.8608, 120.3372
640.7892, 122.7037
642.7177, 123.7804
644.6462, 122.8022
646.5746, 122.8588
648.5031, 125.0839
650.4316, 127.5482
652.3600, 128.4311
654.2885, 127.4400
656.2170, 126.9700
658.1454, 127.6738
660.0739, 129.1634
662.0024, 131.0437
663.9308, 134.9006
665.8593, 137.2439
667.7878, 137.0222
669.7162, 135.1073
671.6447, 133.2180
673.5732, 130.9839
675.5016, 129.5448
677.4301, 129.4421
679.3586, 130.5515
681.2870, 131.5027
683.2155, 132.3910
685.1440, 133.0540
687.0724, 133.1858
689.0009, 132.9227
690.9294, 133.1033
692.8578, 134.3229
694.7863, 135.5960
696.7148, 136.7331
698.6432, 138.1916
700.5717, 137.7006
702.5002, 132.5945
704.4286, 127.4660
706.3571, 126.1158
708.2856, 128.8780
710.2141, 131.5655
712.1425, 134.0925
714.0710, 135.7380
715.9995, 135.6185
717.9279, 131.2116
719.8564, 128.8130
721.7849, 129.9494
723.7133, 132.8405
725.6418, 135.3342
727.5703, 137.9108
729.4987, 138.6740
731.4272, 135.6200
733.3557, 130.6207
735.2841, 128.0022
737.2126, 129.6064
739.1411, 131.2757
741.0695, 132.0382
742.9980, 132.4081
744.9265, 133.7178
746.8549, 137.3131
748.7834, 139.6465
750.7119, 138.5470
752.6403, 134.6302
754.5688, 133.3808
756.4973, 138.4617
758.4257, 142.0652
760.3542, 140.1984
762.2827, 134.2896
764.2111, 129.9662
766.1396, 127.2550
768.0681, 126.9785
769.9965, 130.4539
771.9250, 138.1945
773.8535, 143.1147
775.7819, 145.0065
777.7104, 144.7768
779.6389, 141.4540
781.5673, 135.6069
783.4958, 131.6911
785.4243, 131.5058
787.3527, 132.2277
789.2812, 132.3844
791.2097, 131.6902
793.1381, 131.6784
795.0666, 132.9757
796.9951, 134.3536
798.9235, 134.5870
800.8520, 133.7631
802.7805, 134.5042
804.7089, 139.3951
806.6374, 143.9525
808.5659, 145.2959
810.4943, 142.0301
812.4228, 139.8877
814.3513, 139.6008
816.2797, 139.7457
818.2082, 139.0593
820.1367, 137.4824
822.0651, 137.0444
823.9936, 139.1137
825.9221, 141.4999
827.8505, 142.7899
829.7790, 142.6599
831.7075, 142.6275
833.6359, 143.0966
835.5644, 143.4412
837.4929, 142.8519
839.4213, 141.1966
841.3498, 140.7480
843.2783, 142.7909
845.2067, 145.2547
847.1352, 147.0793
849.0637, 148.3971
850.9921, 148.2295
852.9206, 143.8455
854.8491, 140.1720
856.7775, 141.3450
858.7060, 148.2709
860.6345, 152.3868
862.5629, 151.3359
864.4914, 148.9166
866.4199, 147.4066
868.3483, 146.8613
870.2768, 145.8405
872.2053, 142.5310
874.1337, 140.2033
876.0622, 141.3184
877.9907, 146.6255
879.9191, 149.2644
881.8476, 146.6552
883.7761, 143.7954
885.7045, 143.4571
887.6330, 145.2318
889.5615, 146.5154
891.4899, 146.7198
893.4184, 146.6690
895.3469, 146.3640
897.2753, 145.8129
899.2038, 146.4326
901.1323, 149.7352
903.0607, 152.5257
904.9892, 153.3763
906.9177, 152.6934
908.8461, 151.7915
910.7746, 150.4582
912.7031, 149.3356
914.6315, 148.4356
916.5600, 147.8368
918.4885, 148.0072
920.4169, 150.6568
922.3454, 152.0377
924.2739, 150.0777
926.2023, 146.5140
928.1308, 145.5020
930.0593, 148.1632
931.9877, 150.5225
933.9162, 151.5596
935.8447, 151.4402
937.7731, 149.9825
939.7016, 144.6577
941.6301, 142.5558
943.5585, 147.5509
945.4870, 154.6104
947.4155, 156.7534
949.3439, 152.9197
951.2724, 149.6035
953.2009, 147.8069
955.1293, 147.1037
957.0578, 147.1882
958.9863, 148.1483
960.9147, 149.3202
962.8432, 150.6422
964.7717, 152.0981
966.7001, 154.2666
968.6286, 157.6093
970.5571, 158.0270
972.4855, 151.8298
974.4140, 146.2555
976.3425, 145.5939
978.2709, 148.6722
980.1994, 151.1462
982.1279, 151.7343
984.0563, 153.1187
985.9848, 157.4441
987.9133, 163.5904
989.8417, 166.6729
991.7702, 163.6518
993.6987, 161.4122
995.6271, 162.0166
997.5556, 163.7854
999.4841, 163.5273
1001.413, 160.5980
1003.341, 158.2266
1005.269, 156.5254
1007.198, 156.2990
1009.126, 159.1149
1011.055, 166.9024
1012.983, 171.0887
1014.912, 167.7039
1016.840, 163.4412
1018.769, 163.3102
1020.697, 168.1257
1022.626, 170.1950
1024.554, 166.4747
1026.483, 163.3060
1028.411, 165.3159
1030.340, 170.5522
1032.268, 172.1743
1034.197, 166.5301
1036.125, 162.6260
1038.053, 164.8295
1039.982, 170.3044
1041.910, 172.5514
1043.839, 167.6384
1045.767, 164.7503
1047.696, 165.4597
1049.624, 167.8424
1051.553, 169.9204
1053.481, 171.7136
1055.410, 173.4116
1057.338, 175.5905
1059.267, 177.0974
1061.195, 177.4214
1063.124, 176.5604
1065.052, 174.2957
1066.980, 167.1196
1068.909, 162.3493
1070.837, 164.2619
1072.766, 170.7789
1074.694, 173.4127
1076.623, 170.2776
1078.551, 167.3909
1080.480, 166.0821
1082.408, 165.9116
1084.337, 166.6372
1086.265, 168.6032
1088.193, 169.4756
1090.122, 166.2928
1092.050, 163.9228
1093.979, 165.9823
1095.907, 173.3711
1097.836, 178.3799
1099.764, 180.9802
1101.693, 181.5368
1103.621, 178.9810
1105.550, 174.3790
1107.478, 171.0802
1109.407, 169.2133
1111.335, 168.2813
1113.264, 169.3289
1115.192, 170.5785
1117.120, 169.3728
1119.049, 164.5204
1120.977, 163.2772
1122.906, 171.8302
1124.834, 179.3213
1126.763, 178.4321
1128.691, 169.1788
1130.620, 164.5362
1132.548, 167.1499
1134.477, 170.6524
1136.405, 174.6292
1138.334, 178.0089
1140.262, 178.8739
1142.191, 176.7116
1144.119, 174.3514
1146.047, 172.0560
1147.976, 170.2204
1149.904, 168.8320
1151.833, 167.7452
1153.761, 168.6382
1155.690, 174.1136
1157.618, 178.7890
1159.547, 180.7769
1161.475, 180.6096
1163.404, 179.9196
1165.332, 178.2083
1167.261, 177.0162
1169.189, 177.0807
1171.118, 177.4543
1173.046, 176.6257
1174.974, 174.6176
1176.903, 175.2130
1178.831, 181.9139
1180.760, 187.3638
1182.688, 187.5154
1184.617, 183.6986
1186.545, 181.6030
1188.474, 183.1950
1190.402, 183.5157
1192.331, 179.8642
1194.259, 175.9718
1196.188, 176.4323
1198.116, 182.3667
1200.045, 185.8217
1201.973, 183.5587
1203.901, 181.9536
1205.830, 185.6415
1207.758, 191.8813
1209.687, 194.0874
1211.615, 190.6913
1213.544, 187.3816
1215.472, 186.2629
1217.401, 185.5716
1219.329, 183.7748
1221.258, 180.5424
1223.186, 178.0598
1225.115, 175.3204
1227.043, 174.5125
1228.972, 177.6863
1230.900, 183.2369
1232.828, 186.8321
1234.757, 187.8943
1236.685, 188.7529
1238.614, 190.3672
1240.542, 191.3452
1242.471, 190.1244
1244.399, 187.1471
1246.328, 184.8958
1248.256, 183.7098
1250.185, 183.1062
1252.113, 182.8423
1254.042, 183.0876
1255.970, 184.1581
1257.899, 186.2462
1259.827, 188.5493
1261.755, 191.8978
1263.684, 194.4820
1265.612, 194.9935
1267.541, 193.8095
1269.469, 192.9919
1271.398, 192.0611
1273.326, 192.2659
1275.255, 195.5455
1277.183, 198.8596
1279.112, 198.6884
1281.040, 195.5069
1282.969, 193.8582
1284.897, 195.1289
1286.826, 196.3213
1288.754, 195.4326
1290.682, 193.9900
1292.611, 194.6772
1294.539, 198.2615
1296.468, 200.5900
1298.396, 200.5969
1300.325, 199.6881
1302.253, 197.8511
1304.182, 195.4476
1306.110, 194.2225
1308.039, 194.4016
1309.967, 195.4561
1311.896, 198.7659
1313.824, 201.8374
1315.753, 202.1424
1317.681, 199.8947
1319.609, 198.8466
1321.538, 199.5455
1323.466, 200.5619
1325.395, 201.8394
1327.323, 202.9177
1329.252, 202.9683
1331.180, 201.9666
1333.109, 202.1519
1335.037, 204.1515
1336.966, 206.9668
1338.894, 212.1590
1340.823, 217.2622
1342.751, 216.9470
1344.680, 208.2388
1346.608, 202.6199
1348.536, 201.9494
1350.465, 203.1318
1352.393, 205.8575
1354.322, 209.3829
1356.250, 210.9183
1358.179, 209.3697
1360.107, 208.1002
1362.036, 206.7395
1363.964, 206.3348
1365.893, 208.8967
1367.821, 213.2828
1369.750, 213.7014
1371.678, 207.5343
1373.607, 204.7121
1375.535, 211.9840
1377.464, 220.2553
1379.392, 221.9775
1381.320, 218.2809
1383.249, 216.4215
1385.177, 217.7787
1387.106, 219.0241
1389.034, 218.8485
1390.963, 218.4039
1392.891, 218.9484
1394.820, 220.6936
1396.748, 221.0775
1398.677, 218.6561
1400.605, 216.7313
1402.534, 216.2468
1404.462, 216.3152
1406.391, 215.6476
1408.319, 213.9158
1410.247, 214.2115
1412.176, 218.8403
1414.104, 222.3743
1416.033, 223.1257
1417.961, 222.3598
1419.890, 220.9241
1421.818, 218.8114
1423.747, 219.1911
1425.675, 224.6615
1427.604, 228.5541
1429.532, 227.2450
1431.461, 223.7133
1433.389, 221.1218
1435.318, 219.4363
1437.246, 217.8533
1439.174, 215.6787
1441.103, 214.6914
1443.031, 216.5617
1444.960, 219.3244
1446.888, 220.8714
1448.817, 221.1414
1450.745, 221.5339
1452.674, 223.3046
1454.602, 223.4025
1456.531, 218.5317
1458.459, 213.3921
1460.388, 213.5719
1462.316, 219.8828
1464.245, 225.1568
1466.173, 229.0966
1468.101, 232.3818
1470.030, 235.4126
1471.958, 237.5638
1473.887, 238.1812
1475.815, 237.2166
1477.744, 235.2050
1479.672, 231.0300
1481.601, 227.5988
1483.529, 224.3714
1485.458, 222.9754
1487.386, 226.0167
1489.315, 232.7197
1491.243, 237.3705
1493.172, 240.0650
1495.100, 240.1914
1497.028, 235.0665
1498.957, 229.5215
1500.885, 226.8260
1502.814, 226.4123
1504.742, 227.1672
1506.671, 229.4328
1508.599, 231.1358
1510.528, 230.7303
1512.456, 231.0369
1514.385, 235.4896
1516.313, 241.3626
1518.242, 241.2716
1520.170, 233.3960
1522.099, 230.8384
1524.027, 239.7557
1525.955, 248.6487
1527.884, 253.2143
1529.812, 254.7045
1531.741, 254.5532
1533.669, 252.4219
1535.598, 251.1666
1537.526, 251.7795
1539.455, 252.1329
1541.383, 251.9379
1543.312, 251.0726
1545.240, 248.6279
1547.169, 244.4948
1549.097, 243.4128
1551.026, 248.6607
1552.954, 252.1372
1554.882, 252.0680
1556.811, 250.9019
1558.739, 249.7711
1560.668, 248.8821
1562.596, 249.2112
1564.525, 252.4787
1566.453, 253.6942
1568.382, 249.9177
1570.310, 247.4868
1572.239, 251.8652
1574.167, 258.2665
1576.096, 257.1412
1578.024, 246.3579
1579.953, 242.1607
1581.881, 250.4223
1583.809, 257.2076
1585.738, 256.7386
1587.666, 254.9997
1589.595, 259.0014
1591.523, 267.3880
1593.452, 270.3944
1595.380, 265.9141
1597.309, 262.4372
1599.237, 262.9916
1601.166, 263.5878
1603.094, 261.2520
1605.023, 257.7945
1606.951, 256.9409
1608.880, 258.8465
1610.808, 259.4989
1612.736, 256.4254
1614.665, 255.8065
1616.593, 263.4261
1618.522, 271.9061
1620.450, 273.8623
1622.379, 270.6751
1624.307, 267.5868
1626.236, 264.5480
1628.164, 262.9071
1630.093, 263.0278
1632.021, 264.5747
1633.950, 268.9090
1635.878, 273.8404
1637.807, 275.7253
1639.735, 274.5938
1641.663, 273.7908
1643.592, 273.9251
1645.520, 273.8368
1647.449, 271.9301
1649.377, 270.8213
1651.306, 273.5415
1653.234, 278.4730
1655.163, 280.4750
1657.091, 279.0082
1659.020, 276.9915
1660.948, 273.3618
1662.877, 271.8355
1664.805, 277.3049
1666.734, 283.4701
1668.662, 282.5972
1670.590, 275.8073
1672.519, 271.4044
1674.447, 269.8841
1676.376, 270.7669
1678.304, 276.4128
1680.233, 281.2138
1682.161, 281.1161
1684.090, 278.9211
1686.018, 279.4003
1687.947, 282.5249
1689.875, 285.2173
1691.804, 287.0214
1693.732, 288.9635
1695.661, 291.6528
1697.589, 294.2695
1699.517, 296.5208
1701.446, 298.2697
1703.374, 298.9944
1705.303, 298.6005
1707.231, 298.4840
1709.160, 298.9968
1711.088, 299.3363
1713.017, 299.4800
1714.945, 299.1187
1716.874, 297.3131
1718.802, 294.9472
1720.731, 294.9553
1722.659, 297.7084
1724.588, 299.3529
1726.516, 298.7438
1728.444, 298.2446
1730.373, 298.8271
1732.301, 299.7041
1734.230, 300.7558
1736.158, 301.5889
1738.087, 300.4701
1740.015, 296.9722
1741.944, 295.5468
1743.872, 297.3404
1745.801, 300.2065
1747.729, 304.1642
1749.658, 308.1187
1751.586, 311.3326
1753.515, 313.8616
1755.443, 316.2339
1757.371, 318.6342
1759.300, 318.0847
1761.228, 311.9128
1763.157, 307.7877
1765.085, 310.8816
1767.014, 314.6992
1768.942, 313.1866
1770.871, 309.2091
1772.799, 310.2346
1774.728, 316.6032
1776.656, 318.4190
1778.585, 311.6949
1780.513, 307.5495
1782.442, 312.8615
1784.370, 318.5741
1786.298, 317.6529
1788.227, 313.2557
1790.155, 310.0715
1792.084, 308.1923
1794.012, 309.6732
1795.941, 315.9061
1797.869, 321.7753
1799.798, 325.1219
1801.726, 328.6532
1803.655, 336.9793
1805.583, 344.6923
1807.512, 341.8981
1809.440, 330.3714
1811.369, 323.6082
1813.297, 322.9748
1815.225, 323.7781
1817.154, 325.6596
1819.082, 328.1833
1821.011, 332.1637
1822.939, 335.8558
1824.868, 337.2229
1826.796, 336.7351
1828.725, 336.3821
1830.653, 336.1840
1832.582, 336.1618
1834.510, 336.1409
1836.439, 336.6029
1838.367, 338.7603
1840.296, 340.2823
1842.224, 337.6702
1844.152, 334.0293
1846.081, 336.9701
1848.009, 336.2408
1849.938, 335.7240
1851.866, 341.9397
1853.795, 337.5620
1855.723, 344.6816
1857.652, 350.6546
1859.580, 348.5570
1861.509, 344.3550
1863.437, 344.0986
1865.366, 347.2231
1867.294, 351.4402
1869.223, 357.7338
1871.151, 360.9604
1873.079, 359.9372
1875.008, 357.6427
1876.936, 352.9541
1878.865, 349.2385
1880.793, 349.0880
1882.722, 347.0508
1884.650, 350.1339
1886.579, 348.3640
1888.507, 349.2552
1890.436, 353.5896
1892.364, 356.7723
1894.293, 357.8648
1896.221, 358.0644
1898.150, 357.4600
1900.078, 356.5570
1902.006, 355.0121
1903.935, 353.7808
1905.863, 354.5228
1907.792, 357.1664
1909.720, 361.2230
1911.649, 367.6204
1913.577, 371.3975
1915.506, 369.4214
1917.434, 367.9375
1919.363, 370.4524
1921.291, 373.2754
1923.220, 372.2930
1925.148, 375.2169
1927.077, 371.1708
1929.005, 377.1333
1930.933, 380.2111
1932.862, 378.4079
1934.790, 377.3780
1936.719, 376.3016
1938.647, 377.3854
1940.576, 384.2557
1942.504, 390.6841
1944.433, 390.2015
1946.361, 386.0591
1948.290, 385.8290
1950.218, 389.8759
1952.147, 391.0406
1954.075, 387.4085
1956.004, 387.4186
1957.932, 394.7230
1959.860, 401.3820
1961.789, 405.0923
1963.717, 406.6984
1965.646, 405.0200
1967.574, 402.6154
1969.503, 403.9981
1971.431, 408.4681
1973.360, 412.7768
1975.288, 417.2749
1977.217, 416.8813
1979.145, 407.5986
1981.074, 400.4811
1983.002, 400.0966
1984.931, 401.5407
1986.859, 401.5695
1988.787, 402.2668
1990.716, 407.5363
1992.644, 415.8147
1994.573, 420.1234
1996.501, 419.3643
1998.430, 420.1495
2000.358, 425.2104
2002.287, 427.4249
2004.215, 424.4692
2006.144, 420.9698
2008.072, 416.1005
2010.001, 413.6520
2011.929, 418.5826
2013.858, 427.1940
2015.786, 432.4610
2017.714, 434.6441
2019.643, 436.3904
2021.571, 437.8645
2023.500, 438.1788
2025.428, 436.0795
2027.357, 436.1045
2029.285, 442.0068
2031.214, 447.1194
2033.142, 447.2773
2035.071, 445.2920
2036.999, 443.5499
2038.928, 441.9576
2040.856, 439.7361
2042.785, 436.7730
2044.713, 437.3802
2046.641, 444.8772
2048.570, 448.7153
2050.499, 446.1825
2052.427, 443.7890
2054.355, 441.7988
2056.284, 441.5923
2058.212, 444.7124
2060.141, 449.2267
2062.069, 454.1186
2063.998, 458.4319
2065.926, 458.5631
2067.854, 454.8640
2069.783, 453.4950
2071.711, 455.1432
2073.640, 456.7362
2075.568, 457.3419
2077.497, 459.1483
2079.425, 463.9796
2081.354, 468.8573
2083.282, 471.7876
2085.211, 474.5168
2087.139, 480.8896
2089.068, 487.4489
2090.996, 484.2572
2092.925, 472.0271
2094.853, 469.4811
2096.781, 483.3629
2098.710, 487.0969
2100.638, 471.3336
2102.567, 463.9668
2104.495, 476.5983
2106.424, 487.8085
2108.352, 488.7554
2110.281, 486.4977
2112.209, 482.1913
2114.138, 479.9618
2116.066, 488.4718
2117.995, 503.0939
2119.923, 509.3786
2121.852, 507.1762
2123.780, 502.8907
2125.708, 494.5268
2127.637, 491.8734
2129.565, 501.7160
2131.494, 508.6140
2133.422, 507.2471
2135.351, 505.1545
2137.279, 506.0963
2139.208, 507.5123
2141.136, 505.2114
2143.065, 502.9639
2144.993, 508.9762
2146.922, 520.9837
2148.850, 528.8206
2150.779, 532.3553
2152.707, 532.3180
2154.635, 527.3381
2156.564, 527.1389
2158.492, 537.4146
2160.421, 544.3944
2162.349, 541.5872
2164.278, 537.8435
2166.206, 537.6898
2168.135, 537.8648
2170.063, 532.7390
2171.992, 527.9771
2173.920, 535.8319
2175.849, 551.9609
2177.777, 555.8557
2179.706, 547.6026
2181.634, 545.5280
2183.563, 551.5639
2185.491, 553.9147
2187.419, 548.6049
2189.348, 547.3389
2191.276, 557.4316
2193.205, 564.9995
2195.133, 560.5999
2197.062, 556.4921
2198.990, 562.9088
2200.919, 561.1579
2202.847, 572.2758
2204.776, 569.1985
2206.704, 573.6699
2208.633, 584.1952
2210.561, 586.3804
2212.490, 579.5065
2214.418, 579.1682
2216.346, 587.7209
2218.275, 593.5280
2220.203, 594.0126
2222.132, 593.8858
2224.060, 593.2617
2225.989, 594.4077
2227.917, 601.3249
2229.846, 606.6760
2231.774, 602.4404
2233.703, 596.9761
2235.631, 601.5089
2237.560, 598.7527
2239.488, 600.1127
2241.417, 603.3424
2243.345, 604.2957
2245.273, 612.6705
2247.202, 617.4656
2249.130, 617.3585
2251.059, 622.3076
2252.987, 637.4238
2254.916, 645.2977
2256.844, 634.9528
2258.773, 627.2247
2260.701, 628.3038
2262.630, 632.8217
2264.558, 641.6051
2266.487, 649.0909
2268.415, 650.5681
2270.344, 648.7238
2272.272, 645.0144
2274.200, 641.4124
2276.129, 643.6027
2278.057, 643.6658
2279.986, 645.6628
2281.914, 650.7005
2283.843, 652.5346
2285.771, 659.4513
2287.700, 664.5748
2289.628, 669.2403
2291.557, 669.1748
2293.485, 656.7487
2295.414, 651.1367
2297.342, 662.7968
2299.271, 673.0444
2301.199, 671.7749
2303.127, 670.1011
2305.056, 677.2744
2306.984, 685.4296
2308.913, 683.8995
2310.841, 694.0450
2312.770, 688.9153
2314.698, 705.0997
2316.627, 712.1022
2318.555, 710.7081
2320.484, 714.5078
2322.412, 724.4919
2324.341, 730.0634
2326.269, 729.8539
2328.198, 732.2317
2330.126, 739.8716
2332.054, 742.5629
2333.983, 733.9169
2335.911, 729.1685
2337.840, 736.4631
2339.768, 743.8217
2341.697, 746.7745
2343.625, 748.2180
2345.554, 749.1904
2347.482, 750.2401
2349.411, 751.7993
2351.339, 753.7150
2353.268, 754.9429
2355.196, 756.7144
2357.125, 763.4768
2359.053, 772.4488
2360.981, 771.4420
2362.910, 761.5458
2364.838, 766.0272
2366.767, 789.7198
2368.695, 796.8332
2370.624, 781.1116
2372.552, 772.7190
2374.481, 774.4946
2376.409, 780.6272
2378.338, 794.4727
2380.266, 799.7252
2382.195, 782.5110
2384.123, 772.8221
2386.052, 787.1728
2387.980, 804.0577
2389.908, 817.6733
2391.837, 824.6675
2393.765, 814.3690
2395.694, 805.1936
2397.622, 820.2065
2399.551, 841.2860
2401.479, 846.1535
2403.408, 840.7433
2405.336, 829.2154
2407.265, 817.6031
2409.193, 827.3896
2411.122, 855.1092
2413.050, 874.1283
2414.979, 884.3588
2416.907, 883.9067
2418.835, 870.8900
2420.764, 867.9374
2422.692, 878.0117
2424.621, 885.0773
2426.549, 887.1313
2428.478, 885.6837
2430.406, 876.6477
2432.335, 872.6669
2434.263, 878.4259
2436.192, 885.9437
2438.120, 895.2399
2440.049, 902.9785
2441.977, 907.5051
2443.906, 910.9712
2445.834, 912.7800
2447.762, 916.0585
2449.691, 925.4337
2451.619, 934.6675
2453.548, 937.4955
2455.476, 937.4845
2457.405, 937.6600
2459.333, 938.8058
2461.262, 943.4779
2463.190, 949.5319
2465.119, 950.3148
2467.047, 957.4099
2468.976, 954.7048
2470.904, 966.6537
2472.833, 972.5125
2474.761, 972.3672
2476.689, 974.4099
2478.618, 978.9503
2480.546, 984.5409
2482.475, 991.7837
2484.403, 993.5970
2486.332, 988.7066
2488.260, 982.8592
2490.189, 973.9670
2492.117, 974.6816
2494.046, 994.8071
2495.974, 1011.176
2497.903, 1020.314
2499.831, 1026.781
2501.760, 1030.128
2503.688, 1033.520
2505.616, 1038.911
2507.545, 1042.716
2509.473, 1040.745
2511.402, 1040.586
2513.330, 1047.118
2515.259, 1054.778
2517.187, 1060.378
2519.116, 1065.679
2521.044, 1072.837
2522.973, 1079.216
2524.901, 1078.746
2526.830, 1080.672
2528.758, 1100.976
2530.687, 1122.634
2532.615, 1122.669
2534.543, 1111.220
2536.472, 1099.073
2538.400, 1090.352
2540.329, 1097.654
2542.257, 1113.224
2544.186, 1117.406
2546.114, 1113.998
2548.043, 1113.264
2549.971, 1115.354
2551.900, 1120.739
2553.828, 1129.331
2555.757, 1141.102
2557.685, 1155.819
2559.614, 1165.450
2561.542, 1170.194
2563.470, 1174.822
2565.399, 1179.571
2567.327, 1181.892
2569.256, 1185.637
2571.184, 1189.604
2573.113, 1191.153
2575.041, 1197.123
2576.970, 1200.143
2578.898, 1203.259
2580.827, 1206.381
2582.755, 1213.209
2584.684, 1226.168
2586.612, 1237.637
2588.541, 1249.711
2590.469, 1253.781
2592.397, 1243.462
2594.326, 1240.174
2596.254, 1250.545
2598.183, 1256.719
2600.111, 1248.118
2602.040, 1249.677
2603.968, 1279.993
2605.897, 1302.716
2607.825, 1303.482
2609.754, 1304.622
2611.682, 1312.789
2613.611, 1318.611
2615.539, 1316.717
2617.468, 1315.648
2619.396, 1318.249
2621.324, 1323.906
2623.253, 1335.222
2625.181, 1345.948
2627.110, 1352.407
2629.038, 1359.132
2630.967, 1368.187
2632.895, 1377.415
2634.824, 1389.146
2636.752, 1395.413
2638.681, 1383.992
2640.609, 1375.694
2642.538, 1388.083
2644.466, 1402.578
2646.395, 1408.286
2648.323, 1411.478
2650.251, 1413.649
2652.180, 1418.215
2654.108, 1428.505
2656.037, 1441.170
2657.965, 1457.595
2659.894, 1470.366
2661.822, 1472.464
2663.751, 1469.126
2665.679, 1456.905
2667.608, 1449.758
2669.536, 1465.268
2671.465, 1485.504
2673.393, 1494.457
2675.322, 1499.083
2677.250, 1502.320
2679.178, 1508.719
2681.107, 1527.050
2683.035, 1545.092
2684.964, 1551.886
2686.892, 1551.446
2688.821, 1540.804
2690.749, 1532.813
2692.678, 1546.078
2694.606, 1563.565
2696.535, 1567.325
2698.463, 1568.541
2700.392, 1581.256
2702.320, 1594.386
2704.249, 1588.887
2706.177, 1584.414
2708.105, 1608.391
2710.034, 1637.696
2711.962, 1651.307
2713.891, 1657.577
2715.819, 1661.869
2717.748, 1666.688
2719.676, 1675.990
2721.605, 1685.696
2723.533, 1687.179
2725.462, 1692.066
2727.390, 1720.227
2729.319, 1745.980
2731.247, 1737.602
2733.176, 1723.893
2735.104, 1731.422
2737.032, 1747.324
2738.961, 1765.811
2740.889, 1780.501
2742.818, 1781.936
2744.746, 1782.468
2746.675, 1787.000
2748.603, 1801.577
2750.532, 1850.140
2752.460, 1886.666
2754.389, 1863.453
2756.317, 1838.191
2758.246, 1854.235
2760.174, 1877.854
2762.103, 1887.245
2764.031, 1894.634
2765.959, 1910.552
2767.888, 1922.616
2769.816, 1921.474
2771.745, 1919.096
2773.673, 1920.919
2775.602, 1925.577
2777.530, 1929.737
2779.459, 1941.370
2781.387, 1972.179
2783.316, 1996.020
2785.244, 1997.485
2787.173, 1997.795
2789.101, 2003.520
2791.030, 2012.758
2792.958, 2026.858
2794.886, 2040.599
2796.815, 2053.054
2798.743, 2064.355
2800.672, 2074.661
2802.600, 2084.249
2804.529, 2093.187
2806.457, 2101.406
2808.386, 2105.507
2810.314, 2119.884
2812.243, 2151.284
2814.171, 2176.318
2816.100, 2190.906
2818.028, 2195.374
2819.957, 2206.958
2821.885, 2209.426
2823.813, 2206.865
2825.742, 2213.800
2827.670, 2221.321
2829.599, 2229.963
2831.527, 2237.013
2833.456, 2254.597
2835.384, 2251.085
2837.313, 2262.400
2839.241, 2289.109
2841.170, 2305.841
2843.098, 2311.680
2845.027, 2327.206
2846.955, 2351.242
2848.884, 2352.096
2850.812, 2339.206
2852.740, 2368.690
2854.669, 2423.988
2856.597, 2439.632
2858.526, 2426.953
2860.454, 2414.818
2862.383, 2406.011
2864.311, 2405.730
2866.240, 2414.902
2868.168, 2440.533
2870.097, 2471.096
2872.025, 2490.645
2873.954, 2503.827
2875.882, 2516.445
2877.811, 2525.475
2879.739, 2524.731
2881.667, 2523.593
2883.596, 2528.265
2885.524, 2537.551
2887.453, 2551.045
2889.381, 2568.337
2891.310, 2594.577
2893.238, 2615.257
2895.167, 2622.906
2897.095, 2624.481
2899.024, 2612.383
2900.952, 2615.288
2902.881, 2646.087
2904.809, 2673.474
2906.738, 2691.163
2908.666, 2698.862
2910.594, 2686.499
2912.523, 2695.592
2914.451, 2732.721
2916.380, 2758.795
2918.308, 2768.364
2920.237, 2773.476
2922.165, 2773.310
2924.094, 2784.772
2926.022, 2806.523
2927.951, 2819.575
2929.879, 2825.399
2931.808, 2837.886
2933.736, 2853.379
2935.665, 2852.631
2937.593, 2846.178
2939.521, 2868.362
2941.450, 2866.847
2943.378, 2896.081
2945.307, 2886.061
2947.235, 2900.037
2949.164, 2917.879
2951.092, 2915.334
2953.021, 2915.110
2954.949, 2936.191
2956.878, 2960.646
2958.806, 2978.284
2960.735, 2996.446
2962.663, 3020.506
2964.592, 3038.815
2966.520, 3042.749
2968.448, 3050.491
2970.377, 3072.378
2972.305, 3083.686
2974.234, 3080.146
2976.162, 3080.078
2978.091, 3085.105
2980.019, 3100.503
2981.948, 3127.831
2983.876, 3150.841
2985.805, 3170.079
2987.733, 3191.005
2989.662, 3210.911
2991.590, 3212.750
2993.519, 3236.961
2995.447, 3232.196
2997.375, 3266.858
2999.304, 3280.636
3001.232, 3283.333
3003.161, 3277.647
3005.089, 3276.258
3007.018, 3296.612
3008.946, 3316.281
3010.875, 3316.233
3012.803, 3324.015
3014.732, 3362.415
3016.660, 3393.104
3018.589, 3405.649
3020.517, 3410.421
3022.446, 3405.139
3024.374, 3411.783
3026.302, 3442.422
3028.231, 3458.224
3030.159, 3458.424
3032.088, 3463.383
3034.016, 3475.559
3035.945, 3513.566
3037.873, 3566.999
3039.802, 3593.877
3041.730, 3601.280
3043.659, 3597.082
3045.587, 3593.264
3047.516, 3607.553
3049.444, 3628.713
3051.373, 3651.248
3053.301, 3669.060
3055.229, 3678.023
3057.158, 3682.488
3059.086, 3672.523
3061.015, 3679.187
3062.943, 3715.359
3064.872, 3749.289
3066.800, 3777.075
3068.729, 3793.005
3070.657, 3812.541
3072.586, 3824.324
3074.514, 3832.225
3076.443, 3843.739
3078.371, 3844.039
3080.300, 3857.605
3082.228, 3877.376
3084.156, 3883.761
3086.085, 3886.226
3088.013, 3889.397
3089.942, 3906.575
3091.870, 3975.781
3093.799, 4025.437
3095.727, 3991.801
3097.656, 3966.482
3099.584, 3978.689
3101.513, 4012.068
3103.441, 4087.087
3105.370, 4123.481
3107.298, 4110.872
3109.227, 4128.104
3111.155, 4182.553
3113.083, 4196.658
3115.012, 4178.024
3116.940, 4193.563
3118.869, 4225.864
3120.797, 4226.039
3122.726, 4223.718
3124.654, 4275.597
3126.583, 4327.036
3128.511, 4320.922
3130.440, 4314.024
3132.368, 4334.975
3134.297, 4367.479
3136.225, 4418.149
3138.154, 4447.478
3140.082, 4444.946
3142.010, 4451.846
3143.939, 4474.619
3145.867, 4506.988
3147.796, 4546.269
3149.724, 4552.089
3151.653, 4546.125
3153.581, 4604.333
3155.510, 4681.506
3157.438, 4700.906
3159.367, 4702.589
3161.295, 4717.217
3163.224, 4735.644
3165.152, 4758.224
3167.081, 4773.211
3169.009, 4773.437
3170.938, 4780.878
3172.866, 4796.983
3174.794, 4837.752
3176.723, 4906.220
3178.651, 4943.830
3180.580, 4956.778
3182.508, 4982.639
3184.437, 5016.027
3186.365, 5040.614
3188.294, 5066.491
3190.222, 5115.142
3192.151, 5155.836
3194.079, 5160.523
3196.008, 5159.136
3197.936, 5155.475
3199.865, 5169.924
3201.793, 5214.282
3203.721, 5252.501
3205.650, 5281.177
3207.578, 5306.227
3209.507, 5328.094
3211.435, 5350.757
3213.364, 5371.967
3215.292, 5377.531
3217.221, 5387.090
3219.149, 5435.993
3221.078, 5482.540
3223.006, 5484.312
3224.935, 5497.893
3226.863, 5551.019
3228.792, 5586.550
3230.720, 5581.824
3232.648, 5606.550
3234.577, 5669.845
3236.505, 5680.305
3238.434, 5657.173
3240.362, 5692.037
3242.291, 5756.779
3244.219, 5806.900
3246.148, 5840.009
3248.076, 5841.792
3250.005, 5848.497
3251.933, 5886.601
3253.862, 5923.316
3255.790, 5952.552
3257.719, 5973.895
3259.647, 5985.605
3261.575, 5995.335
3263.504, 6004.244
3265.432, 6022.995
3267.361, 6055.262
3269.289, 6127.301
3271.218, 6193.902
3273.146, 6176.969
3275.075, 6164.754
3277.003, 6219.316
3278.932, 6272.754
3280.860, 6305.695
3282.789, 6328.596
3284.717, 6341.030
3286.646, 6363.016
3288.574, 6394.884
3290.502, 6435.938
3292.431, 6479.606
3294.359, 6509.674
3296.288, 6533.268
3298.216, 6548.415
3300.145, 6577.076
3302.073, 6605.861
3304.002, 6637.576
3305.930, 6682.438
3307.859, 6705.858
3309.787, 6767.288
3311.716, 6792.762
3313.644, 6792.584
3315.573, 6858.915
3317.501, 6861.407
3319.429, 6931.918
3321.358, 6912.663
3323.286, 6972.476
3325.215, 7030.395
3327.143, 7047.561
3329.072, 7065.894
3331.000, 7091.531
3332.929, 7125.739
3334.857, 7168.363
3336.786, 7216.571
3338.714, 7265.741
3340.643, 7306.528
3342.571, 7337.464
3344.500, 7341.715
3346.428, 7357.951
3348.356, 7415.624
3350.285, 7471.569
3352.213, 7519.300
3354.142, 7545.822
3356.070, 7551.627
3357.999, 7568.731
3359.927, 7599.083
3361.856, 7661.367
3363.784, 7722.445
3365.713, 7724.835
3367.641, 7727.180
3369.570, 7780.646
3371.498, 7824.698
3373.427, 7840.597
3375.355, 7866.218
3377.283, 7907.188
3379.212, 7959.521
3381.140, 8016.361
3383.069, 8057.573
3384.997, 8080.728
3386.926, 8054.438
3388.854, 8052.215
3390.783, 8137.837
3392.711, 8211.947
3394.640, 8232.396
3396.568, 8262.518
3398.497, 8305.306
3400.425, 8351.820
3402.354, 8395.815
3404.282, 8408.525
3406.210, 8412.689
3408.139, 8438.409
3410.067, 8462.341
3411.996, 8457.931
3413.924, 8476.133
3415.853, 8530.993
3417.781, 8572.745
3419.710, 8597.620
3421.638, 8645.459
3423.567, 8697.366
3425.495, 8701.472
3427.424, 8698.023
3429.352, 8729.591
3431.281, 8764.201
3433.209, 8785.373
3435.137, 8825.886
3437.066, 8858.988
3438.994, 8894.024
3440.923, 8937.730
3442.851, 8972.577
3444.780, 9020.634
3446.708, 9066.005
3448.637, 9094.377
3450.565, 9073.458
3452.494, 9082.063
3454.422, 9144.265
3456.351, 9198.650
3458.279, 9239.532
3460.208, 9266.016
3462.136, 9282.761
3464.064, 9298.978
3465.993, 9315.393
3467.921, 9353.695
3469.850, 9352.533
3471.778, 9438.080
3473.707, 9510.380
3475.635, 9560.334
3477.564, 9566.776
3479.492, 9613.665
3481.421, 9596.082
3483.349, 9654.551
3485.278, 9675.516
3487.206, 9685.021
3489.135, 9683.203
3491.063, 9713.514
3492.991, 9797.788
3494.920, 9839.623
3496.848, 9852.746
3498.777, 9883.808
3500.705, 9929.461
3502.634, 9996.155
3504.562, 10056.16
3506.491, 10084.03
3508.419, 10131.92
3510.348, 10210.09
3512.276, 10264.41
3514.205, 10299.43
3516.133, 10353.39
3518.062, 10404.17
3519.990, 10410.81
3521.918, 10420.84
3523.847, 10455.50
3525.775, 10512.89
3527.704, 10594.58
3529.632, 10647.70
3531.561, 10707.42
3533.489, 10741.94
3535.418, 10809.86
3537.346, 10863.33
3539.275, 10900.50
3541.203, 10906.51
3543.132, 10939.45
3545.060, 11010.14
3546.989, 11069.37
3548.917, 11118.60
3550.845, 11166.14
3552.774, 11211.74
3554.702, 11257.53
3556.631, 11293.56
3558.559, 11310.11
3560.488, 11348.77
3562.416, 11415.87
3564.345, 11499.38
3566.273, 11584.97
3568.202, 11640.54
3570.130, 11682.48
3572.059, 11721.18
3573.987, 11753.27
3575.916, 11771.26
3577.844, 11805.33
3579.772, 11854.78
3581.701, 11912.41
3583.629, 11961.48
3585.558, 11961.67
3587.486, 11965.03
3589.415, 11995.00
3591.343, 12047.95
3593.272, 12131.37
3595.200, 12158.30
3597.129, 12156.92
3599.057, 12242.28
3600.986, 12261.27
3602.914, 12341.51
3604.843, 12351.39
3606.771, 12403.74
3608.699, 12453.02
3610.628, 12499.49
3612.556, 12573.10
3614.485, 12654.08
3616.413, 12701.13
3618.342, 12745.80
3620.270, 12793.00
3622.199, 12879.50
3624.127, 12938.99
3626.056, 13077.76
3627.984, 13106.00
3629.913, 13229.14
3631.841, 13346.81
3633.770, 13323.84
3635.698, 13373.12
3637.626, 13591.43
3639.555, 13730.72
3641.483, 13789.23
3643.412, 13873.20
3645.340, 13978.48
3647.269, 14111.95
3649.197, 14236.71
3651.126, 14316.64
3653.054, 14420.65
3654.983, 14551.75
3656.911, 14695.63
3658.840, 14849.00
3660.768, 15022.11
3662.697, 15183.84
3664.625, 15319.17
3666.553, 15421.71
3668.482, 15566.05
3670.410, 15630.04
3672.339, 15811.64
3674.267, 15933.71
3676.196, 16048.74
3678.124, 16203.28
3680.053, 16359.41
3681.981, 16512.55
3683.910, 16633.88
3685.838, 16770.66
3687.767, 16870.44
3689.695, 17005.07
3691.624, 17089.94
3693.552, 17183.71
3695.480, 17300.85
3697.409, 17439.99
3699.337, 17592.48
3701.266, 17707.36
3703.194, 17806.04
3705.123, 17878.42
3707.051, 18024.31
3708.980, 18126.44
3710.908, 18230.09
3712.837, 18392.48
3714.765, 18484.50
3716.694, 18651.96
3718.622, 18872.49
3720.551, 19046.36
3722.479, 19128.85
3724.407, 19199.60
3726.336, 19273.33
3728.264, 19415.52
3730.193, 19578.22
3732.121, 19707.67
3734.050, 19828.52
3735.978, 19945.95
3737.907, 20069.76
3739.835, 20205.88
3741.764, 20397.43
3743.692, 20598.72
3745.621, 20752.77
3747.549, 20904.84
3749.478, 21068.35
3751.406, 21246.05
3753.334, 21432.15
3755.263, 21599.23
3757.191, 21751.98
3759.120, 21926.12
3761.048, 22093.48
3762.977, 22253.39
3764.905, 22442.32
3766.834, 22609.05
3768.762, 22791.86
3770.691, 22972.67
3772.619, 23129.22
3774.548, 23294.21
3776.476, 23441.41
3778.405, 23614.39
3780.333, 23719.96
3782.261, 23821.31
3784.190, 23949.59
3786.118, 24083.77
3788.047, 24301.83
3789.975, 24385.13
3791.904, 24537.62
3793.832, 24704.91
3795.761, 24757.67
3797.689, 24810.30
3799.618, 24908.71
3801.546, 25080.57
3803.475, 25173.15
3805.403, 25291.26
3807.332, 25435.39
3809.260, 25521.17
3811.188, 25634.60
3813.117, 25786.50
3815.045, 25893.17
3816.974, 25959.38
3818.902, 25975.11
3820.831, 26035.46
3822.759, 26273.12
3824.688, 26455.50
3826.616, 26508.08
3828.545, 26639.18
3830.473, 26809.66
3832.402, 26943.65
3834.330, 27057.56
3836.259, 27158.79
3838.187, 27250.10
3840.115, 27414.92
3842.044, 27527.27
3843.972, 27758.10
3845.901, 27972.60
3847.829, 28176.64
3849.758, 28374.16
3851.686, 28521.56
3853.615, 28643.05
3855.543, 28836.83
3857.472, 29051.78
3859.400, 29234.40
3861.329, 29503.00
3863.257, 29688.66
3865.186, 30017.87
3867.114, 30120.06
3869.042, 30410.34
3870.971, 30669.89
3872.899, 30791.82
3874.828, 30982.56
3876.756, 31232.56
3878.685, 31478.63
3880.613, 31726.80
3882.542, 31991.46
3884.470, 32235.52
3886.399, 32459.51
3888.327, 32675.26
3890.256, 32867.81
3892.184, 33054.14
3894.113, 33225.54
3896.041, 33353.34
3897.969, 33488.36
3899.898, 33639.36
3901.826, 33766.55
3903.755, 33900.16
3905.683, 34090.20
3907.612, 34192.37
3909.540, 34191.16
3911.469, 34197.38
3913.397, 34202.21
3915.326, 34217.87
3917.254, 34191.47
3919.183, 34112.95
3921.111, 34063.89
3923.040, 34049.42
3924.968, 34078.32
3926.896, 34013.34
3928.825, 33787.03
3930.753, 33590.02
3932.682, 33424.78
3934.610, 33292.91
3936.539, 33162.71
3938.467, 32997.27
3940.396, 32927.02
3942.324, 32915.96
3944.253, 32809.99
3946.181, 32653.45
3948.110, 32487.19
3950.038, 32342.13
3951.967, 32282.60
3953.895, 32210.82
3955.823, 32105.64
3957.752, 31973.49
3959.680, 31834.48
3961.609, 31760.37
3963.537, 31776.20
3965.466, 31810.27
3967.394, 31768.63
3969.323, 31711.99
3971.251, 31700.69
3973.180, 31675.13
3975.108, 31648.74
3977.037, 31674.68
3978.965, 31752.47
3980.894, 31878.61
3982.822, 31929.70
3984.750, 31928.70
3986.679, 31936.97
3988.607, 32004.60
3990.536, 32105.11
3992.464, 32178.69
3994.393, 32235.53
3996.321, 32332.03
3998.250, 32446.98
4000.178, 32538.16
4002.107, 32716.89
4004.035, 32890.81
4005.964, 32977.46
4007.892, 33068.44
4009.821, 33147.74
4011.749, 33301.18
4013.677, 33444.80
4015.606, 33710.63
4017.534, 33831.31
4019.463, 34105.72
4021.391, 34384.07
4023.320, 34499.00
4025.248, 34593.96
4027.177, 34794.75
4029.105, 35106.81
4031.034, 35368.66
4032.962, 35561.67
4034.891, 35802.38
4036.819, 36068.18
4038.748, 36348.70
4040.676, 36590.57
4042.604, 36797.72
4044.533, 37099.32
4046.461, 37445.49
4048.390, 37884.23
4050.318, 38345.15
4052.247, 38711.23
4054.175, 39121.04
4056.104, 39665.27
4058.032, 40277.13
4059.961, 40876.74
4061.889, 41489.18
4063.818, 42140.10
4065.746, 42859.48
4067.675, 43679.79
4069.603, 44467.02
4071.531, 45223.52
4073.460, 46050.07
4075.388, 46875.10
4077.317, 47703.39
4079.245, 48525.79
4081.174, 49388.52
4083.102, 50211.98
4085.031, 50900.05
4086.959, 51501.21
4088.888, 52024.69
4090.816, 52479.69
4092.745, 52761.31
4094.673, 52876.18
4096.602, 52979.10
4098.530, 53026.12
4100.458, 53013.51
4102.387, 52751.27
4104.315, 52284.14
4106.244, 51870.26
4108.172, 51448.61
4110.101, 51000.16
4112.029, 50437.85
4113.958, 49885.34
4115.886, 49193.06
4117.814, 48634.32
4119.743, 47915.50
4121.671, 47243.72
4123.600, 46639.00
4125.528, 46165.80
4127.457, 45690.63
4129.385, 45075.51
4131.314, 44507.36
4133.242, 44018.32
4135.171, 43689.18
4137.099, 43392.38
4139.028, 43014.25
4140.956, 42682.59
4142.885, 42414.09
4144.813, 42290.98
4146.742, 42164.60
4148.670, 41910.50
4150.599, 41699.93
4152.527, 41562.81
4154.456, 41602.04
4156.384, 41712.54
4158.313, 41809.37
4160.241, 42072.43
4162.169, 42480.44
4164.098, 42866.25
4166.026, 43343.10
4167.955, 43954.88
4169.883, 44735.93
4171.812, 45681.07
4173.740, 46577.68
4175.668, 47469.91
4177.597, 48347.91
4179.525, 49435.45
4181.454, 50704.13
4183.382, 51943.75
4185.311, 53255.71
4187.239, 54741.08
4189.168, 56131.88
4191.096, 57447.06
4193.025, 58892.91
4194.953, 60313.59
4196.882, 61592.58
4198.810, 62961.97
4200.739, 64317.57
4202.667, 65401.77
4204.596, 66352.66
4206.524, 67159.55
4208.453, 67758.95
4210.381, 68227.72
4212.310, 68476.01
4214.238, 68558.13
4216.167, 68462.31
4218.095, 68274.66
4220.023, 67931.41
4221.952, 67242.00
4223.880, 66495.69
4225.809, 65762.62
4227.737, 64925.33
4229.666, 63963.11
4231.594, 62765.33
4233.522, 61695.16
4235.451, 60796.04
4237.379, 59928.59
4239.308, 59108.40
4241.236, 58351.44
4243.165, 57659.41
4245.093, 57025.47
4247.022, 56419.21
4248.950, 55846.98
4250.879, 55308.50
4252.807, 54825.86
4254.736, 54393.04
4256.664, 53929.75
4258.593, 53509.11
4260.521, 53124.98
4262.450, 52727.06
4264.378, 52418.48
4266.307, 52133.52
4268.235, 51807.28
4270.164, 51419.95
4272.092, 51007.54
4274.021, 50637.79
4275.949, 50410.07
4277.877, 50228.89
4279.806, 50065.84
4281.734, 49768.27
4283.663, 49446.44
4285.591, 49194.01
4287.520, 48920.44
4289.448, 48726.86
4291.376, 48507.42
4293.305, 48425.95
4295.233, 48358.64
4297.162, 48304.06
4299.090, 48243.54
4301.019, 48137.94
4302.947, 48021.91
4304.876, 47905.51
4306.804, 47714.38
4308.733, 47526.10
4310.661, 47432.80
4312.590, 47350.69
4314.518, 47280.24
4316.447, 47358.66
4318.375, 47444.10
4320.304, 47443.38
4322.232, 47476.62
4324.161, 47526.86
4326.089, 47550.20
4328.018, 47523.30
4329.946, 47644.89
4331.875, 47709.18
4333.803, 47791.28
4335.731, 48021.39
4337.660, 48203.27
4339.588, 48338.21
4341.517, 48614.46
4343.445, 48922.81
4345.374, 49183.20
4347.302, 49475.34
4349.230, 49783.70
4351.159, 50078.13
4353.087, 50330.76
4355.016, 50540.65
4356.944, 51076.06
4358.873, 51666.46
4360.801, 51940.64
4362.730, 52344.43
4364.658, 52880.67
4366.587, 53266.99
4368.515, 53781.36
4370.444, 54709.36
4372.372, 55330.35
4374.301, 55778.39
4376.229, 56197.86
4378.158, 56792.73
4380.086, 57591.72
4382.015, 58361.23
4383.943, 59070.70
4385.872, 59695.05
4387.800, 60182.44
4389.729, 60855.79
4391.657, 61345.78
4393.585, 62029.03
4395.514, 62607.71
4397.442, 63132.98
4399.371, 63600.14
4401.299, 64139.86
4403.228, 64495.61
4405.156, 65128.34
4407.084, 65536.38
4409.013, 65988.26
4410.941, 66573.17
4412.870, 66873.41
4414.798, 67116.84
4416.727, 67659.10
4418.655, 67963.56
4420.584, 68053.70
4422.512, 68284.45
4424.441, 68510.63
4426.369, 68658.82
4428.298, 68815.16
4430.226, 68943.12
4432.155, 68992.59
4434.083, 68978.50
4436.012, 68941.47
4437.940, 69125.38
4439.869, 69275.45
4441.797, 69286.56
4443.726, 69313.84
4445.654, 69340.59
4447.583, 69362.29
4449.511, 69241.89
4451.439, 69080.01
4453.368, 69353.70
4455.296, 69625.62
4457.225, 69715.64
4459.153, 69679.00
4461.082, 69647.30
4463.010, 69798.99
4464.938, 69884.23
4466.867, 69911.42
4468.795, 69980.99
4470.724, 70133.46
4472.652, 70397.32
4474.581, 70588.57
4476.509, 70831.20
4478.438, 71236.51
4480.366, 71726.16
4482.295, 72241.25
4484.223, 72633.29
4486.152, 73100.06
4488.080, 73681.45
4490.009, 74319.23
4491.937, 74980.80
4493.866, 75657.32
4495.794, 76326.77
4497.723, 76961.69
4499.651, 77702.41
4501.580, 78471.54
4503.508, 79221.19
4505.437, 80130.93
4507.365, 81010.91
4509.293, 81914.34
4511.222, 82820.78
4513.150, 83634.75
4515.079, 84195.73
4517.007, 84909.63
4518.936, 85742.21
4520.864, 86548.77
4522.792, 87146.88
4524.721, 87498.23
4526.649, 88003.55
4528.578, 88557.25
4530.506, 89111.45
4532.435, 89425.19
4534.363, 89649.11
4536.292, 90094.19
4538.220, 90320.41
4540.149, 90304.17
4542.077, 90201.45
4544.006, 90078.28
4545.934, 89963.19
4547.863, 89968.45
4549.791, 89866.73
4551.720, 89379.30
4553.648, 88966.44
4555.577, 88608.03
4557.505, 88246.89
4559.434, 87846.87
4561.362, 87412.88
4563.291, 86967.99
4565.219, 86615.96
4567.147, 86228.55
4569.076, 85965.60
4571.004, 85559.76
4572.933, 85389.55
4574.861, 85134.33
4576.790, 84800.02
4578.718, 84426.81
4580.646, 84013.72
4582.575, 83570.47
4584.503, 83115.30
4586.432, 82692.87
4588.360, 82315.92
4590.289, 81966.16
4592.217, 81647.14
4594.146, 81370.09
4596.074, 81080.07
4598.003, 80745.77
4599.931, 80265.01
4601.860, 79956.12
4603.788, 79795.49
4605.717, 79594.07
4607.645, 79386.98
4609.574, 79172.96
4611.502, 78905.77
4613.431, 78663.37
4615.359, 78488.50
4617.288, 78261.09
4619.216, 77951.38
4621.145, 77506.88
4623.073, 77111.98
4625.001, 76772.41
4626.930, 76361.36
4628.858, 75979.91
4630.787, 75607.48
4632.715, 75192.84
4634.644, 74808.89
4636.572, 74296.84
4638.500, 73839.68
4640.429, 73219.86
4642.357, 72648.59
4644.286, 72057.33
4646.214, 71417.66
4648.143, 70699.95
4650.071, 69987.52
4652.000, 69251.91
4653.928, 68408.23
4655.857, 67640.70
4657.785, 66945.20
4659.714, 66239.56
4661.642, 65490.42
4663.571, 64687.20
4665.499, 63864.97
4667.428, 62910.90
4669.356, 62117.07
4671.285, 61215.00
4673.213, 60303.69
4675.142, 59455.41
4677.070, 58667.31
4678.999, 57887.78
4680.927, 57056.52
4682.855, 56289.09
4684.784, 55541.16
4686.712, 54667.14
4688.641, 53922.34
4690.569, 53300.27
4692.498, 52650.99
4694.426, 52085.60
4696.354, 51592.23
4698.283, 50850.23
4700.211, 50179.81
4702.140, 49690.44
4704.068, 49200.22
4705.997, 48732.67
4707.925, 48306.11
4709.854, 47890.43
4711.782, 47502.32
4713.711, 47155.21
4715.639, 46787.07
4717.568, 46464.06
4719.496, 46284.96
4721.425, 46166.43
4723.353, 46081.52
4725.282, 46027.19
4727.210, 45800.75
4729.139, 45470.71
4731.067, 45299.28
4732.996, 45239.51
4734.924, 45255.35
4736.853, 45264.53
4738.781, 45177.90
4740.709, 44988.43
4742.638, 45097.36
4744.566, 45041.98
4746.495, 44667.52
4748.423, 44634.11
4750.352, 44646.15
4752.280, 44494.82
4754.208, 44356.64
4756.137, 44227.95
4758.065, 44101.46
4759.994, 44048.09
4761.922, 43962.39
4763.851, 43676.93
4765.779, 43540.08
4767.708, 43482.30
4769.636, 43394.79
4771.565, 43198.59
4773.493, 42969.25
4775.422, 42864.29
4777.350, 42745.36
4779.279, 42619.82
4781.207, 42504.22
4783.136, 42462.81
4785.064, 42266.88
4786.993, 42078.18
4788.921, 41969.31
4790.850, 41938.43
4792.778, 41939.13
4794.707, 41881.40
4796.635, 41856.41
4798.563, 41837.51
4800.492, 41770.13
4802.420, 41794.28
4804.349, 41740.11
4806.277, 41714.53
4808.206, 41641.84
4810.134, 41614.60
4812.063, 41573.29
4813.991, 41566.91
4815.919, 41693.00
4817.848, 41829.16
4819.776, 41908.07
4821.705, 41951.88
4823.633, 41961.34
4825.562, 41934.28
4827.490, 41968.04
4829.419, 42022.52
4831.347, 42051.79
4833.276, 42165.33
4835.204, 42564.03
4837.133, 42450.46
4839.061, 42642.85
4840.990, 42894.27
4842.918, 42941.43
4844.847, 43069.74
4846.775, 43197.65
4848.704, 43232.36
4850.632, 43259.26
4852.561, 43324.91
4854.489, 43480.33
4856.417, 43653.96
4858.346, 43777.62
4860.274, 43752.43
4862.203, 43841.73
4864.131, 43991.66
4866.060, 44135.03
4867.988, 44214.72
4869.917, 44247.00
4871.845, 44241.52
4873.773, 44244.90
4875.702, 44324.75
4877.630, 44580.98
4879.559, 44718.66
4881.487, 44784.74
4883.416, 44851.09
4885.344, 44918.29
4887.273, 44997.96
4889.201, 45052.21
4891.130, 45165.10
4893.058, 45179.76
4894.987, 45198.23
4896.915, 45285.46
4898.844, 45387.04
4900.772, 45446.13
4902.701, 45422.41
4904.629, 45401.06
4906.558, 45471.60
4908.486, 45499.98
4910.415, 45722.82
4912.343, 45646.37
4914.271, 45712.94
4916.200, 45801.83
4918.128, 45775.20
4920.057, 45770.20
4921.985, 45783.25
4923.914, 45799.18
4925.842, 46012.84
4927.771, 46187.23
4929.699, 46133.37
4931.627, 46084.73
4933.556, 46097.56
4935.484, 46204.66
4937.413, 46297.18
4939.341, 46415.89
4941.270, 46575.05
4943.198, 46525.86
4945.127, 46439.04
4947.055, 46402.58
4948.984, 46602.01
4950.912, 46706.02
4952.841, 46624.84
4954.769, 46693.89
4956.698, 46731.62
4958.626, 46678.11
4960.555, 46622.30
4962.483, 46595.15
4964.412, 46599.23
4966.340, 46610.63
4968.269, 46621.05
4970.197, 46629.67
4972.125, 46621.92
4974.054, 46713.41
4975.982, 46631.32
4977.911, 46635.40
4979.839, 46498.41
4981.768, 46423.91
4983.696, 46329.44
4985.625, 46318.38
4987.553, 46352.33
4989.481, 46360.22
4991.410, 46396.66
4993.338, 46392.04
4995.267, 46247.02
4997.195, 46103.84
4999.124, 46035.10
5001.052, 46117.15
5002.981, 45858.40
5004.909, 45684.23
5006.838, 45855.16
5008.766, 45760.27
5010.695, 45636.10
5012.623, 45605.81
5014.552, 45517.80
5016.480, 45426.78
5018.409, 45396.35
5020.337, 45266.58
5022.266, 45190.04
5024.194, 45147.97
5026.123, 45130.52
5028.051, 45136.80
5029.979, 45134.23
5031.908, 45049.48
5033.836, 44978.05
5035.765, 44913.43
5037.693, 44831.31
5039.622, 44806.05
5041.550, 44727.95
5043.479, 44678.97
5045.407, 44477.42
5047.335, 44516.37
5049.264, 44422.04
5051.192, 44214.06
5053.121, 44143.72
5055.049, 44289.69
5056.978, 44036.80
5058.906, 43899.98
5060.835, 43930.36
5062.763, 43687.68
5064.692, 43671.79
5066.620, 43768.98
5068.549, 43399.89
5070.477, 43192.94
5072.406, 43128.20
5074.334, 43079.70
5076.263, 42996.39
5078.191, 42851.23
5080.120, 42595.54
5082.048, 42480.80
5083.977, 42388.04
5085.905, 42262.10
5087.833, 42302.75
5089.762, 42212.70
5091.690, 41959.91
5093.619, 41948.86
5095.547, 41748.51
5097.476, 41399.77
5099.404, 41235.02
5101.333, 41108.55
5103.261, 40957.99
5105.189, 40729.67
5107.118, 40483.40
5109.046, 40217.41
5110.975, 40021.31
5112.903, 39827.23
5114.832, 39626.50
5116.760, 39503.94
5118.689, 39337.34
5120.617, 39192.91
5122.546, 39045.93
5124.474, 38830.63
5126.403, 38657.82
5128.331, 38453.65
5130.260, 38238.28
5132.188, 38022.11
5134.117, 37778.76
5136.045, 37534.56
5137.974, 37292.79
5139.902, 37056.43
5141.831, 36821.65
5143.759, 36613.55
5145.688, 36447.37
5147.616, 36288.66
5149.544, 36162.04
5151.473, 35984.40
5153.401, 35787.23
5155.330, 35656.73
5157.258, 35352.82
5159.187, 35085.23
5161.115, 34998.84
5163.043, 34880.11
5164.972, 34706.58
5166.900, 34508.08
5168.829, 34494.59
5170.757, 34361.21
5172.686, 34137.47
5174.614, 34027.26
5176.543, 33765.22
5178.471, 33510.53
5180.400, 33436.28
5182.328, 33297.48
5184.257, 33119.03
5186.185, 32924.21
5188.114, 32711.42
5190.042, 32527.83
5191.971, 32391.51
5193.899, 32330.07
5195.828, 32227.79
5197.756, 32063.62
5199.685, 31819.81
5201.613, 31594.91
5203.542, 31457.75
5205.470, 31420.51
5207.398, 31252.25
5209.327, 31109.49
5211.255, 30974.71
5213.184, 30673.89
5215.112, 30507.90
5217.041, 30441.21
5218.969, 30439.12
5220.897, 30254.38
5222.826, 30078.57
5224.754, 29986.10
5226.683, 29900.79
5228.611, 29695.18
5230.540, 29463.72
5232.468, 29502.47
5234.397, 29294.29
5236.325, 29094.44
5238.254, 29150.93
5240.182, 28968.91
5242.111, 28839.70
5244.039, 28832.96
5245.968, 28759.42
5247.896, 28710.17
5249.825, 28644.63
5251.753, 28462.80
5253.682, 28279.53
5255.610, 28197.32
5257.539, 28240.56
5259.467, 28054.81
5261.396, 27958.18
5263.324, 27952.87
5265.252, 27833.91
5267.181, 27719.01
5269.109, 27608.26
5271.038, 27483.34
5272.966, 27520.66
5274.895, 27548.27
5276.823, 27493.24
5278.751, 27294.70
5280.680, 27269.69
5282.608, 27283.07
5284.537, 27048.33
5286.465, 27070.75
5288.394, 27091.93
5290.322, 26995.83
5292.251, 26946.85
5294.179, 26852.13
5296.108, 26740.53
5298.036, 26688.49
5299.965, 26720.53
5301.893, 26670.82
5303.822, 26448.81
5305.750, 26395.21
5307.679, 26456.55
5309.607, 26522.77
5311.536, 26405.39
5313.464, 26244.50
5315.393, 26134.81
5317.321, 26127.57
5319.250, 26100.11
5321.178, 26089.46
5323.106, 26087.46
5325.035, 26061.37
5326.963, 25893.08
5328.892, 25716.89
5330.820, 25642.84
5332.749, 25596.51
5334.677, 25660.46
5336.605, 25580.99
5338.534, 25586.86
5340.462, 25502.74
5342.391, 25459.34
5344.319, 25395.72
5346.248, 25341.49
5348.176, 25305.19
5350.105, 25297.44
5352.033, 25355.50
5353.962, 25344.02
5355.890, 25256.33
5357.819, 25097.33
5359.747, 25139.21
5361.676, 25087.39
5363.604, 24961.01
5365.533, 24958.85
5367.461, 24938.04
5369.390, 24919.63
5371.318, 24918.10
5373.247, 24869.51
5375.175, 24771.22
5377.104, 24701.53
5379.032, 24836.82
5380.960, 24765.30
5382.889, 24670.30
5384.817, 24633.71
5386.746, 24515.19
5388.674, 24462.67
5390.603, 24437.61
5392.531, 24363.09
5394.459, 24421.00
5396.388, 24430.61
5398.316, 24357.27
5400.245, 24346.16
5402.173, 24302.14
5404.102, 24219.71
5406.030, 24115.40
5407.959, 24096.41
5409.887, 24114.67
5411.816, 24135.84
5413.744, 24115.06
5415.673, 24155.64
5417.601, 24130.28
5419.530, 23991.48
5421.458, 23893.12
5423.387, 23915.26
5425.315, 23959.94
5427.244, 23905.27
5429.172, 23857.60
5431.101, 23737.70
5433.029, 23582.60
5434.958, 23577.44
5436.886, 23498.61
5438.814, 23605.73
5440.743, 23465.87
5442.671, 23479.61
5444.600, 23505.29
5446.528, 23489.52
5448.457, 23407.00
5450.385, 23475.56
5452.313, 23454.39
5454.242, 23320.01
5456.170, 23319.23
5458.099, 23230.51
5460.027, 23163.78
5461.956, 23193.80
5463.884, 23078.60
5465.813, 23088.37
5467.741, 23131.59
5469.670, 23028.99
5471.598, 23057.27
5473.527, 22980.15
5475.455, 22809.72
5477.384, 22818.91
5479.312, 22793.39
5481.241, 22763.42
5483.169, 22751.87
5485.098, 22719.22
5487.026, 22693.07
5488.955, 22648.35
5490.883, 22564.03
5492.812, 22538.76
5494.740, 22534.83
5496.668, 22496.03
5498.597, 22329.96
5500.525, 22326.65
5502.454, 22328.61
5504.382, 22282.47
5506.311, 22300.01
5508.239, 22203.45
5510.167, 22114.32
5512.096, 22102.52
5514.024, 21968.15
5515.953, 21953.75
5517.881, 21980.94
5519.810, 21935.14
5521.738, 21975.49
5523.667, 21889.03
5525.595, 21736.85
5527.524, 21719.40
5529.452, 21726.17
5531.381, 21720.69
5533.309, 21694.22
5535.238, 21660.04
5537.166, 21602.27
5539.095, 21498.40
5541.023, 21370.72
5542.952, 21336.26
5544.880, 21383.58
5546.809, 21396.93
5548.737, 21304.13
5550.666, 21221.62
5552.594, 21144.47
5554.522, 21120.96
5556.451, 21201.44
5558.379, 21254.38
5560.308, 21214.77
5562.236, 21202.11
5564.165, 20911.30
5566.093, 21032.23
5568.021, 20980.91
5569.950, 20809.00
5571.878, 20922.60
5573.807, 20767.15
5575.735, 20631.39
5577.664, 20599.19
5579.592, 20527.55
5581.521, 20525.54
5583.449, 20552.64
5585.378, 20559.78
5587.306, 20454.74
5589.235, 20533.50
5591.163, 20538.92
5593.092, 20354.16
5595.020, 20173.82
5596.949, 20202.98
5598.877, 20219.45
5600.806, 20083.56
5602.734, 20014.52
5604.663, 20054.66
5606.591, 20067.73
5608.520, 19964.36
5610.448, 20008.95
5612.376, 19935.97
5614.305, 19832.68
5616.233, 19808.79
5618.162, 19743.56
5620.090, 19666.77
5622.019, 19626.52
5623.947, 19649.94
5625.875, 19602.16
5627.804, 19529.29
5629.732, 19452.71
5631.661, 19380.30
5633.589, 19359.81
5635.518, 19292.66
5637.446, 19259.40
5639.375, 19241.29
5641.303, 19277.11
5643.232, 19195.94
5645.160, 19143.68
5647.089, 19084.53
5649.017, 19025.01
5650.946, 18939.76
5652.874, 18892.48
5654.803, 18843.51
5656.731, 18800.84
5658.660, 18774.11
5660.588, 18747.10
5662.517, 18731.40
5664.445, 18687.95
5666.374, 18664.53
5668.302, 18602.28
5670.230, 18572.45
5672.159, 18524.55
5674.087, 18477.68
5676.016, 18469.24
5677.944, 18393.59
5679.873, 18400.76
5681.801, 18375.36
5683.729, 18273.56
5685.658, 18242.31
5687.586, 18094.19
5689.515, 18106.14
5691.443, 18094.83
5693.372, 18044.69
5695.300, 17935.97
5697.229, 17909.49
5699.157, 17871.59
5701.086, 17774.30
5703.014, 17779.45
5704.943, 17757.60
5706.871, 17684.52
5708.800, 17666.13
5710.728, 17603.71
5712.657, 17564.18
5714.585, 17484.57
5716.514, 17408.98
5718.442, 17365.02
5720.371, 17311.16
5722.299, 17271.51
5724.228, 17250.35
5726.156, 17225.66
5728.084, 17229.12
5730.013, 17205.04
5731.941, 17140.43
5733.870, 17041.06
5735.798, 17021.84
5737.727, 16957.97
5739.655, 16903.71
5741.583, 16875.42
5743.512, 16823.99
5745.440, 16803.92
5747.369, 16744.28
5749.297, 16703.72
5751.226, 16656.77
5753.154, 16590.35
5755.083, 16554.83
5757.011, 16545.50
5758.940, 16385.17
5760.868, 16501.19
5762.797, 16511.72
5764.725, 16364.10
5766.654, 16352.24
5768.582, 16408.57
5770.511, 16358.33
5772.439, 16252.63
5774.368, 16229.52
5776.296, 16084.95
5778.225, 16046.42
5780.153, 16068.24
5782.082, 16056.89
5784.010, 15984.83
5785.938, 15926.71
5787.867, 15925.54
5789.795, 15938.65
5791.724, 15762.81
5793.652, 15704.29
5795.581, 15744.87
5797.509, 15783.78
5799.438, 15677.35
5801.366, 15612.30
5803.294, 15554.00
5805.223, 15529.44
5807.151, 15570.52
5809.080, 15571.73
5811.008, 15490.36
5812.937, 15411.07
5814.865, 15381.10
5816.794, 15355.56
5818.722, 15335.50
5820.651, 15259.79
5822.579, 15186.45
5824.508, 15237.38
5826.436, 15105.84
5828.365, 15089.38
5830.293, 15101.56
5832.222, 15013.13
5834.150, 14958.63
5836.079, 14991.58
5838.007, 14956.91
5839.936, 14839.83
5841.864, 14847.47
5843.792, 14824.54
5845.721, 14801.26
5847.649, 14751.86
5849.578, 14629.80
5851.506, 14553.70
5853.435, 14619.83
5855.363, 14660.55
5857.292, 14574.90
5859.220, 14593.92
5861.148, 14451.15
5863.077, 14496.95
5865.005, 14452.36
5866.934, 14362.58
5868.862, 14324.27
5870.791, 14313.27
5872.719, 14245.52
5874.648, 14219.45
5876.576, 14206.96
5878.505, 14148.18
5880.433, 14109.48
5882.362, 14092.10
5884.290, 13993.25
5886.219, 13925.66
5888.147, 13956.59
5890.076, 13957.58
5892.004, 13869.29
5893.933, 13835.70
5895.861, 13818.43
5897.790, 13762.54
5899.718, 13718.81
5901.646, 13773.80
5903.575, 13776.67
5905.503, 13716.32
5907.432, 13697.94
5909.360, 13595.86
5911.289, 13577.59
5913.217, 13525.65
5915.146, 13473.42
5917.074, 13411.56
5919.002, 13327.61
5920.931, 13298.21
5922.859, 13193.79
5924.788, 13167.92
5926.716, 13210.31
5928.645, 13153.24
5930.573, 13127.43
5932.502, 13126.79
5934.430, 13083.75
5936.359, 12983.20
5938.287, 12946.32
5940.216, 12934.82
5942.144, 12910.54
5944.073, 12908.90
5946.001, 12870.81
5947.930, 12859.67
5949.858, 12802.80
5951.787, 12777.09
5953.715, 12751.24
5955.644, 12708.78
5957.572, 12662.86
5959.500, 12653.87
5961.429, 12642.79
5963.357, 12596.15
5965.286, 12503.59
5967.214, 12441.85
5969.143, 12446.73
5971.071, 12449.76
5973.000, 12391.45
5974.928, 12348.73
5976.856, 12378.17
5978.785, 12321.10
5980.713, 12213.86
5982.642, 12194.41
5984.570, 12133.70
5986.499, 12090.14
5988.427, 12075.08
5990.356, 12024.13
5992.284, 12034.80
5994.213, 12003.75
5996.141, 11967.57
5998.070, 11906.52
5999.998, 11823.46
6001.927, 11761.20
6003.855, 11758.03
6005.784, 11683.81
6007.712, 11751.52
6009.641, 11617.43
6011.569, 11658.45
6013.498, 11691.49
6015.426, 11603.90
6017.354, 11510.77
6019.283, 11507.44
6021.211, 11469.09
6023.140, 11463.90
6025.068, 11415.87
6026.997, 11357.34
6028.925, 11338.57
6030.854, 11321.99
6032.782, 11295.10
6034.710, 11262.68
6036.639, 11223.68
6038.567, 11177.09
6040.496, 11136.71
6042.424, 11086.77
6044.353, 11041.16
6046.281, 11015.96
6048.210, 11011.27
6050.138, 10980.85
6052.067, 10923.68
6053.995, 10877.40
6055.924, 10847.01
6057.852, 10831.26
6059.781, 10803.17
6061.709, 10810.14
6063.638, 10768.68
6065.566, 10769.80
6067.495, 10753.35
6069.423, 10656.71
6071.352, 10633.22
6073.280, 10570.42
6075.208, 10526.16
6077.137, 10556.10
6079.065, 10499.19
6080.994, 10485.43
6082.922, 10451.27
6084.851, 10418.38
6086.779, 10392.01
6088.708, 10356.04
6090.636, 10293.85
6092.564, 10278.76
6094.493, 10204.60
6096.421, 10140.56
6098.350, 10130.98
6100.278, 10105.21
6102.207, 10131.21
6104.135, 10106.61
6106.064, 10039.56
6107.992, 10091.21
6109.921, 10071.13
6111.849, 10029.05
6113.778, 9945.659
6115.706, 9852.307
6117.635, 9814.401
6119.563, 9799.338
6121.492, 9760.064
6123.420, 9787.455
6125.349, 9796.950
6127.277, 9685.485
6129.206, 9671.410
6131.134, 9545.192
6133.063, 9511.818
6134.991, 9557.679
6136.919, 9591.224
6138.848, 9575.471
6140.776, 9482.404
6142.705, 9427.891
6144.633, 9417.826
6146.562, 9406.570
6148.490, 9343.824
6150.418, 9323.326
6152.347, 9333.446
6154.275, 9281.174
6156.204, 9201.979
6158.132, 9180.351
6160.061, 9166.764
6161.989, 9104.072
6163.918, 9152.673
6165.846, 9098.068
6167.775, 9148.175
6169.703, 9046.678
6171.632, 9052.426
6173.560, 9042.782
6175.489, 8992.074
6177.417, 8932.062
6179.346, 8901.440
6181.274, 8867.673
6183.203, 8816.352
6185.131, 8771.262
6187.060, 8751.810
6188.988, 8751.288
6190.917, 8724.998
6192.845, 8710.112
6194.773, 8685.247
6196.702, 8642.655
6198.630, 8621.094
6200.559, 8606.083
6202.487, 8562.239
6204.416, 8576.677
6206.344, 8571.671
6208.272, 8511.436
6210.201, 8404.729
6212.129, 8433.215
6214.058, 8407.523
6215.986, 8414.487
6217.915, 8360.650
6219.843, 8298.775
6221.772, 8331.711
6223.700, 8279.206
6225.629, 8230.979
6227.557, 8208.829
6229.486, 8168.729
6231.414, 8119.903
6233.343, 8085.650
6235.271, 8044.972
6237.200, 8007.516
6239.128, 7965.552
6241.057, 7942.199
6242.985, 7892.725
6244.914, 7896.895
6246.842, 7922.961
6248.771, 7897.292
6250.699, 7894.438
6252.627, 7876.922
6254.556, 7838.596
6256.484, 7827.202
6258.413, 7765.274
6260.341, 7678.052
6262.270, 7665.146
6264.198, 7685.520
6266.126, 7625.146
6268.055, 7654.246
6269.983, 7655.127
6271.912, 7619.206
6273.840, 7589.073
6275.769, 7553.586
6277.697, 7538.065
6279.626, 7506.895
6281.554, 7505.928
6283.483, 7470.797
6285.411, 7442.861
6287.340, 7454.412
6289.268, 7434.792
6291.197, 7442.558
6293.125, 7317.476
6295.054, 7321.920
6296.982, 7285.556
6298.911, 7184.739
6300.839, 7264.365
6302.768, 7175.898
6304.696, 7182.254
6306.625, 7158.985
6308.553, 7111.093
6310.481, 7084.764
6312.410, 7085.250
6314.338, 7090.571
6316.267, 7043.889
6318.195, 6996.121
6320.124, 6993.802
6322.052, 7004.305
6323.980, 6952.697
6325.909, 6943.551
6327.837, 6958.848
6329.766, 6915.824
6331.694, 6878.008
6333.623, 6848.815
6335.551, 6774.351
6337.480, 6783.613
6339.408, 6838.634
6341.337, 6831.854
6343.265, 6758.573
6345.194, 6695.217
6347.122, 6695.618
6349.051, 6684.172
6350.979, 6656.566
6352.908, 6600.860
6354.836, 6558.771
6356.765, 6558.330
6358.693, 6572.997
6360.622, 6529.522
6362.550, 6540.639
6364.479, 6495.305
6366.407, 6515.148
6368.335, 6509.253
6370.264, 6466.797
6372.192, 6385.525
6374.121, 6364.295
6376.049, 6375.318
6377.978, 6347.333
6379.906, 6350.285
6381.834, 6344.436
6383.763, 6270.056
6385.691, 6275.952
6387.620, 6229.013
6389.548, 6206.131
6391.477, 6197.525
6393.405, 6183.559
6395.334, 6151.694
6397.262, 6100.007
6399.191, 6089.618
6401.119, 6061.495
6403.048, 6057.454
6404.976, 6028.727
6406.905, 6032.916
6408.833, 6018.622
6410.762, 6001.528
6412.690, 5995.205
6414.619, 5963.799
6416.547, 5964.929
6418.476, 5933.721
6420.404, 5905.748
6422.333, 5928.508
6424.261, 5860.422
6426.189, 5871.580
6428.118, 5829.578
6430.046, 5845.607
6431.975, 5787.853
6433.903, 5745.009
6435.832, 5781.358
6437.760, 5700.657
6439.688, 5705.874
6441.617, 5684.911
6443.545, 5642.607
6445.474, 5613.116
6447.402, 5605.708
6449.331, 5608.609
6451.259, 5648.881
6453.188, 5642.215
6455.116, 5537.820
6457.045, 5464.938
6458.973, 5481.786
6460.902, 5521.897
6462.830, 5471.268
6464.759, 5410.343
6466.687, 5421.802
6468.616, 5420.904
6470.544, 5417.247
6472.473, 5396.167
6474.401, 5344.271
6476.330, 5335.144
6478.258, 5322.544
6480.187, 5327.183
6482.115, 5327.382
6484.043, 5329.393
6485.972, 5310.559
6487.900, 5293.078
6489.829, 5273.889
6491.757, 5228.879
6493.686, 5179.147
6495.614, 5123.527
6497.542, 5123.291
6499.471, 5145.674
6501.399, 5136.604
6503.328, 5100.986
6505.256, 5053.153
6507.185, 5010.388
6509.113, 5104.805
6511.042, 5062.767
6512.970, 5021.594
6514.899, 5050.523
6516.827, 4987.416
6518.756, 4972.980
6520.684, 5009.607
6522.613, 4987.162
6524.541, 4931.253
6526.470, 4909.478
6528.398, 4880.139
6530.327, 4813.339
6532.255, 4828.626
6534.184, 4812.391
6536.112, 4818.145
6538.041, 4775.552
6539.969, 4715.745
6541.897, 4734.823
6543.826, 4701.553
6545.754, 4727.243
6547.683, 4694.426
6549.611, 4706.233
6551.540, 4716.602
6553.468, 4666.229
6555.396, 4685.613
6557.325, 4668.267
6559.253, 4553.262
6561.182, 4577.054
6563.110, 4548.156
6565.039, 4602.363
6566.967, 4574.708
6568.896, 4559.447
6570.824, 4547.558
6572.753, 4531.955
6574.681, 4532.515
6576.610, 4512.950
6578.538, 4502.558
6580.467, 4492.697
6582.395, 4445.173
6584.324, 4399.519
6586.252, 4387.279
6588.181, 4383.710
6590.109, 4352.791
6592.038, 4348.081
6593.966, 4338.270
6595.895, 4320.564
6597.823, 4302.993
6599.751, 4281.604
6601.680, 4269.544
6603.608, 4273.742
6605.537, 4273.472
6607.465, 4238.183
6609.394, 4241.247
6611.322, 4193.012
6613.250, 4153.044
6615.179, 4187.854
6617.107, 4198.388
6619.036, 4147.797
6620.964, 4095.537
6622.893, 4092.785
6624.821, 4098.295
6626.750, 4127.357
##END=



