##NAMES=Stilpnomelane
##RRUFFID=R060334
##IDEAL CHEMISTRY=(K,Ca,Na)(Fe,Mg,Al)_8_(Si,Al)_12_(O,OH)_36_·nH_2_O
##LOCALITY=Blanchard Mountain, Skagit County, Washington, USA
##OWNER=RRUFF
##SOURCE=Michael Scott
##DESCRIPTION=Black platy radiating groups associated with quartz, 180 deg twin around [0 1 2]
##STATUS=The identification of this mineral has been confirmed by single-crystal X-ray diffraction
##URL=https://www.rruff.net/odr/rruff_sample/R060334
##DIFFRACTION SAMPLE DESCRIPTION=Single crystal, powder profile is calculated
##CELL PARAMETERS=a: 21.899 b: 21.886 c: 17.609 alpha: 124.67 beta: 96.07 gamma: 119.96 volume: 5034 crystal system: triclinic
##FILETYPE=Raman RAW
##RAMAN WAVELENGTH=780

7.931860e+001, 0.000000e+000
8.124707e+001, 8.556465e+002
8.317554e+001, 7.932077e+002
8.510400e+001, 8.125916e+002
8.703247e+001, 9.223167e+002
8.896094e+001, 1.038846e+003
9.088940e+001, 1.160332e+003
9.281787e+001, 1.290396e+003
9.474634e+001, 1.399811e+003
9.667480e+001, 1.404621e+003
9.860327e+001, 1.406742e+003
1.005317e+002, 1.417842e+003
1.024602e+002, 1.430371e+003
1.043887e+002, 1.445568e+003
1.063171e+002, 1.461159e+003
1.082456e+002, 1.478323e+003
1.101741e+002, 1.493050e+003
1.121025e+002, 1.500102e+003
1.140310e+002, 1.498173e+003
1.159595e+002, 1.496139e+003
1.178879e+002, 1.491489e+003
1.198164e+002, 1.488540e+003
1.217449e+002, 1.488177e+003
1.236733e+002, 1.489082e+003
1.256018e+002, 1.489960e+003
1.275303e+002, 1.490511e+003
1.294587e+002, 1.493397e+003
1.313872e+002, 1.500609e+003
1.333157e+002, 1.503318e+003
1.352441e+002, 1.496291e+003
1.371726e+002, 1.485241e+003
1.391011e+002, 1.474430e+003
1.410295e+002, 1.463373e+003
1.429580e+002, 1.449032e+003
1.448865e+002, 1.431316e+003
1.468149e+002, 1.410972e+003
1.487434e+002, 1.385258e+003
1.506719e+002, 1.359722e+003
1.526003e+002, 1.337778e+003
1.545288e+002, 1.319010e+003
1.564573e+002, 1.301022e+003
1.583857e+002, 1.283531e+003
1.603142e+002, 1.268201e+003
1.622427e+002, 1.255397e+003
1.641711e+002, 1.245077e+003
1.660996e+002, 1.237699e+003
1.680281e+002, 1.232957e+003
1.699565e+002, 1.230233e+003
1.718850e+002, 1.229623e+003
1.738135e+002, 1.228910e+003
1.757419e+002, 1.228073e+003
1.776704e+002, 1.226469e+003
1.795989e+002, 1.223151e+003
1.815273e+002, 1.219278e+003
1.834558e+002, 1.217145e+003
1.853843e+002, 1.216461e+003
1.873127e+002, 1.213769e+003
1.892412e+002, 1.206863e+003
1.911697e+002, 1.200581e+003
1.930981e+002, 1.196012e+003
1.950266e+002, 1.192478e+003
1.969551e+002, 1.190280e+003
1.988835e+002, 1.188661e+003
2.008120e+002, 1.184781e+003
2.027405e+002, 1.176994e+003
2.046689e+002, 1.170291e+003
2.065974e+002, 1.165630e+003
2.085259e+002, 1.161892e+003
2.104543e+002, 1.158571e+003
2.123828e+002, 1.155682e+003
2.143113e+002, 1.153359e+003
2.162397e+002, 1.151772e+003
2.181682e+002, 1.149841e+003
2.200967e+002, 1.146706e+003
2.220251e+002, 1.144189e+003
2.239536e+002, 1.143103e+003
2.258821e+002, 1.142799e+003
2.278105e+002, 1.142580e+003
2.297390e+002, 1.142477e+003
2.316675e+002, 1.142836e+003
2.335959e+002, 1.145157e+003
2.355244e+002, 1.145706e+003
2.374529e+002, 1.142357e+003
2.393813e+002, 1.138965e+003
2.413098e+002, 1.138117e+003
2.432383e+002, 1.138816e+003
2.451667e+002, 1.139167e+003
2.470952e+002, 1.139556e+003
2.490237e+002, 1.138241e+003
2.509521e+002, 1.133122e+003
2.528806e+002, 1.129680e+003
2.548091e+002, 1.132236e+003
2.567375e+002, 1.135213e+003
2.586660e+002, 1.132816e+003
2.605945e+002, 1.125607e+003
2.625229e+002, 1.121349e+003
2.644514e+002, 1.120209e+003
2.663799e+002, 1.121505e+003
2.683083e+002, 1.126345e+003
2.702368e+002, 1.131984e+003
2.721653e+002, 1.137226e+003
2.740938e+002, 1.142263e+003
2.760222e+002, 1.147387e+003
2.779507e+002, 1.152684e+003
2.798792e+002, 1.157688e+003
2.818076e+002, 1.162034e+003
2.837361e+002, 1.167344e+003
2.856646e+002, 1.175735e+003
2.875930e+002, 1.183216e+003
2.895215e+002, 1.186494e+003
2.914500e+002, 1.187226e+003
2.933784e+002, 1.190237e+003
2.953069e+002, 1.196042e+003
2.972354e+002, 1.197414e+003
2.991638e+002, 1.192428e+003
3.010923e+002, 1.186789e+003
3.030208e+002, 1.183188e+003
3.049492e+002, 1.179268e+003
3.068777e+002, 1.173895e+003
3.088062e+002, 1.166907e+003
3.107346e+002, 1.156730e+003
3.126631e+002, 1.143222e+003
3.145916e+002, 1.131902e+003
3.165200e+002, 1.123827e+003
3.184485e+002, 1.117384e+003
3.203770e+002, 1.112436e+003
3.223054e+002, 1.108256e+003
3.242339e+002, 1.104332e+003
3.261624e+002, 1.100731e+003
3.280908e+002, 1.097390e+003
3.300193e+002, 1.094284e+003
3.319477e+002, 1.092966e+003
3.338762e+002, 1.095711e+003
3.358047e+002, 1.096663e+003
3.377331e+002, 1.092070e+003
3.396616e+002, 1.087027e+003
3.415901e+002, 1.085797e+003
3.435185e+002, 1.087492e+003
3.454470e+002, 1.089394e+003
3.473755e+002, 1.091465e+003
3.493039e+002, 1.094398e+003
3.512324e+002, 1.098859e+003
3.531609e+002, 1.103247e+003
3.550893e+002, 1.107428e+003
3.570178e+002, 1.111207e+003
3.589463e+002, 1.114565e+003
3.608747e+002, 1.117393e+003
3.628032e+002, 1.119156e+003
3.647317e+002, 1.119878e+003
3.666601e+002, 1.121869e+003
3.685886e+002, 1.126513e+003
3.705171e+002, 1.130536e+003
3.724455e+002, 1.133133e+003
3.743740e+002, 1.135248e+003
3.763025e+002, 1.137686e+003
3.782309e+002, 1.139714e+003
3.801594e+002, 1.140469e+003
3.820879e+002, 1.139962e+003
3.840163e+002, 1.138526e+003
3.859448e+002, 1.135845e+003
3.878733e+002, 1.132899e+003
3.898017e+002, 1.128906e+003
3.917302e+002, 1.125837e+003
3.936587e+002, 1.125559e+003
3.955871e+002, 1.125776e+003
3.975156e+002, 1.124592e+003
3.994441e+002, 1.122051e+003
4.013725e+002, 1.118250e+003
4.033010e+002, 1.112629e+003
4.052295e+002, 1.107148e+003
4.071579e+002, 1.100382e+003
4.090864e+002, 1.095858e+003
4.110149e+002, 1.096970e+003
4.129433e+002, 1.097703e+003
4.148718e+002, 1.093756e+003
4.168003e+002, 1.087032e+003
4.187287e+002, 1.080075e+003
4.206572e+002, 1.072805e+003
4.225857e+002, 1.067298e+003
4.245141e+002, 1.064532e+003
4.264426e+002, 1.061024e+003
4.283711e+002, 1.055796e+003
4.302995e+002, 1.050968e+003
4.322280e+002, 1.048587e+003
4.341565e+002, 1.046052e+003
4.360849e+002, 1.040321e+003
4.380134e+002, 1.032862e+003
4.399419e+002, 1.028400e+003
4.418703e+002, 1.027530e+003
4.437988e+002, 1.026316e+003
4.457273e+002, 1.025010e+003
4.476557e+002, 1.022451e+003
4.495842e+002, 1.017748e+003
4.515127e+002, 1.012579e+003
4.534411e+002, 1.007881e+003
4.553696e+002, 1.003022e+003
4.572981e+002, 9.964792e+002
4.592265e+002, 9.891292e+002
4.611550e+002, 9.853777e+002
4.630835e+002, 9.853834e+002
4.650119e+002, 9.837121e+002
4.669404e+002, 9.795531e+002
4.688689e+002, 9.752260e+002
4.707973e+002, 9.706778e+002
4.727258e+002, 9.672901e+002
4.746543e+002, 9.659033e+002
4.765827e+002, 9.657990e+002
4.785112e+002, 9.660026e+002
4.804397e+002, 9.668954e+002
4.823681e+002, 9.702471e+002
4.842966e+002, 9.758981e+002
4.862251e+002, 9.801591e+002
4.881535e+002, 9.819156e+002
4.900820e+002, 9.848911e+002
4.920105e+002, 9.907419e+002
4.939389e+002, 9.971371e+002
4.958674e+002, 1.002851e+003
4.977959e+002, 1.009087e+003
4.997243e+002, 1.017651e+003
5.016528e+002, 1.027387e+003
5.035813e+002, 1.035406e+003
5.055097e+002, 1.042085e+003
5.074382e+002, 1.050246e+003
5.093667e+002, 1.060895e+003
5.112951e+002, 1.069799e+003
5.132236e+002, 1.074808e+003
5.151521e+002, 1.079845e+003
5.170806e+002, 1.086327e+003
5.190090e+002, 1.092423e+003
5.209375e+002, 1.097024e+003
5.228660e+002, 1.100310e+003
5.247944e+002, 1.102303e+003
5.267229e+002, 1.103318e+003
5.286514e+002, 1.103996e+003
5.305798e+002, 1.104180e+003
5.325083e+002, 1.106347e+003
5.344368e+002, 1.112782e+003
5.363652e+002, 1.117944e+003
5.382937e+002, 1.118764e+003
5.402222e+002, 1.121659e+003
5.421506e+002, 1.130389e+003
5.440791e+002, 1.141105e+003
5.460076e+002, 1.151714e+003
5.479360e+002, 1.161395e+003
5.498645e+002, 1.167171e+003
5.517930e+002, 1.169786e+003
5.537214e+002, 1.179123e+003
5.556499e+002, 1.199992e+003
5.575784e+002, 1.214302e+003
5.595068e+002, 1.216763e+003
5.614353e+002, 1.221663e+003
5.633638e+002, 1.231392e+003
5.652922e+002, 1.243403e+003
5.672207e+002, 1.257293e+003
5.691492e+002, 1.272239e+003
5.710776e+002, 1.288695e+003
5.730061e+002, 1.305044e+003
5.749345e+002, 1.317914e+003
5.768630e+002, 1.327589e+003
5.787914e+002, 1.338312e+003
5.807199e+002, 1.350368e+003
5.826484e+002, 1.363011e+003
5.845768e+002, 1.377971e+003
5.865053e+002, 1.388589e+003
5.884338e+002, 1.391140e+003
5.903622e+002, 1.393886e+003
5.922907e+002, 1.402553e+003
5.942192e+002, 1.410247e+003
5.961476e+002, 1.412437e+003
5.980761e+002, 1.411042e+003
6.000046e+002, 1.408217e+003
6.019330e+002, 1.404041e+003
6.038615e+002, 1.399032e+003
6.057900e+002, 1.393206e+003
6.077184e+002, 1.385249e+003
6.096469e+002, 1.375197e+003
6.115754e+002, 1.362786e+003
6.135038e+002, 1.347662e+003
6.154323e+002, 1.330976e+003
6.173608e+002, 1.312912e+003
6.192892e+002, 1.293484e+003
6.212177e+002, 1.272414e+003
6.231462e+002, 1.250320e+003
6.250746e+002, 1.228068e+003
6.270031e+002, 1.204964e+003
6.289316e+002, 1.178676e+003
6.308600e+002, 1.150463e+003
6.327885e+002, 1.126266e+003
6.347170e+002, 1.105724e+003
6.366454e+002, 1.083763e+003
6.385739e+002, 1.059719e+003
6.405024e+002, 1.036988e+003
6.424308e+002, 1.015787e+003
6.443593e+002, 9.970685e+002
6.462878e+002, 9.841247e+002
6.482162e+002, 9.694509e+002
6.501447e+002, 9.468134e+002
6.520732e+002, 9.251177e+002
6.540016e+002, 9.129360e+002
6.559301e+002, 9.043075e+002
6.578586e+002, 8.913838e+002
6.597870e+002, 8.756857e+002
6.617155e+002, 8.602589e+002
6.636440e+002, 8.453265e+002
6.655724e+002, 8.320870e+002
6.675009e+002, 8.205956e+002
6.694294e+002, 8.110563e+002
6.713578e+002, 8.047905e+002
6.732863e+002, 7.972403e+002
6.752148e+002, 7.868680e+002
6.771432e+002, 7.766796e+002
6.790717e+002, 7.669070e+002
6.810002e+002, 7.580468e+002
6.829286e+002, 7.516172e+002
6.848571e+002, 7.448431e+002
6.867856e+002, 7.346000e+002
6.887141e+002, 7.233272e+002
6.906425e+002, 7.127087e+002
6.925710e+002, 7.038826e+002
6.944995e+002, 7.009735e+002
6.964279e+002, 7.033293e+002
6.983564e+002, 7.018536e+002
7.002849e+002, 6.959007e+002
7.022133e+002, 6.883317e+002
7.041418e+002, 6.766222e+002
7.060703e+002, 6.680043e+002
7.079987e+002, 6.630854e+002
7.099272e+002, 6.602673e+002
7.118557e+002, 6.607828e+002
7.137841e+002, 6.608205e+002
7.157126e+002, 6.582994e+002
7.176411e+002, 6.555605e+002
7.195695e+002, 6.550341e+002
7.214980e+002, 6.540134e+002
7.234265e+002, 6.491689e+002
7.253549e+002, 6.430353e+002
7.272834e+002, 6.389879e+002
7.292119e+002, 6.370289e+002
7.311403e+002, 6.385413e+002
7.330688e+002, 6.431285e+002
7.349973e+002, 6.410889e+002
7.369257e+002, 6.305465e+002
7.388542e+002, 6.262420e+002
7.407827e+002, 6.296838e+002
7.427111e+002, 6.315273e+002
7.446396e+002, 6.304965e+002
7.465681e+002, 6.283742e+002
7.484965e+002, 6.245603e+002
7.504250e+002, 6.222730e+002
7.523535e+002, 6.242824e+002
7.542819e+002, 6.256267e+002
7.562104e+002, 6.232070e+002
7.581389e+002, 6.204037e+002
7.600673e+002, 6.192914e+002
7.619958e+002, 6.190627e+002
7.639243e+002, 6.195544e+002
7.658527e+002, 6.199176e+002
7.677812e+002, 6.182726e+002
7.697097e+002, 6.154170e+002
7.716381e+002, 6.133986e+002
7.735666e+002, 6.122565e+002
7.754951e+002, 6.124897e+002
7.774235e+002, 6.139758e+002
7.793520e+002, 6.154807e+002
7.812805e+002, 6.169236e+002
7.832089e+002, 6.185795e+002
7.851374e+002, 6.206778e+002
7.870659e+002, 6.220228e+002
7.889943e+002, 6.222256e+002
7.909228e+002, 6.222037e+002
7.928513e+002, 6.226807e+002
7.947797e+002, 6.221614e+002
7.967082e+002, 6.181963e+002
7.986367e+002, 6.161778e+002
8.005651e+002, 6.205525e+002
8.024936e+002, 6.247524e+002
8.044221e+002, 6.235886e+002
8.063505e+002, 6.216470e+002
8.082790e+002, 6.236752e+002
8.102075e+002, 6.265713e+002
8.121359e+002, 6.265273e+002
8.140644e+002, 6.248812e+002
8.159929e+002, 6.231893e+002
8.179213e+002, 6.218248e+002
8.198498e+002, 6.219337e+002
8.217783e+002, 6.231169e+002
8.237067e+002, 6.232449e+002
8.256352e+002, 6.224303e+002
8.275637e+002, 6.246520e+002
8.294921e+002, 6.308284e+002
8.314206e+002, 6.328993e+002
8.333491e+002, 6.283994e+002
8.352775e+002, 6.266295e+002
8.372060e+002, 6.298966e+002
8.391345e+002, 6.322494e+002
8.410629e+002, 6.335030e+002
8.429914e+002, 6.341755e+002
8.449199e+002, 6.343394e+002
8.468483e+002, 6.338666e+002
8.487768e+002, 6.314437e+002
8.507053e+002, 6.306838e+002
8.526337e+002, 6.341595e+002
8.545622e+002, 6.374096e+002
8.564907e+002, 6.385041e+002
8.584191e+002, 6.381828e+002
8.603476e+002, 6.354277e+002
8.622761e+002, 6.332408e+002
8.642045e+002, 6.346996e+002
8.661330e+002, 6.367497e+002
8.680615e+002, 6.365802e+002
8.699899e+002, 6.354568e+002
8.719184e+002, 6.355511e+002
8.738469e+002, 6.353716e+002
8.757753e+002, 6.306190e+002
8.777038e+002, 6.244567e+002
8.796323e+002, 6.258480e+002
8.815607e+002, 6.320186e+002
8.834892e+002, 6.326979e+002
8.854177e+002, 6.289169e+002
8.873461e+002, 6.268427e+002
8.892746e+002, 6.263894e+002
8.912031e+002, 6.265740e+002
8.931315e+002, 6.273572e+002
8.950600e+002, 6.281913e+002
8.969885e+002, 6.290571e+002
8.989169e+002, 6.300390e+002
9.008454e+002, 6.311366e+002
9.027739e+002, 6.327296e+002
9.047023e+002, 6.351630e+002
9.066308e+002, 6.341636e+002
9.085593e+002, 6.285427e+002
9.104877e+002, 6.234449e+002
9.124162e+002, 6.196621e+002
9.143447e+002, 6.170285e+002
9.162731e+002, 6.158527e+002
9.182016e+002, 6.150916e+002
9.201301e+002, 6.153551e+002
9.220585e+002, 6.142492e+002
9.239870e+002, 6.091443e+002
9.259155e+002, 6.058911e+002
9.278439e+002, 6.073183e+002
9.297724e+002, 6.083047e+002
9.317009e+002, 6.080102e+002
9.336293e+002, 6.057702e+002
9.355578e+002, 5.992026e+002
9.374863e+002, 5.937063e+002
9.394147e+002, 5.926106e+002
9.413432e+002, 5.922498e+002
9.432717e+002, 5.906085e+002
9.452001e+002, 5.891739e+002
9.471286e+002, 5.896013e+002
9.490571e+002, 5.897676e+002
9.509855e+002, 5.875906e+002
9.529140e+002, 5.851953e+002
9.548425e+002, 5.846615e+002
9.567709e+002, 5.842328e+002
9.586994e+002, 5.820230e+002
9.606279e+002, 5.794074e+002
9.625563e+002, 5.781968e+002
9.644848e+002, 5.767712e+002
9.664133e+002, 5.725377e+002
9.683417e+002, 5.679443e+002
9.702702e+002, 5.664792e+002
9.721987e+002, 5.656518e+002
9.741271e+002, 5.620109e+002
9.760556e+002, 5.572285e+002
9.779841e+002, 5.526400e+002
9.799125e+002, 5.494128e+002
9.818410e+002, 5.509521e+002
9.837695e+002, 5.542062e+002
9.856979e+002, 5.525447e+002
9.876264e+002, 5.489501e+002
9.895549e+002, 5.505427e+002
9.914833e+002, 5.544842e+002
9.934118e+002, 5.550937e+002
9.953403e+002, 5.523923e+002
9.972687e+002, 5.446915e+002
9.991972e+002, 5.344790e+002
1.001126e+003, 5.286129e+002
1.003054e+003, 5.260856e+002
1.004983e+003, 5.242778e+002
1.006911e+003, 5.230424e+002
1.008840e+003, 5.222048e+002
1.010768e+003, 5.214124e+002
1.012696e+003, 5.189445e+002
1.014625e+003, 5.155135e+002
1.016553e+003, 5.136796e+002
1.018482e+003, 5.132101e+002
1.020410e+003, 5.139401e+002
1.022339e+003, 5.151776e+002
1.024267e+003, 5.134680e+002
1.026196e+003, 5.100763e+002
1.028124e+003, 5.105177e+002
1.030053e+003, 5.136021e+002
1.031981e+003, 5.149255e+002
1.033910e+003, 5.147119e+002
1.035838e+003, 5.132853e+002
1.037767e+003, 5.110731e+002
1.039695e+003, 5.094178e+002
1.041624e+003, 5.083771e+002
1.043552e+003, 5.084231e+002
1.045480e+003, 5.092276e+002
1.047409e+003, 5.100120e+002
1.049337e+003, 5.106139e+002
1.051266e+003, 5.103554e+002
1.053194e+003, 5.096039e+002
1.055123e+003, 5.093033e+002
1.057051e+003, 5.094396e+002
1.058980e+003, 5.104040e+002
1.060908e+003, 5.115183e+002
1.062837e+003, 5.105471e+002
1.064765e+003, 5.085199e+002
1.066694e+003, 5.080158e+002
1.068622e+003, 5.084433e+002
1.070550e+003, 5.084012e+002
1.072479e+003, 5.081845e+002
1.074407e+003, 5.087953e+002
1.076336e+003, 5.095314e+002
1.078264e+003, 5.089042e+002
1.080193e+003, 5.073983e+002
1.082121e+003, 5.049423e+002
1.084050e+003, 5.030081e+002
1.085978e+003, 5.055905e+002
1.087907e+003, 5.093071e+002
1.089835e+003, 5.074155e+002
1.091764e+003, 5.041743e+002
1.093692e+003, 5.069875e+002
1.095620e+003, 5.114062e+002
1.097549e+003, 5.105768e+002
1.099477e+003, 5.086678e+002
1.101406e+003, 5.113830e+002
1.103334e+003, 5.150917e+002
1.105263e+003, 5.157119e+002
1.107191e+003, 5.154198e+002
1.109120e+003, 5.162625e+002
1.111048e+003, 5.172645e+002
1.112977e+003, 5.163450e+002
1.114905e+003, 5.167620e+002
1.116834e+003, 5.235224e+002
1.118762e+003, 5.292995e+002
1.120691e+003, 5.273079e+002
1.122619e+003, 5.253129e+002
1.124547e+003, 5.292542e+002
1.126476e+003, 5.325387e+002
1.128404e+003, 5.298742e+002
1.130333e+003, 5.286210e+002
1.132261e+003, 5.338898e+002
1.134190e+003, 5.382107e+002
1.136118e+003, 5.374269e+002
1.138047e+003, 5.373947e+002
1.139975e+003, 5.406967e+002
1.141904e+003, 5.441788e+002
1.143832e+003, 5.474672e+002
1.145761e+003, 5.490472e+002
1.147689e+003, 5.480130e+002
1.149618e+003, 5.466124e+002
1.151546e+003, 5.446263e+002
1.153474e+003, 5.457892e+002
1.155403e+003, 5.518697e+002
1.157331e+003, 5.550961e+002
1.159260e+003, 5.538802e+002
1.161188e+003, 5.529461e+002
1.163117e+003, 5.528915e+002
1.165045e+003, 5.531310e+002
1.166974e+003, 5.535864e+002
1.168902e+003, 5.560139e+002
1.170831e+003, 5.602629e+002
1.172759e+003, 5.614762e+002
1.174688e+003, 5.597946e+002
1.176616e+003, 5.599139e+002
1.178545e+003, 5.607817e+002
1.180473e+003, 5.541446e+002
1.182401e+003, 5.433012e+002
1.184330e+003, 5.406764e+002
1.186258e+003, 5.434543e+002
1.188187e+003, 5.457336e+002
1.190115e+003, 5.462739e+002
1.192044e+003, 5.411883e+002
1.193972e+003, 5.343717e+002
1.195901e+003, 5.313871e+002
1.197829e+003, 5.297932e+002
1.199758e+003, 5.270626e+002
1.201686e+003, 5.240229e+002
1.203615e+003, 5.211451e+002
1.205543e+003, 5.186913e+002
1.207472e+003, 5.180828e+002
1.209400e+003, 5.161542e+002
1.211328e+003, 5.083568e+002
1.213257e+003, 5.035816e+002
1.215185e+003, 5.085016e+002
1.217114e+003, 5.116837e+002
1.219042e+003, 5.083442e+002
1.220971e+003, 5.051007e+002
1.222899e+003, 5.035493e+002
1.224828e+003, 5.019971e+002
1.226756e+003, 4.999560e+002
1.228685e+003, 4.988443e+002
1.230613e+003, 4.996008e+002
1.232542e+003, 4.972830e+002
1.234470e+003, 4.911150e+002
1.236399e+003, 4.858338e+002
1.238327e+003, 4.814742e+002
1.240255e+003, 4.828937e+002
1.242184e+003, 4.887234e+002
1.244112e+003, 4.897777e+002
1.246041e+003, 4.872029e+002
1.247969e+003, 4.843492e+002
1.249898e+003, 4.810396e+002
1.251826e+003, 4.762112e+002
1.253755e+003, 4.713643e+002
1.255683e+003, 4.683271e+002
1.257612e+003, 4.666525e+002
1.259540e+003, 4.665668e+002
1.261469e+003, 4.666829e+002
1.263397e+003, 4.673055e+002
1.265326e+003, 4.657985e+002
1.267254e+003, 4.578390e+002
1.269182e+003, 4.536050e+002
1.271111e+003, 4.588551e+002
1.273039e+003, 4.600942e+002
1.274968e+003, 4.527738e+002
1.276896e+003, 4.494254e+002
1.278825e+003, 4.526208e+002
1.280753e+003, 4.519066e+002
1.282682e+003, 4.463456e+002
1.284610e+003, 4.461656e+002
1.286539e+003, 4.508518e+002
1.288467e+003, 4.514875e+002
1.290396e+003, 4.487861e+002
1.292324e+003, 4.461469e+002
1.294253e+003, 4.437007e+002
1.296181e+003, 4.415733e+002
1.298109e+003, 4.396621e+002
1.300038e+003, 4.375978e+002
1.301966e+003, 4.359208e+002
1.303895e+003, 4.354723e+002
1.305823e+003, 4.351058e+002
1.307752e+003, 4.339943e+002
1.309680e+003, 4.328247e+002
1.311609e+003, 4.312003e+002
1.313537e+003, 4.308356e+002
1.315466e+003, 4.338705e+002
1.317394e+003, 4.347220e+002
1.319323e+003, 4.311680e+002
1.321251e+003, 4.297174e+002
1.323180e+003, 4.307964e+002
1.325108e+003, 4.323058e+002
1.327036e+003, 4.340885e+002
1.328965e+003, 4.308657e+002
1.330893e+003, 4.250167e+002
1.332822e+003, 4.270883e+002
1.334750e+003, 4.323612e+002
1.336679e+003, 4.326142e+002
1.338607e+003, 4.301527e+002
1.340536e+003, 4.251382e+002
1.342464e+003, 4.219395e+002
1.344393e+003, 4.252857e+002
1.346321e+003, 4.268972e+002
1.348250e+003, 4.217191e+002
1.350178e+003, 4.187666e+002
1.352107e+003, 4.213644e+002
1.354035e+003, 4.227495e+002
1.355964e+003, 4.216076e+002
1.357892e+003, 4.215916e+002
1.359820e+003, 4.229956e+002
1.361749e+003, 4.219659e+002
1.363677e+003, 4.190427e+002
1.365606e+003, 4.171355e+002
1.367534e+003, 4.159351e+002
1.369463e+003, 4.146771e+002
1.371391e+003, 4.137620e+002
1.373320e+003, 4.134399e+002
1.375248e+003, 4.140669e+002
1.377177e+003, 4.183348e+002
1.379105e+003, 4.193978e+002
1.381034e+003, 4.117630e+002
1.382962e+003, 4.075235e+002
1.384891e+003, 4.101309e+002
1.386819e+003, 4.119079e+002
1.388747e+003, 4.118744e+002
1.390676e+003, 4.111187e+002
1.392604e+003, 4.097717e+002
1.394533e+003, 4.076780e+002
1.396461e+003, 4.052359e+002
1.398390e+003, 4.029240e+002
1.400318e+003, 4.016235e+002
1.402247e+003, 4.035198e+002
1.404175e+003, 4.059264e+002
1.406104e+003, 4.070934e+002
1.408032e+003, 4.067604e+002
1.409961e+003, 4.034658e+002
1.411889e+003, 4.010616e+002
1.413818e+003, 4.010882e+002
1.415746e+003, 4.010384e+002
1.417674e+003, 4.008309e+002
1.419603e+003, 3.998315e+002
1.421531e+003, 3.982940e+002
1.423460e+003, 4.011566e+002
1.425388e+003, 4.062087e+002
1.427317e+003, 4.068991e+002
1.429245e+003, 4.051044e+002
1.431174e+003, 4.019356e+002
1.433102e+003, 3.996277e+002
1.435031e+003, 4.003597e+002
1.436959e+003, 4.012874e+002
1.438888e+003, 4.008854e+002
1.440816e+003, 4.014578e+002
1.442745e+003, 4.041360e+002
1.444673e+003, 4.053863e+002
1.446601e+003, 4.050421e+002
1.448530e+003, 4.028766e+002
1.450458e+003, 3.997890e+002
1.452387e+003, 4.010512e+002
1.454315e+003, 4.036768e+002
1.456244e+003, 4.024821e+002
1.458172e+003, 3.998338e+002
1.460101e+003, 3.966043e+002
1.462029e+003, 3.947829e+002
1.463958e+003, 3.958531e+002
1.465886e+003, 3.958612e+002
1.467815e+003, 3.934398e+002
1.469743e+003, 3.949117e+002
1.471672e+003, 4.007045e+002
1.473600e+003, 3.980148e+002
1.475528e+003, 3.900306e+002
1.477457e+003, 3.893393e+002
1.479385e+003, 3.924753e+002
1.481314e+003, 3.960770e+002
1.483242e+003, 3.978189e+002
1.485171e+003, 3.939941e+002
1.487099e+003, 3.911104e+002
1.489028e+003, 3.915645e+002
1.490956e+003, 3.922254e+002
1.492885e+003, 3.927425e+002
1.494813e+003, 3.905756e+002
1.496742e+003, 3.865190e+002
1.498670e+003, 3.884483e+002
1.500599e+003, 3.925183e+002
1.502527e+003, 3.886499e+002
1.504455e+003, 3.835424e+002
1.506384e+003, 3.849556e+002
1.508312e+003, 3.868776e+002
1.510241e+003, 3.854370e+002
1.512169e+003, 3.853125e+002
1.514098e+003, 3.884565e+002
1.516026e+003, 3.879349e+002
1.517955e+003, 3.835533e+002
1.519883e+003, 3.811866e+002
1.521812e+003, 3.805902e+002
1.523740e+003, 3.814905e+002
1.525669e+003, 3.823484e+002
1.527597e+003, 3.816416e+002
1.529526e+003, 3.799543e+002
1.531454e+003, 3.761779e+002
1.533382e+003, 3.745137e+002
1.535311e+003, 3.779409e+002
1.537239e+003, 3.777583e+002
1.539168e+003, 3.733474e+002
1.541096e+003, 3.763312e+002
1.543025e+003, 3.829022e+002
1.544953e+003, 3.789615e+002
1.546882e+003, 3.728817e+002
1.548810e+003, 3.743060e+002
1.550739e+003, 3.766523e+002
1.552667e+003, 3.771207e+002
1.554596e+003, 3.765536e+002
1.556524e+003, 3.749160e+002
1.558453e+003, 3.735471e+002
1.560381e+003, 3.724986e+002
1.562309e+003, 3.718498e+002
1.564238e+003, 3.711511e+002
1.566166e+003, 3.681458e+002
1.568095e+003, 3.661975e+002
1.570023e+003, 3.704034e+002
1.571952e+003, 3.731219e+002
1.573880e+003, 3.717032e+002
1.575809e+003, 3.690610e+002
1.577737e+003, 3.656673e+002
1.579666e+003, 3.651369e+002
1.581594e+003, 3.666183e+002
1.583523e+003, 3.649418e+002
1.585451e+003, 3.630848e+002
1.587380e+003, 3.668600e+002
1.589308e+003, 3.698954e+002
1.591236e+003, 3.666300e+002
1.593165e+003, 3.655175e+002
1.595093e+003, 3.686288e+002
1.597022e+003, 3.667594e+002
1.598950e+003, 3.604562e+002
1.600879e+003, 3.587501e+002
1.602807e+003, 3.597999e+002
1.604736e+003, 3.606064e+002
1.606664e+003, 3.611273e+002
1.608593e+003, 3.609859e+002
1.610521e+003, 3.613348e+002
1.612450e+003, 3.635367e+002
1.614378e+003, 3.620589e+002
1.616307e+003, 3.569582e+002
1.618235e+003, 3.567320e+002
1.620163e+003, 3.590076e+002
1.622092e+003, 3.578561e+002
1.624020e+003, 3.560822e+002
1.625949e+003, 3.551485e+002
1.627877e+003, 3.561092e+002
1.629806e+003, 3.629510e+002
1.631734e+003, 3.621947e+002
1.633663e+003, 3.527592e+002
1.635591e+003, 3.466343e+002
1.637520e+003, 3.439467e+002
1.639448e+003, 3.470472e+002
1.641377e+003, 3.509249e+002
1.643305e+003, 3.514707e+002
1.645234e+003, 3.521305e+002
1.647162e+003, 3.545807e+002
1.649090e+003, 3.552769e+002
1.651019e+003, 3.539194e+002
1.652947e+003, 3.515404e+002
1.654876e+003, 3.493165e+002
1.656804e+003, 3.510004e+002
1.658733e+003, 3.526827e+002
1.660661e+003, 3.513297e+002
1.662590e+003, 3.502595e+002
1.664518e+003, 3.504139e+002
1.666447e+003, 3.515806e+002
1.668375e+003, 3.531937e+002
1.670304e+003, 3.481720e+002
1.672232e+003, 3.428277e+002
1.674161e+003, 3.515552e+002
1.676089e+003, 3.585233e+002
1.678017e+003, 3.536646e+002
1.679946e+003, 3.493269e+002
1.681874e+003, 3.476871e+002
1.683803e+003, 3.455010e+002
1.685731e+003, 3.434668e+002
1.687660e+003, 3.465838e+002
1.689588e+003, 3.494998e+002
1.691517e+003, 3.440669e+002
1.693445e+003, 3.400803e+002
1.695374e+003, 3.413100e+002
1.697302e+003, 3.439726e+002
1.699231e+003, 3.473499e+002
1.701159e+003, 3.470035e+002
1.703088e+003, 3.448840e+002
1.705016e+003, 3.456386e+002
1.706944e+003, 3.455522e+002
1.708873e+003, 3.393197e+002
1.710801e+003, 3.377936e+002
1.712730e+003, 3.438208e+002
1.714658e+003, 3.458474e+002
1.716587e+003, 3.447374e+002
1.718515e+003, 3.452313e+002
1.720444e+003, 3.457829e+002
1.722372e+003, 3.443026e+002
1.724301e+003, 3.432973e+002
1.726229e+003, 3.447201e+002
1.728158e+003, 3.436416e+002
1.730086e+003, 3.401826e+002
1.732015e+003, 3.392325e+002
1.733943e+003, 3.405422e+002
1.735871e+003, 3.457696e+002
1.737800e+003, 3.487363e+002
1.739728e+003, 3.452380e+002
1.741657e+003, 3.432242e+002
1.743585e+003, 3.440335e+002
1.745514e+003, 3.424171e+002
1.747442e+003, 3.392851e+002
1.749371e+003, 3.356806e+002
1.751299e+003, 3.333720e+002
1.753228e+003, 3.335985e+002
1.755156e+003, 3.344877e+002
1.757085e+003, 3.356975e+002
1.759013e+003, 3.360349e+002
1.760942e+003, 3.354647e+002
1.762870e+003, 3.332021e+002
1.764798e+003, 3.312234e+002
1.766727e+003, 3.310195e+002
1.768655e+003, 3.319858e+002
1.770584e+003, 3.341237e+002
1.772512e+003, 3.325822e+002
1.774441e+003, 3.289314e+002
1.776369e+003, 3.294156e+002
1.778298e+003, 3.305420e+002
1.780226e+003, 3.284713e+002
1.782155e+003, 3.275471e+002
1.784083e+003, 3.286701e+002
1.786012e+003, 3.300176e+002
1.787940e+003, 3.306879e+002
1.789869e+003, 3.272787e+002
1.791797e+003, 3.241094e+002
1.793725e+003, 3.263116e+002
1.795654e+003, 3.275273e+002
1.797582e+003, 3.265665e+002
1.799511e+003, 3.220118e+002
1.801439e+003, 3.168432e+002
1.803368e+003, 3.228395e+002
1.805296e+003, 3.283384e+002
1.807225e+003, 3.204355e+002
1.809153e+003, 3.168346e+002
1.811082e+003, 3.221857e+002
1.813010e+003, 3.223922e+002
1.814939e+003, 3.191620e+002
1.816867e+003, 3.171186e+002
1.818796e+003, 3.161478e+002
1.820724e+003, 3.169052e+002
1.822652e+003, 3.167704e+002
1.824581e+003, 3.150646e+002
1.826509e+003, 3.155555e+002
1.828438e+003, 3.168663e+002
1.830366e+003, 3.151665e+002
1.832295e+003, 3.144159e+002
1.834223e+003, 3.181000e+002
1.836152e+003, 3.157919e+002
1.838080e+003, 3.065837e+002
1.840009e+003, 3.071009e+002
1.841937e+003, 3.117580e+002
1.843866e+003, 3.138507e+002
1.845794e+003, 3.115786e+002
1.847723e+003, 3.026589e+002
1.849651e+003, 3.028306e+002
1.851579e+003, 3.110030e+002
1.853508e+003, 3.136739e+002
1.855436e+003, 3.130787e+002
1.857365e+003, 3.104818e+002
1.859293e+003, 3.076222e+002
1.861222e+003, 3.048248e+002
1.863150e+003, 3.026218e+002
1.865079e+003, 3.016753e+002
1.867007e+003, 3.051082e+002
1.868936e+003, 3.078953e+002
1.870864e+003, 3.064900e+002
1.872793e+003, 3.043463e+002
1.874721e+003, 3.020460e+002
1.876650e+003, 3.005571e+002
1.878578e+003, 3.008637e+002
1.880506e+003, 3.070233e+002
1.882435e+003, 3.099659e+002
1.884363e+003, 3.060190e+002
1.886292e+003, 3.025556e+002
1.888220e+003, 2.998612e+002
1.890149e+003, 2.966594e+002
1.892077e+003, 2.947148e+002
1.894006e+003, 2.961678e+002
1.895934e+003, 2.978924e+002
1.897863e+003, 2.994510e+002
1.899791e+003, 2.990659e+002
1.901720e+003, 2.981557e+002
1.903648e+003, 2.990871e+002
1.905577e+003, 2.998704e+002
1.907505e+003, 3.001425e+002
1.909433e+003, 2.974194e+002
1.911362e+003, 2.932914e+002
1.913290e+003, 2.969777e+002
1.915219e+003, 2.993290e+002
1.917147e+003, 2.924818e+002
1.919076e+003, 2.883443e+002
1.921004e+003, 2.888335e+002
1.922933e+003, 2.915434e+002
1.924861e+003, 2.949290e+002
1.926790e+003, 2.976473e+002
1.928718e+003, 2.980612e+002
1.930647e+003, 2.953441e+002
1.932575e+003, 2.925486e+002
1.934504e+003, 2.906798e+002
1.936432e+003, 2.929824e+002
1.938360e+003, 2.955185e+002
1.940289e+003, 2.965623e+002
1.942217e+003, 2.959008e+002
1.944146e+003, 2.941590e+002
1.946074e+003, 2.959154e+002
1.948003e+003, 2.971790e+002
1.949931e+003, 2.932601e+002
1.951860e+003, 2.903112e+002
1.953788e+003, 2.893324e+002
1.955717e+003, 2.913576e+002
1.957645e+003, 2.932423e+002
1.959574e+003, 2.895611e+002
1.961502e+003, 2.860872e+002
1.963431e+003, 2.842897e+002
1.965359e+003, 2.839312e+002
1.967287e+003, 2.844951e+002
1.969216e+003, 2.840128e+002
1.971144e+003, 2.859792e+002
1.973073e+003, 2.944991e+002
1.975001e+003, 2.939312e+002
1.976930e+003, 2.867449e+002
1.978858e+003, 2.821548e+002
1.980787e+003, 2.816283e+002
1.982715e+003, 2.900920e+002
1.984644e+003, 2.920176e+002
1.986572e+003, 2.875105e+002
1.988501e+003, 2.856015e+002
1.990429e+003, 2.846661e+002
1.992358e+003, 2.824434e+002
1.994286e+003, 2.835406e+002
1.996214e+003, 2.883956e+002
1.998143e+003, 2.869395e+002
2.000071e+003, 2.838424e+002
2.002000e+003, 2.836457e+002
2.003928e+003, 2.848094e+002
2.005857e+003, 2.870817e+002
2.007785e+003, 2.882447e+002
2.009714e+003, 2.886417e+002
2.011642e+003, 2.891686e+002
2.013571e+003, 2.877643e+002
2.015499e+003, 2.836176e+002
2.017428e+003, 2.827416e+002
2.019356e+003, 2.830486e+002
2.021285e+003, 2.798408e+002
2.023213e+003, 2.776964e+002
2.025141e+003, 2.779341e+002
2.027070e+003, 2.783981e+002
2.028998e+003, 2.794367e+002
2.030927e+003, 2.831275e+002
2.032855e+003, 2.854920e+002
2.034784e+003, 2.852496e+002
2.036712e+003, 2.841780e+002
2.038641e+003, 2.830691e+002
2.040569e+003, 2.835222e+002
2.042498e+003, 2.837789e+002
2.044426e+003, 2.831959e+002
2.046355e+003, 2.840971e+002
2.048283e+003, 2.845812e+002
2.050212e+003, 2.789529e+002
2.052140e+003, 2.742971e+002
2.054068e+003, 2.730109e+002
2.055997e+003, 2.773709e+002
2.057925e+003, 2.831505e+002
2.059854e+003, 2.815962e+002
2.061782e+003, 2.783290e+002
2.063711e+003, 2.748202e+002
2.065639e+003, 2.762281e+002
2.067568e+003, 2.793523e+002
2.069496e+003, 2.762594e+002
2.071425e+003, 2.757202e+002
2.073353e+003, 2.837141e+002
2.075281e+003, 2.798923e+002
2.077210e+003, 2.722304e+002
2.079138e+003, 2.758827e+002
2.081067e+003, 2.788371e+002
2.082995e+003, 2.766353e+002
2.084924e+003, 2.758837e+002
2.086852e+003, 2.755683e+002
2.088781e+003, 2.737466e+002
2.090709e+003, 2.730628e+002
2.092638e+003, 2.744065e+002
2.094566e+003, 2.751505e+002
2.096495e+003, 2.748499e+002
2.098423e+003, 2.721865e+002
2.100352e+003, 2.716759e+002
2.102280e+003, 2.739445e+002
2.104208e+003, 2.702596e+002
2.106137e+003, 2.660178e+002
2.108065e+003, 2.667442e+002
2.109994e+003, 2.670370e+002
2.111922e+003, 2.664259e+002
2.113851e+003, 2.686531e+002
2.115779e+003, 2.698147e+002
2.117708e+003, 2.665121e+002
2.119636e+003, 2.649472e+002
2.121565e+003, 2.650133e+002
2.123493e+003, 2.624622e+002
2.125422e+003, 2.624015e+002
2.127350e+003, 2.683759e+002
2.129279e+003, 2.682925e+002
2.131207e+003, 2.650709e+002
2.133135e+003, 2.670593e+002
2.135064e+003, 2.705644e+002
2.136992e+003, 2.747669e+002
2.138921e+003, 2.691953e+002
2.140849e+003, 2.604120e+002
2.142778e+003, 2.577493e+002
2.144706e+003, 2.571170e+002
2.146635e+003, 2.575200e+002
2.148563e+003, 2.593013e+002
2.150492e+003, 2.610945e+002
2.152420e+003, 2.617800e+002
2.154349e+003, 2.620334e+002
2.156277e+003, 2.615233e+002
2.158206e+003, 2.546245e+002
2.160134e+003, 2.511263e+002
2.162063e+003, 2.581598e+002
2.163991e+003, 2.633278e+002
2.165919e+003, 2.659052e+002
2.167848e+003, 2.644515e+002
2.169776e+003, 2.642517e+002
2.171705e+003, 2.674306e+002
2.173633e+003, 2.639848e+002
2.175562e+003, 2.574398e+002
2.177490e+003, 2.504500e+002
2.179419e+003, 2.497684e+002
2.181347e+003, 2.553322e+002
2.183276e+003, 2.564774e+002
2.185204e+003, 2.566515e+002
2.187133e+003, 2.580327e+002
2.189061e+003, 2.583512e+002
2.190990e+003, 2.576445e+002
2.192918e+003, 2.559186e+002
2.194846e+003, 2.551224e+002
2.196775e+003, 2.557417e+002
2.198703e+003, 2.556068e+002
2.200632e+003, 2.543283e+002
2.202560e+003, 2.498856e+002
2.204489e+003, 2.489990e+002
2.206417e+003, 2.514905e+002
2.208346e+003, 2.536426e+002
2.210274e+003, 2.537325e+002
2.212203e+003, 2.505399e+002
2.214131e+003, 2.461393e+002
2.216060e+003, 2.423196e+002
2.217988e+003, 2.433226e+002
2.219917e+003, 2.411138e+002
2.221845e+003, 2.348551e+002
2.223773e+003, 2.416156e+002
2.225702e+003, 2.488896e+002
2.227630e+003, 2.442686e+002
2.229559e+003, 2.432431e+002
2.231487e+003, 2.454810e+002
2.233416e+003, 2.486233e+002
2.235344e+003, 2.491268e+002
2.237273e+003, 2.450817e+002
2.239201e+003, 2.473719e+002
2.241130e+003, 2.501266e+002
2.243058e+003, 2.476560e+002
2.244987e+003, 2.443633e+002
2.246915e+003, 2.412909e+002
2.248844e+003, 2.390187e+002
2.250772e+003, 2.405478e+002
2.252700e+003, 2.474693e+002
2.254629e+003, 2.447385e+002
2.256557e+003, 2.402402e+002
2.258486e+003, 2.439522e+002
2.260414e+003, 2.458355e+002
2.262343e+003, 2.447606e+002
2.264271e+003, 2.416270e+002
2.266200e+003, 2.399787e+002
2.268128e+003, 2.410682e+002
2.270057e+003, 2.416010e+002
2.271985e+003, 2.410533e+002
2.273914e+003, 2.373984e+002
2.275842e+003, 2.393654e+002
2.277771e+003, 2.444980e+002
2.279699e+003, 2.387408e+002
2.281627e+003, 2.338857e+002
2.283556e+003, 2.340788e+002
2.285484e+003, 2.417765e+002
2.287413e+003, 2.486032e+002
2.289341e+003, 2.444542e+002
2.291270e+003, 2.379280e+002
2.293198e+003, 2.323059e+002
2.295127e+003, 2.355835e+002
2.297055e+003, 2.378884e+002
2.298984e+003, 2.361172e+002
2.300912e+003, 2.396235e+002
2.302841e+003, 2.433921e+002
2.304769e+003, 2.430060e+002
2.306698e+003, 2.411417e+002
2.308626e+003, 2.384392e+002
2.310554e+003, 2.348650e+002
2.312483e+003, 2.346452e+002
2.314411e+003, 2.380616e+002
2.316340e+003, 2.350343e+002
2.318268e+003, 2.315460e+002
2.320197e+003, 2.305140e+002
2.322125e+003, 2.362885e+002
2.324054e+003, 2.438136e+002
2.325982e+003, 2.470201e+002
2.327911e+003, 2.462287e+002
2.329839e+003, 2.426277e+002
2.331768e+003, 2.391465e+002
2.333696e+003, 2.379228e+002
2.335625e+003, 2.394431e+002
2.337553e+003, 2.382227e+002
2.339481e+003, 2.363671e+002
2.341410e+003, 2.355918e+002
2.343338e+003, 2.344231e+002
2.345267e+003, 2.337120e+002
2.347195e+003, 2.371654e+002
2.349124e+003, 2.355692e+002
2.351052e+003, 2.292986e+002
2.352981e+003, 2.256262e+002
2.354909e+003, 2.271064e+002
2.356838e+003, 2.341669e+002
2.358766e+003, 2.343262e+002
2.360695e+003, 2.325655e+002
2.362623e+003, 2.334076e+002
2.364552e+003, 2.364613e+002
2.366480e+003, 2.382706e+002
2.368408e+003, 2.304351e+002
2.370337e+003, 2.274067e+002
2.372265e+003, 2.302188e+002
2.374194e+003, 2.328350e+002
2.376122e+003, 2.364801e+002
2.378051e+003, 2.422632e+002
2.379979e+003, 2.370291e+002
2.381908e+003, 2.315106e+002
2.383836e+003, 2.355885e+002
2.385765e+003, 2.331513e+002
2.387693e+003, 2.280089e+002
2.389622e+003, 2.253337e+002
2.391550e+003, 2.303950e+002
2.393479e+003, 2.391268e+002
2.395407e+003, 2.347523e+002
2.397335e+003, 2.298656e+002
2.399264e+003, 2.276251e+002
2.401192e+003, 2.236330e+002
2.403121e+003, 2.213472e+002
2.405049e+003, 2.224209e+002
2.406978e+003, 2.254374e+002
2.408906e+003, 2.276334e+002
2.410835e+003, 2.262516e+002
2.412763e+003, 2.278548e+002
2.414692e+003, 2.308465e+002
2.416620e+003, 2.312147e+002
2.418549e+003, 2.322551e+002
2.420477e+003, 2.330919e+002
2.422406e+003, 2.279365e+002
2.424334e+003, 2.252725e+002
2.426262e+003, 2.271163e+002
2.428191e+003, 2.351248e+002
2.430119e+003, 2.358802e+002
2.432048e+003, 2.232506e+002
2.433976e+003, 2.246462e+002
2.435905e+003, 2.275162e+002
2.437833e+003, 2.183077e+002
2.439762e+003, 2.171370e+002
2.441690e+003, 2.210840e+002
2.443619e+003, 2.277765e+002
2.445547e+003, 2.275332e+002
2.447476e+003, 2.226463e+002
2.449404e+003, 2.184179e+002
2.451333e+003, 2.183023e+002
2.453261e+003, 2.217783e+002
2.455189e+003, 2.255561e+002
2.457118e+003, 2.286221e+002
2.459046e+003, 2.303482e+002
2.460975e+003, 2.242040e+002
2.462903e+003, 2.210005e+002
2.464832e+003, 2.263042e+002
2.466760e+003, 2.256043e+002
2.468689e+003, 2.253281e+002
2.470617e+003, 2.301133e+002
2.472546e+003, 2.277032e+002
2.474474e+003, 2.247103e+002
2.476403e+003, 2.286450e+002
2.478331e+003, 2.294680e+002
2.480260e+003, 2.274562e+002
2.482188e+003, 2.223767e+002
2.484116e+003, 2.262241e+002
2.486045e+003, 2.339719e+002
2.487973e+003, 2.300982e+002
2.489902e+003, 2.252442e+002
2.491830e+003, 2.219020e+002
2.493759e+003, 2.228534e+002
2.495687e+003, 2.203615e+002
2.497616e+003, 2.146463e+002
2.499544e+003, 2.159649e+002
2.501473e+003, 2.169066e+002
2.503401e+003, 2.157588e+002
2.505330e+003, 2.222644e+002
2.507258e+003, 2.274444e+002
2.509187e+003, 2.271404e+002
2.511115e+003, 2.288818e+002
2.513043e+003, 2.274629e+002
2.514972e+003, 2.171732e+002
2.516900e+003, 2.195704e+002
2.518829e+003, 2.245681e+002
2.520757e+003, 2.244154e+002
2.522686e+003, 2.175409e+002
2.524614e+003, 2.119146e+002
2.526543e+003, 2.158264e+002
2.528471e+003, 2.167648e+002
2.530400e+003, 2.173474e+002
2.532328e+003, 2.223551e+002
2.534257e+003, 2.215737e+002
2.536185e+003, 2.189392e+002
2.538114e+003, 2.221902e+002
2.540042e+003, 2.190124e+002
2.541970e+003, 2.140724e+002
2.543899e+003, 2.195298e+002
2.545827e+003, 2.210216e+002
2.547756e+003, 2.190203e+002
2.549684e+003, 2.209692e+002
2.551613e+003, 2.142383e+002
2.553541e+003, 2.042684e+002
2.555470e+003, 2.124865e+002
2.557398e+003, 2.192449e+002
2.559327e+003, 2.213450e+002
2.561255e+003, 2.219313e+002
2.563184e+003, 2.135909e+002
2.565112e+003, 2.017158e+002
2.567041e+003, 2.086132e+002
2.568969e+003, 2.157970e+002
2.570897e+003, 2.191869e+002
2.572826e+003, 2.206612e+002
2.574754e+003, 2.191743e+002
2.576683e+003, 2.155704e+002
2.578611e+003, 2.112356e+002
2.580540e+003, 2.163097e+002
2.582468e+003, 2.276532e+002
2.584397e+003, 2.122139e+002
2.586325e+003, 2.051720e+002
2.588254e+003, 2.122741e+002
2.590182e+003, 2.087909e+002
2.592111e+003, 2.122188e+002
2.594039e+003, 2.229731e+002
2.595968e+003, 2.061036e+002
2.597896e+003, 1.971851e+002
2.599824e+003, 2.036759e+002
2.601753e+003, 2.144336e+002
2.603681e+003, 2.167008e+002
2.605610e+003, 2.086375e+002
2.607538e+003, 1.962488e+002
2.609467e+003, 1.966311e+002
2.611395e+003, 2.093408e+002
2.613324e+003, 2.065023e+002
2.615252e+003, 2.090493e+002
2.617181e+003, 2.185811e+002
2.619109e+003, 2.170645e+002
2.621038e+003, 2.166457e+002
2.622966e+003, 2.187705e+002
2.624895e+003, 2.168806e+002
2.626823e+003, 2.156219e+002
2.628751e+003, 2.163143e+002
2.630680e+003, 2.219861e+002
2.632608e+003, 2.186122e+002
2.634537e+003, 2.091506e+002
2.636465e+003, 2.091403e+002
2.638394e+003, 2.071716e+002
2.640322e+003, 2.029483e+002
2.642251e+003, 1.991280e+002
2.644179e+003, 2.017831e+002
2.646108e+003, 2.071638e+002
2.648036e+003, 2.065309e+002
2.649965e+003, 2.046723e+002
2.651893e+003, 2.033451e+002
2.653822e+003, 2.025096e+002
2.655750e+003, 2.174613e+002
2.657678e+003, 2.275342e+002
2.659607e+003, 2.006453e+002
2.661535e+003, 1.955931e+002
2.663464e+003, 2.037794e+002
2.665392e+003, 2.107242e+002
2.667321e+003, 2.117151e+002
2.669249e+003, 2.107511e+002
2.671178e+003, 2.114678e+002
2.673106e+003, 2.096015e+002
2.675035e+003, 2.047567e+002
2.676963e+003, 1.973049e+002
2.678892e+003, 1.950855e+002
2.680820e+003, 1.989096e+002
2.682749e+003, 2.071230e+002
2.684677e+003, 2.010113e+002
2.686605e+003, 1.960768e+002
2.688534e+003, 1.988417e+002
2.690462e+003, 2.117984e+002
2.692391e+003, 2.167118e+002
2.694319e+003, 2.106497e+002
2.696248e+003, 2.043073e+002
2.698176e+003, 1.953376e+002
2.700105e+003, 1.872543e+002
2.702033e+003, 1.934434e+002
2.703962e+003, 1.954480e+002
2.705890e+003, 1.926847e+002
2.707819e+003, 1.869001e+002
2.709747e+003, 2.011219e+002
2.711676e+003, 2.157354e+002
2.713604e+003, 1.964416e+002
2.715532e+003, 1.926924e+002
2.717461e+003, 1.964499e+002
2.719389e+003, 1.966951e+002
2.721318e+003, 1.980061e+002
2.723246e+003, 2.020156e+002
2.725175e+003, 2.098924e+002
2.727103e+003, 2.070186e+002
2.729032e+003, 2.029934e+002
2.730960e+003, 2.020236e+002
2.732889e+003, 1.970050e+002
2.734817e+003, 2.024541e+002
2.736746e+003, 2.166403e+002
2.738674e+003, 2.149773e+002
2.740603e+003, 2.044366e+002
2.742531e+003, 1.927742e+002
2.744459e+003, 1.970621e+002
2.746388e+003, 1.880245e+002
2.748316e+003, 1.798341e+002
2.750245e+003, 1.970278e+002
2.752173e+003, 2.064705e+002
2.754102e+003, 2.045249e+002
2.756030e+003, 1.902569e+002
2.757959e+003, 1.903183e+002
2.759887e+003, 1.912801e+002
2.761816e+003, 1.890883e+002
2.763744e+003, 2.149261e+002
2.765673e+003, 2.215979e+002
2.767601e+003, 2.048036e+002
2.769530e+003, 1.878857e+002
2.771458e+003, 1.957208e+002
2.773386e+003, 2.115068e+002
2.775315e+003, 1.928600e+002
2.777243e+003, 2.055645e+002
2.779172e+003, 2.227311e+002
2.781100e+003, 2.095872e+002
2.783029e+003, 2.044782e+002
2.784957e+003, 2.031084e+002
2.786886e+003, 2.022716e+002
2.788814e+003, 2.177512e+002
2.790743e+003, 2.163860e+002
2.792671e+003, 1.939982e+002
2.794600e+003, 1.762658e+002
2.796528e+003, 1.842044e+002
2.798457e+003, 2.045683e+002
2.800385e+003, 2.083220e+002
2.802313e+003, 2.083834e+002
2.804242e+003, 2.049225e+002
2.806170e+003, 1.969324e+002
2.808099e+003, 1.992619e+002
2.810027e+003, 2.044470e+002
2.811956e+003, 2.070043e+002
2.813884e+003, 1.927885e+002
2.815813e+003, 1.990120e+002
2.817741e+003, 2.196882e+002
2.819670e+003, 2.129867e+002
2.821598e+003, 2.100965e+002
2.823527e+003, 2.079669e+002
2.825455e+003, 1.938565e+002
2.827384e+003, 1.999148e+002
2.829312e+003, 1.996541e+002
2.831240e+003, 1.776098e+002
2.833169e+003, 1.919907e+002
2.835097e+003, 2.001968e+002
2.837026e+003, 1.959118e+002
2.838954e+003, 2.018254e+002
2.840883e+003, 2.007790e+002
2.842811e+003, 1.986883e+002
2.844740e+003, 2.069979e+002
2.846668e+003, 1.992096e+002
2.848597e+003, 1.908368e+002
2.850525e+003, 1.921376e+002
2.852454e+003, 1.848695e+002
2.854382e+003, 1.978998e+002
2.856311e+003, 2.218062e+002
2.858239e+003, 1.997277e+002
2.860167e+003, 1.850864e+002
2.862096e+003, 1.849547e+002
2.864024e+003, 1.990392e+002
2.865953e+003, 2.071708e+002
2.867881e+003, 2.048407e+002
2.869810e+003, 1.948679e+002
2.871738e+003, 1.960069e+002
2.873667e+003, 2.041582e+002
2.875595e+003, 2.132812e+002
2.877524e+003, 2.158933e+002
2.879452e+003, 2.032755e+002
2.881381e+003, 1.888314e+002
2.883309e+003, 1.837262e+002
2.885238e+003, 1.833456e+002
2.887166e+003, 1.905381e+002
2.889094e+003, 2.013480e+002
2.891023e+003, 1.966700e+002
2.892951e+003, 2.063515e+002
2.894880e+003, 2.178751e+002
2.896808e+003, 2.100228e+002
2.898737e+003, 2.135286e+002
2.900665e+003, 2.142898e+002
2.902594e+003, 2.053271e+002
2.904522e+003, 1.871178e+002
2.906451e+003, 1.806323e+002
2.908379e+003, 1.854556e+002
2.910308e+003, 1.960230e+002
2.912236e+003, 1.842583e+002
2.914165e+003, 1.778953e+002
2.916093e+003, 1.920370e+002
2.918021e+003, 2.060413e+002
2.919950e+003, 2.174466e+002
2.921878e+003, 2.219370e+002
2.923807e+003, 2.103977e+002
2.925735e+003, 2.110421e+002
2.927664e+003, 2.111042e+002
2.929592e+003, 2.018394e+002
2.931521e+003, 1.865775e+002
2.933449e+003, 1.861913e+002
2.935378e+003, 1.978053e+002
2.937306e+003, 2.064374e+002
2.939235e+003, 2.037701e+002
2.941163e+003, 2.047054e+002
2.943092e+003, 2.176532e+002
2.945020e+003, 1.971809e+002
2.946948e+003, 1.940203e+002
2.948877e+003, 2.054958e+002
2.950805e+003, 2.004316e+002
2.952734e+003, 2.006002e+002
2.954662e+003, 2.021156e+002
2.956591e+003, 2.020546e+002
2.958519e+003, 2.251956e+002
2.960448e+003, 2.335355e+002
2.962376e+003, 2.223797e+002
2.964305e+003, 1.968049e+002
2.966233e+003, 2.026046e+002
2.968162e+003, 2.154955e+002
2.970090e+003, 2.165846e+002
2.972019e+003, 1.765121e+002
2.973947e+003, 1.814585e+002
2.975875e+003, 2.138195e+002
2.977804e+003, 2.295456e+002
2.979732e+003, 2.237768e+002
2.981661e+003, 2.103852e+002
2.983589e+003, 1.948490e+002
2.985518e+003, 1.626119e+002
2.987446e+003, 1.873972e+002
2.989375e+003, 2.194850e+002
2.991303e+003, 2.048643e+002
2.993232e+003, 2.089903e+002
2.995160e+003, 2.032913e+002
2.997089e+003, 1.867411e+002
2.999017e+003, 1.720625e+002
3.000946e+003, 1.933327e+002
3.002874e+003, 2.116211e+002
3.004802e+003, 2.021342e+002
3.006731e+003, 1.815690e+002
3.008659e+003, 2.030339e+002
3.010588e+003, 2.285753e+002
3.012516e+003, 1.949119e+002
3.014445e+003, 2.089055e+002
3.016373e+003, 2.210997e+002
3.018302e+003, 2.137537e+002
3.020230e+003, 1.999291e+002
3.022159e+003, 1.909285e+002
3.024087e+003, 1.952162e+002
3.026016e+003, 2.128094e+002
3.027944e+003, 1.980358e+002
3.029873e+003, 1.945840e+002
3.031801e+003, 1.969951e+002
3.033729e+003, 1.847404e+002
3.035658e+003, 1.978050e+002
3.037586e+003, 1.919149e+002
3.039515e+003, 1.689005e+002
3.041443e+003, 1.863953e+002
3.043372e+003, 2.227704e+002
3.045300e+003, 2.287957e+002
3.047229e+003, 1.906496e+002
3.049157e+003, 2.066234e+002
3.051086e+003, 2.022063e+002
3.053014e+003, 1.974222e+002
3.054943e+003, 2.362499e+002
3.056871e+003, 2.278886e+002
3.058800e+003, 2.145342e+002
3.060728e+003, 2.107467e+002
3.062656e+003, 2.201029e+002
3.064585e+003, 2.181649e+002
3.066513e+003, 2.201226e+002
3.068442e+003, 2.291546e+002
3.070370e+003, 2.264353e+002
3.072299e+003, 1.949103e+002
3.074227e+003, 1.926050e+002
3.076156e+003, 2.499435e+002
3.078084e+003, 2.179876e+002
3.080013e+003, 2.138543e+002
3.081941e+003, 2.208009e+002
3.083870e+003, 2.015860e+002
3.085798e+003, 2.264142e+002
3.087727e+003, 2.405708e+002
3.089655e+003, 2.415003e+002
3.091583e+003, 2.538102e+002
3.093512e+003, 2.390578e+002
3.095440e+003, 2.013368e+002
3.097369e+003, 1.694787e+002
3.099297e+003, 2.163648e+002
3.101226e+003, 2.279903e+002
3.103154e+003, 2.220150e+002
3.105083e+003, 2.172465e+002
3.107011e+003, 2.361579e+002
3.108940e+003, 2.303246e+002
3.110868e+003, 2.043962e+002
3.112797e+003, 1.744054e+002
3.114725e+003, 2.126174e+002
3.116654e+003, 2.365585e+002
3.118582e+003, 2.283056e+002
3.120510e+003, 1.871928e+002
3.122439e+003, 1.644020e+002
3.124367e+003, 1.750017e+002
3.126296e+003, 1.975164e+002
3.128224e+003, 2.076867e+002
3.130153e+003, 2.100736e+002
3.132081e+003, 2.070963e+002
3.134010e+003, 1.913151e+002
3.135938e+003, 1.574058e+002
3.137867e+003, 2.036454e+002
3.139795e+003, 2.265701e+002
3.141724e+003, 2.191988e+002
3.143652e+003, 2.222665e+002
3.145581e+003, 1.370356e+002
3.147509e+003, 1.263400e+002
3.149438e+003, 1.880336e+002
3.151366e+003, 2.219878e+002
3.153294e+003, 1.880540e+002
3.155223e+003, 1.936930e+002
3.157151e+003, 2.328150e+002
3.159080e+003, 2.173339e+002
3.161008e+003, 1.989774e+002
3.162937e+003, 2.002405e+002
3.164865e+003, 2.201670e+002
3.166794e+003, 2.465769e+002
3.168722e+003, 2.362592e+002
3.170651e+003, 2.195749e+002
3.172579e+003, 2.177066e+002
3.174508e+003, 2.469474e+002
3.176436e+003, 2.602329e+002
3.178365e+003, 2.779341e+002
3.180293e+003, 2.979530e+002
3.182221e+003, 2.959583e+002
3.184150e+003, 2.380582e+002
3.186078e+003, 2.293005e+002
3.188007e+003, 2.708647e+002
3.189935e+003, 2.814609e+002
3.191864e+003, 2.613708e+002
3.193792e+003, 2.242696e+002
3.195721e+003, 2.046795e+002
3.197649e+003, 2.532623e+002
3.199578e+003, 2.296100e+002
3.201506e+003, 2.077994e+002
3.203435e+003, 2.059824e+002
3.205363e+003, 2.062534e+002
3.207292e+003, 2.586256e+002
3.209220e+003, 2.604016e+002
3.211148e+003, 2.278215e+002
3.213077e+003, 2.272363e+002
3.215005e+003, 1.431655e+002
3.216934e+003, 1.961599e+002
3.218862e+003, 2.973869e+002
3.220791e+003, 2.878890e+002
3.222719e+003, 2.880128e+002
3.224648e+003, 2.666550e+002
3.226576e+003, 2.458204e+002
3.228505e+003, 2.508648e+002
3.230433e+003, 2.960710e+002
3.232362e+003, 2.867121e+002
3.234290e+003, 2.634744e+002
3.236219e+003, 2.633192e+002
3.238147e+003, 2.693561e+002
3.240075e+003, 2.784564e+002
3.242004e+003, 2.298521e+002
3.243932e+003, 1.508013e+002
3.245861e+003, 2.355720e+002
3.247789e+003, 2.909870e+002
3.249718e+003, 2.779813e+002
3.251646e+003, 2.219503e+002
3.253575e+003, 1.857802e+002
3.255503e+003, 1.957779e+002
3.257432e+003, 2.528464e+002
3.259360e+003, 2.856018e+002
3.261289e+003, 1.949016e+002
3.263217e+003, 2.895961e+002
3.265146e+003, 2.638114e+002
3.267074e+003, 1.729687e+002
3.269002e+003, 1.430491e+002
3.270931e+003, 2.373870e+002
3.272859e+003, 2.413566e+002
3.274788e+003, 2.371833e+002
3.276716e+003, 2.670468e+002
3.278645e+003, 1.905964e+002
3.280573e+003, 2.497125e+002
3.282502e+003, 3.007545e+002
3.284430e+003, 2.819449e+002
3.286359e+003, 2.297664e+002
3.288287e+003, 2.037336e+002
3.290216e+003, 2.355490e+002
3.292144e+003, 2.756133e+002
3.294073e+003, 2.681235e+002
3.296001e+003, 2.726840e+002
3.297929e+003, 2.909194e+002
3.299858e+003, 3.048709e+002
3.301786e+003, 3.072772e+002
3.303715e+003, 3.284753e+002
3.305643e+003, 2.530613e+002
3.307572e+003, 1.861648e+002
3.309500e+003, 1.841280e+002
3.311429e+003, 2.715530e+002
3.313357e+003, 2.879152e+002
3.315286e+003, 2.534377e+002
3.317214e+003, 1.953013e+002
3.319143e+003, 1.412832e+002
3.321071e+003, 1.822529e+002
3.323000e+003, 2.490298e+002
3.324928e+003, 3.065324e+002
3.326856e+003, 3.137603e+002
3.328785e+003, 2.066009e+002
3.330713e+003, 2.838453e+002
3.332642e+003, 2.652211e+002
3.334570e+003, 1.918102e+002
3.336499e+003, 2.149990e+002
3.338427e+003, 2.796921e+002
3.340356e+003, 1.802209e+002
3.342284e+003, 1.983872e+002
3.344213e+003, 3.510064e+002
3.346141e+003, 1.728687e+002
3.348070e+003, 2.020253e+002
3.349998e+003, 2.377357e+002
3.351927e+003, 2.052910e+002
3.353855e+003, 1.352154e+002
3.355783e+003, 2.431730e+002
3.357712e+003, 2.200843e+002
3.359640e+003, 1.652772e+002
3.361569e+003, 1.574910e+002
3.363497e+003, 1.591376e+002
3.365426e+003, 1.934429e+002
3.367354e+003, 1.708146e+002
3.369283e+003, 1.826184e+002
3.371211e+003, 3.113411e+002
3.373140e+003, 2.695024e+002
3.375068e+003, 2.382357e+002
3.376997e+003, 2.725068e+002
3.378925e+003, 3.247331e+002
3.380854e+003, 2.928856e+002
3.382782e+003, 2.680076e+002
3.384710e+003, 3.404073e+002
3.386639e+003, 3.522626e+002
3.388567e+003, 2.714067e+002
3.390496e+003, 4.801152e+002
3.392424e+003, 2.355627e+002
3.394353e+003, 1.885159e+002
3.396281e+003, 3.164050e+002
3.398210e+003, 3.089618e+002
3.400138e+003, 2.870106e+002
3.402067e+003, 2.453370e+002
3.403995e+003, 1.649668e+002
3.405924e+003, 9.810134e+001
3.407852e+003, 1.504327e+002
3.409781e+003, 2.950382e+002
3.411709e+003, 3.237800e+002
3.413637e+003, 3.053282e+002
3.415566e+003, 3.074646e+002
3.417494e+003, 2.904298e+002
3.419423e+003, 2.617333e+002
3.421351e+003, 3.128849e+002
3.423280e+003, 3.739494e+002
3.425208e+003, 3.531456e+002
3.427137e+003, 2.079597e+002
3.429065e+003, 2.933410e+002
3.430994e+003, 3.064564e+002
3.432922e+003, 2.531181e+002
3.434851e+003, 2.812417e+002
3.436779e+003, 3.307046e+002
3.438708e+003, 2.654405e+002
3.440636e+003, 2.296022e+002
3.442564e+003, 2.373224e+002
3.444493e+003, 2.165879e+002
3.446421e+003, 2.429557e+002
3.448350e+003, 2.924041e+002
3.450278e+003, 2.291031e+002
3.452207e+003, 1.211854e+002
3.454135e+003, 1.919701e+002
3.456064e+003, 2.307083e+002
##END=



