##NAMES=Stokesite
##RRUFFID=R060587
##IDEAL CHEMISTRY=CaSnSi_3_O_9_·2H_2_O
##LOCALITY=Urucum mine, Galileia, Minas Gerais, Brazil
##OWNER=RRUFF
##SOURCE=Michael Scott
##DESCRIPTION=Spherical aggregate of colorless prismatic crystals
##STATUS=The identification of this mineral has been confirmed by single-crystal X-ray diffraction
##URL=https://www.rruff.net/odr/rruff_sample/R060587
##DIFFRACTION SAMPLE DESCRIPTION=Single crystal, powder profile is calculated
##CELL PARAMETERS=a: 14.46 b: 11.612 c: 5.2285 alpha: 90 beta: 90 gamma: 90 volume: 877.9 crystal system: orthorhombic
##FILETYPE=Raman RAW
##RAMAN WAVELENGTH=780

80.73486, 2108.843
82.66333, 2199.783
84.59180, 2454.410
86.52026, 2810.961
88.44873, 3261.522
90.37720, 3893.438
92.30566, 4721.683
94.23413, 5451.887
96.16260, 6083.938
98.09106, 6832.857
100.0195, 7744.740
101.9480, 8809.764
103.8765, 9829.332
105.8049, 11284.75
107.7334, 12111.84
109.6619, 11994.28
111.5903, 11205.12
113.5188, 9949.837
115.4473, 8235.103
117.3757, 6764.521
119.3042, 5614.047
121.2327, 4699.008
123.1611, 4042.156
125.0896, 3584.711
127.0181, 3258.809
128.9465, 3060.086
130.8750, 2923.271
132.8035, 2862.184
134.7319, 2834.121
136.6604, 2835.403
138.5889, 2864.209
140.5173, 2917.069
142.4458, 2993.290
144.3743, 3087.635
146.3027, 3202.386
148.2312, 3332.088
150.1597, 3477.740
152.0881, 3637.564
154.0166, 3815.835
155.9451, 4009.353
157.8735, 4190.205
159.8020, 4374.064
161.7305, 4520.489
163.6589, 4631.928
165.5874, 4698.346
167.5159, 4713.196
169.4443, 4681.394
171.3728, 4614.376
173.3013, 4502.185
175.2297, 4366.280
177.1582, 4191.164
179.0867, 4011.260
181.0151, 3842.142
182.9436, 3680.427
184.8721, 3519.241
186.8005, 3353.395
188.7290, 3210.062
190.6575, 3085.080
192.5859, 2988.263
194.5144, 2923.106
196.4429, 2890.449
198.3713, 2895.618
200.2998, 2939.604
202.2283, 3011.204
204.1567, 3106.942
206.0852, 3232.724
208.0137, 3387.430
209.9421, 3579.208
211.8706, 3799.394
213.7991, 4058.920
215.7275, 4397.006
217.6560, 4806.580
219.5845, 5314.978
221.5129, 5911.007
223.4414, 6642.136
225.3699, 7530.930
227.2983, 8544.510
229.2268, 9747.297
231.1553, 11127.43
233.0837, 12159.70
235.0122, 12876.18
236.9407, 13091.52
238.8691, 12510.33
240.7976, 11633.62
242.7261, 10642.24
244.6545, 9601.100
246.5830, 8711.178
248.5115, 7967.915
250.4399, 7325.536
252.3684, 6803.415
254.2969, 6343.029
256.2253, 5946.585
258.1538, 5582.656
260.0823, 5215.440
262.0107, 4848.769
263.9392, 4500.527
265.8677, 4171.801
267.7961, 3860.273
269.7246, 3574.335
271.6531, 3293.673
273.5815, 3002.867
275.5100, 2714.713
277.4385, 2445.764
279.3669, 2196.046
281.2954, 1978.729
283.2239, 1795.124
285.1523, 1647.887
287.0808, 1551.588
289.0093, 1475.382
290.9377, 1402.221
292.8662, 1332.515
294.7947, 1262.707
296.7231, 1190.618
298.6516, 1142.907
300.5801, 1144.099
302.5085, 1141.436
304.4370, 1120.615
306.3655, 1095.411
308.2939, 1076.020
310.2224, 1061.256
312.1509, 1049.122
314.0793, 1039.339
316.0078, 1033.165
317.9363, 1029.664
319.8647, 1030.677
321.7932, 1042.168
323.7217, 1053.613
325.6501, 1054.445
327.5786, 1048.544
329.5071, 1048.250
331.4355, 1056.918
333.3640, 1062.924
335.2925, 1068.989
337.2209, 1068.748
339.1494, 1059.855
341.0779, 1044.094
343.0063, 1016.209
344.9348, 983.3381
346.8633, 971.9025
348.7917, 991.5802
350.7202, 1002.136
352.6487, 998.3350
354.5771, 995.8278
356.5056, 997.4882
358.4341, 1004.330
360.3625, 1017.123
362.2910, 1035.078
364.2195, 1058.411
366.1479, 1089.807
368.0764, 1109.521
370.0049, 1117.108
371.9333, 1114.698
373.8618, 1098.060
375.7903, 1077.502
377.7188, 1056.949
379.6472, 1037.486
381.5757, 1019.901
383.5042, 1004.391
385.4326, 995.9916
387.3611, 995.1273
389.2896, 998.4066
391.2180, 1005.010
393.1465, 1016.216
395.0750, 1031.690
397.0034, 1052.300
398.9319, 1078.135
400.8604, 1109.865
402.7888, 1150.050
404.7173, 1198.213
406.6458, 1255.199
408.5742, 1322.586
410.5027, 1395.118
412.4312, 1474.294
414.3596, 1554.107
416.2881, 1637.873
418.2166, 1716.887
420.1450, 1778.989
422.0735, 1823.243
424.0020, 1841.179
425.9304, 1830.962
427.8589, 1802.618
429.7874, 1750.966
431.7158, 1691.217
433.6443, 1622.734
435.5728, 1553.006
437.5012, 1486.185
439.4297, 1423.882
441.3582, 1367.641
443.2866, 1317.617
445.2151, 1277.862
447.1436, 1250.773
449.0720, 1228.821
451.0005, 1210.527
452.9290, 1196.767
454.8574, 1192.563
456.7859, 1189.165
458.7144, 1178.564
460.6428, 1161.858
462.5713, 1140.359
464.4998, 1114.031
466.4282, 1086.867
468.3567, 1055.649
470.2852, 1030.959
472.2136, 1013.774
474.1421, 1003.155
476.0706, 998.9629
477.9990, 1001.050
479.9275, 1010.234
481.8560, 1025.074
483.7844, 1042.677
485.7129, 1062.712
487.6414, 1088.571
489.5698, 1119.034
491.4983, 1158.097
493.4268, 1206.026
495.3552, 1262.423
497.2837, 1325.831
499.2122, 1399.412
501.1406, 1485.884
503.0691, 1583.413
504.9976, 1692.368
506.9260, 1812.514
508.8545, 1924.416
510.7830, 2019.486
512.7114, 2126.606
514.6399, 2238.157
516.5684, 2377.890
518.4968, 2561.727
520.4253, 2763.256
522.3538, 2980.414
524.2822, 3195.619
526.2107, 3389.743
528.1392, 3565.051
530.0676, 3728.469
531.9961, 3877.579
533.9246, 4031.651
535.8530, 4188.899
537.7815, 4356.395
539.7100, 4530.396
541.6384, 4725.389
543.5669, 4944.232
545.4954, 5192.081
547.4238, 5466.571
549.3523, 5776.196
551.2808, 6144.378
553.2092, 6561.898
555.1377, 6993.294
557.0662, 7440.254
558.9946, 7823.181
560.9231, 8156.676
562.8516, 8334.007
564.7800, 8346.094
566.7085, 8156.537
568.6370, 7706.066
570.5654, 7123.878
572.4939, 6436.436
574.4224, 5708.150
576.3508, 5004.419
578.2793, 4339.569
580.2078, 3758.867
582.1362, 3260.361
584.0647, 2827.034
585.9932, 2459.823
587.9216, 2147.240
589.8501, 1898.235
591.7786, 1687.202
593.7070, 1513.503
595.6355, 1367.475
597.5640, 1249.774
599.4924, 1152.212
601.4209, 1068.647
603.3494, 998.5226
605.2778, 940.9759
607.2063, 894.7906
609.1348, 854.0062
611.0632, 818.3229
612.9917, 787.8207
614.9202, 763.8687
616.8486, 742.4438
618.7771, 720.7294
620.7056, 704.6628
622.6340, 697.6577
624.5625, 695.1759
626.4910, 693.0887
628.4194, 695.0173
630.3479, 705.2490
632.2764, 722.0890
634.2048, 742.3513
636.1333, 766.0842
638.0618, 794.7511
639.9902, 828.3919
641.9187, 866.9185
643.8472, 906.3307
645.7756, 957.5751
647.7041, 1020.021
649.6326, 1096.528
651.5610, 1187.372
653.4895, 1293.076
655.4180, 1419.736
657.3464, 1555.867
659.2749, 1707.754
661.2034, 1852.526
663.1318, 1962.974
665.0603, 2032.864
666.9888, 2024.982
668.9172, 1935.216
670.8457, 1801.483
672.7742, 1610.835
674.7026, 1428.260
676.6311, 1253.198
678.5596, 1099.252
680.4880, 969.7718
682.4165, 862.2540
684.3450, 780.2181
686.2734, 714.3126
688.2019, 661.5195
690.1304, 618.9825
692.0588, 586.2590
693.9873, 560.7057
695.9158, 537.2850
697.8442, 517.1761
699.7727, 506.4549
701.7012, 504.9923
703.6296, 502.3308
705.5581, 498.1481
707.4866, 498.8697
709.4150, 505.8796
711.3435, 514.1179
713.2720, 524.3782
715.2004, 531.0265
717.1289, 533.4078
719.0574, 529.9316
720.9858, 517.5861
722.9143, 502.2570
724.8428, 485.7172
726.7712, 469.9487
728.6997, 457.1373
730.6282, 446.4130
732.5566, 436.0907
734.4851, 426.7112
736.4136, 420.5607
738.3420, 416.8313
740.2705, 410.8289
742.1990, 402.3449
744.1274, 395.1570
746.0559, 389.8834
747.9844, 384.4494
749.9128, 377.9592
751.8413, 372.6964
753.7698, 370.1244
755.6982, 367.1165
757.6267, 362.2387
759.5552, 357.7644
761.4836, 354.5028
763.4121, 352.2746
765.3406, 351.3770
767.2690, 351.0443
769.1975, 350.8022
771.1260, 350.3998
773.0544, 349.3719
774.9829, 347.9732
776.9114, 346.7312
778.8398, 345.6324
780.7683, 344.6667
782.6968, 343.8264
784.6252, 343.0335
786.5537, 342.3757
788.4822, 341.4520
790.4106, 339.8622
792.3391, 338.8894
794.2676, 338.8635
796.1960, 338.8938
798.1245, 339.2777
800.0530, 338.9293
801.9814, 337.0614
803.9099, 335.2897
805.8384, 333.7326
807.7668, 333.3232
809.6953, 335.7034
811.6238, 338.0526
813.5522, 338.1747
815.4807, 337.4887
817.4092, 336.9007
819.3376, 336.7086
821.2661, 337.7009
823.1946, 339.2480
825.1230, 340.0273
827.0515, 340.1370
828.9800, 339.4535
830.9084, 341.1416
832.8369, 339.6180
834.7654, 343.6824
836.6938, 346.2239
838.6223, 347.1602
840.5508, 348.1745
842.4792, 349.3390
844.4077, 350.9556
846.3362, 353.3010
848.2646, 354.4715
850.1931, 353.7731
852.1216, 352.9867
854.0500, 351.9514
855.9785, 352.4478
857.9070, 356.3181
859.8354, 359.5967
861.7639, 360.3740
863.6924, 361.2128
865.6208, 363.3114
867.5493, 365.5594
869.4778, 366.4445
871.4063, 368.2812
873.3347, 372.8907
875.2632, 379.1316
877.1917, 386.3962
879.1201, 394.2640
881.0486, 401.2699
882.9771, 409.2968
884.9055, 420.5504
886.8340, 435.1789
888.7625, 453.0764
890.6909, 474.7480
892.6194, 500.9237
894.5479, 531.9830
896.4763, 572.4498
898.4048, 618.7950
900.3333, 657.3406
902.2617, 687.1176
904.1902, 702.7799
906.1187, 704.2262
908.0471, 699.3646
909.9756, 687.9031
911.9041, 675.1206
913.8325, 659.3873
915.7610, 649.9407
917.6895, 645.6735
919.6179, 651.4782
921.5464, 665.5508
923.4749, 693.8690
925.4033, 736.3060
927.3318, 793.2059
929.2603, 862.4624
931.1887, 951.4930
933.1172, 1070.761
935.0457, 1190.356
936.9741, 1321.723
938.9026, 1414.651
940.8311, 1462.934
942.7595, 1455.581
944.6880, 1378.310
946.6165, 1267.308
948.5449, 1118.911
950.4734, 974.6486
952.4019, 846.6203
954.3303, 736.9253
956.2588, 647.9231
958.1873, 575.0350
960.1157, 519.0371
962.0442, 473.8939
963.9727, 438.7696
965.9011, 410.3115
967.8296, 387.9664
969.7581, 369.8972
971.6865, 356.2092
973.6150, 344.9003
975.5435, 334.7536
977.4719, 326.2886
979.4004, 320.2178
981.3289, 315.6585
983.2573, 312.0128
985.1858, 309.4061
987.1143, 308.2065
989.0427, 307.8179
990.9712, 307.6644
992.8997, 307.9897
994.8281, 308.1852
996.7566, 309.8720
998.6851, 314.8867
1000.614, 322.3837
1002.542, 331.7499
1004.470, 342.6340
1006.399, 354.4142
1008.327, 367.6277
1010.256, 383.0808
1012.184, 400.2548
1014.113, 419.4393
1016.041, 439.0888
1017.970, 456.3391
1019.898, 473.5493
1021.827, 494.1956
1023.755, 516.4899
1025.684, 541.1985
1027.612, 563.2115
1029.541, 578.6914
1031.469, 584.4537
1033.397, 574.4164
1035.326, 553.5839
1037.254, 524.8246
1039.183, 492.6967
1041.111, 461.2065
1043.040, 431.7591
1044.968, 405.3681
1046.897, 382.7103
1048.825, 365.5451
1050.754, 348.8087
1052.682, 338.2154
1054.611, 327.0062
1056.539, 321.3182
1058.468, 318.7548
1060.396, 316.4419
1062.324, 315.7241
1064.253, 318.8612
1066.181, 323.6498
1068.110, 326.6221
1070.038, 331.1392
1071.967, 340.2110
1073.895, 353.1044
1075.824, 367.3393
1077.752, 387.0677
1079.681, 416.0251
1081.609, 452.3665
1083.538, 496.0218
1085.466, 544.4273
1087.395, 605.8351
1089.323, 658.1417
1091.251, 692.7520
1093.180, 702.0056
1095.108, 673.1883
1097.037, 627.4359
1098.965, 566.9709
1100.894, 508.6277
1102.822, 459.8638
1104.751, 418.7997
1106.679, 385.9179
1108.608, 358.4832
1110.536, 336.1756
1112.465, 317.6702
1114.393, 302.4140
1116.322, 290.9834
1118.250, 284.3695
1120.178, 280.1998
1122.107, 277.9604
1124.035, 277.8567
1125.964, 280.4384
1127.892, 284.1118
1129.821, 288.5825
1131.749, 293.9850
1133.678, 299.7141
1135.606, 308.1881
1137.535, 320.0048
1139.463, 333.4941
1141.392, 347.5640
1143.320, 366.7838
1145.249, 391.0796
1147.177, 424.7125
1149.105, 469.3524
1151.034, 513.9180
1152.962, 558.4957
1154.891, 592.2725
1156.819, 614.6620
1158.748, 609.6399
1160.676, 577.8654
1162.605, 533.2631
1164.533, 478.3493
1166.462, 425.9215
1168.390, 377.5851
1170.319, 339.9909
1172.247, 311.1783
1174.176, 285.4436
1176.104, 263.3524
1178.032, 246.6968
1179.961, 234.0352
1181.889, 223.8210
1183.818, 215.3928
1185.746, 207.8827
1187.675, 201.7588
1189.603, 197.9424
1191.532, 195.1421
1193.460, 192.7419
1195.389, 190.5624
1197.317, 188.6083
1199.246, 186.6267
1201.174, 184.4662
1203.103, 182.2725
1205.031, 179.9529
1206.959, 178.0498
1208.888, 176.8638
1210.816, 175.7016
1212.745, 174.4093
1214.673, 172.9734
1216.602, 171.2256
1218.530, 170.8116
1220.459, 172.0593
1222.387, 172.4943
1224.316, 171.9120
1226.244, 171.2258
1228.173, 170.5238
1230.101, 170.5226
1232.030, 170.9343
1233.958, 169.8816
1235.886, 168.0520
1237.815, 167.5256
1239.743, 167.7166
1241.672, 167.5839
1243.600, 167.3191
1245.529, 167.3456
1247.457, 167.2054
1249.386, 166.1444
1251.314, 165.1224
1253.243, 164.8407
1255.171, 164.8501
1257.100, 164.9370
1259.028, 165.2059
1260.957, 165.8568
1262.885, 166.3757
1264.813, 166.7624
1266.742, 166.6801
1268.670, 167.5472
1270.599, 165.9843
1272.527, 168.4113
1274.456, 169.3139
1276.384, 168.5697
1278.313, 168.1544
1280.241, 168.1122
1282.170, 168.3905
1284.098, 168.9716
1286.027, 169.8579
1287.955, 170.9601
1289.884, 172.4946
1291.812, 173.7229
1293.740, 173.4064
1295.669, 173.0998
1297.597, 174.0194
1299.526, 175.2623
1301.454, 176.6503
1303.383, 177.5597
1305.311, 177.5260
1307.240, 177.6913
1309.168, 178.5105
1311.097, 178.8212
1313.025, 178.4515
1314.954, 177.4667
1316.882, 175.7454
1318.811, 176.7702
1320.739, 179.9046
1322.667, 179.8582
1324.596, 177.8154
1326.524, 176.7499
1328.453, 176.5363
1330.381, 177.3185
1332.310, 178.4093
1334.238, 179.6209
1336.167, 180.1302
1338.095, 178.7617
1340.024, 177.7105
1341.952, 177.6466
1343.881, 178.2646
1345.809, 177.6962
1347.738, 177.6935
1349.666, 177.9156
1351.594, 177.2617
1353.523, 178.0075
1355.451, 178.2090
1357.380, 177.8092
1359.308, 176.6549
1361.237, 175.2600
1363.165, 174.5052
1365.094, 174.2104
1367.022, 174.2523
1368.951, 174.5150
1370.879, 174.9179
1372.808, 175.4897
1374.736, 176.4031
1376.665, 177.1904
1378.593, 177.9438
1380.521, 178.0863
1382.450, 177.5565
1384.378, 176.2932
1386.307, 174.5435
1388.235, 175.7685
1390.164, 178.6909
1392.092, 178.8716
1394.021, 178.0284
1395.949, 178.7141
1397.878, 179.7409
1399.806, 180.0061
1401.735, 180.4217
1403.663, 181.7929
1405.592, 182.7028
1407.520, 182.5226
1409.448, 182.5040
1411.377, 182.9022
1413.305, 183.1238
1415.234, 183.1653
1417.162, 182.6373
1419.091, 181.8131
1421.019, 181.3986
1422.948, 181.5884
1424.876, 183.4887
1426.805, 184.9999
1428.733, 184.3595
1430.662, 183.3562
1432.590, 182.5903
1434.519, 181.9810
1436.447, 181.4989
1438.375, 181.2644
1440.304, 181.2932
1442.232, 180.8210
1444.161, 180.0757
1446.089, 180.6614
1448.018, 179.9636
1449.946, 180.7497
1451.875, 179.5502
1453.803, 179.4031
1455.732, 179.5660
1457.660, 179.8609
1459.589, 179.9646
1461.517, 179.8308
1463.446, 179.2932
1465.374, 178.3593
1467.302, 177.7376
1469.231, 177.4321
1471.159, 177.1744
1473.088, 177.1437
1475.016, 177.9398
1476.945, 178.7435
1478.873, 178.8567
1480.802, 178.6279
1482.730, 177.7641
1484.659, 177.6339
1486.587, 177.3182
1488.516, 176.7175
1490.444, 176.8751
1492.373, 175.7849
1494.301, 175.3369
1496.229, 174.9503
1498.158, 175.1466
1500.086, 177.4775
1502.015, 179.1958
1503.943, 177.7856
1505.872, 176.7384
1507.800, 177.7578
1509.729, 177.5608
1511.657, 175.5699
1513.586, 175.2061
1515.514, 176.2048
1517.443, 177.6322
1519.371, 178.7720
1521.300, 177.9613
1523.228, 176.9984
1525.156, 176.9423
1527.085, 177.4556
1529.013, 176.6134
1530.942, 178.7134
1532.870, 176.3398
1534.799, 175.9057
1536.727, 177.0183
1538.656, 177.3301
1540.584, 177.2153
1542.513, 176.9722
1544.441, 177.0921
1546.370, 178.2318
1548.298, 178.9929
1550.227, 178.8547
1552.155, 178.9698
1554.083, 179.4931
1556.012, 180.9607
1557.940, 180.8132
1559.869, 182.4216
1561.797, 181.5122
1563.726, 182.2751
1565.654, 183.0798
1567.583, 182.3974
1569.511, 182.9527
1571.440, 185.4548
1573.368, 186.9620
1575.297, 187.4511
1577.225, 188.6488
1579.154, 190.3173
1581.082, 191.7398
1583.010, 193.4812
1584.939, 196.6080
1586.867, 199.1819
1588.796, 199.3652
1590.724, 201.7167
1592.653, 206.6226
1594.581, 210.9801
1596.510, 214.8351
1598.438, 218.5503
1600.367, 222.2275
1602.295, 225.5987
1604.224, 229.6237
1606.152, 235.7153
1608.081, 240.4919
1610.009, 243.0477
1611.938, 246.3254
1613.866, 250.0103
1615.794, 251.9879
1617.723, 253.2507
1619.651, 256.2437
1621.580, 257.0778
1623.508, 253.4397
1625.437, 247.8233
1627.365, 240.2569
1629.294, 234.3362
1631.222, 229.6510
1633.151, 222.2059
1635.079, 217.5340
1637.008, 210.6803
1638.936, 206.9740
1640.865, 201.1081
1642.793, 195.7774
1644.721, 191.5546
1646.650, 188.1870
1648.578, 185.3763
1650.507, 181.5362
1652.435, 179.1010
1654.364, 175.8441
1656.292, 174.1865
1658.221, 172.0381
1660.149, 170.1551
1662.078, 168.6528
1664.006, 168.3377
1665.935, 166.8803
1667.863, 167.0348
1669.792, 165.0083
1671.720, 163.7995
1673.648, 162.6192
1675.577, 161.0866
1677.505, 159.8714
1679.434, 159.0907
1681.362, 160.0560
1683.291, 161.4418
1685.219, 160.3400
1687.148, 158.7669
1689.076, 158.0910
1691.005, 157.6823
1692.933, 157.3453
1694.862, 157.8472
1696.790, 158.7630
1698.719, 156.9476
1700.647, 157.4477
1702.575, 155.6662
1704.504, 156.4314
1706.432, 155.4966
1708.361, 154.5899
1710.289, 153.8824
1712.218, 152.7390
1714.146, 151.5782
1716.075, 151.2949
1718.003, 151.6650
1719.932, 153.0048
1721.860, 153.5473
1723.789, 152.7097
1725.717, 151.7250
1727.646, 150.7212
1729.574, 149.7382
1731.502, 149.5031
1733.431, 149.2603
1735.359, 149.0773
1737.288, 149.7875
1739.216, 148.8479
1741.145, 149.5730
1743.073, 148.7224
1745.002, 147.5493
1746.930, 148.2605
1748.859, 148.5458
1750.787, 147.3613
1752.716, 146.7809
1754.644, 147.0069
1756.573, 147.2276
1758.501, 147.2871
1760.429, 146.8149
1762.358, 146.3288
1764.286, 146.3173
1766.215, 145.2773
1768.143, 145.3346
1770.072, 145.2366
1772.000, 144.9318
1773.929, 145.1067
1775.857, 144.7401
1777.786, 143.9966
1779.714, 143.4659
1781.643, 143.2140
1783.571, 143.2240
1785.500, 143.4843
1787.428, 144.2604
1789.356, 144.6941
1791.285, 143.8736
1793.213, 143.4801
1795.142, 143.7511
1797.070, 142.7539
1798.999, 141.3042
1800.927, 141.0052
1802.856, 141.1910
1804.784, 141.7929
1806.713, 141.9432
1808.641, 141.5456
1810.570, 141.3721
1812.498, 141.1913
1814.427, 140.2172
1816.355, 139.8759
1818.283, 141.2768
1820.212, 141.1863
1822.140, 139.3782
1824.069, 138.0297
1825.997, 137.3156
1827.926, 137.7045
1829.854, 138.5826
1831.783, 137.9583
1833.711, 139.6059
1835.640, 137.7873
1837.568, 138.0057
1839.497, 138.4623
1841.425, 136.6273
1843.354, 135.7070
1845.282, 136.4438
1847.210, 136.8647
1849.139, 136.8232
1851.067, 136.0818
1852.996, 135.4070
1854.924, 135.5384
1856.853, 135.1545
1858.781, 134.2624
1860.710, 137.6819
1862.638, 135.2822
1864.567, 137.5175
1866.495, 133.3795
1868.424, 132.4318
1870.352, 132.4110
1872.281, 133.0603
1874.209, 134.5345
1876.137, 135.3058
1878.066, 132.8797
1879.994, 131.4668
1881.923, 132.2713
1883.851, 132.1574
1885.780, 131.3227
1887.708, 130.1851
1889.637, 129.1156
1891.565, 128.0126
1893.494, 128.1375
1895.422, 129.3989
1897.351, 129.5261
1899.279, 129.3448
1901.208, 129.6124
1903.136, 130.2219
1905.064, 129.9737
1906.993, 131.0220
1908.921, 129.8018
1910.850, 128.8823
1912.778, 128.5133
1914.707, 129.0545
1916.635, 128.8085
1918.564, 127.7020
1920.492, 126.2374
1922.421, 125.2671
1924.349, 125.8414
1926.278, 126.4995
1928.206, 126.9325
1930.135, 127.1685
1932.063, 127.2410
1933.991, 127.3278
1935.920, 126.9269
1937.848, 125.7967
1939.777, 125.0067
1941.705, 124.7462
1943.634, 125.4733
1945.562, 126.2978
1947.491, 126.9044
1949.419, 126.1921
1951.348, 124.3752
1953.276, 123.5989
1955.205, 123.3006
1957.133, 122.9834
1959.062, 122.5885
1960.990, 122.6099
1962.918, 122.2885
1964.847, 122.7247
1966.775, 122.6118
1968.704, 122.7780
1970.632, 123.9633
1972.561, 122.7665
1974.489, 120.6275
1976.418, 121.7496
1978.346, 122.7241
1980.275, 121.0382
1982.203, 121.5884
1984.132, 123.6262
1986.060, 122.2394
1987.989, 120.9895
1989.917, 122.6001
1991.845, 122.7910
1993.774, 121.4059
1995.702, 120.9178
1997.631, 120.7536
1999.559, 120.4496
2001.488, 120.3385
2003.416, 120.1230
2005.345, 120.1489
2007.273, 119.7592
2009.202, 119.6978
2011.130, 119.5152
2013.059, 119.0993
2014.987, 118.0307
2016.916, 117.1160
2018.844, 117.8448
2020.772, 118.2617
2022.701, 117.9995
2024.629, 117.8970
2026.558, 117.7508
2028.486, 117.6836
2030.415, 116.6756
2032.343, 117.4190
2034.272, 116.9965
2036.200, 116.3735
2038.129, 117.7615
2040.057, 118.2017
2041.986, 116.9207
2043.914, 116.5373
2045.843, 116.4891
2047.771, 115.4832
2049.699, 114.9305
2051.628, 115.3428
2053.556, 114.7849
2055.485, 113.9017
2057.413, 113.7768
2059.342, 113.7227
2061.270, 113.5087
2063.199, 113.3978
2065.127, 113.2759
2067.056, 112.9352
2068.984, 112.6925
2070.913, 112.7013
2072.841, 112.2727
2074.770, 111.5464
2076.698, 110.4935
2078.626, 109.9546
2080.555, 110.1913
2082.483, 110.6877
2084.412, 110.6707
2086.340, 110.5902
2088.269, 110.7140
2090.197, 110.5958
2092.126, 110.5214
2094.054, 110.2843
2095.983, 109.9869
2097.911, 109.4378
2099.840, 108.6813
2101.768, 108.3178
2103.697, 108.1330
2105.625, 108.0199
2107.553, 107.6364
2109.482, 107.1011
2111.410, 107.1694
2113.339, 107.2711
2115.267, 107.0287
2117.196, 107.2447
2119.124, 107.4551
2121.053, 105.9307
2122.981, 104.6405
2124.910, 104.3739
2126.838, 105.0098
2128.767, 105.9114
2130.695, 106.1903
2132.624, 105.7433
2134.552, 104.5272
2136.480, 104.7747
2138.409, 105.1473
2140.337, 103.3157
2142.266, 103.1745
2144.194, 105.0171
2146.123, 104.6048
2148.051, 103.7730
2149.980, 104.1309
2151.908, 103.2716
2153.837, 103.2745
2155.765, 102.1740
2157.694, 103.0439
2159.622, 103.6077
2161.551, 103.4644
2163.479, 102.8642
2165.407, 101.9426
2167.336, 101.7412
2169.264, 102.5448
2171.193, 102.7419
2173.121, 102.7502
2175.050, 103.0582
2176.978, 102.9525
2178.907, 102.5174
2180.835, 102.9565
2182.764, 103.1192
2184.692, 102.4054
2186.621, 102.2879
2188.549, 102.2647
2190.478, 101.6687
2192.406, 99.88497
2194.334, 100.6012
2196.263, 99.68295
2198.191, 98.63225
2200.120, 99.58401
2202.048, 99.33192
2203.977, 98.11333
2205.905, 97.90558
2207.834, 97.90672
2209.762, 97.70950
2211.691, 97.55054
2213.619, 97.84554
2215.548, 97.57229
2217.476, 97.38641
2219.405, 97.38651
2221.333, 96.69791
2223.261, 96.61610
2225.190, 96.12538
2227.118, 96.09321
2229.047, 96.43792
2230.975, 97.06851
2232.904, 97.32238
2234.832, 96.96844
2236.761, 96.98193
2238.689, 96.86543
2240.618, 96.13114
2242.546, 95.70164
2244.475, 95.60598
2246.403, 95.84587
2248.332, 95.73339
2250.260, 95.06062
2252.188, 95.63963
2254.117, 96.27619
2256.045, 95.73479
2257.974, 94.71949
2259.902, 93.72031
2261.831, 94.42115
2263.759, 94.51954
2265.688, 93.30223
2267.616, 92.76460
2269.545, 92.57906
2271.473, 92.19012
2273.402, 92.61692
2275.330, 93.66989
2277.259, 94.73183
2279.187, 95.01289
2281.115, 94.32740
2283.044, 92.76870
2284.972, 91.62778
2286.901, 92.73721
2288.829, 92.62309
2290.758, 91.82348
2292.686, 92.80885
2294.615, 92.49867
2296.543, 90.09323
2298.472, 91.38798
2300.400, 92.74318
2302.329, 90.76082
2304.257, 90.53299
2306.186, 91.23888
2308.114, 91.08409
2310.042, 90.10088
2311.971, 90.60793
2313.899, 89.42110
2315.828, 90.23434
2317.756, 89.79156
2319.685, 88.77877
2321.613, 88.27596
2323.542, 89.63881
2325.470, 91.06290
2327.399, 92.28688
2329.327, 93.78999
2331.256, 94.19879
2333.184, 93.11930
2335.113, 91.04441
2337.041, 89.05379
2338.969, 87.84924
2340.898, 87.00153
2342.826, 86.77007
2344.755, 86.26416
2346.683, 88.24580
2348.612, 86.28975
2350.540, 87.41769
2352.469, 88.08540
2354.397, 87.09108
2356.326, 87.16600
2358.254, 87.50530
2360.183, 87.55817
2362.111, 86.53879
2364.040, 85.28770
2365.968, 85.46243
2367.896, 85.14060
2369.825, 84.36020
2371.753, 84.83102
2373.682, 85.27542
2375.610, 85.20207
2377.539, 85.72746
2379.467, 85.95773
2381.396, 85.32617
2383.324, 82.65944
2385.253, 80.49911
2387.181, 82.70988
2389.110, 84.11348
2391.038, 84.08947
2392.967, 82.48794
2394.895, 81.11606
2396.823, 80.50944
2398.752, 81.26249
2400.680, 81.98829
2402.609, 82.02123
2404.537, 81.82559
2406.466, 81.54315
2408.394, 81.22054
2410.323, 81.59428
2412.251, 81.01979
2414.180, 81.24730
2416.108, 80.30724
2418.037, 79.51130
2419.965, 79.14315
2421.894, 79.39845
2423.822, 80.13042
2425.750, 80.32251
2427.679, 80.32027
2429.607, 80.29449
2431.536, 80.55861
2433.464, 80.64848
2435.393, 80.22332
2437.321, 78.65276
2439.250, 77.36131
2441.178, 78.73393
2443.107, 79.00793
2445.035, 78.60909
2446.964, 79.36958
2448.892, 80.08475
2450.821, 80.26906
2452.749, 77.83839
2454.677, 76.91148
2456.606, 78.51512
2458.534, 78.94493
2460.463, 78.56841
2462.391, 77.51290
2464.320, 77.28961
2466.248, 77.18372
2468.177, 75.98695
2470.105, 76.99504
2472.034, 76.80061
2473.962, 75.86671
2475.891, 76.40607
2477.819, 77.07048
2479.748, 75.12623
2481.676, 74.27547
2483.604, 74.42580
2485.533, 74.33294
2487.461, 74.08203
2489.390, 73.95967
2491.318, 75.25045
2493.247, 75.46992
2495.175, 74.50239
2497.104, 75.07550
2499.032, 74.69719
2500.961, 72.93781
2502.889, 74.22531
2504.818, 74.57769
2506.746, 72.07951
2508.675, 70.98092
2510.603, 71.12638
2512.531, 72.82051
2514.460, 73.02036
2516.388, 72.53430
2518.317, 71.74019
2520.245, 72.28921
2522.174, 73.33856
2524.102, 74.11420
2526.031, 74.30672
2527.959, 73.89443
2529.888, 72.77194
2531.816, 71.93284
2533.745, 71.83833
2535.673, 70.95641
2537.602, 71.01338
2539.530, 70.19492
2541.458, 70.92020
2543.387, 71.22916
2545.315, 70.86488
2547.244, 70.24213
2549.172, 70.13716
2551.101, 70.55921
2553.029, 71.47075
2554.958, 71.31398
2556.886, 70.66850
2558.815, 72.99847
2560.743, 73.51048
2562.672, 72.15039
2564.600, 72.36787
2566.529, 73.42195
2568.457, 74.48418
2570.385, 73.04414
2572.314, 71.79477
2574.242, 71.30418
2576.171, 70.94191
2578.099, 70.65164
2580.028, 70.36380
2581.956, 69.97680
2583.885, 68.75987
2585.813, 68.54054
2587.742, 67.30821
2589.670, 67.60828
2591.599, 67.14656
2593.527, 66.99571
2595.456, 66.92329
2597.384, 66.86290
2599.313, 66.52853
2601.241, 66.20778
2603.169, 65.78593
2605.098, 65.30747
2607.026, 64.77693
2608.955, 64.32395
2610.883, 65.64378
2612.812, 66.83675
2614.740, 67.21957
2616.669, 66.09303
2618.597, 65.36100
2620.526, 65.27849
2622.454, 64.72562
2624.383, 63.45513
2626.311, 63.69566
2628.240, 62.86976
2630.168, 63.37794
2632.096, 63.14314
2634.025, 62.63944
2635.953, 62.50449
2637.882, 62.57809
2639.810, 62.13531
2641.739, 61.47656
2643.667, 61.06260
2645.596, 61.85474
2647.524, 62.61091
2649.453, 62.99958
2651.381, 62.77374
2653.310, 62.16016
2655.238, 61.66695
2657.167, 62.12873
2659.095, 62.19131
2661.023, 61.54890
2662.952, 59.75967
2664.880, 60.30379
2666.809, 61.21117
2668.737, 60.27324
2670.666, 61.15563
2672.594, 61.58722
2674.523, 59.74818
2676.451, 59.10584
2678.380, 58.62704
2680.308, 57.67057
2682.237, 57.20257
2684.165, 56.75298
2686.094, 56.54212
2688.022, 56.49241
2689.950, 57.31528
2691.879, 58.28552
2693.807, 58.87824
2695.736, 57.80099
2697.664, 58.14260
2699.593, 56.55877
2701.521, 57.37766
2703.450, 57.63867
2705.378, 57.53541
2707.307, 55.82391
2709.235, 56.23837
2711.164, 55.24130
2713.092, 55.77025
2715.021, 55.72149
2716.949, 55.51384
2718.877, 55.21709
2720.806, 55.09931
2722.734, 55.49660
2724.663, 54.53738
2726.591, 53.79390
2728.520, 54.09813
2730.448, 53.69167
2732.377, 53.62344
2734.305, 54.00441
2736.234, 53.10212
2738.162, 52.29217
2740.091, 51.99104
2742.019, 52.74289
2743.948, 52.81196
2745.876, 52.40021
2747.804, 52.13590
2749.733, 52.16973
2751.661, 52.20047
2753.590, 51.93235
2755.518, 52.61568
2757.447, 52.37371
2759.375, 50.47313
2761.304, 50.42125
2763.232, 50.83473
2765.161, 51.19634
2767.089, 51.94247
2769.018, 51.85036
2770.946, 51.05462
2772.875, 50.33166
2774.803, 49.75169
2776.731, 49.09905
2778.660, 47.78321
2780.588, 48.57952
2782.517, 48.64349
2784.445, 48.39379
2786.374, 47.13307
2788.302, 48.39555
2790.231, 47.36539
2792.159, 47.06054
2794.088, 47.20223
2796.016, 47.36752
2797.945, 46.61033
2799.873, 46.76656
2801.802, 46.93891
2803.730, 45.90870
2805.658, 47.52879
2807.587, 48.01962
2809.515, 45.72597
2811.444, 46.16883
2813.372, 46.57767
2815.301, 46.01627
2817.229, 44.55085
2819.158, 44.10926
2821.086, 44.46146
2823.015, 44.78204
2824.943, 45.31023
2826.872, 45.23572
2828.800, 43.94842
2830.729, 45.32102
2832.657, 45.43828
2834.585, 43.65582
2836.514, 43.75422
2838.442, 43.52610
2840.371, 42.97317
2842.299, 42.82560
2844.228, 42.48004
2846.156, 42.31914
2848.085, 42.73040
2850.013, 42.79687
2851.942, 41.99488
2853.870, 40.66503
2855.799, 41.38799
2857.727, 41.29884
2859.656, 41.09864
2861.584, 42.54588
2863.512, 41.65451
2865.441, 40.87499
2867.369, 41.56001
2869.298, 40.65048
2871.226, 39.56112
2873.155, 39.13251
2875.083, 38.94709
2877.012, 40.50568
2878.940, 39.52068
2880.869, 40.35328
2882.797, 41.44259
2884.726, 41.59010
2886.654, 40.55374
2888.583, 40.75506
2890.511, 38.80920
2892.439, 39.70021
2894.368, 38.61947
2896.296, 38.11715
2898.225, 38.24145
2900.153, 38.87854
2902.082, 37.92138
2904.010, 38.34186
2905.939, 39.29659
2907.867, 37.19433
2909.796, 36.87897
2911.724, 37.56875
2913.653, 38.22666
2915.581, 39.21718
2917.510, 38.50394
2919.438, 36.45693
2921.366, 35.69769
2923.295, 36.62020
2925.223, 37.54762
2927.152, 37.19281
2929.080, 37.30110
2931.009, 36.71394
2932.937, 35.80771
2934.866, 37.56646
2936.794, 37.23823
2938.723, 36.62022
2940.651, 37.77295
2942.580, 36.17253
2944.508, 35.30428
2946.437, 35.83008
2948.365, 36.30277
2950.293, 36.81165
2952.222, 36.72903
2954.150, 37.13433
2956.079, 36.63662
2958.007, 37.19810
2959.936, 36.49707
2961.864, 35.79667
2963.793, 35.21991
2965.721, 35.40149
2967.650, 36.75734
2969.578, 35.61588
2971.507, 36.16075
2973.435, 32.96321
2975.364, 35.76614
2977.292, 34.33376
2979.220, 33.56557
2981.149, 36.00094
2983.077, 36.31450
2985.006, 35.07161
2986.934, 33.86340
2988.863, 34.54185
2990.791, 33.58815
2992.720, 33.79415
2994.648, 35.31400
2996.577, 34.35412
2998.505, 34.50039
3000.434, 34.75601
3002.362, 33.90132
3004.291, 33.05259
3006.219, 32.69019
3008.147, 33.00521
3010.076, 32.47038
3012.004, 33.12060
3013.933, 32.39535
3015.861, 34.28700
3017.790, 34.87661
3019.718, 33.43142
3021.647, 32.08474
3023.575, 33.02811
3025.504, 33.99319
3027.432, 33.73240
3029.361, 32.91103
3031.289, 33.67164
3033.218, 33.00359
3035.146, 31.75510
3037.074, 31.71276
3039.003, 31.94566
3040.931, 31.35130
3042.860, 33.10746
3044.788, 31.59715
3046.717, 31.59829
3048.645, 32.94786
3050.574, 34.27201
3052.502, 33.25874
3054.431, 32.34341
3056.359, 31.45092
3058.288, 30.83540
3060.216, 31.84220
3062.145, 31.57961
3064.073, 31.22148
3066.001, 31.63126
3067.930, 30.98488
3069.858, 31.81763
3071.787, 32.58640
3073.715, 30.96418
3075.644, 30.45763
3077.572, 30.54068
3079.501, 30.52892
3081.429, 29.56530
3083.358, 29.97870
3085.286, 29.98780
3087.215, 28.79810
3089.143, 29.16221
3091.072, 28.82162
3093.000, 28.96695
3094.928, 28.82722
3096.857, 29.03912
3098.785, 29.32391
3100.714, 30.03118
3102.642, 31.03570
3104.571, 29.45815
3106.499, 29.68944
3108.428, 31.02256
3110.356, 31.71952
3112.285, 29.40683
3114.213, 28.51647
3116.142, 29.10891
3118.070, 29.84738
3119.999, 29.52319
3121.927, 29.09784
3123.855, 28.80179
3125.784, 28.55553
3127.712, 27.85594
3129.641, 27.74981
3131.569, 28.12933
3133.498, 27.91201
3135.426, 28.29499
3137.355, 28.57004
3139.283, 28.37128
3141.212, 27.68594
3143.140, 27.49947
3145.069, 27.32700
3146.997, 27.01699
3148.926, 27.03848
3150.854, 26.88156
3152.782, 26.85424
3154.711, 26.75926
3156.639, 24.57034
3158.568, 26.42766
3160.496, 27.93988
3162.425, 27.03853
3164.353, 25.60837
3166.282, 26.07015
3168.210, 26.72801
3170.139, 26.56880
3172.067, 26.09163
3173.996, 26.17957
3175.924, 26.35744
3177.853, 26.11135
3179.781, 24.47015
3181.709, 24.15966
3183.638, 24.68686
3185.566, 25.16351
3187.495, 24.03736
3189.423, 24.28148
3191.352, 24.80500
3193.280, 25.04338
3195.209, 25.97322
3197.137, 24.79150
3199.066, 24.44060
3200.994, 25.05145
3202.923, 22.19879
3204.851, 22.12303
3206.780, 22.40657
3208.708, 22.39216
3210.636, 23.92524
3212.565, 23.65234
3214.493, 21.89561
3216.422, 20.39949
3218.350, 22.17764
3220.279, 22.05182
3222.207, 23.13416
3224.136, 24.14839
3226.064, 23.70749
3227.993, 21.57270
3229.921, 22.63873
3231.850, 22.82738
3233.778, 21.13907
3235.707, 21.53136
3237.635, 22.77445
3239.563, 23.01838
3241.492, 21.36593
3243.420, 22.10636
3245.349, 21.84951
3247.277, 21.38020
3249.206, 21.53473
3251.134, 22.41688
3253.063, 20.59349
3254.991, 19.96483
3256.920, 21.50249
3258.848, 22.49566
3260.777, 21.59018
3262.705, 21.16722
3264.634, 21.61503
3266.562, 22.11092
3268.490, 22.64323
3270.419, 23.77630
3272.347, 23.69107
3274.276, 20.87799
3276.204, 20.79291
3278.133, 21.01800
3280.061, 20.96844
3281.990, 21.11427
3283.918, 21.37804
3285.847, 21.46086
3287.775, 21.81023
3289.704, 22.15444
3291.632, 22.08393
3293.561, 22.62752
3295.489, 21.94654
3297.417, 22.41407
3299.346, 23.09405
3301.274, 22.73493
3303.203, 21.93074
3305.131, 22.88021
3307.060, 22.38236
3308.988, 22.52701
3310.917, 22.34115
3312.845, 22.38682
3314.774, 22.10047
3316.702, 22.56981
3318.631, 21.40689
3320.559, 21.18917
3322.488, 21.92934
3324.416, 22.82974
3326.344, 23.07741
3328.273, 21.11231
3330.201, 20.58860
3332.130, 22.00365
3334.058, 22.18244
3335.987, 22.06408
3337.915, 22.34362
3339.844, 22.68512
3341.772, 22.55413
3343.701, 22.84099
3345.629, 22.53427
3347.558, 22.26311
3349.486, 21.78628
3351.415, 21.43115
3353.343, 21.13664
3355.271, 20.75784
3357.200, 20.47839
3359.128, 20.43826
3361.057, 20.20177
3362.985, 21.43213
3364.914, 21.04144
3366.842, 19.68622
3368.771, 21.23664
3370.699, 20.66333
3372.628, 21.23783
3374.556, 21.60040
3376.485, 20.50722
3378.413, 20.19479
3380.342, 20.04622
3382.270, 19.42422
3384.198, 19.19487
3386.127, 20.68085
3388.055, 20.46805
3389.984, 20.21519
3391.912, 19.97395
3393.841, 19.73813
3395.769, 19.78694
3397.698, 19.90941
3399.626, 19.99557
3401.555, 20.02968
3403.483, 20.16867
3405.412, 20.12158
3407.340, 19.64451
3409.269, 19.69830
3411.197, 19.26383
3413.125, 19.64975
3415.054, 18.43721
3416.982, 20.06303
3418.911, 20.72097
3420.839, 20.01544
3422.768, 18.16373
3424.696, 18.55777
3426.625, 19.00606
3428.553, 19.13344
3430.482, 19.25263
3432.410, 20.01735
3434.339, 19.25827
3436.267, 17.46855
3438.196, 16.77216
3440.124, 17.67870
3442.052, 17.45404
3443.981, 16.86417
3445.909, 16.76657
3447.838, 17.40934
3449.766, 18.36655
3451.695, 18.06646
3453.623, 17.22309
3455.552, 17.01984
##END=



