##NAMES=Stolzite
##RRUFFID=R070552
##IDEAL CHEMISTRY=Pb(WO_4_)
##LOCALITY=Kangaloolah, Tuena, Georgiana County, New South Wales, Australia
##OWNER=RRUFF
##SOURCE=James Shigley
##DESCRIPTION=Colorless to light tan dipyramidal crystals
##STATUS=The identification of this mineral has been confirmed by single-crystal X-ray diffraction
##URL=https://www.rruff.net/odr/rruff_sample/R070552
##DIFFRACTION SAMPLE DESCRIPTION=Single crystal, powder profile is calculated
##CELL PARAMETERS=a: 5.47 b: 5.47 c: 12.073 alpha: 90 beta: 90 gamma: 90 volume: 361.3 crystal system: tetragonal
##FILETYPE=Raman RAW
##RAMAN WAVELENGTH=532

95.39739, 17.21380
97.32586, 19.77608
99.25433, 26.59374
101.1828, 31.99027
103.1113, 34.89016
105.0397, 37.19647
106.9682, 40.42159
108.8967, 44.70345
110.8251, 49.63868
112.7536, 55.31567
114.6821, 62.01826
116.6105, 69.20353
118.5390, 74.87349
120.4675, 81.18095
122.3959, 91.62070
124.3244, 108.4008
126.2529, 127.4299
128.1813, 146.3793
130.1098, 164.1481
132.0383, 189.1866
133.9667, 222.8839
135.8952, 264.5960
137.8237, 313.3889
139.7521, 374.1039
141.6806, 436.9593
143.6091, 496.6401
145.5375, 547.6579
147.4660, 601.7292
149.3945, 634.8132
151.3229, 661.8196
153.2514, 697.2272
155.1799, 742.6746
157.1083, 793.2435
159.0368, 846.6802
160.9653, 904.0940
162.8937, 962.5903
164.8222, 1024.481
166.7507, 1088.920
168.6791, 1152.236
170.6076, 1225.537
172.5361, 1288.670
174.4645, 1330.266
176.3930, 1352.645
178.3215, 1356.289
180.2499, 1336.500
182.1784, 1296.643
184.1069, 1258.284
186.0353, 1227.486
187.9638, 1195.706
189.8923, 1157.633
191.8207, 1117.644
193.7492, 1067.295
195.6777, 1002.455
197.6061, 923.5862
199.5346, 846.1793
201.4631, 766.4354
203.3915, 691.2750
205.3200, 624.0576
207.2484, 565.7397
209.1769, 513.0046
211.1054, 466.5264
213.0338, 425.6973
214.9623, 387.0709
216.8908, 348.2436
218.8192, 313.8724
220.7477, 287.7564
222.6762, 271.3990
224.6046, 258.0594
226.5331, 247.8382
228.4616, 240.8017
230.3900, 235.5545
232.3185, 232.4124
234.2470, 230.6289
236.1754, 230.5513
238.1039, 232.6472
240.0324, 233.9662
241.9608, 232.7538
243.8893, 229.7718
245.8178, 228.9479
247.7462, 232.4770
249.6747, 236.0043
251.6032, 236.5298
253.5316, 233.3305
255.4601, 232.5694
257.3886, 236.5433
259.3170, 244.2209
261.2455, 250.6949
263.1740, 253.4624
265.1024, 257.3512
267.0309, 264.8083
268.9594, 276.5760
270.8878, 288.7633
272.8163, 299.7437
274.7448, 311.6464
276.6732, 326.6441
278.6017, 344.3194
280.5302, 364.9677
282.4586, 387.1873
284.3871, 411.1541
286.3156, 443.9621
288.2440, 488.0937
290.1725, 539.9028
292.1010, 594.9514
294.0294, 654.9153
295.9579, 717.0900
297.8864, 776.9071
299.8148, 834.0947
301.7433, 906.0490
303.6718, 995.0034
305.6003, 1099.526
307.5287, 1215.948
309.4572, 1347.980
311.3857, 1489.473
313.3141, 1640.284
315.2426, 1800.749
317.1711, 1971.214
319.0995, 2176.950
321.0280, 2365.704
322.9565, 2519.939
324.8849, 2635.337
326.8134, 2706.753
328.7419, 2712.535
330.6703, 2676.111
332.5988, 2629.163
334.5273, 2567.349
336.4557, 2499.143
338.3842, 2428.044
340.3127, 2354.441
342.2411, 2267.019
344.1696, 2153.196
346.0981, 2033.437
348.0265, 1924.171
349.9550, 1837.304
351.8835, 1748.488
353.8119, 1649.298
355.7404, 1546.143
357.6689, 1455.039
359.5973, 1383.946
361.5258, 1319.227
363.4543, 1254.274
365.3827, 1183.456
367.3112, 1120.311
369.2397, 1068.283
371.1681, 1024.041
373.0966, 982.8773
375.0251, 947.7684
376.9535, 912.2800
378.8820, 872.0144
380.8105, 829.6960
382.7389, 796.4277
384.6674, 778.2477
386.5959, 764.9185
388.5243, 750.0498
390.4528, 732.1588
392.3812, 714.9445
394.3097, 697.0599
396.2382, 680.1497
398.1666, 668.0046
400.0951, 664.5594
402.0236, 660.8065
403.9520, 652.0900
405.8805, 636.5060
407.8090, 627.0372
409.7374, 628.3704
411.6659, 632.8894
413.5944, 634.6206
415.5228, 632.8615
417.4513, 630.8468
419.3798, 627.9385
421.3082, 622.8691
423.2367, 619.1290
425.1652, 618.4647
427.0936, 618.7927
429.0221, 616.9500
430.9506, 612.1664
432.8790, 606.0067
434.8075, 599.4160
436.7360, 592.8547
438.6644, 586.0335
440.5929, 579.7355
442.5214, 572.0262
444.4498, 560.1868
446.3783, 544.7838
448.3068, 532.3849
450.2352, 525.5648
452.1637, 520.4755
454.0922, 515.1843
456.0206, 509.6798
457.9491, 502.8329
459.8776, 493.3221
461.8060, 482.9954
463.7345, 473.5031
465.6630, 465.4908
467.5914, 457.0924
469.5199, 446.3868
471.4484, 435.3290
473.3768, 427.1929
475.3053, 426.2031
477.2338, 423.8516
479.1622, 416.6271
481.0907, 405.5433
483.0192, 398.2680
484.9476, 396.4957
486.8761, 394.9829
488.8046, 393.9106
490.7330, 394.8831
492.6615, 394.8984
494.5900, 390.3303
496.5184, 383.2561
498.4469, 378.6269
500.3754, 378.2389
502.3038, 378.5277
504.2323, 377.4536
506.1608, 375.3627
508.0892, 373.3914
510.0177, 370.1546
511.9462, 367.9878
513.8746, 368.9707
515.8031, 372.5732
517.7316, 374.3035
519.6600, 372.2263
521.5885, 370.7490
523.5170, 372.0652
525.4454, 376.5978
527.3739, 380.8059
529.3024, 383.3803
531.2308, 385.2506
533.1593, 388.6329
535.0878, 395.4850
537.0162, 404.9540
538.9447, 414.3668
540.8732, 422.0586
542.8016, 426.1608
544.7301, 426.1938
546.6586, 425.1824
548.5870, 426.5643
550.5155, 431.8542
552.4440, 438.0270
554.3724, 441.0150
556.3009, 444.2342
558.2294, 449.6553
560.1578, 456.6612
562.0863, 462.0709
564.0148, 469.4303
565.9432, 478.6153
567.8717, 488.3455
569.8002, 493.4604
571.7286, 503.1122
573.6571, 520.3479
575.5856, 540.4930
577.5140, 555.8238
579.4425, 562.7847
581.3710, 568.6982
583.2994, 576.1053
585.2279, 586.2704
587.1564, 601.6050
589.0848, 625.2858
591.0133, 646.1791
592.9418, 659.7773
594.8702, 668.4925
596.7987, 683.8024
598.7272, 701.4298
600.6556, 716.0896
602.5841, 725.9205
604.5126, 738.6385
606.4410, 756.0696
608.3695, 774.7181
610.2980, 792.1819
612.2264, 808.0946
614.1549, 823.0733
616.0834, 836.6578
618.0118, 848.4724
619.9403, 860.5364
621.8688, 876.7327
623.7972, 893.0180
625.7257, 906.7622
627.6542, 921.1890
629.5826, 939.2910
631.5111, 957.7983
633.4396, 969.1108
635.3680, 978.9158
637.2965, 990.3878
639.2250, 1002.775
641.1534, 1008.104
643.0819, 1006.323
645.0104, 1008.303
646.9388, 1018.588
648.8673, 1033.732
650.7958, 1043.915
652.7242, 1049.615
654.6527, 1050.622
656.5812, 1044.418
658.5096, 1035.403
660.4381, 1028.071
662.3666, 1021.127
664.2950, 1012.180
666.2235, 1000.699
668.1520, 990.0759
670.0804, 977.5071
672.0089, 961.5399
673.9374, 944.9755
675.8658, 930.6625
677.7943, 917.7594
679.7228, 901.8438
681.6512, 881.8989
683.5797, 861.2678
685.5082, 843.1186
687.4366, 824.4553
689.3651, 805.5098
691.2936, 785.8028
693.2220, 769.8595
695.1505, 756.7245
697.0790, 743.7203
699.0074, 731.3051
700.9359, 720.1146
702.8644, 708.9569
704.7928, 696.0194
706.7213, 680.5017
708.6498, 669.6141
710.5782, 667.9312
712.5067, 672.2507
714.4352, 676.3209
716.3636, 672.8541
718.2921, 668.8835
720.2206, 664.6917
722.1490, 668.6873
724.0775, 679.1250
726.0060, 694.0240
727.9344, 711.8947
729.8629, 733.7423
731.7914, 761.0608
733.7198, 792.4984
735.6483, 829.7661
737.5768, 872.0739
739.5052, 915.6246
741.4337, 965.3058
743.3622, 1028.530
745.2906, 1112.895
747.2191, 1190.686
749.1476, 1256.612
751.0760, 1311.786
753.0045, 1360.211
754.9330, 1405.553
756.8615, 1440.216
758.7899, 1464.664
760.7183, 1473.956
762.6468, 1462.855
764.5753, 1428.076
766.5037, 1381.649
768.4322, 1324.809
770.3607, 1253.224
772.2891, 1174.907
774.2176, 1083.295
776.1461, 994.7217
778.0745, 912.4903
780.0030, 837.8300
781.9315, 770.1136
783.8599, 711.2020
785.7884, 657.0791
787.7169, 605.6074
789.6453, 553.9330
791.5738, 510.8414
793.5023, 477.1085
795.4307, 449.8735
797.3592, 429.9217
799.2877, 416.1782
801.2161, 401.9508
803.1446, 384.1496
805.0731, 369.2218
807.0015, 361.0737
808.9300, 360.6044
810.8585, 357.6659
812.7869, 347.1474
814.7154, 339.3052
816.6439, 340.8053
818.5723, 350.1727
820.5008, 355.8762
822.4293, 354.1659
824.3577, 352.3281
826.2862, 353.9954
828.2147, 359.2335
830.1431, 363.4547
832.0716, 365.9086
834.0001, 368.5981
835.9285, 371.8069
837.8570, 374.7667
839.7855, 379.4502
841.7139, 384.5498
843.6424, 393.2871
845.5709, 403.4389
847.4993, 413.7161
849.4278, 441.2786
851.3563, 495.9500
853.2847, 563.1544
855.2132, 637.5925
857.1417, 723.1850
859.0701, 798.5868
860.9986, 852.9077
862.9271, 910.6000
864.8555, 974.0491
866.7840, 1052.240
868.7125, 1165.499
870.6409, 1330.083
872.5694, 1508.499
874.4979, 1697.104
876.4263, 1899.453
878.3548, 2122.382
880.2833, 2350.031
882.2117, 2628.717
884.1402, 2978.872
886.0687, 3397.924
887.9971, 3868.037
889.9256, 4346.495
891.8541, 4919.777
893.7825, 5645.935
895.7110, 6494.920
897.6395, 7467.047
899.5679, 8769.657
901.4964, 9823.619
903.4249, 10348.76
905.3533, 10427.86
907.2818, 10325.82
909.2103, 10108.74
911.1387, 9720.795
913.0672, 9018.810
914.9957, 8046.246
916.9241, 7126.471
918.8526, 6164.565
920.7811, 5246.712
922.7095, 4474.844
924.6380, 3881.885
926.5665, 3255.577
928.4949, 2670.675
930.4234, 2191.334
932.3519, 1818.836
934.2803, 1526.194
936.2088, 1297.202
938.1373, 1116.497
940.0657, 961.1274
941.9942, 833.4416
943.9227, 721.8984
945.8511, 619.6227
947.7796, 533.4426
949.7081, 463.6193
951.6365, 409.7355
953.5650, 365.5695
955.4935, 337.4281
957.4219, 320.2049
959.3504, 306.2812
961.2789, 293.9244
963.2073, 283.5796
965.1358, 279.9680
967.0643, 278.0308
968.9927, 272.7099
970.9212, 264.6098
972.8497, 257.8721
974.7781, 253.5442
976.7066, 251.7036
978.6351, 253.5116
980.5635, 257.7020
982.4920, 259.6210
984.4205, 255.7109
986.3489, 252.0532
988.2774, 252.3297
990.2059, 257.3634
992.1343, 261.3855
994.0628, 260.7660
995.9913, 254.2538
997.9197, 248.8896
999.8482, 248.5889
1001.777, 249.5575
1003.705, 248.8181
1005.634, 244.3050
1007.562, 240.9250
1009.491, 240.0979
1011.419, 239.2789
1013.347, 237.1671
1015.276, 234.4722
1017.204, 232.7070
1019.133, 233.1247
1021.061, 234.4656
1022.990, 235.5537
1024.918, 235.6959
1026.847, 234.8751
1028.775, 233.5997
1030.704, 232.6448
1032.632, 233.2169
1034.561, 235.2578
1036.489, 237.4012
1038.417, 237.3539
1040.346, 235.5758
1042.274, 233.1524
1044.203, 231.3113
1046.131, 230.0903
1048.060, 228.4304
1049.988, 225.4671
1051.917, 224.7995
1053.845, 225.5178
1055.774, 224.7531
1057.702, 220.2676
1059.631, 215.7500
1061.559, 216.0367
1063.488, 216.4384
1065.416, 212.1169
1067.344, 203.4548
1069.273, 195.9751
1071.201, 190.9441
1073.130, 187.4377
1075.058, 187.4710
1076.987, 189.6080
1078.915, 190.2897
1080.844, 187.6782
1082.772, 186.7989
1084.701, 186.0393
1086.629, 183.6013
1088.558, 180.6031
1090.486, 178.7827
1092.415, 177.2968
1094.343, 174.3386
1096.271, 172.7052
1098.200, 174.4898
1100.128, 178.7652
1102.057, 181.1266
1103.985, 180.6992
1105.914, 179.3226
1107.842, 176.0072
1109.771, 171.0066
1111.699, 167.0597
1113.628, 165.0813
1115.556, 164.4636
1117.485, 166.2377
1119.413, 168.7171
1121.342, 169.2324
1123.270, 166.5574
1125.198, 164.5178
1127.127, 165.2045
1129.055, 166.1027
1130.984, 163.1100
1132.912, 156.5289
1134.841, 152.5209
1136.769, 154.1755
1138.698, 156.3794
1140.626, 155.7800
1142.555, 153.6909
1144.483, 152.7282
1146.412, 153.1540
1148.340, 153.5937
1150.269, 155.0087
1152.197, 155.9297
1154.125, 155.4440
1156.054, 153.2131
1157.982, 152.1345
1159.911, 151.9204
1161.839, 152.0029
1163.768, 153.0009
1165.696, 154.6967
1167.625, 154.9001
1169.553, 152.3790
1171.482, 150.5156
1173.410, 151.6670
1175.339, 152.8367
1177.267, 151.7117
1179.196, 147.7457
1181.124, 145.0124
1183.052, 144.3434
1184.981, 143.8520
1186.909, 142.1595
1188.838, 139.2872
1190.766, 136.9463
1192.695, 134.7684
1194.623, 132.9231
1196.552, 133.4534
1198.480, 135.5521
1200.409, 134.6501
1202.337, 129.4891
1204.266, 126.0954
1206.194, 127.9674
1208.123, 130.4426
1210.051, 130.2240
1211.979, 127.3509
1213.908, 124.5307
1215.836, 121.6819
1217.765, 119.6373
1219.693, 118.7001
1221.622, 118.1971
1223.550, 117.6376
1225.479, 117.2866
1227.407, 116.7713
1229.336, 115.2243
1231.264, 113.5407
1233.193, 113.1930
1235.121, 114.7116
1237.050, 115.2106
1238.978, 114.2439
1240.906, 112.5235
1242.835, 109.9822
1244.763, 107.3681
1246.692, 105.4674
1248.620, 104.3195
1250.549, 103.9758
1252.477, 105.7662
1254.406, 107.1265
1256.334, 106.0152
1258.263, 102.2711
1260.191, 100.0044
1262.120, 100.0850
1264.048, 100.7765
1265.977, 102.8502
1267.905, 104.9099
1269.833, 104.1867
1271.762, 97.92831
1273.690, 94.92064
1275.619, 99.21188
1277.547, 103.1295
1279.476, 100.6928
1281.404, 93.63218
1283.333, 90.78181
1285.261, 94.30681
1287.190, 97.31236
1289.118, 97.32154
1291.047, 95.98476
1292.975, 94.89166
1294.904, 93.94326
1296.832, 92.08373
1298.760, 88.02591
1300.689, 84.92665
1302.617, 83.97768
1304.546, 84.66911
1306.474, 86.05858
1308.403, 89.03270
1310.331, 90.49750
1312.260, 88.74207
1314.188, 87.00988
1316.117, 87.80469
1318.045, 90.23579
1319.974, 90.01215
1321.902, 85.02231
1323.831, 81.36887
1325.759, 80.95113
1327.688, 81.78108
1329.616, 81.84266
1331.544, 81.14477
1333.473, 80.66756
1335.401, 80.71755
1337.330, 81.02207
1339.258, 81.39298
1341.187, 81.83298
1343.115, 82.50713
1345.044, 83.19101
1346.972, 83.49476
1348.901, 82.99726
1350.829, 82.63242
1352.758, 83.01534
1354.686, 84.08723
1356.615, 84.38264
1358.543, 83.12189
1360.471, 82.27242
1362.400, 82.74795
1364.328, 83.82829
1366.257, 84.73457
1368.185, 84.03480
1370.114, 83.34247
1372.042, 84.29361
1373.971, 85.09058
1375.899, 84.85072
1377.828, 84.48471
1379.756, 85.45811
1381.685, 87.33202
1383.613, 87.81571
1385.542, 85.37080
1387.470, 83.13941
1389.398, 83.12526
1391.327, 84.42239
1393.255, 83.96188
1395.184, 80.77172
1397.112, 79.32292
1399.041, 82.54815
1400.969, 85.42684
1402.898, 84.13565
1404.826, 80.50438
1406.755, 79.20616
1408.683, 81.03616
1410.612, 82.99580
1412.540, 86.22557
1414.469, 87.83393
1416.397, 84.91517
1418.325, 79.16760
1420.254, 76.82591
1422.182, 78.89616
1424.111, 80.81452
1426.039, 83.04992
1427.968, 85.09850
1429.896, 86.84877
1431.825, 88.09774
1433.753, 87.98364
1435.682, 83.09349
1437.610, 80.35292
1439.539, 81.43948
1441.467, 83.48974
1443.396, 85.14433
1445.324, 86.82036
1447.252, 87.98026
1449.181, 86.74992
1451.109, 86.11337
1453.038, 89.03359
1454.966, 91.50079
1456.895, 89.19381
1458.823, 83.98373
1460.752, 83.13725
1462.680, 87.81628
1464.609, 90.55793
1466.537, 87.92027
1468.466, 84.80413
1470.394, 84.84851
1472.323, 87.04371
1474.251, 88.28511
1476.179, 88.10942
1478.108, 88.25639
1480.036, 89.79253
1481.965, 91.47874
1483.893, 92.44737
1485.822, 92.63053
1487.750, 92.11417
1489.679, 90.45662
1491.607, 90.57499
1493.536, 95.16418
1495.464, 98.46101
1497.393, 96.25214
1499.321, 90.87327
1501.250, 90.86221
1503.178, 99.07712
1505.106, 103.4412
1507.035, 99.32780
1508.963, 95.15568
1510.892, 95.34231
1512.820, 98.00194
1514.749, 98.67995
1516.677, 97.16209
1518.606, 95.62441
1520.534, 91.92477
1522.463, 89.98695
1524.391, 93.47074
1526.320, 99.20547
1528.248, 100.3987
1530.177, 94.74039
1532.105, 90.25919
1534.033, 87.64660
1535.962, 87.05870
1537.890, 90.15598
1539.819, 93.77845
1541.747, 92.94086
1543.676, 86.66650
1545.604, 83.19974
1547.533, 84.03261
1549.461, 85.69592
1551.390, 89.41651
1553.318, 92.65526
1555.247, 91.21708
1557.175, 85.33216
1559.104, 82.10187
1561.032, 82.44133
1562.960, 84.50865
1564.889, 89.82199
1566.817, 94.46612
1568.746, 95.31281
1570.674, 93.40303
1572.603, 92.14769
1574.531, 91.74570
1576.460, 91.47189
1578.388, 90.65208
1580.317, 90.03226
1582.245, 90.65652
1584.174, 92.17113
1586.102, 93.71453
1588.031, 95.20616
1589.959, 95.23489
1591.887, 92.39266
1593.816, 90.52870
1595.744, 92.00375
1597.673, 94.54900
1599.601, 95.97947
1601.530, 96.65608
1603.458, 98.17894
1605.387, 101.0376
1607.315, 103.3169
1609.244, 104.8961
1611.172, 105.3693
1613.101, 103.0868
1615.029, 99.85438
1616.958, 100.4230
1618.886, 105.5257
1620.814, 109.1829
1622.743, 109.2723
1624.671, 109.4472
1626.600, 112.5604
1628.528, 116.0202
1630.457, 116.1904
1632.385, 113.4449
1634.314, 112.4307
1636.242, 114.2875
1638.171, 115.7600
1640.099, 114.1120
1642.028, 113.6214
1643.956, 118.5098
1645.885, 126.4642
1647.813, 130.9067
1649.741, 131.1733
1651.670, 132.0463
1653.598, 135.2460
1655.527, 137.6505
1657.455, 137.6632
1659.384, 136.3520
1661.312, 133.6814
1663.241, 130.1282
1665.169, 130.9883
1667.098, 138.7839
1669.026, 143.9495
1670.955, 142.2263
1672.883, 139.1420
1674.812, 137.0571
1676.740, 136.1540
1678.668, 136.9404
1680.597, 139.4762
1682.525, 143.0615
1684.454, 148.7979
1686.382, 153.2045
1688.311, 154.3255
1690.239, 154.3046
1692.168, 155.4930
1694.096, 156.9577
1696.025, 153.9099
1697.953, 144.3785
1699.882, 142.1458
1701.810, 155.8043
1703.739, 167.3614
1705.667, 164.2442
1707.595, 157.5714
1709.524, 160.7195
1711.452, 171.7100
1713.381, 177.7232
1715.309, 176.8614
1717.238, 175.4875
1719.166, 173.9156
1721.095, 173.8637
1723.023, 177.3046
1724.952, 182.3175
1726.880, 186.7220
1728.809, 190.4666
1730.737, 192.6767
1732.666, 192.6523
1734.594, 192.9745
1736.522, 194.4872
1738.451, 196.3613
1740.379, 197.6580
1742.308, 199.1603
1744.236, 203.3288
1746.165, 209.9803
1748.093, 211.7543
1750.022, 205.4264
1751.950, 200.8265
1753.879, 202.3036
1755.807, 204.9895
1757.736, 205.1563
1759.664, 204.5937
1761.593, 207.4023
1763.521, 213.6804
1765.449, 217.8005
1767.378, 217.8606
1769.306, 218.8776
1771.235, 223.1357
1773.163, 227.8170
1775.092, 230.3594
1777.020, 232.2583
1778.949, 236.9389
1780.877, 244.6486
1782.806, 251.8568
1784.734, 259.3907
1786.663, 264.7505
1788.591, 265.0160
1790.520, 265.5967
1792.448, 270.4047
1794.376, 277.5237
1796.305, 283.2774
1798.233, 287.4578
1800.162, 292.4674
1802.090, 300.9491
1804.019, 306.0940
1805.947, 304.1680
1807.876, 302.3542
1809.804, 305.4585
1811.733, 310.2396
1813.661, 311.2487
1815.590, 308.4217
1817.518, 308.6144
1819.447, 312.9554
1821.375, 318.1801
1823.303, 324.3734
1825.232, 331.0301
1827.160, 338.2737
1829.089, 345.6387
1831.017, 351.8760
1832.946, 357.4093
1834.874, 365.7978
1836.803, 377.4337
1838.731, 390.0512
1840.660, 404.5782
1842.588, 417.9803
1844.517, 428.0242
1846.445, 437.8945
1848.374, 449.2050
1850.302, 462.3314
1852.230, 478.2166
1854.159, 496.8743
1856.087, 518.0001
1858.016, 543.4332
1859.944, 565.2919
1861.873, 577.9261
1863.801, 590.5670
1865.730, 610.5917
1867.658, 632.3667
1869.587, 650.7788
1871.515, 664.8792
1873.444, 668.1599
1875.372, 658.5466
1877.301, 646.4966
1879.229, 631.2770
1881.157, 617.3624
1883.086, 608.2976
1885.014, 599.2658
1886.943, 587.8105
1888.871, 573.0064
1890.800, 550.4045
1892.728, 517.3387
1894.657, 493.3253
1896.585, 480.5652
1898.514, 472.9359
1900.442, 475.0995
1902.371, 475.8900
1904.299, 468.1083
1906.228, 458.0522
1908.156, 452.1041
1910.084, 450.1161
1912.013, 452.4936
1913.941, 461.3069
1915.870, 462.5949
1917.798, 448.2378
1919.727, 441.6181
1921.655, 456.1286
1923.584, 471.3158
1925.512, 476.6790
1927.441, 476.0129
1929.369, 472.1502
1931.298, 466.3443
1933.226, 464.8327
1935.155, 468.3994
1937.083, 470.7842
1939.011, 468.6488
1940.940, 470.1203
1942.868, 482.3014
1944.797, 494.2857
1946.725, 497.1761
1948.654, 496.7121
1950.582, 501.2589
1952.511, 510.6030
1954.439, 522.1532
1956.368, 538.2779
1958.296, 550.3677
1960.225, 554.0239
1962.153, 559.3727
1964.082, 569.9568
1966.010, 581.2669
1967.938, 591.6561
1969.867, 600.6215
1971.795, 604.9024
1973.724, 605.8588
1975.652, 618.7927
1977.581, 646.3477
1979.509, 669.5910
1981.438, 685.9847
1983.366, 698.8132
1985.295, 705.2788
1987.223, 713.3136
1989.152, 729.6640
1991.080, 748.3997
1993.009, 763.5008
1994.937, 775.3284
1996.865, 784.2010
1998.794, 789.7660
2000.722, 797.5123
2002.651, 810.7213
2004.579, 819.9565
2006.508, 822.5668
2008.436, 822.3976
2010.365, 820.2173
2012.293, 816.7595
2014.222, 811.5979
2016.150, 805.9169
2018.078, 802.7935
2020.007, 802.3187
2021.935, 801.8891
2023.864, 801.8149
2025.792, 800.8603
2027.721, 800.0869
2029.649, 795.9103
2031.578, 781.2151
2033.506, 770.1769
2035.435, 776.9221
2037.363, 787.9872
2039.292, 785.7344
2041.220, 774.8160
2043.149, 771.1722
2045.077, 775.6689
2047.005, 776.2891
2048.934, 767.1748
2050.863, 766.5814
2052.791, 784.5549
2054.719, 801.2869
2056.648, 809.9072
2058.576, 814.5212
2060.505, 815.7051
2062.433, 816.0452
2064.362, 819.3511
2066.290, 825.6956
2068.219, 837.5572
2070.147, 856.6958
2072.076, 865.0162
2074.004, 858.0363
2075.933, 850.5506
2077.861, 843.5789
2079.790, 840.9246
2081.718, 851.3284
2083.646, 859.1693
2085.575, 847.8635
2087.503, 829.0075
2089.432, 821.7751
2091.360, 823.8329
2093.289, 821.6207
2095.217, 815.8047
2097.146, 803.2992
2099.074, 778.0715
2101.003, 757.2294
2102.931, 743.8597
2104.860, 732.5318
2106.788, 723.8228
2108.717, 714.0549
2110.645, 696.9904
2112.573, 680.2017
2114.502, 677.1822
2116.430, 681.4769
2118.359, 672.7526
2120.287, 651.5169
2122.216, 638.3757
2124.144, 636.8553
2126.073, 635.1575
2128.001, 635.0513
2129.930, 629.6120
2131.858, 610.0521
2133.787, 594.2958
2135.715, 595.1844
2137.644, 599.8236
2139.572, 594.6578
2141.500, 585.4138
2143.429, 583.7589
2145.357, 588.4724
2147.286, 592.8779
2149.214, 596.8425
2151.143, 596.7097
2153.071, 590.2623
2155.000, 587.5519
2156.928, 594.8735
2158.857, 599.0628
2160.785, 590.0341
2162.714, 583.6884
2164.642, 593.4901
2166.571, 606.6544
2168.499, 610.3008
2170.427, 606.9806
2172.356, 599.6940
2174.284, 589.3376
2176.213, 589.4190
2178.141, 600.8314
2180.070, 610.3790
2181.998, 617.0244
2183.927, 621.3382
2185.855, 621.7787
2187.784, 623.2556
2189.712, 630.3538
2191.641, 635.1605
2193.569, 630.1542
2195.498, 624.2747
2197.426, 627.5983
2199.354, 634.7579
2201.283, 636.2195
2203.211, 633.0818
2205.140, 630.0531
2207.068, 627.1056
2208.997, 629.4842
2210.925, 638.5776
2212.854, 645.6171
2214.782, 649.1383
2216.711, 651.1605
2218.639, 648.5317
2220.568, 650.1369
2222.496, 664.6533
2224.425, 678.3442
2226.353, 681.2762
2228.281, 678.9122
2230.210, 674.0282
2232.138, 669.9446
2234.067, 676.8627
2235.995, 692.5326
2237.924, 696.9508
2239.852, 690.3074
2241.781, 694.9313
2243.709, 715.5524
2245.638, 726.3703
2247.566, 717.6420
2249.495, 712.5270
2251.423, 721.6068
2253.352, 728.0131
2255.280, 721.0740
2257.208, 715.2785
2259.137, 720.1642
2261.065, 729.7204
2262.994, 740.4052
2264.922, 750.2715
2266.851, 754.4435
2268.779, 755.2014
2270.708, 761.8459
2272.636, 773.2731
2274.565, 775.3370
2276.493, 766.7800
2278.422, 752.6122
2280.350, 726.2761
2282.279, 707.4611
2284.207, 706.4625
2286.135, 699.1154
2288.064, 675.3371
2289.992, 651.4524
2291.921, 634.9753
2293.849, 618.3324
2295.778, 593.8395
2297.706, 569.3367
2299.635, 551.8098
2301.563, 540.2704
2303.492, 534.2239
2305.420, 532.6019
2307.349, 532.6220
2309.277, 534.3633
2311.206, 528.9796
2313.134, 514.8616
2315.063, 504.5363
2316.991, 499.0344
2318.919, 495.3467
2320.848, 494.3461
2322.776, 491.0170
2324.705, 481.6209
2326.633, 473.7758
2328.562, 472.6158
2330.490, 470.5406
2332.419, 461.4678
2334.347, 452.0682
2336.276, 445.8494
2338.204, 443.8182
2340.133, 451.4804
2342.061, 461.9010
2343.990, 459.0531
2345.918, 448.1460
2347.846, 445.5905
2349.775, 450.9507
2351.703, 455.5172
2353.632, 459.1185
2355.560, 462.0707
2357.489, 464.6328
2359.417, 465.5116
2361.346, 463.2448
2363.274, 462.9701
2365.203, 467.2325
2367.131, 469.1790
2369.060, 464.2504
2370.988, 461.1547
2372.917, 466.2864
2374.845, 471.4611
2376.773, 471.0372
2378.702, 469.5339
2380.630, 469.2904
2382.559, 471.4128
2384.487, 479.1530
2386.416, 489.0947
2388.344, 494.5963
2390.273, 496.8963
2392.201, 499.4342
2394.130, 502.1226
2396.058, 504.0577
2397.987, 505.1582
2399.915, 506.4213
2401.844, 506.7151
2403.772, 511.2875
2405.700, 521.3539
2407.629, 530.9137
2409.557, 535.9725
2411.486, 552.7200
2413.414, 589.1945
2415.343, 627.3599
2417.271, 658.9406
2419.200, 694.1733
2421.128, 735.7155
2423.057, 783.3228
2424.985, 836.6359
2426.914, 895.9650
2428.842, 960.1000
2430.771, 1032.019
2432.699, 1112.952
2434.627, 1204.653
2436.556, 1310.689
2438.484, 1428.288
2440.413, 1555.836
2442.341, 1690.209
2444.270, 1816.313
2446.198, 1937.020
2448.127, 2082.113
2450.055, 2248.692
2451.984, 2397.525
2453.912, 2526.502
2455.841, 2598.984
2457.769, 2605.696
2459.698, 2592.551
2461.626, 2571.668
2463.554, 2515.419
2465.483, 2415.520
2467.411, 2296.977
2469.340, 2161.607
2471.268, 2008.575
2473.197, 1826.505
2475.125, 1649.683
2477.054, 1482.518
2478.982, 1336.748
2480.911, 1218.620
2482.839, 1121.939
2484.768, 1043.232
2486.696, 985.6168
2488.624, 958.2816
2490.553, 945.9628
2492.481, 937.3239
2494.410, 934.9809
2496.338, 939.1759
2498.267, 953.4609
2500.195, 982.5850
2502.124, 1025.951
2504.052, 1084.877
2505.980, 1156.227
2507.909, 1227.306
2509.837, 1301.863
2511.766, 1394.905
2513.694, 1505.658
2515.623, 1630.453
2517.551, 1769.256
2519.480, 1914.092
2521.408, 2063.285
2523.337, 2239.577
2525.265, 2447.845
2527.194, 2645.439
2529.122, 2826.756
2531.051, 3028.946
2532.979, 3263.531
2534.907, 3485.641
2536.836, 3684.339
2538.764, 3873.515
2540.693, 4077.392
2542.621, 4222.569
2544.550, 4294.341
2546.478, 4322.170
2548.407, 4313.636
2550.335, 4267.559
2552.264, 4185.569
2554.192, 4064.700
2556.121, 3897.883
2558.049, 3698.811
2559.978, 3457.966
2561.906, 3204.658
2563.834, 2938.597
2565.763, 2683.546
2567.691, 2456.043
2569.620, 2244.538
2571.548, 2034.398
2573.477, 1843.598
2575.405, 1691.683
2577.334, 1561.914
2579.262, 1436.947
2581.191, 1325.724
2583.119, 1239.273
2585.048, 1170.030
2586.976, 1109.657
2588.905, 1059.862
2590.833, 1027.537
2592.761, 1004.978
2594.690, 977.6907
2596.618, 949.2289
2598.547, 928.6315
2600.475, 912.5627
2602.404, 890.4755
2604.332, 866.8088
2606.261, 858.3394
2608.189, 860.2797
2610.118, 850.4324
2612.046, 831.3121
2613.975, 821.6776
2615.903, 819.0825
2617.832, 810.4625
2619.760, 796.2371
2621.688, 782.8602
2623.617, 770.4193
2625.545, 758.4285
2627.474, 746.7810
2629.402, 737.3949
2631.331, 729.8887
2633.259, 718.2013
2635.188, 701.8220
2637.116, 684.4082
2639.045, 665.8587
2640.973, 647.8519
2642.902, 628.9070
2644.830, 623.7232
2646.759, 634.6542
2648.687, 631.1310
2650.615, 608.2526
2652.544, 591.0020
2654.472, 581.8972
2656.401, 578.5922
2658.329, 582.9789
2660.258, 585.2823
2662.186, 585.0181
2664.115, 581.6004
2666.043, 574.5839
2667.972, 567.2168
2669.900, 559.0579
2671.829, 553.8685
2673.757, 553.1034
2675.686, 551.8359
2677.614, 549.5187
2679.542, 547.0430
2681.471, 543.7331
2683.399, 543.0732
2685.328, 552.0756
2687.256, 549.5127
2689.185, 526.4957
2691.113, 514.2241
2693.042, 520.3682
2694.970, 517.8260
2696.899, 498.0630
2698.827, 481.7863
2700.756, 474.9254
2702.684, 468.1215
2704.613, 460.3542
2706.541, 453.3982
2708.469, 447.7112
2710.398, 441.9687
2712.326, 435.3221
2714.255, 430.7845
2716.183, 434.0272
2718.112, 429.0354
2720.040, 409.2540
2721.969, 397.7819
2723.897, 399.4978
2725.826, 401.9619
2727.754, 403.2659
2729.683, 403.3950
2731.611, 404.5772
2733.540, 399.2753
2735.468, 383.4102
2737.396, 374.9347
2739.325, 378.1459
2741.253, 380.7715
2743.182, 380.5362
2745.110, 379.5649
2747.039, 377.6947
2748.967, 376.2926
2750.896, 375.9842
2752.824, 373.1850
2754.753, 366.6054
2756.681, 361.7678
2758.610, 360.4662
2760.538, 358.3451
2762.467, 355.0181
2764.395, 351.8180
2766.323, 348.7929
2768.252, 346.2900
2770.180, 344.4166
2772.109, 342.9302
2774.037, 342.2758
2775.966, 340.4960
2777.894, 337.5049
2779.823, 333.7243
2781.751, 329.1144
2783.680, 325.3501
2785.608, 322.7869
2787.537, 319.3193
2789.465, 314.4367
2791.394, 314.0330
2793.322, 317.7819
2795.250, 314.2546
2797.179, 303.5236
2799.107, 301.5680
2801.036, 308.3810
2802.964, 312.5798
2804.893, 314.2464
2806.821, 314.3714
2808.750, 312.6522
2810.678, 305.3175
2812.607, 294.4214
2814.535, 289.9535
2816.464, 291.2845
2818.392, 297.8700
2820.321, 307.1196
2822.249, 311.7124
2824.177, 312.1807
2826.106, 308.1820
2828.034, 302.3235
2829.963, 301.2443
2831.891, 302.1331
2833.820, 297.9986
2835.748, 293.5169
2837.677, 296.5923
2839.605, 302.3411
2841.534, 305.5814
2843.462, 306.0997
2845.391, 301.5385
2847.319, 296.5228
2849.248, 295.4912
2851.176, 295.8966
2853.104, 296.1130
2855.033, 296.1727
2856.961, 294.8915
2858.890, 295.1468
2860.818, 300.7397
2862.747, 304.7779
2864.675, 303.5087
2866.604, 299.3286
2868.532, 288.6091
2870.461, 283.2550
2872.389, 289.7678
2874.318, 295.5850
2876.246, 293.5085
2878.175, 295.2351
2880.103, 310.9805
2882.031, 316.0677
2883.960, 303.5031
2885.888, 295.7137
2887.817, 298.1995
2889.745, 299.5753
2891.674, 295.9675
2893.602, 297.2176
2895.531, 304.7007
2897.459, 303.3663
2899.388, 291.7657
2901.316, 290.6324
2903.245, 301.7821
2905.173, 307.1665
2907.102, 307.0025
2909.030, 304.2142
2910.958, 299.8072
2912.887, 298.3030
2914.815, 299.0113
2916.744, 299.9796
2918.672, 300.8383
2920.601, 300.7960
2922.529, 299.7881
2924.458, 296.4214
2926.386, 293.4670
2928.315, 295.3693
2930.243, 299.1844
2932.172, 302.8749
2934.100, 305.4408
2936.029, 306.9021
2937.957, 305.9011
2939.885, 298.9421
2941.814, 293.0150
2943.742, 290.8182
2945.671, 292.1218
2947.599, 299.8105
2949.528, 304.6802
2951.456, 301.6916
2953.385, 298.9127
2955.313, 297.0900
2957.242, 297.1228
2959.170, 299.5328
2961.099, 301.6263
2963.027, 303.2651
2964.956, 303.1411
2966.884, 300.9989
2968.813, 302.9899
2970.741, 308.7536
2972.669, 311.3355
2974.598, 311.2051
2976.526, 312.2377
2978.455, 314.0571
2980.383, 316.0685
2982.312, 317.3406
2984.240, 314.1381
2986.169, 311.1574
2988.097, 315.6707
2990.026, 323.9603
2991.954, 335.6890
2993.883, 344.4859
2995.811, 342.8897
2997.740, 340.5405
2999.668, 344.8437
3001.596, 346.3752
3003.525, 338.9206
3005.453, 335.7506
3007.382, 346.1487
3009.310, 351.6141
3011.239, 347.4174
3013.167, 344.6141
3015.096, 343.6287
3017.024, 351.0762
3018.953, 370.1130
3020.881, 374.3398
3022.810, 364.0850
3024.738, 368.1137
3026.667, 381.2514
3028.595, 381.8096
3030.523, 374.9532
3032.452, 370.5237
3034.380, 370.7441
3036.309, 383.8484
3038.237, 398.6634
3040.166, 405.0629
3042.094, 406.7453
3044.023, 401.4664
3045.951, 400.5034
3047.880, 412.0193
3049.808, 421.9738
3051.737, 424.2145
3053.665, 424.7560
3055.594, 423.7064
3057.522, 423.5443
3059.450, 423.9011
3061.379, 432.1995
3063.307, 451.1777
3065.236, 460.8688
3067.164, 462.0778
3069.093, 466.6415
3071.021, 473.2913
3072.950, 477.4348
3074.878, 479.6342
3076.807, 477.9240
3078.735, 478.4733
3080.664, 493.3799
3082.592, 508.1881
3084.521, 505.8363
3086.449, 506.7304
3088.377, 526.4724
3090.306, 544.0032
3092.234, 552.8808
3094.163, 556.9213
3096.091, 547.8782
3098.020, 556.9969
3099.948, 588.5499
3101.877, 606.0834
3103.805, 606.2325
3105.734, 608.6368
3107.662, 613.4244
3109.591, 620.6899
3111.519, 628.6668
3113.448, 631.4110
3115.376, 633.7512
3117.304, 644.2446
3119.233, 656.3125
3121.161, 662.6367
3123.090, 670.5290
3125.018, 687.4387
3126.947, 701.3453
3128.875, 706.0796
3130.804, 711.6798
3132.732, 718.7769
3134.661, 733.0564
3136.589, 758.7782
3138.518, 776.3754
3140.446, 786.3262
3142.375, 791.2471
3144.303, 793.4591
3146.231, 798.9138
3148.160, 808.7598
3150.088, 828.3759
3152.017, 850.2421
3153.945, 865.8389
3155.874, 881.7516
3157.802, 908.3158
3159.731, 925.5320
3161.659, 920.2061
3163.588, 925.1750
3165.516, 956.8088
3167.445, 980.7070
3169.373, 994.3459
3171.302, 1010.150
3173.230, 1027.781
3175.158, 1034.561
3177.087, 1036.532
3179.015, 1056.536
3180.944, 1086.023
3182.872, 1115.518
3184.801, 1141.385
3186.729, 1158.497
3188.658, 1173.116
3190.586, 1188.016
3192.515, 1202.169
3194.443, 1214.705
3196.372, 1228.243
3198.300, 1243.941
3200.229, 1254.885
3202.157, 1261.467
3204.085, 1281.037
3206.014, 1308.658
3207.942, 1318.528
3209.871, 1318.570
3211.799, 1319.723
3213.728, 1324.686
3215.656, 1338.917
3217.585, 1353.839
3219.513, 1363.152
3221.442, 1376.299
3223.370, 1403.863
3225.299, 1419.672
3227.227, 1419.730
3229.156, 1422.155
3231.084, 1428.087
3233.012, 1436.063
3234.941, 1446.899
3236.869, 1469.335
3238.798, 1492.435
3240.726, 1498.565
3242.655, 1500.668
3244.583, 1505.109
3246.512, 1517.852
3248.440, 1543.020
3250.369, 1569.835
3252.297, 1598.236
3254.226, 1616.413
3256.154, 1623.378
3258.083, 1651.303
3260.011, 1695.342
3261.939, 1712.421
3263.868, 1717.060
3265.796, 1740.963
3267.725, 1770.622
3269.653, 1797.908
3271.582, 1816.868
3273.510, 1812.085
3275.439, 1825.509
3277.367, 1877.684
3279.296, 1909.042
3281.224, 1907.350
3283.153, 1921.342
3285.081, 1945.270
3287.010, 1942.976
3288.938, 1921.607
3290.866, 1888.253
3292.795, 1854.497
3294.723, 1830.701
3296.652, 1811.508
3298.580, 1802.148
3300.509, 1778.150
3302.437, 1730.601
3304.366, 1693.980
3306.294, 1676.562
3308.223, 1641.572
3310.151, 1593.782
3312.080, 1557.779
3314.008, 1529.369
3315.937, 1504.125
3317.865, 1478.845
3319.793, 1449.402
3321.722, 1422.109
3323.650, 1398.580
3325.579, 1382.974
3327.507, 1378.617
3329.436, 1357.812
3331.364, 1320.785
3333.293, 1311.397
3335.221, 1319.273
3337.150, 1315.537
3339.078, 1303.596
3341.007, 1282.304
3342.935, 1262.746
3344.864, 1253.371
3346.792, 1243.506
3348.720, 1230.316
3350.649, 1217.739
3352.577, 1205.487
3354.506, 1211.238
3356.434, 1226.449
3358.363, 1216.857
3360.291, 1198.198
3362.220, 1191.851
3364.148, 1191.504
3366.077, 1195.744
3368.005, 1199.537
3369.934, 1203.414
3371.862, 1198.895
3373.791, 1184.990
3375.719, 1169.579
3377.647, 1154.988
3379.576, 1151.934
3381.504, 1155.092
3383.433, 1160.766
3385.361, 1162.348
3387.290, 1150.505
3389.218, 1141.617
3391.147, 1142.069
3393.075, 1136.445
3395.004, 1121.779
3396.932, 1117.234
3398.861, 1121.651
3400.789, 1136.443
3402.718, 1147.028
3404.646, 1119.746
3406.574, 1097.767
3408.503, 1117.822
3410.431, 1125.849
3412.360, 1106.390
3414.288, 1093.776
3416.217, 1090.156
3418.145, 1071.601
3420.074, 1048.051
3422.002, 1056.179
3423.931, 1071.047
3425.859, 1070.051
3427.788, 1061.357
3429.716, 1044.511
3431.645, 1034.612
3433.573, 1035.873
3435.501, 1041.356
3437.430, 1049.218
3439.358, 1044.581
3441.287, 1033.238
3443.215, 1021.163
3445.144, 1012.345
3447.072, 1009.749
3449.001, 1009.941
3450.929, 1014.804
3452.858, 1013.365
3454.786, 1005.892
3456.715, 1012.068
3458.643, 1021.995
3460.572, 999.1480
3462.500, 974.7425
3464.428, 979.6192
3466.357, 990.6491
3468.285, 1005.102
3470.214, 1004.296
3472.142, 985.8404
3474.071, 967.3952
3475.999, 952.6489
3477.928, 960.7913
3479.856, 973.9010
3481.785, 967.7283
3483.713, 960.9251
3485.642, 963.9847
3487.570, 965.1296
3489.499, 961.0118
3491.427, 964.5439
3493.355, 973.2783
3495.284, 960.0637
3497.212, 942.4484
3499.141, 951.3499
3501.069, 957.2587
3502.998, 943.2053
3504.926, 925.7573
3506.855, 907.0009
3508.783, 895.5104
3510.712, 888.2605
3512.640, 864.7231
3514.569, 835.1462
3516.497, 813.1356
3518.426, 798.2246
3520.354, 795.0027
3522.282, 787.0959
3524.211, 769.4077
3526.139, 767.3628
3528.068, 778.1259
3529.996, 772.7799
3531.925, 760.3866
3533.853, 753.9550
3535.782, 748.2443
3537.710, 740.0025
3539.639, 731.2110
3541.567, 721.5491
3543.496, 719.8685
3545.424, 724.1940
3547.353, 724.0873
3549.281, 721.5123
3551.209, 719.7427
3553.138, 715.4123
3555.066, 706.6520
3556.995, 696.0087
3558.923, 683.3090
3560.852, 675.1584
3562.780, 671.2364
3564.709, 674.4016
3566.637, 675.4789
3568.566, 664.5925
3570.494, 648.8723
3572.423, 627.6890
3574.351, 617.9989
3576.280, 621.2816
3578.208, 615.2170
3580.136, 605.6951
3582.065, 606.2261
3583.993, 605.2361
3585.922, 594.6986
3587.850, 581.4186
3589.779, 563.9779
3591.707, 556.5633
3593.636, 556.3270
3595.564, 550.2348
3597.493, 541.3395
3599.421, 532.3035
3601.350, 524.8116
3603.278, 521.4830
3605.207, 513.4990
3607.135, 500.2986
3609.063, 495.3120
3610.992, 495.7673
3612.920, 498.8765
3614.849, 497.3553
3616.777, 484.3035
3618.706, 470.7566
3620.634, 457.9927
3622.563, 455.7534
3624.491, 460.6963
3626.420, 454.7022
3628.348, 445.6779
3630.277, 444.9826
3632.205, 440.7473
3634.134, 419.2588
3636.062, 418.7822
3637.990, 437.4475
3639.919, 432.1411
3641.847, 418.0492
3643.776, 428.7071
3645.704, 439.1331
3647.633, 434.4955
3649.561, 427.7369
3651.490, 420.5695
3653.418, 412.8689
3655.347, 405.1833
3657.275, 397.2811
3659.204, 392.3366
3661.132, 395.3130
3663.061, 395.2909
3664.989, 389.4113
3666.917, 391.4723
3668.846, 398.4469
3670.774, 393.3027
3672.703, 385.3284
3674.631, 381.5571
3676.560, 383.2519
3678.488, 393.2539
3680.417, 389.3954
3682.345, 374.2589
3684.274, 376.3085
3686.202, 384.6056
3688.131, 389.3320
3690.059, 387.5431
3691.988, 374.1264
3693.916, 373.7272
3695.844, 385.8092
3697.773, 383.6664
3699.701, 374.7455
3701.630, 365.1897
3703.558, 361.9960
3705.487, 371.4566
3707.415, 377.7542
3709.344, 379.1646
3711.272, 371.8696
3713.201, 363.5684
3715.129, 366.9734
3717.058, 372.2955
3718.986, 376.3038
3720.915, 376.5607
3722.843, 373.6718
3724.771, 378.3902
3726.700, 384.2003
3728.628, 380.3954
3730.557, 374.9255
3732.485, 369.8272
3734.414, 370.0978
3736.342, 374.7837
3738.271, 369.4088
3740.199, 361.8404
3742.128, 364.9857
3744.056, 367.3253
3745.985, 361.6340
3747.913, 362.5486
3749.842, 369.3616
3751.770, 369.7726
3753.698, 368.4058
3755.627, 370.6210
3757.555, 374.5534
3759.484, 381.0039
3761.412, 382.8690
3763.341, 380.4038
3765.269, 376.7677
3767.198, 373.6466
3769.126, 371.8673
3771.055, 373.7119
3772.983, 381.5605
3774.912, 383.2629
3776.840, 379.9016
3778.769, 374.5304
3780.697, 371.6234
3782.625, 374.5813
3784.554, 380.6906
3786.482, 390.2673
3788.411, 388.2726
3790.339, 380.5044
3792.268, 380.3176
3794.196, 382.6529
3796.125, 385.3747
3798.053, 387.3573
3799.982, 388.4046
3801.910, 380.4492
3803.839, 372.9529
3805.767, 384.2090
3807.696, 395.5318
3809.624, 401.3852
3811.552, 395.9631
3813.481, 382.6025
3815.409, 381.0734
3817.338, 384.9809
3819.266, 391.7407
3821.195, 392.7864
3823.123, 383.2835
3825.052, 392.6599
3826.980, 409.8677
3828.909, 401.3989
3830.837, 392.6400
3832.766, 402.1849
3834.694, 402.7359
3836.623, 390.5653
3838.551, 379.5415
3840.479, 372.9851
3842.408, 380.5486
3844.336, 380.5945
3846.265, 364.5197
3848.193, 363.1405
3850.122, 373.9771
3852.050, 383.4398
3853.979, 386.1877
3855.907, 373.2838
3857.836, 362.8059
3859.764, 357.3595
3861.693, 359.6181
3863.621, 362.8381
3865.550, 351.9964
3867.478, 345.7625
3869.406, 354.5388
3871.335, 361.3006
3873.263, 364.4805
3875.192, 359.4591
3877.120, 354.0798
3879.049, 355.0708
3880.977, 354.3951
3882.906, 350.6855
3884.834, 346.0997
3886.763, 342.7885
3888.691, 346.6869
3890.620, 347.1337
3892.548, 338.0512
3894.477, 335.3041
3896.405, 337.2862
3898.333, 337.4991
3900.262, 336.1740
3902.190, 332.5152
3904.119, 331.9371
3906.047, 335.1479
3907.976, 330.1002
3909.904, 324.2318
3911.833, 327.7810
3913.761, 330.6858
3915.690, 333.1499
3917.618, 329.3377
3919.547, 319.0748
3921.475, 312.4942
3923.404, 309.4796
3925.332, 304.1945
3927.260, 306.7247
3929.189, 316.0495
3931.117, 317.0709
3933.046, 314.2657
3934.974, 311.1049
3936.903, 311.5887
3938.831, 313.2049
3940.760, 312.3474
3942.688, 309.1539
3944.617, 300.3960
3946.545, 297.1817
3948.474, 304.3367
3950.402, 307.8414
3952.331, 307.0802
3954.259, 299.1213
3956.188, 294.0719
3958.116, 298.2208
3960.044, 305.5687
3961.973, 309.0647
3963.901, 300.6531
3965.830, 295.0361
3967.758, 297.6258
3969.687, 297.7342
3971.615, 297.1432
3973.544, 302.6584
3975.472, 307.6692
3977.401, 302.9863
3979.329, 298.7318
3981.258, 295.8250
3983.186, 293.8144
3985.115, 295.8760
3987.043, 292.2009
3988.971, 288.6310
3990.900, 296.6035
3992.828, 303.1284
3994.757, 300.8058
3996.685, 290.9231
3998.614, 287.0195
4000.542, 291.4509
4002.471, 296.5164
4004.399, 299.2156
4006.328, 295.7744
4008.256, 290.7255
4010.185, 292.2128
4012.113, 300.4136
4014.042, 300.2217
4015.970, 295.1772
4017.898, 298.3335
4019.827, 302.5913
4021.755, 305.9758
4023.684, 306.0939
4025.612, 300.8417
4027.541, 297.2340
4029.469, 297.4087
4031.398, 297.5294
4033.326, 295.2187
4035.255, 293.8871
4037.183, 298.7216
4039.112, 299.0640
4041.040, 294.5614
4042.969, 293.4739
4044.897, 293.2222
4046.825, 295.3475
4048.754, 297.6231
4050.682, 295.7516
4052.611, 293.4966
4054.539, 296.3737
4056.468, 294.0227
4058.396, 286.7956
4060.325, 287.2099
4062.253, 291.1197
4064.182, 295.1289
4066.110, 302.4243
4068.039, 308.4418
4069.967, 306.0505
4071.896, 304.4182
4073.824, 306.6655
4075.752, 302.2655
4077.681, 291.4015
4079.609, 289.6785
4081.538, 292.5232
4083.466, 293.6005
4085.395, 296.4337
4087.323, 305.9621
4089.252, 309.8779
4091.180, 305.6265
4093.109, 296.0624
4095.037, 289.6990
4096.965, 285.8363
4098.894, 285.6175
4100.822, 289.3627
4102.751, 296.2884
4104.679, 301.5669
4106.608, 302.5736
4108.536, 302.5970
4110.465, 301.7999
4112.393, 296.7372
4114.322, 294.2722
4116.250, 302.1832
4118.179, 302.5837
4120.107, 296.4195
4122.036, 294.8336
4123.964, 293.6932
4125.893, 289.0164
4127.821, 290.7139
4129.750, 297.7794
4131.678, 302.8870
4133.606, 303.9244
4135.535, 298.1831
4137.463, 292.8788
4139.392, 288.5760
4141.320, 289.2900
4143.249, 294.7373
4145.177, 305.1367
4147.105, 312.4565
4149.034, 315.8517
4150.962, 309.1872
4152.891, 301.3866
4154.819, 300.4343
4156.748, 302.2883
4158.676, 309.2592
4160.605, 312.2846
4162.533, 308.5956
4164.462, 296.5452
4166.390, 298.7916
4168.319, 314.8488
4170.247, 319.8157
4172.176, 317.7646
4174.104, 308.6286
4176.033, 304.7488
4177.961, 307.6132
4179.890, 307.8324
4181.818, 306.2805
4183.747, 302.9675
4185.675, 304.9263
4187.604, 312.4685
4189.532, 316.2562
4191.460, 317.1003
4193.389, 319.5815
4195.317, 314.2027
4197.246, 302.4738
4199.174, 308.3510
4201.103, 314.7791
4203.031, 304.0373
4204.959, 310.4279
4206.888, 331.2537
4208.816, 323.7103
4210.745, 314.2986
4212.673, 329.9941
4214.602, 335.5501
4216.530, 329.2201
4218.459, 312.3205
4220.387, 302.8200
4222.316, 319.7962
4224.244, 319.5937
4226.173, 308.2479
4228.101, 316.6862
4230.030, 326.1257
4231.958, 327.2344
4233.887, 331.5210
4235.815, 336.3040
4237.744, 332.5292
4239.672, 329.7515
4241.601, 332.0960
4243.529, 331.2677
4245.458, 328.5956
4247.386, 327.0794
4249.314, 327.2444
4251.243, 329.0362
4253.171, 324.4789
4255.100, 318.1949
4257.028, 314.6726
4258.957, 317.1854
4260.885, 325.1704
4262.813, 326.3608
4264.742, 327.4596
4266.670, 336.8613
4268.599, 341.8524
4270.527, 341.7951
4272.456, 338.0881
4274.384, 339.6526
4276.313, 355.6540
4278.241, 359.1535
4280.170, 355.4268
4282.098, 369.3006
4284.027, 377.3141
4285.955, 367.9368
4287.884, 361.9671
4289.812, 361.5026
4291.741, 371.6616
4293.669, 376.2009
4295.598, 371.0322
4297.526, 379.4594
4299.455, 386.5478
4301.383, 368.8838
4303.312, 362.2970
4305.240, 369.4919
4307.168, 365.2726
4309.097, 364.1816
4311.025, 380.3339
4312.954, 394.7525
4314.882, 404.1821
4316.811, 398.8064
4318.739, 396.2044
4320.667, 408.0757
4322.596, 406.3057
4324.524, 400.1239
4326.453, 404.5623
4328.381, 411.0502
4330.310, 417.8758
4332.238, 430.9789
4334.167, 444.4928
4336.095, 452.0153
4338.024, 461.6020
4339.952, 473.1746
4341.881, 480.0633
4343.809, 493.8521
4345.738, 522.9802
4347.666, 534.7717
4349.595, 539.9009
4351.523, 559.5652
4353.452, 579.9255
4355.380, 597.6769
4357.309, 606.1877
4359.237, 616.9131
4361.166, 639.7822
4363.094, 666.9564
4365.022, 693.0305
4366.951, 698.3322
4368.879, 707.8688
4370.808, 732.2802
4372.736, 730.0920
4374.665, 716.9186
4376.593, 719.5240
4378.521, 716.9659
4380.450, 705.6305
4382.378, 685.9222
4384.307, 668.1146
4386.235, 664.0635
4388.164, 643.9967
4390.092, 620.5969
4392.021, 631.0896
4393.949, 641.3101
4395.878, 640.5445
4397.806, 633.6730
4399.735, 630.9517
4401.663, 643.8961
4403.592, 666.6671
4405.520, 689.3001
4407.449, 667.5042
4409.377, 643.0308
4411.306, 631.8582
4413.234, 627.5303
4415.163, 618.3752
4417.091, 585.4652
4419.020, 560.5728
4420.948, 546.8547
4422.876, 539.3697
4424.805, 529.2863
4426.733, 511.1097
4428.662, 501.7314
4430.590, 501.1500
4432.519, 512.5756
4434.447, 516.0589
4436.375, 509.9208
4438.304, 512.0202
4440.232, 515.2985
4442.161, 513.5854
4444.089, 526.1124
4446.018, 539.9341
4447.946, 523.7677
4449.875, 527.3207
4451.803, 555.8534
4453.732, 556.5979
4455.660, 558.6166
4457.589, 579.0695
4459.517, 593.2128
4461.446, 604.2006
4463.374, 624.0594
4465.303, 629.9824
4467.231, 624.6779
4469.160, 656.5746
4471.088, 700.1932
4473.017, 743.5157
4474.945, 775.3014
4476.874, 804.9064
4478.802, 847.6088
4480.730, 893.5506
4482.659, 941.1527
4484.587, 985.6861
4486.516, 1046.727
4488.444, 1133.621
4490.373, 1210.175
4492.301, 1279.284
4494.229, 1341.848
4496.158, 1414.823
4498.086, 1502.035
4500.015, 1615.220
4501.943, 1719.024
4503.872, 1795.875
4505.800, 1906.812
4507.729, 2005.142
4509.657, 2046.631
4511.586, 2057.882
4513.514, 2035.936
4515.443, 1949.860
4517.371, 1863.786
4519.300, 1788.939
4521.228, 1667.596
4523.157, 1549.605
4525.085, 1463.690
4527.014, 1418.413
4528.942, 1407.718
4530.871, 1423.424
4532.799, 1463.983
4534.728, 1529.348
4536.656, 1638.229
4538.584, 1733.655
4540.513, 1794.766
4542.441, 1830.881
4544.370, 1836.600
4546.298, 1812.315
4548.227, 1733.983
4550.155, 1603.495
4552.083, 1408.764
4554.012, 1234.390
4555.940, 1099.129
4557.869, 991.2117
4559.797, 899.5605
4561.726, 818.0356
4563.654, 763.3422
4565.583, 726.0083
4567.511, 695.4487
4569.440, 684.0715
4571.368, 681.3654
4573.297, 655.5061
4575.225, 637.0894
4577.154, 633.5040
4579.082, 635.8679
4581.011, 632.7355
4582.939, 616.7760
4584.868, 611.6473
4586.796, 607.5694
4588.725, 588.3893
4590.653, 593.7115
4592.582, 610.6663
4594.510, 594.7167
4596.438, 587.8636
4598.367, 597.5018
4600.295, 591.5775
4602.224, 588.7650
4604.152, 598.5812
4606.081, 582.9288
4608.009, 566.4244
4609.938, 574.7325
4611.866, 575.4731
4613.794, 571.5932
4615.723, 579.2220
4617.651, 569.6424
4619.580, 544.8261
4621.508, 544.6195
4623.437, 540.3828
4625.365, 523.5633
4627.294, 512.9597
4629.222, 501.4527
4631.151, 481.3545
4633.079, 482.0883
4635.008, 492.7081
4636.936, 500.6576
4638.865, 500.9304
4640.793, 492.8969
4642.722, 468.1274
4644.650, 462.5740
4646.579, 475.0872
4648.507, 467.2074
4650.436, 453.3742
4652.364, 439.3273
4654.292, 433.6478
4656.221, 431.5156
4658.149, 428.7568
4660.078, 444.4890
4662.006, 458.5399
4663.935, 441.4965
4665.863, 436.4564
4667.792, 439.1233
4669.720, 429.1548
4671.648, 419.1396
4673.577, 413.3152
4675.505, 425.3062
4677.434, 432.4587
4679.362, 428.7888
4681.291, 421.4225
4683.219, 413.7157
4685.148, 406.2652
4687.076, 409.9486
4689.005, 414.7610
4690.933, 411.1096
4692.862, 410.2901
4694.790, 412.8700
4696.719, 423.2381
4698.647, 418.7719
4700.576, 403.6092
4702.504, 386.8414
4704.433, 392.3364
4706.361, 415.4167
4708.290, 409.8283
4710.218, 395.5150
4712.146, 381.2101
4714.075, 390.6727
4716.003, 394.5915
4717.932, 373.3840
4719.860, 377.6370
4721.789, 387.6605
4723.717, 390.7190
4725.646, 385.0259
4727.574, 377.1674
4729.502, 375.3268
4731.431, 367.2249
4733.359, 359.7093
4735.288, 366.7016
4737.216, 374.5354
4739.145, 376.6874
4741.073, 354.8930
4743.002, 350.5272
4744.930, 362.8967
4746.859, 351.4782
4748.787, 344.5186
4750.716, 347.8386
4752.644, 345.2751
4754.573, 344.7070
4756.501, 348.6841
4758.430, 343.5165
4760.358, 336.0860
4762.287, 330.1821
4764.215, 322.3556
4766.144, 319.2883
4768.072, 326.7597
4770.000, 321.1854
4771.929, 315.8568
4773.857, 328.6029
4775.786, 329.1801
4777.714, 323.3467
4779.643, 318.9366
4781.571, 320.2694
4783.500, 324.1920
4785.428, 324.1669
4787.356, 326.8512
4789.285, 329.6101
4791.213, 324.0797
4793.142, 315.0082
4795.070, 306.9873
4796.999, 314.5547
4798.927, 309.7122
4800.856, 293.7315
4802.784, 305.6756
4804.713, 312.7201
4806.641, 308.6755
4808.570, 308.0445
4810.498, 304.4090
4812.427, 296.3355
4814.355, 301.7289
4816.284, 303.1985
4818.212, 295.7034
4820.141, 297.0842
4822.069, 298.2718
4823.998, 294.1525
4825.926, 299.4741
4827.854, 302.2042
4829.783, 296.3951
4831.711, 298.8795
4833.640, 303.1395
4835.568, 304.4977
4837.497, 304.6131
4839.425, 303.0842
4841.354, 299.6604
4843.282, 290.7943
4845.210, 285.3838
4847.139, 292.7517
4849.067, 289.3806
4850.996, 285.3582
4852.924, 291.5823
4854.853, 287.9903
4856.781, 281.9824
4858.710, 281.9377
4860.638, 288.6800
4862.567, 290.8156
4864.495, 271.5171
4866.424, 272.3505
4868.352, 281.0432
4870.281, 280.9321
4872.209, 279.8738
4874.138, 277.3730
4876.066, 269.4090
4877.995, 270.1684
4879.923, 276.8865
4881.852, 287.7103
4883.780, 277.5562
4885.708, 262.5768
4887.637, 266.9237
4889.565, 272.0150
4891.494, 272.5870
4893.422, 262.7160
4895.351, 252.4623
4897.279, 249.5573
4899.208, 269.1883
4901.136, 270.7206
4903.064, 263.1137
4904.993, 258.7014
4906.921, 265.8535
4908.850, 274.1983
4910.778, 268.5824
4912.707, 270.1259
4914.635, 271.5262
4916.564, 259.9402
4918.492, 266.3501
4920.421, 273.9583
4922.349, 260.8897
4924.278, 258.9346
4926.206, 259.3322
4928.135, 248.9084
4930.063, 244.6459
4931.992, 246.3454
4933.920, 253.9057
4935.849, 251.1230
4937.777, 248.2161
4939.706, 258.8173
4941.634, 244.2171
4943.563, 236.8082
4945.491, 260.2465
4947.419, 252.9930
4949.348, 240.5713
4951.276, 241.7350
4953.205, 248.4416
4955.133, 254.6590
4957.062, 257.3011
4958.990, 257.1182
4960.918, 250.5941
4962.847, 237.4277
4964.775, 231.2734
4966.704, 234.6053
4968.632, 247.1364
4970.561, 248.0182
4972.489, 241.5290
4974.418, 233.3596
4976.346, 251.2016
4978.275, 256.3123
4980.203, 244.3188
4982.132, 254.9132
4984.060, 258.3361
4985.989, 252.1251
4987.917, 252.8911
4989.846, 250.7380
4991.774, 248.0557
4993.703, 257.3121
4995.631, 260.2754
4997.560, 255.4114
4999.488, 241.5627
5001.417, 241.9654
5003.345, 247.8526
5005.273, 243.5365
5007.202, 236.6786
5009.130, 231.2716
5011.059, 230.9786
5012.987, 232.0755
5014.916, 232.4810
5016.844, 230.7685
5018.772, 236.0775
5020.701, 240.0528
5022.629, 237.1275
5024.558, 242.5723
5026.486, 243.7029
5028.415, 236.1398
5030.343, 233.4290
5032.272, 229.1155
5034.200, 224.5586
5036.129, 240.5942
5038.057, 241.9279
5039.986, 229.2727
5041.914, 230.7797
5043.843, 230.2731
5045.771, 230.0884
5047.700, 244.7160
5049.628, 234.5005
5051.557, 217.4419
5053.485, 222.3787
5055.414, 225.7056
5057.342, 225.9113
5059.271, 222.7921
5061.199, 219.1057
5063.127, 218.9364
5065.056, 224.3438
5066.984, 228.2082
5068.913, 228.4046
5070.841, 225.1182
5072.770, 228.2735
5074.698, 225.6920
5076.626, 217.2838
5078.555, 209.4980
5080.483, 209.9078
5082.412, 216.2727
5084.340, 224.6633
5086.269, 222.9503
5088.197, 219.7171
5090.126, 226.2702
5092.054, 228.7405
5093.983, 228.4370
5095.911, 227.0318
5097.840, 229.5766
5099.768, 229.5716
5101.697, 224.4255
5103.625, 217.8047
5105.554, 216.3973
5107.482, 219.7792
5109.411, 219.4458
5111.339, 228.0012
5113.268, 238.5488
5115.196, 234.7226
5117.125, 220.7002
5119.053, 210.6543
5120.981, 218.5423
5122.910, 225.4404
5124.838, 228.3477
5126.767, 226.4362
5128.695, 226.4481
5130.624, 226.6252
5132.552, 225.8874
5134.480, 221.6844
5136.409, 218.5503
5138.337, 217.5745
5140.266, 220.2715
5142.194, 218.2544
5144.123, 215.6457
5146.051, 218.8925
5147.980, 221.2218
5149.908, 221.1525
5151.837, 218.0207
5153.765, 209.9009
5155.694, 211.6013
5157.622, 224.5789
5159.551, 233.4956
5161.479, 232.8136
5163.408, 225.4608
5165.336, 217.6786
5167.265, 216.6424
5169.193, 218.2737
5171.122, 217.9444
5173.050, 217.1370
5174.979, 224.2443
5176.907, 241.9504
5178.835, 226.4207
5180.764, 215.3878
5182.692, 215.5316
5184.621, 213.0017
5186.549, 212.7996
5188.478, 214.9565
5190.406, 218.5632
5192.334, 227.0037
5194.263, 228.5379
5196.191, 214.7840
5198.120, 216.4751
5200.048, 221.9623
5201.977, 226.4520
5203.905, 227.5294
5205.834, 225.6678
5207.762, 224.1918
5209.691, 230.7696
5211.619, 222.4146
5213.548, 215.7695
5215.476, 223.0332
5217.405, 219.5617
5219.333, 214.8787
5221.262, 212.4286
5223.190, 211.0032
5225.119, 214.1244
5227.047, 219.1983
5228.976, 220.0450
5230.904, 231.3593
5232.833, 239.5952
5234.761, 235.9731
5236.689, 225.8505
5238.618, 231.9512
5240.546, 250.1010
5242.475, 246.4710
5244.403, 240.0256
5246.332, 233.1781
5248.260, 221.8987
5250.188, 236.3055
5252.117, 243.8266
5254.045, 232.0337
5255.974, 248.1042
5257.902, 246.8133
5259.831, 231.3362
5261.759, 233.5008
5263.688, 235.1642
5265.616, 234.4949
5267.545, 231.2408
5269.473, 228.2365
5271.402, 228.4660
5273.330, 230.8452
5275.259, 225.7388
5277.187, 225.3667
5279.116, 230.1426
5281.044, 240.8681
5282.973, 240.3210
5284.901, 233.1551
5286.830, 223.6349
5288.758, 228.2482
5290.687, 235.0509
5292.615, 237.0438
5294.543, 224.1029
5296.472, 226.7294
5298.400, 237.0519
5300.329, 247.3621
5302.257, 245.6374
5304.186, 241.3286
5306.114, 239.5227
5308.042, 247.0739
5309.971, 242.9564
5311.899, 240.9666
5313.828, 254.6661
5315.756, 246.8702
5317.685, 239.2944
5319.613, 238.3226
5321.542, 233.2529
5323.470, 233.4368
5325.399, 234.1924
5327.327, 229.3478
5329.256, 229.8131
5331.184, 223.4915
5333.113, 212.4464
5335.041, 225.6737
5336.970, 236.3589
5338.898, 237.6058
5340.827, 220.2458
5342.755, 231.7449
5344.684, 239.6277
5346.612, 234.0802
5348.541, 231.6600
5350.469, 233.6717
5352.397, 235.7847
5354.326, 233.0672
5356.254, 235.1645
5358.183, 233.9079
5360.111, 228.4567
5362.040, 231.1695
5363.968, 234.2989
5365.896, 236.6674
5367.825, 238.4129
5369.753, 242.4484
5371.682, 236.2847
5373.610, 222.8700
5375.539, 224.1198
5377.467, 234.9214
5379.396, 242.8946
5381.324, 236.8266
5383.253, 236.3961
5385.181, 234.3312
5387.110, 231.9028
5389.038, 238.9791
5390.967, 239.9818
5392.895, 239.8432
5394.824, 243.7211
5396.752, 256.0084
5398.681, 259.1528
5400.609, 256.5687
5402.538, 263.7204
5404.466, 267.7643
5406.395, 265.5156
5408.323, 259.4093
5410.251, 275.8940
5412.180, 280.4821
5414.108, 272.6558
5416.037, 259.6070
5417.965, 251.9293
5419.894, 253.1500
5421.822, 260.7111
5423.750, 263.6230
5425.679, 265.9847
5427.607, 262.5532
5429.536, 249.7090
5431.464, 257.7892
5433.393, 263.4487
5435.321, 263.7975
5437.250, 264.4240
5439.178, 260.0828
5441.107, 256.7516
5443.035, 258.6306
5444.964, 273.4392
5446.892, 278.3061
5448.820, 273.5403
5450.749, 262.2137
5452.677, 262.5444
5454.606, 267.1277
5456.534, 272.8887
5458.463, 278.6028
5460.391, 285.0165
5462.320, 289.2854
5464.248, 290.4854
5466.177, 292.9551
5468.105, 288.0885
5470.034, 283.0463
5471.962, 286.2902
5473.891, 292.6892
5475.819, 294.5494
5477.748, 294.0089
5479.676, 299.1353
5481.604, 305.4804
5483.533, 308.9600
5485.461, 310.2509
5487.390, 323.4978
5489.318, 311.9675
5491.247, 298.4331
5493.175, 304.7093
5495.104, 308.4724
5497.032, 309.7425
5498.960, 307.7457
5500.889, 300.6598
5502.817, 305.5049
5504.746, 309.4369
5506.674, 307.8705
5508.603, 302.2609
5510.531, 299.6905
5512.460, 288.0437
5514.388, 266.7457
5516.317, 279.6016
5518.245, 280.4909
5520.174, 272.6907
5522.102, 266.2302
5524.031, 267.9878
5525.959, 268.1983
5527.888, 263.6845
5529.816, 253.6277
5531.745, 252.9326
5533.673, 257.3106
5535.602, 259.8630
5537.530, 249.3926
5539.458, 243.5974
5541.387, 239.9191
5543.315, 236.3382
5545.244, 231.1126
5547.172, 244.0959
5549.101, 250.9807
5551.029, 236.2568
5552.958, 238.5038
5554.886, 235.8462
5556.814, 235.2068
5558.743, 245.0916
5560.671, 222.5964
5562.600, 215.9111
5564.528, 220.3824
5566.457, 212.8286
5568.385, 226.6309
5570.314, 232.1487
5572.242, 223.7314
5574.171, 208.2823
5576.099, 211.5707
5578.028, 215.0900
5579.956, 211.2092
5581.885, 200.7745
5583.813, 199.3120
5585.742, 201.3055
5587.670, 203.8938
5589.599, 213.2917
5591.527, 205.3555
5593.456, 200.0315
5595.384, 209.3218
5597.313, 217.7521
5599.241, 229.6647
5601.169, 231.1351
5603.098, 213.8559
5605.026, 211.4294
5606.955, 211.5930
5608.883, 211.1813
5610.812, 209.7342
5612.740, 209.1265
5614.668, 210.2076
5616.597, 210.0903
5618.525, 206.3455
5620.454, 208.4820
5622.382, 208.6261
5624.311, 206.2089
5626.239, 202.8854
5628.168, 199.3764
5630.096, 196.3661
5632.025, 194.4476
5633.953, 193.5677
5635.882, 201.9544
5637.810, 203.6311
5639.739, 200.9338
5641.667, 203.8447
5643.596, 201.1761
5645.524, 193.6298
5647.453, 189.5263
5649.381, 199.3590
5651.310, 203.9228
5653.238, 194.7263
5655.167, 182.8226
5657.095, 185.9607
5659.023, 184.5014
5660.952, 182.0917
5662.880, 181.2509
5664.809, 183.4885
5666.737, 188.4774
5668.666, 186.9114
5670.594, 182.3258
5672.522, 184.6022
5674.451, 178.8460
5676.379, 172.5612
5678.308, 170.4215
5680.236, 175.0930
5682.165, 177.9297
5684.093, 180.8714
5686.022, 182.3865
5687.950, 180.1731
5689.879, 177.6281
5691.807, 175.7754
5693.736, 174.5633
5695.664, 173.9728
5697.593, 185.2806
5699.521, 174.7317
5701.450, 160.9803
5703.378, 167.6797
5705.307, 164.1781
5707.235, 168.1706
5709.164, 170.2252
5711.092, 162.3439
5713.021, 172.2829
5714.949, 177.7376
5716.877, 177.6645
5718.806, 175.2313
5720.734, 176.2350
5722.663, 168.0625
5724.591, 162.6740
5726.520, 164.8724
5728.448, 163.1313
5730.376, 167.0556
5732.305, 169.1320
5734.233, 168.3136
5736.162, 174.9955
5738.090, 165.3819
5740.019, 170.1334
5741.947, 183.2867
5743.876, 164.3798
5745.804, 174.7409
5747.733, 176.0633
5749.661, 166.8407
5751.590, 161.3864
5753.518, 160.3278
5755.447, 169.8715
5757.375, 172.6851
5759.304, 156.3593
5761.232, 165.1170
5763.161, 163.7314
5765.089, 160.1818
5767.018, 163.7577
5768.946, 174.0907
5770.875, 160.7422
5772.803, 154.8081
5774.731, 163.9618
5776.660, 162.2711
5778.588, 159.3690
5780.517, 158.5498
5782.445, 160.0200
5784.374, 162.8680
5786.302, 160.8646
5788.230, 167.9040
5790.159, 171.5066
5792.087, 157.0818
5794.016, 159.9297
5795.944, 156.2919
5797.873, 153.9362
5799.801, 155.7799
5801.730, 139.0732
5803.658, 144.7191
5805.587, 149.0226
5807.515, 146.0059
5809.444, 148.8815
5811.372, 158.3775
5813.301, 161.9073
5815.229, 158.3689
5817.158, 151.9048
5819.086, 156.0582
5821.015, 151.8372
5822.943, 147.5387
5824.872, 148.7929
5826.800, 142.6003
5828.729, 147.0157
5830.657, 153.6095
5832.585, 156.7636
5834.514, 154.8185
5836.442, 147.0506
5838.371, 143.5709
5840.299, 143.2180
5842.228, 141.9156
5844.156, 139.1798
5846.084, 146.5476
5848.013, 150.0282
5849.941, 145.4101
5851.870, 146.7684
5853.798, 144.2392
5855.727, 145.3993
5857.655, 148.4483
5859.584, 147.5212
5861.512, 147.0525
5863.441, 141.2066
5865.369, 142.0035
5867.298, 154.8470
5869.226, 166.3402
5871.155, 161.2079
5873.083, 150.0566
5875.012, 143.2411
5876.940, 146.8095
5878.869, 145.7595
5880.797, 146.9179
5882.726, 149.8053
5884.654, 151.0378
5886.583, 141.0443
5888.511, 142.6067
5890.439, 146.0663
5892.368, 149.7915
5894.296, 158.5011
5896.225, 154.5939
5898.153, 146.2562
5900.082, 145.6705
5902.010, 152.9545
5903.938, 136.9080
5905.867, 132.2476
5907.795, 139.0021
5909.724, 150.2783
5911.652, 158.5791
5913.581, 139.6996
5915.509, 145.6682
5917.438, 151.0320
5919.366, 142.7267
5921.295, 144.2475
5923.223, 138.7001
5925.152, 140.5173
5927.080, 144.9334
5929.009, 143.5300
5930.937, 149.7047
5932.866, 143.8365
5934.794, 143.6279
5936.723, 147.3289
5938.651, 136.9682
5940.580, 151.8385
5942.508, 152.3670
5944.437, 147.1028
5946.365, 148.9779
5948.293, 156.7172
5950.222, 150.4436
5952.150, 150.7710
5954.079, 152.2358
5956.007, 145.4969
5957.936, 160.7289
5959.864, 157.1220
5961.792, 153.9686
5963.721, 157.2960
5965.649, 157.3815
5967.578, 160.6628
5969.506, 158.4098
5971.435, 157.6012
5973.363, 159.4452
5975.292, 152.0336
5977.220, 158.4898
5979.149, 161.1037
5981.077, 157.2862
5983.006, 150.6759
5984.934, 143.1875
5986.863, 150.7950
5988.791, 157.7947
5990.720, 156.3404
5992.648, 148.0203
5994.577, 156.5082
5996.505, 160.6131
5998.434, 162.1546
6000.362, 161.3913
6002.291, 155.8481
6004.219, 156.9485
6006.147, 152.5614
6008.076, 156.2627
6010.004, 164.4777
6011.933, 151.3787
6013.861, 156.7682
6015.790, 154.3110
6017.718, 155.0090
6019.646, 162.0785
6021.575, 154.5358
6023.503, 157.3064
6025.432, 156.7344
6027.360, 155.4194
6029.289, 156.8810
6031.217, 158.9900
6033.146, 156.4402
6035.074, 148.7456
6037.003, 151.0701
6038.931, 166.5410
6040.860, 164.6968
6042.788, 175.1646
6044.717, 177.0346
6046.645, 170.8256
6048.574, 165.7664
6050.502, 175.4309
6052.431, 174.3316
6054.359, 182.6722
6056.288, 189.0707
6058.216, 182.4772
6060.145, 177.4599
6062.073, 181.8091
6064.001, 176.5684
6065.930, 171.1757
6067.858, 176.5992
6069.787, 187.6877
6071.715, 191.0888
6073.644, 205.7322
6075.572, 216.5011
6077.500, 211.2504
6079.429, 201.6759
6081.357, 205.9389
6083.286, 217.4737
6085.214, 227.7537
6087.143, 230.8124
6089.071, 219.7842
6091.000, 229.3165
6092.928, 218.5345
6094.857, 216.6056
6096.785, 232.4563
6098.714, 227.1886
6100.642, 225.7760
6102.571, 227.4209
6104.499, 234.9797
6106.428, 245.1688
6108.356, 249.2889
6110.285, 234.6342
6112.213, 240.7023
6114.142, 245.2035
6116.070, 247.3849
6117.999, 264.6056
6119.927, 264.0680
6121.855, 260.2597
6123.784, 260.5353
6125.712, 269.0858
6127.641, 284.1758
6129.569, 281.0591
6131.498, 290.7543
6133.426, 291.1024
6135.354, 296.2159
6137.283, 314.5824
6139.211, 317.3903
6141.140, 323.5127
6143.068, 329.0313
6144.997, 341.6674
6146.925, 358.3229
6148.854, 362.7549
6150.782, 368.1725
6152.711, 373.6098
6154.639, 380.0530
6156.568, 383.7839
6158.496, 379.8426
6160.425, 362.2077
6162.353, 371.8098
6164.282, 376.2208
6166.210, 371.0550
6168.139, 366.2670
6170.067, 372.1640
6171.996, 385.9432
6173.924, 387.3861
6175.853, 383.4250
6177.781, 381.4460
6179.709, 382.8893
6181.638, 388.4076
6183.566, 377.7443
6185.495, 401.2574
6187.423, 427.6075
6189.352, 421.5037
6191.280, 423.0066
6193.208, 416.1741
6195.137, 420.9535
6197.065, 439.4564
6198.994, 455.3769
6200.922, 452.5235
6202.851, 480.8950
6204.779, 507.1678
6206.708, 528.4128
6208.636, 547.5085
6210.565, 564.0351
6212.493, 572.0208
6214.422, 584.0421
6216.350, 603.3635
6218.279, 624.2564
6220.207, 641.7083
6222.136, 656.2720
6224.064, 683.2701
6225.993, 712.5577
6227.921, 734.0330
6229.850, 765.1143
6231.778, 806.8920
6233.707, 830.7375
6235.635, 884.8077
6237.563, 927.2552
6239.492, 957.5040
6241.420, 1002.783
6243.349, 1079.678
6245.277, 1160.724
6247.206, 1218.939
6249.134, 1312.366
6251.063, 1400.173
6252.991, 1477.714
6254.919, 1576.770
6256.848, 1697.004
6258.776, 1827.618
6260.705, 1862.738
6262.633, 1926.124
6264.562, 2040.496
6266.490, 2084.136
6268.419, 2116.181
6270.347, 2179.202
6272.276, 2231.679
6274.204, 2227.292
6276.133, 2182.342
6278.061, 2170.577
6279.990, 2162.218
6281.918, 2144.715
6283.847, 2142.593
6285.775, 2122.425
6287.704, 2070.125
6289.632, 2035.598
6291.561, 2045.397
6293.489, 2039.939
6295.417, 2055.268
6297.346, 2112.922
6299.274, 2198.697
6301.203, 2269.783
6303.131, 2370.373
6305.060, 2518.013
6306.988, 2645.634
6308.917, 2808.039
6310.845, 3051.808
6312.773, 3315.638
6314.702, 3561.769
6316.630, 3802.983
6318.559, 4062.336
6320.487, 4373.247
6322.416, 4701.646
6324.344, 4921.432
6326.273, 5143.261
6328.201, 5294.615
6330.130, 5372.799
6332.058, 5428.626
6333.987, 5460.563
6335.915, 5407.558
6337.844, 5337.576
6339.772, 5343.282
6341.701, 5239.812
6343.629, 5081.456
6345.558, 4972.236
6347.486, 4928.118
6349.415, 4815.109
6351.343, 4731.144
6353.271, 4640.656
6355.200, 4539.045
6357.128, 4412.792
6359.057, 4254.532
6360.985, 4132.966
6362.914, 4006.377
6364.842, 3888.165
6366.771, 3744.863
6368.699, 3608.822
6370.627, 3506.062
6372.556, 3382.878
6374.484, 3285.262
6376.413, 3189.580
6378.341, 3118.215
6380.270, 3027.107
6382.198, 2942.831
6384.127, 2943.476
6386.055, 2914.336
6387.984, 2829.194
6389.912, 2814.698
6391.841, 2780.098
6393.769, 2723.612
6395.698, 2710.277
6397.626, 2729.595
6399.555, 2738.429
6401.483, 2701.957
6403.412, 2640.357
6405.340, 2660.007
6407.269, 2732.977
6409.197, 2718.019
6411.125, 2774.118
6413.054, 2750.338
6414.982, 2745.231
6416.911, 2695.504
6418.839, 2663.494
6420.768, 2711.585
6422.696, 2749.485
6424.625, 2713.089
6426.553, 2696.344
6428.481, 2659.461
6430.410, 2639.631
6432.338, 2629.694
6434.267, 2598.827
6436.195, 2594.314
6438.124, 2541.407
6440.052, 2518.654
6441.981, 2485.070
6443.909, 2445.412
6445.838, 2407.492
6447.766, 2365.159
6449.695, 2372.239
6451.623, 2316.666
6453.552, 2295.563
6455.480, 2255.756
6457.409, 2240.358
6459.337, 2252.198
6461.266, 2221.299
6463.194, 2221.224
6465.123, 2164.564
6467.051, 2135.933
6468.979, 2126.332
6470.908, 2132.630
6472.836, 2130.146
6474.765, 2087.037
6476.693, 2129.355
6478.622, 2109.257
6480.550, 2119.884
6482.479, 2122.114
6484.407, 2131.820
6486.335, 2167.973
6488.264, 2205.621
6490.192, 2188.294
6492.121, 2235.003
6494.049, 2294.364
6495.978, 2333.429
6497.906, 2349.022
6499.835, 2368.572
6501.763, 2408.798
6503.692, 2413.400
6505.620, 2408.584
6507.549, 2387.877
6509.477, 2379.083
6511.406, 2374.163
6513.334, 2341.098
6515.263, 2280.343
6517.191, 2274.111
6519.120, 2185.637
6521.048, 2151.822
6522.977, 2100.351
6524.905, 2059.828
6526.833, 2021.639
6528.762, 1967.781
6530.690, 1923.497
6532.619, 1897.474
6534.547, 1839.377
6536.476, 1807.664
6538.404, 1760.007
6540.333, 1701.434
6542.261, 1663.736
6544.189, 1649.125
6546.118, 1593.254
6548.046, 1567.903
6549.975, 1508.484
6551.903, 1495.759
6553.832, 1481.109
6555.760, 1437.646
6557.689, 1393.067
6559.617, 1371.147
6561.546, 1346.949
6563.474, 1334.726
6565.403, 1275.039
6567.331, 1236.450
6569.260, 1213.322
6571.188, 1190.083
6573.117, 1173.464
6575.045, 1159.801
6576.974, 1125.539
6578.902, 1100.686
6580.831, 1087.316
6582.759, 1060.867
6584.688, 1035.686
6586.616, 1010.707
6588.544, 992.8271
6590.473, 984.2118
6592.401, 954.8607
6594.330, 942.6851
6596.258, 913.2385
6598.187, 897.1600
6600.115, 889.3561
6602.043, 886.1436
6603.972, 878.2258
6605.900, 865.4968
6607.829, 875.6439
##END=



