##NAMES=Stolzite
##RRUFFID=R050568
##IDEAL CHEMISTRY=Pb(WO_4_)
##LOCALITY=Broken Hill, New South Wales, Australia
##OWNER=RRUFF
##SOURCE=University of Arizona Mineral Museum
##DESCRIPTION=Yellowish brown tetragonal dipyramidal crystals
##STATUS=The identification of this mineral is confirmed by single-crystal X-ray diffraction and chemical analysis
##URL=https://www.rruff.net/odr/rruff_sample/R050568
##MEASURED CHEMISTRY=Pb_1.00_W_1.00_O_4_
##DIFFRACTION SAMPLE DESCRIPTION=Single crystal, powder profile is calculated
##CELL PARAMETERS=a: 5.459 b: 5.459 c: 12.051 alpha: 90 beta: 90 gamma: 90 volume: 359.09 crystal system: tetragonal
##FILETYPE=Raman RAW
##RAMAN WAVELENGTH=780

81.48875, 0.0000000E+00
83.41722, 1721.163
85.34569, 1806.993
87.27415, 1926.311
89.20262, 2072.546
91.13109, 2271.435
93.05956, 2348.404
94.98802, 2306.965
96.91649, 2251.420
98.84496, 2179.382
100.7734, 2097.653
102.7019, 2017.679
104.6304, 1934.905
106.5588, 1861.522
108.4873, 1796.435
110.4158, 1738.052
112.3442, 1681.385
114.2727, 1627.081
116.2011, 1581.890
118.1296, 1542.866
120.0581, 1513.713
121.9865, 1494.064
123.9150, 1484.104
125.8435, 1482.029
127.7719, 1488.198
129.7004, 1503.383
131.6289, 1523.865
133.5574, 1566.942
135.4858, 1640.318
137.4143, 1731.849
139.3428, 1839.570
141.2712, 1958.639
143.1997, 2080.352
145.1281, 2206.495
147.0566, 2320.186
148.9851, 2417.452
150.9135, 2503.055
152.8420, 2569.881
154.7705, 2630.672
156.6989, 2704.677
158.6274, 2790.987
160.5559, 2908.497
162.4843, 3069.517
164.4128, 3246.776
166.3413, 3447.238
168.2697, 3646.410
170.1982, 3831.354
172.1267, 3994.940
174.0551, 4068.708
175.9836, 4049.746
177.9121, 3924.124
179.8405, 3659.022
181.7690, 3327.585
183.6975, 2962.346
185.6259, 2581.479
187.5544, 2250.407
189.4829, 1970.606
191.4113, 1748.368
193.3398, 1599.667
195.2683, 1487.495
197.1967, 1399.894
199.1252, 1334.191
201.0537, 1279.889
202.9821, 1237.098
204.9106, 1206.063
206.8391, 1190.841
208.7675, 1182.538
210.6960, 1181.316
212.6245, 1184.043
214.5529, 1186.616
216.4814, 1189.201
218.4099, 1193.667
220.3383, 1202.266
222.2668, 1209.566
224.1953, 1213.531
226.1237, 1216.935
228.0522, 1222.122
229.9807, 1228.384
231.9091, 1234.302
233.8376, 1240.236
235.7661, 1244.425
237.6945, 1245.584
239.6230, 1246.607
241.5515, 1248.503
243.4799, 1251.093
245.4084, 1254.324
247.3369, 1257.018
249.2654, 1261.709
251.1938, 1263.523
253.1223, 1266.453
255.0508, 1270.016
256.9792, 1275.679
258.9077, 1283.509
260.8362, 1294.183
262.7646, 1309.967
264.6931, 1331.317
266.6216, 1357.157
268.5500, 1383.629
270.4785, 1419.511
272.4070, 1464.974
274.3354, 1524.677
276.2639, 1598.902
278.1924, 1688.323
280.1208, 1809.001
282.0493, 1956.948
283.9778, 2145.372
285.9062, 2380.653
287.8347, 2651.280
289.7632, 2970.625
291.6916, 3309.207
293.6201, 3632.860
295.5486, 3942.111
297.4770, 4215.034
299.4055, 4442.210
301.3340, 4663.344
303.2624, 4864.262
305.1909, 5094.529
307.1194, 5373.720
309.0478, 5702.286
310.9763, 6094.751
312.9048, 6563.332
314.8332, 7014.270
316.7617, 7477.595
318.6902, 7837.230
320.6186, 8090.206
322.5471, 8174.991
324.4756, 8037.268
326.4040, 7706.465
328.3325, 7214.740
330.2609, 6560.827
332.1894, 5904.313
334.1179, 5221.566
336.0463, 4634.280
337.9748, 4176.343
339.9033, 3835.419
341.8317, 3633.094
343.7602, 3539.565
345.6887, 3506.063
347.6171, 3527.118
349.5456, 3548.317
351.4741, 3575.881
353.4025, 3569.930
355.3310, 3522.512
357.2595, 3435.952
359.1879, 3295.275
361.1164, 3121.429
363.0449, 2943.005
364.9733, 2763.870
366.9018, 2616.874
368.8303, 2508.481
370.7587, 2422.877
372.6872, 2362.899
374.6157, 2315.106
376.5441, 2276.772
378.4726, 2245.223
380.4011, 2220.002
382.3295, 2198.662
384.2580, 2171.188
386.1865, 2135.474
388.1149, 2099.787
390.0434, 2061.973
391.9719, 2029.187
393.9003, 2006.979
395.8288, 1987.934
397.7573, 1963.851
399.6857, 1937.740
401.6142, 1916.232
403.5427, 1899.775
405.4711, 1886.232
407.3996, 1876.302
409.3281, 1867.856
411.2565, 1858.000
413.1850, 1852.327
415.1135, 1860.338
417.0419, 1870.775
418.9704, 1866.935
420.8989, 1850.124
422.8273, 1840.974
424.7558, 1843.584
426.6843, 1847.613
428.6127, 1854.295
430.5412, 1860.552
432.4697, 1864.877
434.3981, 1868.871
436.3266, 1873.138
438.2551, 1878.237
440.1835, 1886.154
442.1120, 1897.767
444.0405, 1905.440
445.9689, 1907.181
447.8974, 1909.405
449.8259, 1912.506
451.7543, 1917.040
453.6828, 1924.804
455.6113, 1932.478
457.5397, 1937.043
459.4682, 1939.588
461.3967, 1942.739
463.3251, 1945.907
465.2536, 1951.807
467.1821, 1961.848
469.1105, 1970.600
471.0390, 1975.621
472.9675, 1980.796
474.8959, 1988.492
476.8244, 1997.102
478.7529, 2004.832
480.6813, 2012.338
482.6098, 2021.340
484.5383, 2031.626
486.4667, 2043.631
488.3952, 2057.466
490.3237, 2072.260
492.2521, 2085.034
494.1806, 2103.632
496.1091, 2136.753
498.0375, 2171.124
499.9660, 2195.216
501.8945, 2211.910
503.8229, 2225.898
505.7514, 2237.951
507.6799, 2258.019
509.6083, 2288.235
511.5368, 2315.571
513.4653, 2337.906
515.3937, 2355.461
517.3222, 2367.000
519.2507, 2375.841
521.1791, 2385.463
523.1076, 2392.719
525.0361, 2392.234
526.9645, 2384.934
528.8930, 2375.569
530.8215, 2364.499
532.7499, 2347.148
534.6784, 2321.698
536.6069, 2292.536
538.5353, 2257.792
540.4638, 2223.947
542.3923, 2196.924
544.3207, 2168.373
546.2492, 2128.633
548.1777, 2083.135
550.1061, 2041.781
552.0346, 2003.855
553.9631, 1964.838
555.8915, 1929.238
557.8200, 1896.432
559.7485, 1860.816
561.6769, 1833.106
563.6054, 1800.994
565.5339, 1766.909
567.4623, 1729.111
569.3908, 1692.740
571.3193, 1664.881
573.2477, 1640.943
575.1762, 1613.205
577.1047, 1581.983
579.0331, 1551.750
580.9616, 1522.640
582.8901, 1494.863
584.8185, 1468.517
586.7470, 1443.080
588.6755, 1418.866
590.6039, 1395.259
592.5324, 1371.477
594.4609, 1348.381
596.3893, 1326.573
598.3178, 1306.139
600.2463, 1287.391
602.1747, 1267.515
604.1032, 1251.195
606.0317, 1230.864
607.9601, 1212.384
609.8886, 1195.778
611.8171, 1180.604
613.7455, 1167.110
615.6740, 1154.583
617.6025, 1142.839
619.5309, 1131.989
621.4594, 1121.923
623.3879, 1112.833
625.3163, 1104.156
627.2448, 1097.171
629.1733, 1095.473
631.1017, 1091.716
633.0302, 1091.487
634.9587, 1093.667
636.8871, 1094.890
638.8156, 1103.756
640.7441, 1109.315
642.6725, 1109.311
644.6010, 1106.008
646.5295, 1097.963
648.4579, 1089.948
650.3864, 1083.453
652.3149, 1079.148
654.2433, 1078.710
656.1718, 1079.955
658.1003, 1078.398
660.0287, 1074.982
661.9572, 1074.698
663.8857, 1077.507
665.8141, 1081.966
667.7426, 1088.307
669.6711, 1091.827
671.5995, 1091.594
673.5280, 1089.293
675.4565, 1083.225
677.3849, 1078.086
679.3134, 1076.900
681.2419, 1075.340
683.1703, 1068.665
685.0988, 1061.912
687.0273, 1061.465
688.9557, 1064.452
690.8842, 1065.877
692.8127, 1066.063
694.7411, 1065.605
696.6696, 1064.721
698.5980, 1064.733
700.5265, 1065.743
702.4550, 1067.313
704.3834, 1068.802
706.3119, 1072.260
708.2404, 1079.978
710.1688, 1086.257
712.0973, 1086.425
714.0258, 1088.708
715.9542, 1096.037
717.8827, 1108.750
719.8112, 1128.883
721.7396, 1153.340
723.6681, 1174.511
725.5966, 1199.100
727.5250, 1237.906
729.4535, 1292.528
731.3820, 1372.112
733.3104, 1478.209
735.2389, 1597.696
737.1674, 1740.274
739.0958, 1869.522
741.0243, 1992.618
742.9528, 2087.747
744.8812, 2136.448
746.8097, 2184.985
748.7382, 2231.954
750.6666, 2303.127
752.5951, 2419.971
754.5236, 2554.342
756.4520, 2714.323
758.3805, 2854.623
760.3090, 2950.031
762.2374, 2986.698
764.1659, 2942.073
766.0944, 2822.057
768.0228, 2630.399
769.9513, 2372.394
771.8798, 2102.212
773.8082, 1814.988
775.7367, 1560.004
777.6652, 1334.341
779.5936, 1156.215
781.5221, 1031.115
783.4506, 935.4363
785.3790, 869.4198
787.3075, 820.6401
789.2360, 789.2433
791.1644, 766.8173
793.0929, 752.9203
795.0214, 742.9037
796.9498, 732.9083
798.8783, 727.6834
800.8068, 733.0664
802.7352, 741.8175
804.6637, 746.9331
806.5922, 751.4128
808.5206, 760.2277
810.4491, 771.0621
812.3776, 778.6807
814.3060, 783.8739
816.2345, 790.3078
818.1630, 797.4821
820.0914, 802.2418
822.0199, 804.3509
823.9484, 803.0309
825.8768, 798.2485
827.8053, 793.7615
829.7338, 789.7760
831.6622, 787.3449
833.5907, 787.6422
835.5192, 786.4394
837.4476, 782.3597
839.3761, 777.9288
841.3046, 773.7357
843.2330, 769.0883
845.1615, 763.3675
847.0900, 757.9102
849.0184, 752.2144
850.9469, 748.0636
852.8754, 744.0248
854.8038, 745.1879
856.7323, 752.5188
858.6608, 769.8073
860.5892, 794.0057
862.5177, 836.4310
864.4462, 892.2617
866.3746, 990.0223
868.3031, 1149.184
870.2316, 1397.805
872.1600, 1799.702
874.0885, 2343.339
876.0170, 3017.023
877.9454, 3801.105
879.8739, 4559.768
881.8024, 5294.157
883.7308, 5801.800
885.6593, 6044.567
887.5878, 6288.595
889.5162, 6444.514
891.4447, 6961.772
893.3732, 7935.448
895.3016, 9059.799
897.2301, 10500.57
899.1586, 11647.82
901.0870, 12562.34
903.0155, 12876.58
904.9440, 12501.55
906.8724, 11590.27
908.8009, 9999.006
910.7294, 8309.872
912.6578, 6578.174
914.5863, 5044.500
916.5148, 3778.150
918.4432, 2776.531
920.3717, 2084.452
922.3002, 1582.098
924.2286, 1262.861
926.1571, 1038.201
928.0856, 888.2418
930.0140, 779.7863
931.9425, 704.4785
933.8710, 649.1774
935.7994, 610.5933
937.7279, 580.3995
939.6564, 552.5623
941.5848, 528.1796
943.5133, 508.9963
945.4418, 493.5659
947.3702, 480.5576
949.2987, 469.6037
951.2272, 460.7047
953.1556, 453.2668
955.0841, 446.2820
957.0126, 439.8621
958.9410, 434.4167
960.8695, 429.9096
962.7980, 425.8972
964.7264, 422.2569
966.6549, 419.4261
968.5834, 417.7049
970.5118, 417.5023
972.4403, 415.7012
974.3688, 416.7515
976.2972, 414.5275
978.2257, 413.8840
980.1542, 414.5685
982.0826, 415.5363
984.0111, 416.5181
985.9396, 416.7076
987.8680, 416.2117
989.7965, 415.6581
991.7250, 415.3336
993.6534, 416.3622
995.5819, 418.3937
997.5104, 419.2446
999.4388, 419.1169
1001.367, 419.5340
1003.296, 420.4211
1005.224, 423.2387
1007.153, 424.8498
1009.081, 430.9476
1011.010, 431.3647
1012.938, 434.4303
1014.867, 440.6567
1016.795, 443.8210
1018.724, 443.3912
1020.652, 443.5633
1022.580, 444.1716
1024.509, 446.8465
1026.437, 452.0259
1028.366, 457.5551
1030.294, 463.1113
1032.223, 468.6114
1034.151, 474.4833
1036.080, 479.5377
1038.008, 483.5553
1039.937, 488.8914
1041.865, 491.6521
1043.794, 493.4705
1045.722, 496.2978
1047.651, 495.1588
1049.579, 495.3495
1051.507, 496.0700
1053.436, 497.4129
1055.364, 499.0038
1057.293, 501.4188
1059.221, 503.4643
1061.150, 507.7923
1063.078, 512.4395
1065.007, 517.2191
1066.935, 520.2807
1068.864, 524.8273
1070.792, 525.8885
1072.721, 531.8305
1074.649, 535.3127
1076.578, 536.9606
1078.506, 540.9546
1080.434, 547.0705
1082.363, 554.6800
1084.291, 563.5672
1086.220, 571.7298
1088.148, 579.2927
1090.077, 587.2459
1092.005, 595.3416
1093.934, 602.5473
1095.862, 609.6113
1097.791, 618.6551
1099.719, 629.3570
1101.648, 641.3428
1103.576, 654.2336
1105.505, 666.8605
1107.433, 679.4728
1109.361, 693.7584
1111.290, 708.3466
1113.218, 720.7054
1115.147, 730.5173
1117.075, 737.0929
1119.004, 740.5689
1120.932, 739.3795
1122.861, 736.5115
1124.789, 735.2429
1126.718, 736.3580
1128.646, 741.9772
1130.575, 749.5771
1132.503, 756.1741
1134.432, 763.0920
1136.360, 771.6304
1138.288, 781.1852
1140.217, 791.1183
1142.145, 802.5748
1144.074, 816.9465
1146.002, 831.3414
1147.931, 843.4401
1149.859, 856.3820
1151.788, 872.0134
1153.716, 887.9881
1155.645, 903.6481
1157.573, 919.6470
1159.502, 935.6146
1161.430, 952.8489
1163.359, 971.8102
1165.287, 991.8217
1167.215, 1012.768
1169.144, 1035.260
1171.072, 1059.702
1173.001, 1083.717
1174.929, 1106.231
1176.858, 1132.297
1178.786, 1162.919
1180.715, 1193.878
1182.643, 1225.063
1184.572, 1257.746
1186.500, 1288.669
1188.429, 1323.141
1190.357, 1352.725
1192.286, 1384.850
1194.214, 1419.104
1196.142, 1455.623
1198.071, 1494.579
1199.999, 1535.067
1201.928, 1578.158
1203.856, 1628.045
1205.785, 1682.688
1207.713, 1738.011
1209.642, 1794.362
1211.570, 1853.155
1213.499, 1913.434
1215.427, 1972.531
1217.356, 2033.894
1219.284, 2102.948
1221.213, 2171.876
1223.141, 2235.688
1225.069, 2297.043
1226.998, 2357.365
1228.926, 2414.267
1230.855, 2466.094
1232.783, 2516.925
1234.712, 2565.263
1236.640, 2617.374
1238.569, 2674.567
1240.497, 2733.467
1242.426, 2793.557
1244.354, 2859.580
1246.283, 2931.093
1248.211, 3009.621
1250.140, 3095.256
1252.068, 3179.918
1253.996, 3264.786
1255.925, 3359.822
1257.853, 3465.071
1259.782, 3580.455
1261.710, 3704.531
1263.639, 3834.736
1265.567, 3971.950
1267.496, 4113.360
1269.424, 4268.311
1271.353, 4445.149
1273.281, 4636.103
1275.210, 4835.350
1277.138, 5048.341
1279.067, 5276.716
1280.995, 5525.366
1282.923, 5795.752
1284.852, 6084.997
1286.780, 6393.150
1288.709, 6716.379
1290.637, 7054.450
1292.566, 7413.515
1294.494, 7792.713
1296.423, 8192.798
1298.351, 8614.363
1300.280, 9055.357
1302.208, 9517.319
1304.137, 10008.70
1306.065, 10528.58
1307.994, 11076.46
1309.922, 11652.26
1311.850, 12254.65
1313.779, 12888.08
1315.707, 13551.85
1317.636, 14245.35
1319.564, 14979.91
1321.493, 15732.68
1323.421, 16498.97
1325.350, 17275.07
1327.278, 18065.76
1329.207, 18835.76
1331.135, 19581.71
1333.064, 20304.99
1334.992, 21000.78
1336.921, 21620.48
1338.849, 22164.71
1340.777, 22649.42
1342.706, 23058.28
1344.634, 23360.95
1346.563, 23565.56
1348.491, 23673.89
1350.420, 23688.07
1352.348, 23597.94
1354.277, 23438.76
1356.205, 23218.70
1358.134, 22962.36
1360.062, 22644.65
1361.991, 22355.70
1363.919, 22100.88
1365.848, 21900.07
1367.776, 21754.43
1369.704, 21676.08
1371.633, 21667.28
1373.561, 21776.95
1375.490, 21996.87
1377.418, 22314.17
1379.347, 22709.34
1381.275, 23152.52
1383.204, 23650.17
1385.132, 24219.83
1387.061, 24811.05
1388.989, 25410.91
1390.918, 25992.60
1392.846, 26555.67
1394.775, 27057.60
1396.703, 27496.13
1398.631, 27819.50
1400.560, 28028.01
1402.488, 28111.29
1404.417, 28072.63
1406.345, 27906.96
1408.274, 27631.45
1410.202, 27288.21
1412.131, 26877.49
1414.059, 26373.42
1415.988, 25841.93
1417.916, 25311.91
1419.845, 24783.10
1421.773, 24253.32
1423.702, 23762.39
1425.630, 23310.76
1427.558, 22927.98
1429.487, 22620.49
1431.415, 22379.66
1433.344, 22200.91
1435.272, 22070.50
1437.201, 21974.57
1439.129, 21895.61
1441.058, 21835.07
1442.986, 21789.66
1444.915, 21757.72
1446.843, 21747.45
1448.771, 21744.83
1450.700, 21749.46
1452.628, 21741.55
1454.557, 21717.45
1456.485, 21684.02
1458.414, 21645.32
1460.342, 21605.11
1462.271, 21572.71
1464.199, 21562.75
1466.128, 21576.03
1468.056, 21620.33
1469.985, 21689.26
1471.913, 21779.34
1473.842, 21887.15
1475.770, 22013.24
1477.698, 22145.97
1479.627, 22286.88
1481.555, 22417.82
1483.484, 22544.36
1485.412, 22677.04
1487.341, 22804.80
1489.269, 22908.87
1491.198, 23008.97
1493.126, 23124.24
1495.055, 23222.82
1496.983, 23287.39
1498.912, 23359.26
1500.840, 23448.04
1502.769, 23534.39
1504.697, 23617.97
1506.625, 23757.59
1508.554, 23949.37
1510.482, 24172.20
1512.411, 24441.21
1514.339, 24780.20
1516.268, 25187.04
1518.196, 25649.84
1520.125, 26186.00
1522.053, 26806.77
1523.982, 27504.70
1525.910, 28279.57
1527.839, 29105.62
1529.767, 29973.82
1531.696, 30875.57
1533.624, 31804.79
1535.552, 32749.56
1537.481, 33673.47
1539.409, 34580.68
1541.338, 35432.96
1543.266, 36209.73
1545.195, 36885.12
1547.123, 37463.71
1549.052, 37941.80
1550.980, 38305.23
1552.909, 38529.59
1554.837, 38618.34
1556.766, 38575.55
1558.694, 38418.20
1560.623, 38135.63
1562.551, 37775.95
1564.479, 37348.87
1566.408, 36861.10
1568.336, 36315.98
1570.265, 35726.80
1572.193, 35095.80
1574.122, 34431.09
1576.050, 33772.93
1577.979, 33148.15
1579.907, 32526.13
1581.836, 31926.78
1583.764, 31310.26
1585.693, 30775.41
1587.621, 30231.92
1589.550, 29695.12
1591.478, 29221.07
1593.406, 28798.19
1595.335, 28406.33
1597.263, 28035.63
1599.192, 27683.71
1601.120, 27365.73
1603.049, 27080.25
1604.977, 26805.60
1606.906, 26540.31
1608.834, 26284.96
1610.763, 26042.96
1612.691, 25803.00
1614.620, 25563.88
1616.548, 25329.67
1618.477, 25095.67
1620.405, 24859.53
1622.333, 24603.19
1624.262, 24346.61
1626.190, 24080.66
1628.119, 23802.87
1630.047, 23523.51
1631.976, 23231.22
1633.904, 22931.37
1635.833, 22621.89
1637.761, 22305.16
1639.690, 21983.00
1641.618, 21655.08
1643.547, 21326.32
1645.475, 20996.43
1647.404, 20671.34
1649.332, 20364.41
1651.260, 20076.33
1653.189, 19788.46
1655.117, 19494.46
1657.046, 19213.75
1658.974, 18950.53
1660.903, 18715.33
1662.831, 18483.06
1664.760, 18280.29
1666.688, 18076.52
1668.617, 17906.94
1670.545, 17745.29
1672.474, 17601.49
1674.402, 17484.51
1676.331, 17378.68
1678.259, 17291.67
1680.188, 17233.34
1682.116, 17201.32
1684.044, 17183.66
1685.973, 17176.41
1687.901, 17180.43
1689.830, 17192.22
1691.758, 17230.04
1693.687, 17288.16
1695.615, 17341.47
1697.544, 17399.94
1699.472, 17466.82
1701.401, 17537.10
1703.329, 17617.97
1705.258, 17705.99
1707.186, 17787.77
1709.115, 17855.29
1711.043, 17921.73
1712.971, 17998.89
1714.900, 18071.12
1716.828, 18126.75
1718.757, 18172.94
1720.685, 18213.86
1722.614, 18262.33
1724.542, 18314.26
1726.471, 18360.29
1728.399, 18402.50
1730.328, 18453.93
1732.256, 18518.33
1734.185, 18581.78
1736.113, 18653.35
1738.042, 18743.48
1739.970, 18849.93
1741.898, 18985.46
1743.827, 19161.17
1745.755, 19352.25
1747.684, 19553.54
1749.612, 19762.38
1751.541, 19983.26
1753.469, 20219.08
1755.398, 20462.20
1757.326, 20710.01
1759.255, 20944.35
1761.183, 21153.39
1763.112, 21335.32
1765.040, 21490.76
1766.969, 21596.04
1768.897, 21643.69
1770.825, 21641.95
1772.754, 21579.31
1774.682, 21436.95
1776.611, 21238.98
1778.539, 20997.96
1780.468, 20707.48
1782.396, 20363.99
1784.325, 19959.03
1786.253, 19512.50
1788.182, 19049.93
1790.110, 18572.12
1792.039, 18059.87
1793.967, 17537.06
1795.896, 17022.18
1797.824, 16514.61
1799.752, 16009.56
1801.681, 15500.82
1803.609, 15000.03
1805.538, 14513.05
1807.466, 14056.84
1809.395, 13621.85
1811.323, 13180.08
1813.252, 12765.11
1815.180, 12383.83
1817.109, 12003.56
1819.037, 11630.09
1820.966, 11280.92
1822.894, 10956.23
1824.823, 10649.91
1826.751, 10345.88
1828.679, 10053.38
1830.608, 9772.725
1832.536, 9495.428
1834.465, 9228.529
1836.393, 8972.798
1838.322, 8711.661
1840.250, 8458.366
1842.179, 8222.911
1844.107, 7974.509
1846.036, 7728.587
1847.964, 7501.405
1849.893, 7281.008
1851.821, 7065.138
1853.750, 6845.022
1855.678, 6639.767
1857.606, 6434.031
1859.535, 6235.606
1861.463, 6040.211
1863.392, 5846.950
1865.320, 5663.099
1867.249, 5489.754
1869.177, 5324.617
1871.106, 5164.503
1873.034, 5009.446
1874.963, 4859.202
1876.891, 4713.279
1878.820, 4572.766
1880.748, 4441.892
1882.677, 4317.946
1884.605, 4191.593
1886.533, 4063.885
1888.462, 3941.745
1890.390, 3833.356
1892.319, 3732.737
1894.247, 3631.767
1896.176, 3533.206
1898.104, 3447.061
1900.033, 3363.101
1901.961, 3274.465
1903.890, 3188.744
1905.818, 3105.056
1907.747, 3014.982
1909.675, 2930.153
1911.604, 2858.030
1913.532, 2799.357
1915.460, 2734.645
1917.389, 2657.756
1919.317, 2590.140
1921.246, 2530.629
1923.174, 2470.995
1925.103, 2413.441
1927.031, 2360.310
1928.960, 2304.770
1930.888, 2245.927
1932.817, 2195.451
1934.745, 2152.444
1936.674, 2109.809
1938.602, 2067.490
1940.531, 2021.471
1942.459, 1976.704
1944.387, 1938.322
1946.316, 1898.139
1948.244, 1858.843
1950.173, 1825.557
1952.101, 1791.674
1954.030, 1756.753
1955.958, 1724.440
1957.887, 1694.381
1959.815, 1664.365
1961.744, 1637.994
1963.672, 1616.835
1965.601, 1591.985
1967.529, 1563.285
1969.458, 1536.625
1971.386, 1512.294
1973.314, 1492.869
1975.243, 1472.643
1977.171, 1450.450
1979.100, 1430.951
1981.028, 1413.459
1982.957, 1402.796
1984.885, 1392.861
1986.814, 1380.110
1988.742, 1369.338
1990.671, 1360.810
1992.599, 1355.581
1994.528, 1354.094
1996.456, 1356.064
1998.385, 1359.559
2000.313, 1366.115
2002.241, 1376.823
2004.170, 1387.237
2006.098, 1400.371
2008.027, 1415.576
2009.955, 1430.960
2011.884, 1446.901
2013.812, 1463.345
2015.741, 1480.656
2017.669, 1494.337
2019.598, 1505.926
2021.526, 1514.876
2023.455, 1514.770
2025.383, 1509.326
2027.312, 1497.256
2029.240, 1477.624
2031.168, 1449.359
2033.097, 1411.472
2035.025, 1367.166
2036.954, 1320.669
2038.882, 1270.378
2040.811, 1216.094
2042.739, 1161.589
2044.668, 1109.592
2046.596, 1062.346
2048.525, 1016.513
2050.453, 977.8762
2052.382, 945.3983
2054.310, 915.3869
2056.239, 885.8737
2058.167, 861.7505
2060.095, 837.3560
2062.024, 819.2716
2063.952, 800.2452
2065.881, 784.1342
2067.809, 769.4449
2069.738, 756.7941
2071.666, 746.8525
2073.595, 735.6068
2075.523, 724.8639
2077.452, 713.9460
2079.380, 704.5663
2081.309, 695.8048
2083.237, 686.2948
2085.166, 677.3568
2087.094, 668.2853
2089.022, 659.6771
2090.951, 649.7448
2092.879, 641.6487
2094.808, 632.3669
2096.736, 619.1903
2098.665, 614.6550
2100.593, 603.3501
2102.522, 598.3674
2104.450, 584.9725
2106.379, 582.6379
2108.307, 573.9371
2110.236, 562.8870
2112.164, 554.4337
2114.093, 549.9143
2116.021, 547.7189
2117.949, 540.9135
2119.878, 533.8813
2121.806, 527.8362
2123.735, 522.6586
2125.663, 519.9503
2127.592, 514.7163
2129.520, 509.2314
2131.449, 507.3336
2133.377, 497.9436
2135.306, 495.2851
2137.234, 491.2202
2139.163, 486.6398
2141.091, 483.6382
2143.020, 478.4220
2144.948, 475.4452
2146.876, 468.3361
2148.805, 463.3765
2150.733, 457.6466
2152.662, 454.3165
2154.590, 452.1525
2156.519, 447.8304
2158.447, 443.8703
2160.376, 440.6418
2162.304, 435.2662
2164.233, 430.5163
2166.161, 426.8849
2168.090, 424.4294
2170.018, 420.3736
2171.947, 415.6666
2173.875, 410.8738
2175.803, 406.1690
2177.732, 407.3544
2179.660, 406.9106
2181.589, 401.3846
2183.517, 398.6923
2185.446, 398.2750
2187.374, 395.4181
2189.303, 393.3098
2191.231, 392.1319
2193.160, 390.7993
2195.088, 390.4743
2197.017, 388.8149
2198.945, 387.4152
2200.874, 385.4732
2202.802, 382.4973
2204.730, 380.4007
2206.659, 378.4288
2208.587, 376.3325
2210.516, 375.7881
2212.444, 377.7588
2214.373, 378.8255
2216.301, 378.7503
2218.230, 378.0956
2220.158, 378.1978
2222.087, 381.5124
2224.015, 383.5854
2225.944, 384.2958
2227.872, 382.2094
2229.801, 381.8616
2231.729, 386.3629
2233.657, 389.3472
2235.586, 390.4763
2237.514, 392.0733
2239.443, 393.5374
2241.371, 395.3046
2243.300, 397.3300
2245.228, 397.6135
2247.157, 396.3776
2249.085, 395.3525
2251.014, 395.9076
2252.942, 396.6490
2254.871, 395.2872
2256.799, 393.3965
2258.728, 391.1155
2260.656, 390.2769
2262.584, 387.9826
2264.513, 388.2308
2266.441, 387.5451
2268.370, 386.5641
2270.298, 386.9121
2272.227, 390.5452
2274.155, 394.7431
2276.084, 398.2604
2278.012, 399.8819
2279.941, 400.1225
2281.869, 400.7862
2283.798, 401.1323
2285.726, 402.5029
2287.655, 407.6125
2289.583, 409.6494
2291.511, 408.2426
2293.440, 407.1531
2295.368, 405.2508
2297.297, 402.1196
2299.225, 398.5083
2301.154, 395.8435
2303.082, 392.6208
2305.011, 397.5156
2306.939, 406.1928
2308.868, 404.7227
2310.796, 399.1174
2312.725, 387.9418
2314.653, 377.9234
2316.582, 371.8915
2318.510, 370.1950
2320.438, 369.8578
2322.367, 369.4561
2324.295, 368.1817
2326.224, 370.2771
2328.152, 371.2610
2330.081, 373.1223
2332.009, 376.4476
2333.938, 378.3929
2335.866, 382.5359
2337.795, 385.6983
2339.723, 387.0923
2341.652, 387.3155
2343.580, 388.0273
2345.509, 387.3172
2347.437, 388.1669
2349.365, 383.3725
2351.294, 380.4353
2353.222, 374.2992
2355.151, 366.3995
2357.079, 362.1452
2359.008, 355.9714
2360.936, 345.9126
2362.865, 339.2496
2364.793, 333.6623
2366.722, 323.9582
2368.650, 317.0152
2370.579, 313.0888
2372.507, 307.1935
2374.436, 304.3043
2376.364, 302.9641
2378.292, 297.9637
2380.221, 294.5742
2382.149, 291.4080
2384.078, 286.9867
2386.006, 283.2293
2387.935, 277.1102
2389.863, 272.7162
2391.792, 273.3396
2393.720, 272.8189
2395.649, 270.0681
2397.577, 265.0104
2399.506, 258.6633
2401.434, 254.7100
2403.363, 253.0698
2405.291, 250.7184
2407.219, 248.5858
2409.148, 247.5567
2411.076, 247.0575
2413.005, 245.4479
2414.933, 243.8766
2416.862, 242.9791
2418.790, 241.0972
2420.719, 238.6190
2422.647, 235.7879
2424.576, 234.0741
2426.504, 230.4267
2428.433, 237.4051
2430.361, 257.7740
2432.290, 266.1725
2434.218, 270.0097
2436.146, 262.1630
2438.075, 256.0755
2440.003, 247.9765
2441.932, 229.8040
2443.860, 222.4859
2445.789, 222.4126
2447.717, 222.8636
2449.646, 219.6056
2451.574, 214.2854
2453.503, 212.5587
2455.431, 212.2780
2457.360, 211.9387
2459.288, 206.5391
2461.217, 202.6082
2463.145, 204.3518
2465.073, 203.3460
2467.002, 200.7228
2468.930, 194.9017
2470.859, 190.9300
2472.787, 188.6901
2474.716, 186.4622
2476.644, 183.1412
2478.573, 179.7916
2480.501, 178.3230
2482.430, 177.0236
2484.358, 175.9271
2486.287, 175.6170
2488.215, 175.0510
2490.144, 173.7030
2492.072, 171.6511
2494.000, 168.7453
2495.929, 166.1750
2497.857, 165.9235
2499.786, 165.1244
2501.714, 165.9743
2503.643, 165.8011
2505.571, 166.2523
2507.500, 166.3522
2509.428, 166.0993
2511.357, 165.1957
2513.285, 164.9533
2515.214, 162.9732
2517.142, 160.5463
2519.071, 161.0924
2520.999, 160.1347
2522.927, 158.7240
2524.856, 159.4222
2526.784, 158.5971
2528.713, 156.1042
2530.641, 152.9086
2532.570, 149.0968
2534.498, 146.0150
2536.427, 147.0612
2538.355, 147.3591
2540.284, 146.0773
2542.212, 140.4454
2544.141, 136.3840
2546.069, 135.3604
2547.998, 135.2518
2549.926, 133.5732
2551.854, 132.6002
2553.783, 129.8980
2555.711, 129.2511
2557.640, 126.9107
2559.568, 123.7991
2561.497, 121.3794
2563.425, 120.2135
2565.354, 119.0900
2567.282, 117.0054
2569.211, 114.4702
2571.139, 113.1500
2573.068, 111.2095
2574.996, 107.9770
2576.925, 106.2317
2578.853, 105.4871
2580.781, 105.0206
2582.710, 103.3012
2584.638, 102.8130
2586.567, 101.1584
2588.495, 100.7444
2590.424, 101.1910
2592.352, 99.52828
2594.281, 99.80244
2596.209, 99.85986
2598.138, 96.80498
2600.066, 95.62469
2601.995, 94.94272
2603.923, 94.04028
2605.852, 94.44109
2607.780, 94.28651
2609.708, 91.25673
2611.637, 88.62868
2613.565, 88.10831
2615.494, 86.18879
2617.422, 85.17287
2619.351, 84.19810
2621.279, 83.31361
2623.208, 82.39707
2625.136, 80.86069
2627.065, 80.72973
2628.993, 79.74978
2630.922, 79.02743
2632.850, 78.76736
2634.779, 77.79163
2636.707, 77.40839
2638.635, 77.52509
2640.564, 79.24876
2642.492, 79.21417
2644.421, 76.22208
2646.349, 73.09239
2648.278, 71.10583
2650.206, 70.71872
2652.135, 72.23623
2654.063, 73.18503
2655.992, 72.23070
2657.920, 68.13360
2659.849, 66.00923
2661.777, 67.43730
2663.706, 67.22591
2665.634, 66.56736
2667.563, 65.97066
2669.491, 65.39185
2671.419, 64.81615
2673.348, 64.09840
2675.276, 63.55613
2677.205, 63.12854
2679.133, 62.14772
2681.062, 61.90224
2682.990, 61.46007
2684.919, 60.40209
2686.847, 60.45684
2688.776, 58.19741
2690.704, 56.60693
2692.633, 58.87645
2694.561, 59.82528
2696.490, 59.14286
2698.418, 56.72485
2700.346, 54.89119
2702.275, 53.85236
2704.203, 52.62936
2706.132, 54.65060
2708.060, 56.26005
2709.989, 54.76419
2711.917, 54.91404
2713.846, 55.01009
2715.774, 53.85895
2717.703, 53.98725
2719.631, 55.02305
2721.560, 55.56495
2723.488, 53.64297
2725.417, 51.77641
2727.345, 51.11906
2729.273, 51.55627
2731.202, 52.04665
2733.130, 52.40515
2735.059, 52.22840
2736.987, 52.29066
2738.916, 51.52934
2740.844, 51.44719
2742.773, 50.87004
2744.701, 49.54215
2746.630, 48.55145
2748.558, 47.51253
2750.487, 47.02347
2752.415, 48.43419
2754.344, 46.96421
2756.272, 46.07763
2758.200, 47.05958
2760.129, 45.86565
2762.057, 45.12523
2763.986, 45.47390
2765.914, 44.56425
2767.843, 45.08359
2769.771, 46.18400
2771.700, 45.63079
2773.628, 44.80032
2775.557, 43.20150
2777.485, 40.82910
2779.414, 40.26711
2781.342, 41.02467
2783.271, 41.85513
2785.199, 41.99392
2787.127, 41.31170
2789.056, 41.11533
2790.984, 40.54442
2792.913, 40.34418
2794.841, 40.86343
2796.770, 40.55259
2798.698, 40.13764
2800.627, 40.73698
2802.555, 38.99373
2804.484, 39.04991
2806.412, 38.65561
2808.341, 38.09690
2810.269, 35.06786
2812.198, 46.38286
2814.126, 40.98552
2816.054, 51.44340
2817.983, 38.70527
2819.911, 39.14163
2821.840, 38.45068
2823.768, 37.20477
2825.697, 36.86896
2827.625, 38.76671
2829.554, 40.44229
2831.482, 40.52710
2833.411, 38.07777
2835.339, 56.82764
2837.268, 62.43789
2839.196, 50.50447
2841.125, 47.40403
2843.053, 45.16184
2844.981, 44.95528
2846.910, 48.61552
2848.838, 50.53638
2850.767, 57.18873
2852.695, 56.78552
2854.624, 66.14478
2856.552, 58.83222
2858.481, 59.36488
2860.409, 62.74696
2862.338, 65.93864
2864.266, 68.43198
2866.195, 69.78717
2868.123, 72.90327
2870.052, 75.33145
2871.980, 74.53489
2873.908, 77.08421
2875.837, 78.65400
2877.765, 78.93963
2879.694, 75.12093
2881.622, 71.71803
2883.551, 71.39822
2885.479, 69.66157
2887.408, 69.51903
2889.336, 69.89225
2891.265, 70.25957
2893.193, 70.80818
2895.122, 71.54956
2897.050, 72.59078
2898.979, 73.44501
2900.907, 74.99134
2902.835, 76.39952
2904.764, 76.72884
2906.692, 74.84672
2908.621, 75.22670
2910.549, 77.73702
2912.478, 74.97643
2914.406, 83.50111
2916.335, 88.65080
2918.263, 86.31682
2920.191, 81.31572
2922.120, 78.33315
2924.048, 77.43816
2925.977, 80.18654
2927.905, 81.54974
2929.834, 80.33008
2931.762, 78.99704
2933.691, 76.65193
2935.619, 75.96294
2937.548, 75.06201
2939.476, 76.15279
2941.405, 74.58008
2943.333, 73.90974
2945.261, 74.51305
2947.190, 73.30825
2949.118, 72.11574
2951.047, 72.35640
2952.975, 69.45229
2954.904, 68.87788
2956.832, 69.06241
2958.761, 69.12845
2960.689, 69.65054
2962.618, 70.17104
2964.546, 69.47878
2966.475, 65.34855
2968.403, 63.65650
2970.332, 63.15605
2972.260, 63.52040
2974.188, 58.64331
2976.117, 56.61299
2978.045, 58.23888
2979.974, 56.27086
2981.902, 55.25482
2983.831, 54.60018
2985.759, 50.83653
2987.688, 51.89764
2989.616, 51.19741
2991.545, 48.26956
2993.473, 50.73088
2995.402, 49.65981
2997.330, 47.26304
2999.259, 44.81908
3001.187, 44.12851
3003.115, 44.52861
3005.044, 45.91192
3006.972, 54.29063
3008.901, 61.74867
3010.829, 67.29962
3012.758, 72.75764
3014.686, 87.95979
3016.615, 74.96346
3018.543, 49.98115
3020.472, 46.25913
3022.400, 44.22803
3024.329, 43.37986
3026.257, 44.47045
3028.186, 44.08971
3030.114, 44.76824
3032.042, 45.25733
3033.971, 49.51125
3035.899, 47.05173
3037.828, 47.31208
3039.756, 49.88685
3041.685, 47.27175
3043.613, 49.23969
3045.542, 48.66315
3047.470, 49.46625
3049.399, 48.53126
3051.327, 51.74265
3053.256, 53.41740
3055.184, 54.14843
3057.113, 54.22213
3059.041, 53.07940
3060.969, 52.17110
3062.898, 53.42075
3064.826, 55.86274
3066.755, 56.87696
3068.683, 55.79362
3070.612, 59.72231
3072.540, 59.86197
3074.469, 58.56374
3076.397, 57.49630
3078.326, 60.62533
3080.254, 58.38517
3082.183, 55.06432
3084.111, 55.31796
3086.040, 51.14674
3087.968, 52.09007
3089.896, 54.11376
3091.825, 52.39248
3093.753, 54.41572
3095.682, 56.17062
3097.610, 55.89116
3099.539, 53.06451
3101.467, 50.59760
3103.396, 52.09227
3105.324, 51.65049
3107.253, 55.29673
3109.181, 54.63784
3111.110, 55.40619
3113.038, 57.24574
3114.967, 57.73635
3116.895, 58.46124
3118.823, 60.64670
3120.752, 63.41288
3122.680, 64.75037
3124.609, 66.52812
3126.537, 67.02828
3128.466, 66.14227
3130.394, 71.20259
3132.323, 75.58501
3134.251, 76.51801
3136.180, 75.15599
3138.108, 75.81819
3140.037, 75.36303
3141.965, 74.14310
3143.894, 77.59758
3145.822, 75.38898
3147.750, 75.09621
3149.679, 78.31541
3151.607, 80.15951
3153.536, 79.53999
3155.464, 81.46321
3157.393, 81.43597
3159.321, 83.88620
3161.250, 82.83856
3163.178, 84.56303
3165.107, 87.68183
3167.035, 93.13835
3168.964, 95.47478
3170.892, 94.31772
3172.821, 92.37888
3174.749, 97.03153
3176.677, 98.03564
3178.606, 98.18867
3180.534, 100.8477
3182.463, 100.9575
3184.391, 99.91430
3186.320, 102.6410
3188.248, 104.5042
3190.177, 105.8412
3192.105, 107.9997
3194.034, 109.3684
3195.962, 111.1957
3197.891, 112.3861
3199.819, 113.4460
3201.748, 114.9495
3203.676, 115.7073
3205.604, 116.9570
3207.533, 117.5259
3209.461, 118.9035
3211.390, 122.2458
3213.318, 127.8304
3215.247, 131.2386
3217.175, 132.2931
3219.104, 131.2629
3221.032, 134.2026
3222.961, 136.1275
3224.889, 137.7174
3226.818, 141.2822
3228.746, 144.4647
3230.675, 147.5385
3232.603, 151.0276
3234.531, 154.1618
3236.460, 157.6847
3238.388, 160.0671
3240.317, 163.1770
3242.245, 165.2855
3244.174, 167.2021
3246.102, 179.3962
3248.031, 182.7859
3249.959, 181.8276
3251.888, 193.2877
3253.816, 197.8474
3255.745, 201.2710
3257.673, 205.0102
3259.602, 210.1024
3261.530, 215.7743
3263.458, 217.8528
3265.387, 224.4457
3267.315, 238.7188
3269.244, 246.9178
3271.172, 251.5813
3273.101, 255.0588
3275.029, 258.5001
3276.958, 269.4777
3278.886, 282.3560
3280.815, 292.0412
3282.743, 303.7837
3284.672, 312.0381
3286.600, 327.1454
3288.529, 341.6795
3290.457, 355.6044
3292.385, 372.5554
3294.314, 392.6479
3296.242, 410.7581
3298.171, 427.9137
3300.099, 444.9883
3302.028, 472.4324
3303.956, 490.6865
3305.885, 513.4178
3307.813, 544.0536
3309.742, 571.1315
3311.670, 594.4843
3313.599, 618.4709
3315.527, 643.9323
3317.456, 669.1222
3319.384, 695.7935
3321.313, 722.6038
3323.241, 751.8951
3325.169, 781.6524
3327.098, 813.5272
3329.026, 851.7655
3330.955, 889.5168
3332.883, 926.4977
3334.812, 965.8131
3336.740, 1005.598
3338.669, 1059.593
3340.597, 1107.508
3342.526, 1176.580
3344.454, 1223.400
3346.383, 1288.186
3348.311, 1362.375
3350.240, 1431.650
3352.168, 1475.721
3354.096, 1544.290
3356.025, 1603.689
3357.953, 1644.867
3359.882, 1673.996
3361.810, 1697.759
3363.739, 1701.751
3365.667, 1693.308
3367.596, 1675.027
3369.524, 1642.142
3371.453, 1602.463
3373.381, 1571.637
3375.310, 1557.913
3377.238, 1559.808
3379.167, 1545.743
3381.095, 1559.280
3383.023, 1579.305
3384.952, 1599.335
3386.880, 1632.286
3388.809, 1666.453
3390.737, 1704.902
3392.666, 1749.440
3394.594, 1796.718
3396.523, 1835.346
3398.451, 1871.556
3400.380, 1887.101
3402.308, 1885.756
3404.237, 1879.367
3406.165, 1852.157
3408.094, 1813.197
3410.022, 1768.578
3411.950, 1720.212
3413.879, 1668.045
3415.807, 1615.253
3417.736, 1551.615
3419.664, 1486.555
3421.593, 1430.281
3423.521, 1376.958
3425.450, 1331.608
3427.378, 1285.968
3429.307, 1236.619
3431.235, 1185.822
3433.164, 1153.656
3435.092, 1110.135
3437.021, 1075.618
3438.949, 1047.942
3440.877, 1004.985
3442.806, 977.1172
3444.734, 960.5117
3446.663, 944.0988
3448.591, 922.9678
3450.520, 899.6735
3452.448, 886.6896
3454.377, 871.6322
3456.305, 847.8685
3458.234, 820.7052
3460.162, 809.1213
3462.091, 795.8768
3464.019, 788.3567
3465.948, 778.6038
3467.876, 762.2501
3469.804, 750.6146
3471.733, 745.9901
3473.661, 744.8682
3475.590, 736.8052
3477.518, 720.8986
3479.447, 723.3337
3481.375, 706.6437
3483.304, 699.3221
3485.232, 696.1072
3487.161, 685.7525
3489.089, 678.6472
3491.018, 667.9567
3492.946, 661.6398
3494.875, 654.3105
3496.803, 640.3569
3498.731, 627.6385
3500.660, 612.1050
3502.588, 599.5651
3504.517, 589.9323
3506.445, 581.0731
3508.374, 571.2664
3510.302, 562.5244
3512.231, 554.8417
3514.159, 546.1127
3516.088, 541.4425
3518.016, 536.2153
3519.945, 532.4164
3521.873, 530.7764
3523.802, 529.1254
3525.730, 528.5177
3527.658, 534.4989
3529.587, 532.7050
3531.515, 531.3989
3533.444, 530.1310
3535.372, 528.2148
3537.301, 526.7169
3539.229, 519.0284
3541.158, 513.3286
3543.086, 502.1427
3545.015, 487.8958
3546.943, 478.1117
3548.872, 461.3273
3550.800, 448.9662
3552.729, 432.0370
3554.657, 416.9518
3556.585, 410.2863
3558.514, 398.6632
3560.442, 382.4792
3562.371, 369.4632
3564.299, 359.4362
3566.228, 350.7011
3568.156, 342.8401
3570.085, 330.7121
3572.013, 322.4421
3573.942, 314.0982
3575.870, 303.7907
3577.799, 293.3376
3579.727, 286.6627
3581.656, 280.2481
3583.584, 269.5462
3585.512, 258.9466
3587.441, 251.1172
3589.369, 239.7319
3591.298, 224.3946
3593.226, 214.9133
3595.155, 207.5072
3597.083, 199.7348
3599.012, 192.9630
3600.940, 188.9043
3602.869, 180.7581
3604.797, 175.9396
3606.726, 169.0775
3608.654, 158.1441
3610.583, 155.1090
3612.511, 141.7803
3614.439, 139.8135
3616.368, 135.3943
3618.296, 155.3918
3620.225, 127.2081
3622.153, 133.7869
3624.082, 123.7171
3626.010, 115.4541
3627.939, 107.9187
3629.867, 101.8672
3631.796, 105.2187
3633.724, 103.5867
3635.653, 102.1588
3637.581, 98.17220
3639.510, 96.62341
3641.438, 94.19517
3643.366, 91.73717
3645.295, 90.85432
3647.223, 88.67178
3649.152, 85.98866
3651.080, 87.92061
3653.009, 80.84312
3654.937, 76.44954
3656.866, 75.00735
3658.794, 76.85051
3660.723, 71.54082
3662.651, 65.80447
3664.580, 68.96001
3666.508, 66.23172
3668.437, 62.46832
3670.365, 60.88715
3672.293, 56.79833
3674.222, 53.66848
3676.150, 56.20304
3678.079, 54.31441
3680.007, 51.28857
3681.936, 48.50370
3683.864, 46.69286
3685.793, 46.44678
3687.721, 47.04263
3689.650, 44.77327
3691.578, 44.85650
3693.507, 42.35255
3695.435, 42.71267
3697.364, 44.34921
3699.292, 42.35944
3701.220, 41.58456
3703.149, 37.93034
3705.077, 38.13873
3707.006, 38.09637
3708.934, 37.71000
3710.863, 36.25003
3712.791, 37.73752
3714.720, 40.83697
3716.648, 39.98096
3718.577, 34.01181
3720.505, 32.88473
3722.434, 36.81082
3724.362, 35.13588
3726.291, 35.58336
3728.219, 38.15452
3730.147, 37.89548
3732.076, 36.36013
3734.004, 34.97382
3735.933, 33.68206
3737.861, 32.93176
3739.790, 32.48591
3741.718, 31.18209
3743.647, 31.25039
3745.575, 26.64843
3747.504, 30.20767
3749.432, 27.74666
3751.361, 25.14555
3753.289, 28.30542
3755.218, 27.64836
3757.146, 26.48910
3759.074, 27.82000
3761.003, 29.06112
3762.931, 22.94505
3764.860, 23.03380
3766.788, 23.97490
3768.717, 26.25303
3770.645, 26.76158
3772.574, 24.34278
3774.502, 21.66924
3776.431, 20.56682
3778.359, 26.41814
3780.288, 26.64065
3782.216, 25.80086
3784.145, 23.45577
3786.073, 21.40528
3788.001, 26.32798
3789.930, 25.95567
3791.858, 21.57931
3793.787, 23.66185
3795.715, 20.59121
3797.644, 16.27994
3799.572, 17.50527
3801.501, 19.01150
3803.429, 19.15158
3805.358, 21.21150
3807.286, 20.17989
3809.215, 16.64572
3811.143, 18.54750
3813.072, 16.31961
3815.000, 15.85880
3816.928, 19.71340
3818.857, 15.93602
3820.785, 7.321049
3822.714, 15.44382
3824.642, 12.32183
3826.571, 22.64782
3828.499, 17.19208
3830.428, 12.63687
3832.356, 15.70758
3834.285, 13.41761
3836.213, 11.47584
3838.142, 11.66417
3840.070, 13.28664
3841.999, 15.30717
3843.927, 13.80673
3845.855, 12.83419
3847.784, 9.501706
3849.712, 11.93444
3851.641, 12.96832
3853.569, 12.81280
3855.498, 15.41554
3857.426, 17.20274
3859.355, 13.39849
3861.283, 15.50360
3863.212, 18.07595
3865.140, 15.31412
3867.069, 16.26169
3868.997, 13.36093
3870.926, 14.13907
3872.854, 14.43966
3874.782, 13.55841
3876.711, 15.59681
3878.639, 12.41609
3880.568, 13.14578
3882.496, 15.15120
3884.425, 13.40427
3886.353, 10.35972
3888.282, 10.82817
3890.210, 11.08572
3892.139, 13.35445
3894.067, 12.78510
3895.996, 13.35636
3897.924, 12.31611
3899.853, 9.894507
3901.781, 10.91998
3903.709, 10.53961
3905.638, 9.861095
3907.566, 11.53284
3909.495, 10.13950
3911.423, 14.25282
3913.352, 16.49426
3915.280, 11.33962
3917.209, 14.63115
3919.137, 10.87625
3921.066, 13.86355
3922.994, 7.792933
3924.923, 4.975478
3926.851, 7.461095
3928.780, 9.164019
3930.708, 9.444548
3932.636, 11.80510
3934.565, 11.79496
3936.493, 13.01966
3938.422, 13.01384
3940.350, 11.85397
3942.279, 13.88967
3944.207, 13.64469
3946.136, 10.71340
3948.064, 11.39434
3949.993, 10.50717
3951.921, 5.705966
3953.850, 10.31411
3955.778, 12.24839
3957.707, 12.71905
3959.635, 8.815605
3961.563, 6.983030
3963.492, 12.38566
3965.420, 15.04168
3967.349, 7.646197
3969.277, 9.880333
3971.206, 6.918328
3973.134, 5.705616
3975.063, 9.761292
3976.991, 8.316070
3978.920, 7.515608
3980.848, 10.15652
3982.777, 11.06962
3984.705, 10.72604
3986.634, 10.36210
3988.562, 12.39410
3990.490, 11.55354
3992.419, 9.676218
3994.347, 5.520118
3996.276, 11.91489
3998.204, 12.69814
4000.133, 12.47761
4002.061, 8.244356
4003.990, 12.78729
4005.918, 9.174803
4007.847, 8.017096
4009.775, 9.543839
4011.704, 7.695956
4013.632, 5.339448
4015.561, 7.920555
4017.489, 8.339499
4019.417, 7.010769
4021.346, 6.346145
4023.274, 8.076735
4025.203, 10.84674
4027.131, 11.92542
4029.060, 10.11937
4030.988, 2.889648
4032.917, 6.265113
4034.845, 5.180255
4036.774, 6.271767
4038.702, 5.083502
4040.631, 7.627654
4042.559, 8.149736
4044.488, 5.553993
4046.416, 6.804209
4048.344, 8.520851
4050.273, 4.531633
4052.201, 5.216027
4054.130, 4.933985
4056.058, 4.283872
4057.987, 1.502063
4059.915, 8.129830
4061.844, 7.885581
4063.772, 3.729316
4065.701, 7.608860
4067.629, 6.732961
4069.558, 10.61228
4071.486, 1.575026
4073.415, 7.308876
4075.343, 5.351870
4077.271, 5.194453
4079.200, 5.147449
4081.128, 8.188854
4083.057, 9.361685
4084.985, 8.075479
4086.914, 9.247341
4088.842, 8.668279
4090.771, 9.954229
4092.699, 9.467095
4094.628, 11.24305
4096.556, 9.240692
4098.484, 11.62626
4100.413, 12.84098
4102.341, 10.56335
4104.270, 11.06177
4106.198, 8.594313
4108.127, 9.411680
4110.055, 9.164713
4111.984, 11.23802
4113.912, 9.896582
4115.841, 11.61342
4117.769, 12.55159
4119.698, 15.01401
4121.626, 14.81915
4123.555, 15.87827
4125.483, 14.01371
4127.412, 15.75689
4129.340, 13.92403
4131.269, 11.67449
4133.197, 12.87026
4135.125, 11.20306
4137.054, 10.93953
4138.982, 14.16516
4140.911, 11.71430
4142.839, 12.32089
4144.768, 10.53382
4146.696, 8.729589
4148.625, 9.689468
4150.553, 13.57915
4152.481, 14.73851
4154.410, 13.46527
4156.338, 14.44211
4158.267, 15.02668
4160.195, 13.71019
4162.124, 15.89512
4164.052, 10.90498
4165.981, 11.17153
4167.909, 9.489171
4169.838, 12.81008
4171.766, 15.75040
4173.695, 12.75247
4175.623, 10.98233
4177.552, 11.10999
4179.480, 11.67160
4181.409, 12.05960
4183.337, 9.536687
4185.266, 11.92142
4187.194, 12.86380
4189.123, 8.475999
4191.051, 16.98982
4192.979, 12.16407
4194.908, 11.30786
4196.836, 13.01501
4198.765, 12.69313
4200.693, 14.01490
4202.622, 10.82103
4204.550, 10.13090
4206.479, 11.25811
4208.407, 10.10281
4210.335, 10.86530
4212.264, 10.02843
4214.192, 14.42085
4216.121, 10.57203
4218.049, 16.97812
4219.978, 13.50607
4221.906, 15.51461
4223.835, 11.08373
4225.763, 10.72992
4227.692, 15.27776
4229.620, 15.69698
4231.549, 13.75917
4233.477, 11.68306
4235.406, 11.21027
4237.334, 11.91800
4239.263, 9.915577
4241.191, 10.56301
4243.120, 18.90245
4245.048, 17.13489
4246.977, 17.24228
4248.905, 12.93420
4250.833, 18.03980
4252.762, 20.66341
4254.690, 15.78171
4256.619, 11.60889
4258.547, 13.45928
4260.476, 11.03096
4262.404, 8.346533
4264.333, 12.80723
4266.261, 13.52328
4268.189, 12.91633
4270.118, 13.81114
4272.046, 13.56165
4273.975, 15.91796
4275.903, 16.69382
4277.832, 11.43866
4279.760, 12.58637
4281.689, 8.208509
4283.617, 13.08204
4285.546, 15.69395
4287.474, 11.49166
4289.403, 15.91670
4291.331, 12.65074
4293.260, 14.87586
4295.188, 15.76691
4297.117, 13.87310
4299.045, 12.82392
4300.974, 12.46229
4302.902, 14.31186
4304.831, 17.08268
4306.759, 13.01995
4308.688, 9.872570
4310.616, 10.81530
4312.544, 11.34226
4314.473, 11.61259
4316.401, 9.700410
4318.330, 10.61084
4320.258, 10.44253
4322.187, 12.13974
4324.115, 11.11279
4326.043, 8.824478
4327.972, 8.788513
4329.900, 12.20170
4331.829, 9.433934
4333.757, 13.14562
4335.686, 16.24788
4337.614, 8.786647
4339.543, 10.32605
4341.471, 13.24238
4343.400, 8.449684
4345.328, 10.37895
4347.257, 9.568005
4349.185, 11.35798
4351.114, 7.484313
4353.042, 11.15319
4354.971, 8.058997
4356.899, 9.447454
4358.828, 12.49916
4360.756, 9.780810
4362.685, 9.679328
4364.613, 11.02341
4366.542, 10.76515
4368.470, 12.54354
4370.398, 14.95671
4372.327, 13.21595
4374.255, 10.05899
4376.184, 11.08594
4378.112, 12.22897
##END=



