##NAMES=Strashimirite
##RRUFFID=R060142
##IDEAL CHEMISTRY=Cu_4_(AsO_4_)_2_(OH)_2_·2.5H_2_O
##LOCALITY=Majuba Hill, Pershing County, Nevada, USA
##OWNER=RRUFF
##SOURCE=Marcus Origlieri
##DESCRIPTION=White to colorless fibrous or hair-like aggregate
##STATUS=The identification of this mineral is not yet confirmed
##URL=https://www.rruff.net/odr/rruff_sample/R060142
##FILETYPE=Raman Processed
##RAMAN WAVELENGTH=780

175.7419, 9.253662
177.6704, 9.220947
179.5989, 9.231619
181.5273, 9.259094
183.4558, 9.292463
185.3843, 9.325204
187.3127, 9.238984
189.2412, 8.875179
191.1697, 8.615930
193.0981, 8.604314
195.0266, 8.684285
196.9551, 8.736876
198.8835, 8.759356
200.8120, 8.715245
202.7405, 8.519898
204.6689, 8.459397
206.5974, 8.675304
208.5259, 8.918474
210.4543, 9.064488
212.3828, 9.128622
214.3113, 9.121106
216.2397, 9.017303
218.1682, 8.967256
220.0967, 9.050694
222.0251, 9.097941
223.9536, 8.950301
225.8821, 8.822574
227.8105, 9.003736
229.7390, 9.464487
231.6675, 9.623636
233.5959, 9.205212
235.5244, 8.840858
237.4529, 8.572640
239.3813, 8.371896
241.3098, 8.284670
243.2383, 8.236083
245.1667, 8.032945
247.0952, 7.543765
249.0237, 7.296508
250.9521, 7.451537
252.8806, 7.584004
254.8091, 7.494740
256.7375, 7.372930
258.6660, 7.423655
260.5945, 7.623832
262.5229, 7.657018
264.4514, 7.467790
266.3799, 7.246884
268.3083, 6.898767
270.2368, 6.689588
272.1653, 6.846655
274.0938, 7.171050
276.0222, 7.388599
277.9507, 7.488513
279.8792, 7.596228
281.8076, 7.751902
283.7361, 7.803336
285.6646, 7.628731
287.5930, 7.427144
289.5215, 7.324182
291.4500, 7.282260
293.3784, 7.182267
295.3069, 7.004919
297.2354, 7.016083
299.1638, 7.330297
301.0923, 7.581497
303.0208, 7.542274
304.9492, 7.474958
306.8777, 7.609919
308.8062, 7.858882
310.7346, 7.866997
312.6631, 7.625788
314.5916, 7.562864
316.5200, 7.836425
318.4485, 8.080254
320.3770, 8.143322
322.3054, 8.149713
324.2339, 8.227365
326.1624, 8.326967
328.0908, 8.240674
330.0193, 7.958684
331.9477, 7.845731
333.8762, 8.058814
335.8047, 8.278660
337.7331, 8.422311
339.6616, 8.523859
341.5901, 8.595082
343.5185, 8.647837
345.4470, 8.737370
347.3755, 8.867947
349.3039, 8.891881
351.2324, 8.764141
353.1609, 8.554905
355.0893, 8.243772
357.0178, 7.897618
358.9463, 7.534853
360.8747, 7.183535
362.8032, 6.877654
364.7317, 6.617582
366.6601, 6.471602
368.5886, 6.532555
370.5171, 6.564516
372.4455, 6.507571
374.3740, 6.438922
376.3025, 6.414168
378.2309, 6.398355
380.1594, 6.319185
382.0879, 6.188832
384.0163, 6.163764
385.9448, 6.338227
387.8733, 6.450004
389.8017, 6.445779
391.7302, 6.421765
393.6587, 6.353806
395.5871, 6.338761
397.5156, 6.506057
399.4441, 6.800325
401.3725, 6.995418
403.3010, 7.072895
405.2295, 7.083675
407.1579, 6.969203
409.0864, 6.883525
411.0149, 6.852101
412.9433, 6.870402
414.8718, 6.980523
416.8003, 7.114173
418.7287, 7.167959
420.6572, 7.142479
422.5857, 7.015618
424.5141, 6.730506
426.4426, 6.496373
428.3711, 6.353713
430.2995, 6.229839
432.2280, 6.101769
434.1565, 5.969681
436.0849, 5.810995
438.0134, 5.651116
439.9419, 5.593755
441.8703, 5.672971
443.7988, 5.605073
445.7273, 5.343644
447.6557, 5.083204
449.5842, 4.819378
451.5127, 4.652583
453.4411, 4.681498
455.3696, 4.781356
457.2981, 4.857240
459.2265, 4.897347
461.1550, 4.795338
463.0835, 4.536384
465.0119, 4.560979
466.9404, 5.028690
468.8689, 5.319650
470.7973, 5.089691
472.7258, 4.856200
474.6543, 4.878899
476.5827, 4.986148
478.5112, 4.984248
480.4397, 4.913793
482.3681, 4.912684
484.2966, 4.977595
486.2251, 5.094307
488.1535, 5.294004
490.0820, 5.424923
492.0105, 5.408220
493.9389, 5.358294
495.8674, 5.279180
497.7959, 5.213829
499.7243, 5.210716
501.6528, 5.248681
503.5813, 5.312460
505.5097, 5.384916
507.4382, 5.286400
509.3667, 4.913156
511.2951, 4.773425
513.2236, 5.239996
515.1521, 5.562236
517.0806, 5.494018
519.0090, 5.306910
520.9375, 5.125881
522.8660, 4.971687
524.7944, 4.875131
526.7229, 4.827559
528.6514, 4.823590
530.5798, 4.876935
532.5083, 4.838502
534.4368, 4.518431
536.3652, 4.415061
538.2937, 4.874071
540.2222, 5.160501
542.1506, 4.757644
544.0791, 4.272104
546.0076, 4.281028
547.9360, 4.518508
549.8645, 4.592386
551.7930, 4.513329
553.7214, 4.443330
555.6499, 4.371731
557.5784, 4.350868
559.5068, 4.389116
561.4353, 4.460923
563.3638, 4.618514
565.2922, 4.731941
567.2207, 4.747301
569.1492, 4.685243
571.0776, 4.548888
573.0061, 4.360986
574.9345, 4.101312
576.8630, 3.794186
578.7914, 3.780696
580.7199, 4.191054
582.6484, 4.400709
584.5768, 4.310418
586.5053, 4.315124
588.4338, 4.620143
590.3622, 4.779745
592.2907, 4.407560
594.2192, 4.042447
596.1476, 4.084105
598.0761, 4.301989
600.0046, 4.421604
601.9330, 4.449508
603.8615, 4.368642
605.7900, 4.165666
607.7184, 4.196782
609.6469, 4.537020
611.5754, 4.582256
613.5038, 4.063787
615.4323, 3.766753
617.3608, 4.165571
619.2892, 4.523881
621.2177, 4.488512
623.1462, 4.313982
625.0746, 4.156878
627.0031, 4.028063
628.9316, 3.967529
630.8600, 3.951938
632.7885, 3.840207
634.7170, 3.650661
636.6454, 3.691480
638.5739, 4.035977
640.5024, 4.180412
642.4308, 3.898732
644.3593, 3.734371
646.2878, 3.901014
648.2162, 4.114747
650.1447, 4.378599
652.0732, 4.532556
654.0016, 4.327112
655.9301, 4.036139
657.8586, 4.060256
659.7870, 4.275624
661.7155, 4.451639
663.6440, 4.560990
665.5724, 4.381142
667.5009, 3.851858
669.4294, 3.638587
671.3578, 3.968077
673.2863, 4.227601
675.2148, 4.328126
677.1432, 4.369036
679.0717, 4.344593
681.0002, 4.301940
682.9286, 4.244488
684.8571, 4.198503
686.7856, 4.189063
688.7141, 4.201745
690.6425, 4.229760
692.5710, 4.261058
694.4995, 4.272571
696.4279, 4.262540
698.3564, 4.197079
700.2849, 4.038322
702.2133, 3.994068
704.1418, 4.134843
706.0703, 4.272336
707.9987, 4.500634
709.9272, 4.545537
711.8557, 4.140093
713.7841, 3.902141
715.7126, 4.219914
717.6411, 4.590138
719.5695, 4.672037
721.4980, 4.676958
723.4265, 4.852730
725.3549, 5.021602
727.2834, 4.845109
729.2119, 4.443724
731.1403, 4.208836
733.0688, 4.134365
734.9973, 4.090047
736.9257, 4.069975
738.8542, 4.146156
740.7827, 4.347893
742.7111, 4.496256
744.6396, 4.575797
746.5681, 4.572570
748.4965, 4.428114
750.4250, 4.333539
752.3535, 4.334109
754.2819, 4.445724
756.2104, 4.790441
758.1389, 5.104890
760.0673, 5.253579
761.9958, 5.253415
763.9243, 4.988093
765.8527, 4.674173
767.7812, 4.693215
769.7097, 4.950071
771.6381, 5.244766
773.5666, 5.536108
775.4951, 5.527589
777.4235, 5.257619
779.3520, 5.273723
781.2805, 5.623972
783.2089, 5.791490
785.1374, 5.679176
787.0659, 5.568473
788.9943, 5.453236
790.9228, 5.488503
792.8513, 5.804926
794.7797, 6.130304
796.7082, 6.426578
798.6367, 6.683556
800.5651, 6.848150
802.4936, 7.034812
804.4221, 7.351873
806.3505, 7.681330
808.2790, 7.835204
810.2075, 8.017959
812.1359, 8.601275
814.0644, 9.293718
815.9929, 9.581675
817.9213, 9.649478
819.8498, 9.907508
821.7783, 10.32211
823.7067, 10.74391
825.6352, 11.16441
827.5637, 11.53493
829.4921, 11.86095
831.4206, 12.05588
833.3491, 12.03958
835.2775, 12.13274
837.2060, 12.35762
839.1345, 12.67401
841.0629, 13.29067
842.9914, 13.61137
844.9199, 13.35817
846.8483, 13.19915
848.7768, 13.45896
850.7053, 13.53020
852.6337, 13.16219
854.5622, 12.60132
856.4907, 11.85262
858.4191, 11.11860
860.3476, 10.59890
862.2761, 10.05136
864.2045, 9.233354
866.1330, 8.383327
868.0615, 7.706112
869.9899, 7.132140
871.9184, 6.546999
873.8469, 6.025231
875.7753, 5.720858
877.7038, 5.562239
879.6323, 5.403749
881.5607, 5.241469
883.4892, 5.066450
885.4177, 4.875740
887.3461, 4.613943
889.2746, 4.297433
891.2031, 4.205901
893.1315, 4.327191
895.0600, 4.336038
896.9885, 4.224973
898.9169, 4.076499
900.8454, 3.891093
902.7739, 3.815572
904.7023, 3.873458
906.6308, 3.948853
908.5593, 4.035667
910.4877, 4.072148
912.4162, 4.033454
914.3447, 4.009727
916.2731, 4.041250
918.2016, 4.021085
920.1301, 3.884264
922.0585, 3.782098
923.9870, 3.779124
925.9155, 3.767093
927.8439, 3.707000
929.7724, 3.655493
931.7009, 3.631558
933.6293, 3.615638
935.5578, 3.663120
937.4863, 3.625099
939.4147, 3.282081
941.3432, 3.045089
943.2717, 3.213368
945.2001, 3.462152
947.1286, 3.652170
949.0571, 3.764740
950.9855, 3.738105
952.9140, 3.685830
954.8425, 3.737693
956.7709, 3.761693
958.6994, 3.560397
960.6279, 3.357334
962.5563, 3.392011
964.4848, 3.518462
966.4133, 3.637375
968.3417, 3.710690
970.2702, 3.677037
972.1987, 3.589913
974.1271, 3.480503
976.0556, 3.392234
977.9841, 3.393605
979.9125, 3.454992
981.8410, 3.552630
983.7695, 3.658223
985.6979, 3.754453
987.6264, 3.797995
989.5549, 3.617503
991.4833, 3.358871
993.4118, 3.417806
995.3403, 3.639352
997.2687, 3.632908
999.1972, 3.465676
1001.126, 3.265116
1003.054, 3.081039
1004.983, 3.088814
1006.911, 3.234018
1008.840, 3.387538
1010.768, 3.512727
1012.696, 3.444101
1014.625, 3.243824
1016.553, 3.119200
1018.482, 3.065942
1020.410, 3.105050
1022.339, 3.194679
1024.267, 3.122901
1026.196, 2.966499
1028.124, 3.057312
1030.053, 3.322719
1031.981, 3.534523
1033.910, 3.666328
1035.838, 3.548970
1037.767, 3.274768
1039.695, 3.199767
1041.624, 3.262165
1043.552, 3.232953
1045.480, 3.154839
1047.409, 3.194074
1049.337, 3.297610
1051.266, 3.312058
1053.194, 3.248570
1055.123, 3.088091
1057.051, 2.899528
1058.980, 2.888759
1060.908, 2.995659
1062.837, 3.069800
1064.765, 3.128876
1066.694, 3.246003
1068.622, 3.372087
1070.550, 3.342086
1072.479, 3.262566
1074.407, 3.462196
1076.336, 3.724517
1078.264, 3.518098
1080.193, 3.115569
1082.121, 3.062947
1084.050, 3.157743
1085.978, 3.007911
1087.907, 2.788710
1089.835, 2.771182
1091.764, 2.880784
1093.692, 3.118285
1095.620, 3.312022
1097.549, 3.150345
1099.477, 2.888853
1101.406, 2.810302
1103.334, 2.828078
1105.263, 2.862512
1107.191, 2.929638
1109.120, 3.100415
1111.048, 3.246405
1112.977, 3.190570
1114.905, 3.144452
1116.834, 3.403688
1118.762, 3.557143
1120.691, 3.139068
1122.619, 2.794101
1124.547, 3.026910
1126.476, 3.267619
1128.404, 3.214702
1130.333, 3.078913
1132.261, 2.883349
1134.190, 2.775334
1136.118, 2.865498
1138.047, 2.948671
1139.975, 2.931348
1141.904, 2.953665
1143.832, 3.132624
1145.761, 3.130479
1147.689, 2.758797
1149.618, 2.531894
1151.546, 2.592484
1153.474, 2.711519
1155.403, 2.876190
1157.331, 2.913741
1159.260, 2.775042
1161.188, 2.678870
1163.117, 2.647901
1165.045, 2.763171
1166.974, 3.033638
1168.902, 3.250260
1170.831, 3.383781
1172.759, 3.130067
1174.688, 2.556555
1176.616, 2.370410
1178.545, 2.509508
1180.473, 2.527087
1182.401, 2.442675
1184.330, 2.313320
1186.258, 2.212167
1188.187, 2.351756
1190.115, 2.624606
1192.044, 2.925364
1193.972, 3.131171
1195.901, 2.948321
1197.829, 2.696149
1199.758, 2.764639
1201.686, 2.911625
1203.615, 2.948634
1205.543, 2.928001
1207.472, 2.845662
1209.400, 2.782148
1211.328, 2.754046
1213.257, 2.809938
1215.185, 3.087898
1217.114, 3.219886
1219.042, 3.002903
1220.971, 2.817135
1222.899, 2.779385
1224.828, 2.690333
1226.756, 2.446099
1228.685, 2.426735
1230.613, 2.758571
1232.542, 2.885123
1234.470, 2.751032
1236.399, 2.684917
1238.327, 2.685441
1240.255, 2.516817
1242.184, 2.237342
1244.112, 2.252299
1246.041, 2.490339
1247.969, 2.796818
1249.898, 3.089679
1251.826, 3.200139
1253.755, 3.193274
1255.683, 3.110130
1257.612, 3.016755
1259.540, 2.926898
1261.469, 2.923593
1263.397, 3.207337
1265.326, 3.370101
1267.254, 3.104680
1269.182, 2.911842
1271.111, 2.970597
1273.039, 3.008194
1274.968, 2.944465
1276.896, 2.978860
1278.825, 3.163855
1280.753, 3.203146
1282.682, 3.070143
1284.610, 2.968034
1286.539, 2.921107
1288.467, 3.047935
1290.396, 3.277340
1292.324, 3.358200
1294.253, 3.316578
1296.181, 3.186806
1298.109, 3.016586
1300.038, 2.750956
1301.966, 2.630644
1303.895, 3.118631
1305.823, 3.503235
1307.752, 3.171666
1309.680, 2.838017
1311.609, 2.791009
1313.537, 2.838934
1315.466, 2.990804
1317.394, 3.118110
1319.323, 3.232826
1321.251, 3.243579
1323.180, 3.111959
1325.108, 3.113544
1327.036, 3.240627
1328.965, 3.330247
1330.893, 3.359533
1332.822, 3.156395
1334.750, 2.895943
1336.679, 2.903469
1338.607, 3.048116
1340.536, 3.337337
1342.464, 3.478368
1344.393, 3.142062
1346.321, 2.913329
1348.250, 3.108867
1350.178, 3.268571
1352.107, 3.259700
1354.035, 3.217910
1355.964, 3.158904
1357.892, 3.140441
1359.820, 3.167375
1361.749, 3.077015
1363.677, 2.911830
1365.606, 2.923476
1367.534, 3.034416
1369.463, 3.070177
1371.391, 3.090833
1373.320, 3.183199
1375.248, 3.282569
1377.177, 3.363783
1379.105, 3.396074
1381.034, 3.370542
1382.962, 3.276920
1384.891, 3.074788
1386.819, 3.019212
1388.747, 3.151256
1390.676, 3.080116
1392.604, 2.829119
1394.533, 2.790518
1396.461, 2.919407
1398.390, 3.069241
1400.318, 3.223161
1402.247, 3.394021
1404.175, 3.505906
1406.104, 3.470482
1408.032, 3.382732
1409.961, 3.258628
1411.889, 3.155246
1413.818, 3.055173
1415.746, 3.063833
1417.674, 3.218169
1419.603, 3.293862
1421.531, 3.288294
1423.460, 3.249874
1425.388, 3.190067
1427.317, 3.133266
1429.245, 3.082847
1431.174, 3.031101
1433.102, 3.004458
1435.031, 3.029599
1436.959, 3.068641
1438.888, 3.080777
1440.816, 3.191744
1442.745, 3.560388
1444.673, 3.482485
1446.601, 2.891212
1448.530, 2.511159
1450.458, 2.366030
1452.387, 2.738126
1454.315, 3.267892
1456.244, 3.285766
1458.172, 3.187783
1460.101, 3.320940
1462.029, 3.403245
1463.958, 3.314790
1465.886, 3.154465
1467.815, 2.905022
1469.743, 3.003017
1471.672, 3.477141
1473.600, 3.411933
1475.528, 3.009937
1477.457, 3.139306
1479.385, 3.453252
1481.314, 3.402138
1483.242, 3.273835
1485.171, 3.276891
1487.099, 3.299380
1489.028, 3.289867
1490.956, 3.377867
1492.885, 3.600311
1494.813, 3.523064
1496.742, 3.199947
1498.670, 3.278766
1500.599, 3.530088
1502.527, 3.388394
1504.455, 3.147020
1506.384, 3.051858
1508.312, 3.086787
1510.241, 3.387712
1512.169, 3.517805
1514.098, 3.336655
1516.026, 3.265349
1517.955, 3.316485
1519.883, 3.123288
1521.812, 2.841320
1523.740, 3.057506
1525.669, 3.360436
1527.597, 3.261841
1529.526, 3.098119
1531.454, 2.981509
1533.382, 3.020344
1535.311, 3.413210
1537.239, 3.450737
1539.168, 3.086543
1541.096, 3.134181
1543.025, 3.431931
1544.953, 3.513974
1546.882, 3.437507
1548.810, 3.171368
1550.739, 2.958937
1552.667, 2.918717
1554.596, 2.974669
1556.524, 3.146770
1558.453, 3.151836
1560.381, 2.986740
1562.309, 2.832661
1564.238, 2.764580
1566.166, 3.079813
1568.095, 3.414716
1570.023, 3.434174
1571.952, 3.340752
1573.880, 3.171868
1575.809, 2.979959
1577.737, 2.772298
1579.666, 2.962654
1581.594, 3.419654
1583.523, 3.585198
1585.451, 3.497330
1587.380, 2.902610
1589.308, 2.569065
1591.236, 3.282945
1593.165, 3.699139
1595.093, 3.558511
1597.022, 3.400525
1598.950, 3.274195
1600.879, 3.182239
1602.807, 3.106116
1604.736, 2.972234
1606.664, 2.900061
1608.593, 3.059532
1610.521, 3.160888
1612.450, 3.065702
1614.378, 3.098388
1616.307, 3.269898
1618.235, 3.521054
1620.163, 3.694525
1622.092, 3.302434
1624.020, 2.873004
1625.949, 2.835685
1627.877, 2.938976
1629.806, 3.172674
1631.734, 3.367916
1633.663, 3.530520
1635.591, 3.214836
1637.520, 2.731930
1639.448, 3.070083
1641.377, 3.458918
1643.305, 3.206330
1645.234, 3.052395
1647.162, 3.359566
1649.090, 3.281379
1651.019, 2.756611
1652.947, 2.913542
1654.876, 3.376808
1656.804, 3.209406
1658.733, 3.024497
1660.661, 3.321865
1662.590, 3.487751
1664.518, 3.341284
1666.447, 3.114313
1668.375, 2.868684
1670.304, 2.967623
1672.232, 3.197782
1674.161, 3.193593
1676.089, 3.163097
1678.017, 3.231437
1679.946, 3.268650
1681.874, 3.251755
1683.803, 3.156510
1685.731, 3.039122
1687.660, 3.179562
1689.588, 3.313546
1691.517, 3.023617
1693.445, 2.844670
1695.374, 3.019801
1697.302, 3.112715
1699.231, 3.092761
1701.159, 3.070363
1703.088, 3.081940
1705.016, 3.241912
1706.944, 3.365551
1708.873, 3.337934
1710.801, 3.173372
1712.730, 2.822653
1714.658, 2.850614
1716.587, 3.114566
1718.515, 2.914031
1720.444, 2.667602
1722.372, 2.836861
1724.301, 3.019953
1726.229, 3.080570
1728.158, 3.071016
1730.086, 2.999876
1732.015, 2.960076
1733.943, 2.970226
1735.871, 3.089574
1737.800, 3.202923
1739.728, 3.244281
1741.657, 3.300840
1743.585, 3.384628
1745.514, 3.612029
1747.442, 3.804265
1749.371, 3.369393
1751.299, 3.010700
1753.228, 3.197232
1755.156, 3.285079
1757.085, 3.128973
1759.013, 3.147711
1760.942, 3.253360
1762.870, 3.065387
1764.798, 2.966068
1766.727, 3.402648
1768.655, 3.543625
1770.584, 3.208733
1772.512, 2.922727
1774.441, 2.741183
1776.369, 2.726685
1778.298, 2.806707
1780.226, 3.013115
1782.155, 3.050413
1784.083, 2.842303
1786.012, 2.915993
1787.940, 3.183733
1789.869, 3.254219
1791.797, 3.254052
1793.725, 3.340173
1795.654, 3.278255
1797.582, 2.999611
1799.511, 2.824594
1801.439, 2.799124
1803.368, 3.157964
1805.296, 3.441293
1807.225, 3.163993
1809.153, 2.933527
1811.082, 2.871500
1813.010, 2.827060
1814.939, 2.834030
1816.867, 3.140498
1818.796, 3.302122
1820.724, 2.808690
1822.652, 2.651220
1824.581, 3.049945
1826.509, 3.181904
1828.438, 3.138987
1830.366, 3.096241
1832.295, 3.009493
1834.223, 2.793741
1836.152, 2.818050
1838.080, 3.116002
1840.009, 3.208558
1841.937, 3.166509
1843.866, 2.998664
1845.794, 2.952121
1847.723, 3.139297
1849.651, 3.278345
1851.579, 3.316934
1853.508, 3.007813
1855.436, 2.744431
1857.365, 3.120285
1859.293, 3.198182
1861.222, 2.766284
1863.150, 2.746089
1865.079, 2.984354
1867.007, 2.975911
1868.936, 2.906311
1870.864, 2.867026
1872.793, 2.918206
1874.721, 3.041404
1876.650, 2.924181
1878.578, 2.754461
1880.506, 2.830414
1882.435, 2.893298
1884.363, 2.859828
1886.292, 2.732893
1888.220, 2.586567
1890.149, 2.656704
1892.077, 2.842819
1894.006, 3.260210
1895.934, 3.246563
1897.863, 2.726400
1899.791, 2.537169
1901.720, 2.567351
1903.648, 2.671444
1905.577, 2.774138
1907.505, 2.848136
1909.433, 2.935323
1911.362, 2.982436
1913.290, 2.624924
1915.219, 2.311277
1917.147, 2.360908
1919.076, 2.498254
1921.004, 2.673867
1922.933, 2.638932
1924.861, 2.609182
1926.790, 2.949116
1928.718, 3.206572
1930.647, 3.244291
1932.575, 3.123553
1934.504, 2.901019
1936.432, 2.581354
1938.360, 2.477645
1940.289, 2.811403
1942.217, 2.792064
1944.146, 2.446126
1946.074, 2.552772
1948.003, 2.763461
1949.931, 2.723481
1951.860, 2.796571
1953.788, 3.027021
1955.717, 3.285197
1957.645, 3.416019
1959.574, 3.069382
1961.502, 2.810688
1963.431, 2.788745
1965.359, 2.760970
1967.287, 2.731534
1969.216, 2.737540
1971.144, 2.775853
1973.073, 2.883384
1975.001, 2.823761
1976.930, 2.652286
1978.858, 2.562820
1980.787, 2.557887
1982.715, 2.679482
1984.644, 2.800079
1986.572, 2.900136
1988.501, 2.937953
1990.429, 2.857810
1992.358, 2.485287
1994.286, 2.319966
1996.214, 2.423801
1998.143, 2.620668
2000.071, 2.824924
2002.000, 2.970946
2003.928, 3.012021
2005.857, 2.920919
2007.785, 3.142624
2009.714, 3.322371
2011.642, 2.803776
2013.571, 2.544046
2015.499, 2.843704
2017.428, 2.677415
2019.356, 2.315992
2021.285, 2.189700
2023.213, 2.367662
2025.141, 2.896425
2027.070, 2.882196
2028.998, 2.612663
2030.927, 2.821095
2032.855, 2.751295
2034.784, 2.137070
2036.712, 2.196368
2038.641, 2.636251
2040.569, 2.733631
2042.498, 2.803836
2044.426, 2.968083
2046.355, 2.923367
2048.283, 2.767236
2050.212, 2.723487
2052.140, 2.729966
2054.068, 2.770375
2055.997, 2.776564
2057.925, 2.743831
2059.854, 2.661602
2061.782, 2.570966
2063.711, 2.464004
2065.639, 2.574377
2067.568, 2.736942
2069.496, 2.543358
2071.425, 2.467639
2073.353, 2.788276
2075.281, 2.749019
2077.210, 2.562195
2079.138, 2.602572
2081.067, 2.654805
2082.995, 2.637706
2084.924, 2.754731
2086.852, 2.843915
2088.781, 2.587933
2090.709, 2.478234
2092.638, 2.674885
2094.566, 2.586486
2096.495, 2.383588
2098.423, 2.202224
2100.352, 2.277260
2102.280, 2.638321
2104.208, 2.737084
2106.137, 2.662946
2108.065, 2.420628
2109.994, 2.414514
2111.922, 2.659096
2113.851, 2.826321
2115.779, 2.830070
2117.708, 2.505966
2119.636, 2.688448
2121.565, 3.195617
2123.493, 3.026047
2125.422, 2.692521
2127.350, 2.415450
2129.279, 2.485736
2131.207, 2.675263
2133.135, 2.346833
2135.064, 2.136742
2136.992, 2.251738
2138.921, 2.619020
2140.849, 2.966727
2142.778, 2.882561
2144.706, 2.752058
2146.635, 2.653832
2148.563, 2.391946
2150.492, 2.243527
2152.420, 2.585352
2154.349, 2.784322
2156.277, 2.805780
2158.206, 2.797460
2160.134, 2.744613
2162.063, 2.623634
2163.991, 2.494430
2165.919, 2.404583
2167.848, 2.566368
2169.776, 2.503270
2171.705, 2.016644
2173.633, 1.906632
2175.562, 2.056422
2177.490, 2.381551
2179.419, 2.629041
2181.347, 2.734952
2183.276, 2.537261
2185.204, 2.377722
2187.133, 2.466561
2189.061, 2.471387
2190.990, 2.456195
2192.918, 2.787576
2194.846, 2.852808
2196.775, 2.502176
2198.703, 2.573408
2200.632, 2.799349
2202.560, 2.898726
2204.489, 2.785655
2206.417, 2.538554
2208.346, 2.643944
2210.274, 2.615390
2212.203, 2.086258
2214.131, 2.084639
2216.060, 2.339667
2217.988, 2.249984
2219.917, 2.248977
2221.845, 2.413245
2223.773, 2.556842
2225.702, 2.588453
2227.630, 2.295338
2229.559, 2.349708
2231.487, 2.634837
2233.416, 2.769124
2235.344, 2.785771
2237.273, 2.693746
2239.201, 2.336205
2241.130, 2.021909
2243.058, 2.057835
2244.987, 2.071261
2246.915, 2.068415
2248.844, 2.343124
2250.772, 2.593351
2252.700, 2.709665
2254.629, 2.345470
2256.557, 2.013620
2258.486, 2.354386
2260.414, 2.610555
2262.343, 2.656058
2264.271, 2.360842
2266.200, 2.223248
2268.128, 2.422922
2270.057, 2.270486
2271.985, 2.062139
2273.914, 2.218694
2275.842, 2.430816
2277.771, 2.572811
2279.699, 2.229328
2281.627, 2.080404
2283.556, 2.352504
2285.484, 2.769118
2287.413, 2.948349
2289.341, 2.233425
2291.270, 1.921722
2293.198, 2.019019
2295.127, 2.301121
2297.055, 2.482516
2298.984, 2.478161
2300.912, 2.547676
2302.841, 2.517489
2304.769, 2.142991
2306.698, 1.916692
2308.626, 1.830987
2310.554, 1.761391
2312.483, 2.002445
2314.411, 2.541900
2316.340, 2.218413
2318.268, 1.933157
2320.197, 2.244441
2322.125, 2.111763
2324.054, 1.868852
2325.982, 2.046716
2327.911, 2.035634
2329.839, 1.880757
2331.768, 2.284939
2333.696, 2.409515
2335.625, 2.019423
2337.553, 2.215189
2339.481, 2.412878
2341.410, 2.124875
2343.338, 2.081278
2345.267, 2.172843
2347.195, 2.061155
2349.124, 2.028988
2351.052, 2.090549
2352.981, 2.171359
2354.909, 1.965934
2356.838, 1.391620
2358.766, 1.969174
2360.695, 2.672713
2362.623, 2.473103
2364.552, 2.246793
2366.480, 2.113447
2368.408, 2.309999
2370.337, 2.220194
2372.265, 1.849767
2374.194, 1.603142
2376.122, 1.545168
2378.051, 1.722299
2379.979, 1.753388
2381.908, 1.890834
2383.836, 2.473069
2385.765, 2.339965
2387.693, 1.970257
2389.622, 2.133456
2391.550, 2.206057
2393.479, 2.134885
2395.407, 1.973038
2397.335, 2.000174
2399.264, 2.270957
2401.192, 2.413695
2403.121, 2.501943
2405.049, 2.573728
2406.978, 2.376812
2408.906, 2.096535
2410.835, 1.882598
2412.763, 1.847547
2414.692, 1.929013
2416.620, 2.008897
2418.549, 2.249417
2420.477, 2.517105
2422.406, 2.204523
2424.334, 2.083071
2426.262, 2.288004
2428.191, 2.461121
2430.119, 2.319830
2432.048, 1.742665
2433.976, 1.694692
2435.905, 1.842500
2437.833, 1.914812
2439.762, 2.037902
2441.690, 2.114668
2443.619, 1.974815
2445.547, 1.853291
2447.476, 1.820496
2449.404, 2.060693
2451.333, 2.078092
2453.261, 1.880866
2455.189, 1.879059
2457.118, 1.807516
2459.046, 1.630268
2460.975, 2.250124
2462.903, 2.619180
2464.832, 2.209852
2466.760, 1.964464
2468.689, 1.926406
2470.617, 2.118474
2472.546, 2.134615
2474.474, 2.068547
2476.403, 2.055551
2478.331, 1.706273
2480.260, 1.371722
2482.188, 1.699828
2484.116, 1.930521
2486.045, 1.980792
2487.973, 1.807750
2489.902, 1.756546
2491.830, 1.836877
2493.759, 1.905435
2495.687, 1.885171
2497.616, 1.790347
2499.544, 1.764013
2501.473, 1.727923
2503.401, 1.663258
2505.330, 1.562199
2507.258, 1.709086
2509.187, 2.235991
2511.115, 2.287611
2513.043, 2.168552
2514.972, 2.054989
2516.900, 1.965451
2518.829, 1.812300
2520.757, 1.460287
2522.686, 1.265914
2524.614, 1.428099
2526.543, 2.261015
2528.471, 2.339089
2530.400, 1.943986
2532.328, 1.413367
2534.257, 1.537638
2536.185, 1.923202
2538.114, 1.951931
2540.042, 1.811573
2541.970, 1.688581
2543.899, 1.869753
2545.827, 2.085081
2547.756, 2.345723
2549.684, 3.045513
2551.613, 2.803806
2553.541, 1.919452
2555.470, 1.620754
2557.398, 1.673230
2559.327, 1.913299
2561.255, 2.054375
2563.184, 1.997258
2565.112, 1.837616
2567.041, 1.971783
2568.969, 1.993622
2570.897, 1.840142
2572.826, 1.479651
2574.754, 1.508669
2576.683, 1.886254
2578.611, 2.015864
2580.540, 1.880106
2582.468, 1.585717
2584.397, 1.618120
2586.325, 1.774568
2588.254, 1.967702
2590.182, 2.085989
2592.111, 1.945455
2594.039, 1.596027
2595.968, 1.762385
2597.896, 1.793857
2599.824, 1.551697
2601.753, 1.089426
2603.681, 1.199480
2605.610, 1.889582
2607.538, 1.983621
2609.467, 1.930819
2611.395, 1.882311
2613.324, 1.991580
2615.252, 2.022520
2617.181, 1.931077
2619.109, 1.792411
2621.038, 1.602389
2622.966, 1.500441
2624.895, 2.114754
2626.823, 2.333772
2628.751, 2.101259
2630.680, 2.057612
2632.608, 1.758096
2634.537, 1.390543
2636.465, 1.778139
2638.394, 1.859123
2640.322, 1.615247
2642.251, 1.312558
2644.179, 1.508038
2646.108, 1.841762
2648.036, 1.346972
2649.965, 1.248391
2651.893, 1.508994
2653.822, 1.919281
2655.750, 1.955350
2657.678, 1.731163
2659.607, 1.405232
2661.535, 1.447941
2663.464, 1.672330
2665.392, 1.864349
2667.321, 1.793545
2669.249, 1.615916
2671.178, 1.468060
2673.106, 1.542779
2675.035, 1.650976
2676.963, 1.663343
2678.892, 1.473884
2680.820, 1.534648
2682.749, 1.974979
2684.677, 1.742816
2686.605, 1.546770
2688.534, 1.646671
2690.462, 1.776779
2692.391, 1.811152
2694.319, 1.763793
2696.248, 1.859733
2698.176, 1.860887
2700.105, 1.739731
2702.033, 1.510262
2703.962, 1.548399
2705.890, 1.696543
2707.819, 1.515308
2709.747, 1.334366
2711.676, 1.266490
2713.604, 1.420980
2715.532, 1.668413
2717.461, 1.743990
2719.389, 1.338377
2721.318, 1.457588
2723.246, 1.634465
2725.175, 1.528633
2727.103, 1.535254
2729.032, 1.575215
2730.960, 1.610026
2732.889, 1.683342
2734.817, 1.618737
2736.746, 1.424388
2738.674, 1.357281
2740.603, 1.221133
2742.531, 1.103040
2744.459, 1.368079
2746.388, 1.310933
2748.316, 1.101355
2750.245, 1.014071
2752.173, 1.444503
2754.102, 1.699558
2756.030, 1.253806
2757.959, 0.9822141
2759.887, 1.078397
2761.816, 1.506146
2763.744, 1.459618
2765.673, 1.361625
2767.601, 1.305650
2769.530, 1.076057
2771.458, 1.190467
2773.386, 1.373339
2775.315, 0.8709299
2777.243, 0.9171957
2779.172, 1.194570
2781.100, 1.284537
2783.029, 1.186356
2784.957, 1.218283
2786.886, 1.552791
2788.814, 1.459718
2790.743, 1.423552
2792.671, 1.553394
2794.600, 1.650835
2796.528, 1.489942
2798.457, 1.282625
2800.385, 1.516533
2802.313, 1.297445
2804.242, 1.054850
2806.170, 1.211555
2808.099, 1.556347
2810.027, 1.666879
2811.956, 1.450463
2813.884, 1.310696
2815.813, 1.485283
2817.741, 1.690608
2819.670, 0.8563147
2821.598, 1.018551
2823.527, 1.553210
2825.455, 1.278912
2827.384, 1.158869
2829.312, 1.120420
2831.240, 1.112321
2833.169, 1.803594
2835.097, 1.704597
2837.026, 0.8775706
2838.954, 0.8933314
2840.883, 0.9955421
2842.811, 1.150807
2844.740, 1.519198
2846.668, 1.165416
2848.597, 0.8596375
2850.525, 1.086148
2852.454, 1.227033
2854.382, 1.110625
2856.311, 0.9385998
2858.239, 1.631584
2860.167, 1.196124
2862.096, 0.7246117
2864.024, 1.608702
2865.953, 1.142855
2867.881, 0.7446673
2869.810, 1.041206
2871.738, 1.451002
2873.667, 1.305645
2875.595, 0.9185798
2877.524, 1.288407
2879.452, 1.417727
2881.381, 1.420035
2883.309, 1.446124
2885.238, 1.347098
2887.166, 1.390694
2889.094, 1.467501
2891.023, 0.7488211
2892.951, 0.5856493
2894.880, 0.8492326
2896.808, 1.212303
2898.737, 1.270108
2900.665, 1.333230
2902.594, 1.487452
2904.522, 1.157629
2906.451, 0.9731752
2908.379, 0.9228026
2910.308, 0.8024585
2912.236, 0.8959639
2914.165, 0.9730236
2916.093, 0.9421692
2918.021, 1.369608
2919.950, 1.445550
2921.878, 1.228726
2923.807, 1.197694
2925.735, 1.225867
2927.664, 1.260686
2929.592, 1.263357
2931.521, 1.008674
2933.449, 1.239414
2935.378, 1.679180
2937.306, 1.317205
2939.235, 1.035091
2941.163, 0.7943290
2943.092, 0.5400341
2945.020, 0.5260904
2946.948, 0.8113984
2948.877, 1.375424
2950.805, 2.483144
2952.734, 1.832547
2954.662, 0.9613259
2956.591, 0.9756768
2958.519, 1.331782
2960.448, 1.190120
2962.376, 0.8245474
2964.305, 0.9955655
2966.233, 0.9225286
2968.162, 0.7392762
2970.090, 0.5883573
2972.019, 0.6090357
2973.947, 0.8379412
2975.875, 1.030599
2977.804, 0.8792643
2979.732, 0.4825444
2981.661, 0.5387058
2983.589, 1.036625
2985.518, 0.8890867
2987.446, 0.9649518
2989.375, 0.8735189
2991.303, 0.1989003
2993.232, 0.5626094
2995.160, 1.092600
2997.089, 1.374131
2999.017, 1.106913
3000.946, 1.025693
3002.874, 0.9043971
3004.802, 0.6011451
3006.731, 0.5119534
3008.659, 0.7994460
3010.588, 1.118230
3012.516, 0.9954894
3014.445, 1.210067
3016.373, 1.383154
3018.302, 1.333929
3020.230, 0.9612709
3022.159, 1.346088
3024.087, 1.399540
3026.016, 0.5130031
3027.944, 0.8265216
3029.873, 1.030286
3031.801, 0.9187828
3033.729, 0.6412947
3035.658, 0.5300885
3037.586, 0.2627231
3039.515, -1.9976320E-02
3041.443, 0.5931179
3043.372, 0.6143026
3045.300, 0.5084282
3047.229, 0.6466457
3049.157, 0.9972900
3051.086, 0.9918867
3053.014, 0.8526626
3054.943, 0.9551379
3056.871, 1.118328
3058.800, 0.8322666
3060.728, 0.4386845
3062.656, 0.9469633
3064.585, 0.8954960
3066.513, 1.110913
3068.442, 1.729233
3070.370, 1.536641
3072.299, 1.059425
3074.227, 0.6755416
3076.156, 0.5802312
3078.084, 0.7079935
3080.013, 0.4748968
3081.941, 0.2115474
3083.870, 0.3397247
3085.798, 0.4547758
3087.727, 0.4480437
3089.655, 0.5049474
3091.583, 0.9579948
3093.512, 1.090321
3095.440, 1.086030
3097.369, 1.015090
3099.297, 0.7440530
3101.226, 0.8121384
3103.154, 0.9264477
3105.083, 0.9095055
3107.011, 0.6692810
3108.940, 0.8183687
3110.868, 0.9171590
3112.797, 0.6836970
3114.725, 0.7319051
3116.654, 0.6371475
3118.582, 0.4191474
3120.510, 0.1826815
3122.439, 0.7565609
3124.367, 0.7670817
3126.296, 0.6024059
3128.224, 0.8939028
3130.153, 0.7648129
3132.081, 0.6543099
3134.010, 0.5693612
3135.938, 0.3930476
3137.867, 0.8118627
3139.795, 0.7114543
3141.724, 0.2778584
3143.652, 0.2996056
3145.581, 2.2281101E-03
3147.509, 0.1748865
3149.438, 0.6365822
3151.366, 0.5681617
3153.294, 0.9224526
3155.223, 0.8769171
3157.151, 0.4728428
3159.080, 0.3298722
3161.008, 0.3323731
3162.937, 0.5309416
3164.865, 0.7229098
3166.794, 0.3830752
3168.722, 0.4456454
3170.651, 0.5981105
3172.579, 0.7349484
3174.508, 0.9618003
3176.436, 1.038851
3178.365, 1.048693
3180.293, 0.9019105
3182.221, 0.3309487
3184.150, 0.5445239
3186.078, 0.8313634
3188.007, 0.8782517
3189.935, 0.7322266
3191.864, 0.9968461
3193.792, 0.9118385
3195.721, 0.6026931
3197.649, 0.7888776
3199.578, 0.6476230
3201.506, 0.5238389
3203.435, 0.5208511
3205.363, 0.5964434
3207.292, 0.5319660
3209.220, 0.2650209
3211.148, 0.1920263
3213.077, 0.9226630
3215.005, 0.5710874
3216.934, 0.3381327
3218.862, 0.4011960
3220.791, 0.6158609
3222.719, 0.3123012
3224.648, 0.4169689
3226.576, 0.8608199
3228.505, 1.331411
3230.433, 0.7227436
3232.362, 0.3458353
3234.290, 0.4436050
3236.219, 0.7847013
3238.147, -6.4405672E-02
3240.075, 0.3681668
3242.004, 0.5307243
3243.932, 1.3397230E-02
3245.861, 0.7501370
3247.789, 1.049478
3249.718, 0.5875401
3251.646, -7.0399933E-02
3253.575, 0.3469678
3255.503, 0.4873638
3257.432, 0.7007738
3259.360, 0.8333208
3261.289, 0.4907076
3263.217, 0.3621621
3265.146, 0.5010641
3267.074, 0.6636093
3269.002, 0.6440688
3270.931, 0.7692683
3272.859, 0.5164100
3274.788, 0.3580667
3276.716, 0.5659803
3278.645, 0.8238545
3280.573, 0.8536743
3282.502, 0.9263111
3284.430, 0.9520589
3286.359, 0.5428975
3288.287, 0.5073747
3290.216, 3.8938589E-02
3292.144, -0.2174723
3294.073, 0.4898392
3296.001, 0.2324932
3297.929, 1.113254
3299.858, 1.415649
3301.786, 0.3926189
3303.715, 0.3803347
3305.643, 0.3929483
3307.572, 0.5651397
3309.500, 0.7755556
3311.429, 0.6451851
3313.357, 0.4404628
3315.286, 0.2372628
3317.214, 2.5803659E-02
3319.143, -0.1994222
3321.071, -0.2443332
3323.000, 0.3007986
3324.928, 0.4732582
3326.856, 0.2844439
3328.785, 1.134432
3330.713, 0.5903568
3332.642, 0.2402792
3334.570, 0.2065384
3336.499, 8.0631133E-03
3338.427, 2.7636830E-02
3340.356, 0.2096107
3342.284, 0.4216351
3344.213, 0.5921547
3346.141, 0.7071840
3348.070, 1.134361
3349.998, 0.7624330
3351.927, 0.1671313
3353.855, 0.3324260
3355.783, 0.2419370
3357.712, 0.4897297
3359.640, 0.5887051
3361.569, 0.4040526
3363.497, 0.5200873
3365.426, 0.1396491
3367.354, 0.5976956
3369.283, 0.9222200
3371.211, 9.4282161E-03
3373.140, -0.4039522
3375.068, 0.7528026
3376.997, 1.193834
3378.925, 0.6612188
3380.854, 0.7901368
3382.782, 0.3449887
3384.710, 0.4610425
3386.639, 0.3723606
3388.567, -0.2514274
3390.496, 0.1629361
3392.424, 3.4946229E-02
3394.353, 2.5901590E-02
3396.281, 0.3806262
3398.210, 0.9175788
3400.138, 0.7587757
3402.067, 0.7569805
3403.995, 0.5683115
3405.924, 0.2610051
3407.852, 0.4248871
3409.781, -0.1030411
3411.709, -0.1960804
3413.637, 0.4852043
3415.566, 1.438397
3417.494, 1.033347
3419.423, 0.8677719
3421.351, 0.9457314
3423.280, 1.072725
3425.208, 1.013244
3427.137, 0.2629018
3429.065, 0.3826379
3430.994, 0.6974497
3432.922, 0.9960676
3434.851, 1.294705
3436.779, 0.8236628
3438.708, 0.4859923
3440.636, 0.9513256
3442.564, 1.216314
3444.493, -5.0425049E-02
3446.421, 1.019148
3448.350, 0.6845657
3450.278, 0.3473055
3452.207, 0.4997932
3454.135, 0.1830227
3456.064, 0.7381433
##END=



