##NAMES=Strengite
##RRUFFID=R040177
##IDEAL CHEMISTRY=Fe^3+^(PO_4_)·2H_2_O
##LOCALITY=Plegstein, Oberpfalz, Bavaria, Germany
##OWNER=RRUFF
##SOURCE=University of Arizona Mineral Museum
##DESCRIPTION=Light purple crystals
##STATUS=The identification of this mineral is confirmed by single-crystal X-ray diffraction and chemical analysis
##URL=https://www.rruff.net/odr/rruff_sample/R040177
##MEASURED CHEMISTRY=Fe^3+^PO_4_·2H_2_O
##DIFFRACTION SAMPLE DESCRIPTION=Single crystal, powder profile is calculated
##CELL PARAMETERS=a: 8.71 b: 9.87 c: 10.11 alpha: 90 beta: 90 gamma: 90 volume: 869.1 crystal system: orthorhombic
##FILETYPE=Raman RAW
##RAMAN WAVELENGTH=532

150.7805, 3300.047
152.7090, 3604.945
154.6375, 3925.712
156.5659, 4227.829
158.4944, 4480.357
160.4229, 4725.614
162.3513, 4996.275
164.2798, 5272.464
166.2083, 5596.718
168.1367, 5986.429
170.0652, 6438.364
171.9937, 6930.968
173.9221, 7468.782
175.8506, 8041.328
177.7791, 8622.281
179.7075, 9155.771
181.6360, 9779.327
183.5645, 10521.51
185.4929, 11383.67
187.4214, 12396.74
189.3499, 13730.86
191.2783, 15212.67
193.2068, 16486.54
195.1353, 17713.90
197.0637, 18539.60
198.9922, 18761.97
200.9207, 18202.35
202.8491, 17265.01
204.7776, 15710.55
206.7061, 13718.88
208.6345, 11867.40
210.5630, 10088.01
212.4915, 8524.744
214.4199, 7365.515
216.3484, 6670.536
218.2769, 6154.306
220.2053, 5784.832
222.1338, 5554.182
224.0623, 5360.266
225.9907, 5229.457
227.9192, 5114.548
229.8477, 4962.364
231.7761, 4753.033
233.7046, 4549.645
235.6331, 4368.566
237.5615, 4211.826
239.4900, 4076.537
241.4185, 3948.034
243.3469, 3847.721
245.2754, 3793.265
247.2039, 3803.467
249.1323, 3836.874
251.0608, 3878.219
252.9893, 3927.095
254.9177, 3989.578
256.8462, 4069.476
258.7747, 4163.291
260.7031, 4263.659
262.6316, 4359.287
264.5601, 4475.646
266.4885, 4623.990
268.4170, 4811.453
270.3455, 5008.572
272.2739, 5216.938
274.2024, 5433.941
276.1309, 5654.838
278.0593, 5876.940
279.9878, 6106.333
281.9163, 6335.362
283.8447, 6558.532
285.7732, 6827.092
287.7017, 7173.995
289.6301, 7571.260
291.5586, 7980.144
293.4871, 8426.028
295.4155, 8861.931
297.3440, 9288.696
299.2725, 9717.502
301.2009, 10056.82
303.1294, 10293.79
305.0579, 10434.14
306.9863, 10455.96
308.9148, 10281.90
310.8433, 10075.18
312.7717, 9875.337
314.7002, 9679.071
316.6287, 9516.604
318.5571, 9372.514
320.4856, 9264.625
322.4141, 9239.000
324.3425, 9290.847
326.2710, 9412.041
328.1995, 9617.249
330.1279, 9908.743
332.0564, 10207.82
333.9849, 10525.44
335.9133, 10839.18
337.8418, 11119.96
339.7703, 11395.67
341.6987, 11603.96
343.6272, 11731.82
345.5557, 11786.66
347.4841, 11739.30
349.4126, 11576.40
351.3411, 11329.48
353.2695, 11025.10
355.1980, 10649.20
357.1265, 10257.30
359.0549, 9860.667
360.9834, 9457.228
362.9119, 9073.220
364.8403, 8697.530
366.7688, 8346.000
368.6973, 8027.129
370.6257, 7733.570
372.5542, 7487.138
374.4827, 7296.055
376.4111, 7156.498
378.3396, 7043.054
380.2681, 6947.273
382.1965, 6879.244
384.1250, 6848.002
386.0535, 6854.930
387.9819, 6879.105
389.9104, 6920.837
391.8389, 6975.548
393.7673, 7031.792
395.6958, 7091.732
397.6243, 7150.783
399.5527, 7211.594
401.4812, 7275.909
403.4097, 7323.071
405.3381, 7329.317
407.2666, 7323.523
409.1951, 7347.456
411.1235, 7397.604
413.0520, 7475.409
414.9805, 7579.378
416.9089, 7707.405
418.8374, 7877.524
420.7659, 8106.757
422.6943, 8367.107
424.6228, 8643.222
426.5513, 8939.896
428.4797, 9239.446
430.4082, 9538.068
432.3367, 9836.748
434.2651, 10136.64
436.1936, 10426.15
438.1221, 10726.77
440.0505, 11073.29
441.9790, 11482.44
443.9075, 11811.56
445.8359, 12056.99
447.7644, 12199.37
449.6929, 12207.08
451.6213, 12053.52
453.5498, 11774.35
455.4783, 11330.09
457.4067, 10728.19
459.3352, 10106.93
461.2637, 9413.789
463.1921, 8751.341
465.1206, 8183.389
467.0491, 7722.757
468.9775, 7352.392
470.9060, 7066.249
472.8345, 6878.793
474.7629, 6792.622
476.6914, 6854.766
478.6199, 6959.037
480.5483, 7067.717
482.4768, 7185.038
484.4053, 7288.606
486.3337, 7415.837
488.2622, 7508.905
490.1907, 7524.987
492.1191, 7475.768
494.0476, 7327.020
495.9761, 7056.645
497.9045, 6681.410
499.8330, 6263.034
501.7615, 5761.020
503.6899, 5257.195
505.6184, 4780.912
507.5469, 4329.063
509.4753, 3911.896
511.4038, 3525.332
513.3323, 3178.337
515.2607, 2885.443
517.1892, 2655.471
519.1177, 2469.334
521.0461, 2340.396
522.9746, 2257.935
524.9031, 2192.294
526.8315, 2145.142
528.7600, 2112.856
530.6885, 2094.932
532.6169, 2095.245
534.5454, 2100.511
536.4739, 2109.962
538.4023, 2125.087
540.3308, 2147.384
542.2593, 2179.721
544.1877, 2211.427
546.1162, 2235.864
548.0447, 2256.528
549.9731, 2288.630
551.9016, 2328.024
553.8301, 2380.254
555.7585, 2450.476
557.6870, 2536.785
559.6155, 2631.196
561.5439, 2741.663
563.4724, 2854.714
565.4009, 2961.384
567.3293, 3060.744
569.2578, 3155.769
571.1863, 3244.504
573.1147, 3329.258
575.0432, 3412.699
576.9717, 3493.038
578.9001, 3574.938
580.8286, 3665.205
582.7571, 3763.193
584.6855, 3842.744
586.6140, 3899.901
588.5425, 3942.775
590.4709, 3981.140
592.3994, 4018.846
594.3279, 4023.353
596.2563, 3988.823
598.1848, 3920.693
600.1133, 3819.294
602.0417, 3671.246
603.9702, 3512.944
605.8987, 3340.948
607.8271, 3162.420
609.7556, 2993.029
611.6841, 2837.655
613.6125, 2687.214
615.5410, 2535.084
617.4695, 2380.522
619.3979, 2245.926
621.3264, 2136.808
623.2549, 2042.739
625.1833, 1959.703
627.1118, 1887.903
629.0403, 1820.442
630.9688, 1755.715
632.8972, 1694.759
634.8257, 1638.829
636.7542, 1587.297
638.6826, 1541.954
640.6111, 1505.365
642.5396, 1475.110
644.4680, 1446.319
646.3965, 1418.180
648.3250, 1392.724
650.2534, 1371.816
652.1819, 1355.357
654.1104, 1336.203
656.0388, 1308.008
657.9673, 1282.893
659.8958, 1268.186
661.8242, 1263.165
663.7527, 1259.727
665.6812, 1254.281
667.6096, 1251.464
669.5381, 1255.165
671.4666, 1275.330
673.3950, 1286.471
675.3235, 1280.187
677.2520, 1267.920
679.1804, 1264.747
681.1089, 1274.766
683.0374, 1283.388
684.9658, 1285.460
686.8943, 1283.037
688.8228, 1282.344
690.7512, 1281.472
692.6797, 1284.195
694.6082, 1294.591
696.5366, 1310.305
698.4651, 1321.660
700.3936, 1324.489
702.3220, 1326.741
704.2505, 1332.185
706.1790, 1341.736
708.1074, 1350.116
710.0359, 1353.921
711.9644, 1359.123
713.8928, 1371.118
715.8213, 1390.001
717.7498, 1408.139
719.6782, 1423.717
721.6067, 1438.118
723.5352, 1451.924
725.4636, 1461.598
727.3921, 1477.486
729.3206, 1506.047
731.2490, 1538.982
733.1775, 1563.054
735.1060, 1574.723
737.0344, 1588.512
738.9629, 1612.027
740.8914, 1640.246
742.8198, 1663.226
744.7483, 1675.631
746.6768, 1688.633
748.6052, 1704.693
750.5337, 1723.074
752.4622, 1741.099
754.3906, 1763.254
756.3191, 1778.652
758.2476, 1779.436
760.1760, 1768.356
762.1045, 1760.356
764.0330, 1760.215
765.9614, 1759.761
767.8899, 1758.711
769.8184, 1757.106
771.7468, 1744.741
773.6753, 1709.726
775.6038, 1674.848
777.5322, 1653.986
779.4607, 1646.882
781.3892, 1635.328
783.3176, 1611.145
785.2461, 1586.132
787.1746, 1567.118
789.1030, 1556.985
791.0315, 1544.442
792.9600, 1525.939
794.8884, 1507.533
796.8169, 1494.468
798.7454, 1487.225
800.6738, 1479.123
802.6023, 1464.650
804.5308, 1451.318
806.4592, 1445.650
808.3877, 1457.119
810.3162, 1460.517
812.2446, 1448.655
814.1731, 1432.542
816.1016, 1424.899
818.0300, 1427.552
819.9585, 1428.040
821.8870, 1419.237
823.8154, 1408.517
825.7439, 1403.596
827.6724, 1408.898
829.6008, 1412.797
831.5293, 1410.806
833.4578, 1408.326
835.3862, 1414.415
837.3147, 1432.112
839.2432, 1446.970
841.1716, 1455.072
843.1001, 1458.231
845.0286, 1457.576
846.9570, 1448.547
848.8855, 1445.267
850.8140, 1450.828
852.7424, 1462.745
854.6709, 1477.892
856.5994, 1498.604
858.5278, 1517.278
860.4563, 1534.579
862.3848, 1547.928
864.3132, 1553.207
866.2417, 1546.201
868.1702, 1542.110
870.0986, 1546.716
872.0271, 1555.377
873.9556, 1561.012
875.8840, 1561.061
877.8125, 1561.553
879.7410, 1566.068
881.6694, 1569.867
883.5979, 1564.496
885.5264, 1545.253
887.4548, 1533.766
889.3833, 1542.863
891.3118, 1560.268
893.2402, 1571.175
895.1687, 1568.046
897.0972, 1570.785
899.0256, 1579.196
900.9541, 1594.715
902.8826, 1621.181
904.8110, 1660.251
906.7395, 1700.682
908.6680, 1738.952
910.5964, 1778.194
912.5249, 1820.001
914.4534, 1862.292
916.3818, 1914.579
918.3103, 1969.941
920.2388, 2039.826
922.1672, 2133.990
924.0957, 2251.052
926.0242, 2399.470
927.9526, 2584.595
929.8811, 2798.814
931.8096, 3032.297
933.7380, 3283.098
935.6665, 3569.723
937.5950, 3896.448
939.5234, 4263.395
941.4519, 4667.714
943.3804, 5102.007
945.3088, 5607.398
947.2373, 6194.981
949.1658, 6833.828
951.0942, 7500.258
953.0227, 8196.168
954.9512, 8966.235
956.8796, 9769.519
958.8081, 10707.00
960.7366, 11808.57
962.6650, 13072.33
964.5935, 14513.04
966.5220, 16102.25
968.4504, 17921.61
970.3789, 19954.16
972.3074, 22231.70
974.2358, 24884.04
976.1643, 28035.00
978.0928, 31363.60
980.0212, 35169.87
981.9497, 39021.57
983.8782, 42145.78
985.8066, 44656.55
987.7351, 46039.13
989.6636, 45969.28
991.5920, 44787.48
993.5205, 42949.31
995.4490, 40013.44
997.3774, 37052.44
999.3059, 33940.65
1001.234, 30939.85
1003.163, 28339.28
1005.091, 26116.13
1007.020, 24291.82
1008.948, 23032.82
1010.877, 22060.08
1012.805, 21187.41
1014.734, 20414.66
1016.662, 19692.37
1018.591, 19017.31
1020.519, 18392.00
1022.448, 17883.83
1024.376, 17504.87
1026.304, 16904.97
1028.233, 16062.62
1030.161, 15051.90
1032.090, 13837.42
1034.018, 12464.94
1035.947, 11060.21
1037.875, 9569.985
1039.804, 8181.941
1041.732, 6934.094
1043.661, 5836.652
1045.589, 4925.147
1047.518, 4233.024
1049.446, 3674.645
1051.375, 3267.050
1053.303, 2959.391
1055.231, 2708.346
1057.160, 2524.716
1059.088, 2367.046
1061.017, 2241.554
1062.945, 2135.593
1064.874, 2040.797
1066.802, 1957.224
1068.731, 1896.064
1070.659, 1871.807
1072.588, 1853.230
1074.516, 1825.333
1076.445, 1790.871
1078.373, 1766.096
1080.302, 1754.411
1082.230, 1748.909
1084.158, 1750.752
1086.087, 1757.657
1088.015, 1766.271
1089.944, 1777.898
1091.872, 1787.098
1093.801, 1785.997
1095.729, 1787.194
1097.658, 1801.608
1099.586, 1829.307
1101.515, 1858.058
1103.443, 1882.870
1105.372, 1911.824
1107.300, 1953.783
1109.229, 2007.346
1111.157, 2045.336
1113.085, 2061.949
1115.014, 2070.322
1116.942, 2074.329
1118.871, 2071.496
1120.799, 2058.260
1122.728, 2039.448
1124.656, 1998.263
1126.585, 1914.167
1128.513, 1817.478
1130.442, 1732.683
1132.370, 1659.918
1134.299, 1589.079
1136.227, 1516.833
1138.156, 1448.872
1140.084, 1384.641
1142.012, 1325.359
1143.941, 1280.599
1145.869, 1256.203
1147.798, 1239.184
1149.726, 1232.713
1151.655, 1230.605
1153.583, 1221.830
1155.512, 1204.384
1157.440, 1189.795
1159.369, 1180.289
1161.297, 1174.029
1163.226, 1171.397
1165.154, 1171.745
1167.083, 1168.549
1169.011, 1157.262
1170.939, 1148.217
1172.868, 1146.534
1174.796, 1149.665
1176.725, 1150.816
1178.653, 1149.277
1180.582, 1146.718
1182.510, 1143.944
1184.439, 1139.785
1186.367, 1132.432
1188.296, 1121.190
1190.224, 1111.783
1192.153, 1103.282
1194.081, 1097.840
1196.010, 1099.218
1197.938, 1104.201
1199.866, 1104.084
1201.795, 1095.346
1203.723, 1090.551
1205.652, 1099.166
1207.580, 1109.893
1209.509, 1111.525
1211.437, 1101.378
1213.366, 1094.560
1215.294, 1093.545
1217.223, 1094.116
1219.151, 1095.575
1221.080, 1097.471
1223.008, 1097.362
1224.937, 1092.332
1226.865, 1090.221
1228.793, 1095.524
1230.722, 1102.297
1232.650, 1103.302
1234.579, 1098.643
1236.507, 1096.582
1238.436, 1100.118
1240.364, 1103.832
1242.293, 1104.203
1244.221, 1102.748
1246.150, 1104.171
1248.078, 1111.034
1250.007, 1114.619
1251.935, 1112.480
1253.864, 1107.074
1255.792, 1098.709
1257.720, 1085.657
1259.649, 1080.131
1261.577, 1090.069
1263.506, 1097.445
1265.434, 1093.533
1267.363, 1083.675
1269.291, 1080.331
1271.220, 1085.434
1273.148, 1089.106
1275.077, 1093.054
1277.005, 1092.210
1278.934, 1079.498
1280.862, 1058.181
1282.791, 1042.860
1284.719, 1036.419
1286.647, 1032.171
1288.576, 1028.065
1290.504, 1024.733
1292.433, 1023.374
1294.361, 1024.625
1296.290, 1024.555
1298.218, 1024.423
1300.147, 1021.140
1302.075, 1011.550
1304.004, 997.7604
1305.932, 986.6250
1307.861, 981.5657
1309.789, 974.0783
1311.718, 959.1197
1313.646, 945.5526
1315.574, 940.8390
1317.503, 944.5916
1319.431, 948.6259
1321.360, 954.2194
1323.288, 957.5151
1325.217, 957.5863
1327.145, 954.3456
1329.074, 946.8555
1331.002, 934.9769
1332.931, 925.0621
1334.859, 917.3518
1336.788, 912.9137
1338.716, 914.6353
1340.645, 919.3038
1342.573, 919.6556
1344.501, 914.8114
1346.430, 908.2332
1348.358, 898.1244
1350.287, 888.6890
1352.215, 882.7173
1354.144, 879.6458
1356.072, 875.5926
1358.001, 867.8042
1359.929, 862.9012
1361.858, 864.3834
1363.786, 866.6018
1365.715, 863.6830
1367.643, 855.6895
1369.572, 852.2038
1371.500, 856.4726
1373.428, 859.8676
1375.357, 859.1223
1377.285, 856.8102
1379.214, 856.2169
1381.142, 857.2325
1383.071, 856.1920
1384.999, 851.3439
1386.928, 846.6671
1388.856, 842.7089
1390.785, 840.5316
1392.713, 842.2669
1394.642, 848.3386
1396.570, 854.4730
1398.499, 861.7706
1400.427, 866.6700
1402.355, 865.8967
1404.284, 862.2481
1406.212, 861.9888
1408.141, 866.5795
1410.069, 870.4161
1411.998, 872.2974
1413.926, 874.2043
1415.855, 876.4017
1417.783, 879.3175
1419.712, 884.4977
1421.640, 898.5861
1423.569, 903.5436
1425.497, 888.0650
1427.426, 874.7869
1429.354, 879.1810
1431.282, 896.3402
1433.211, 908.0215
1435.139, 913.5518
1437.068, 916.3266
1438.996, 912.4285
1440.925, 910.1179
1442.853, 915.9393
1444.782, 927.4659
1446.710, 937.2328
1448.639, 944.9080
1450.567, 951.6683
1452.496, 957.4944
1454.424, 962.8054
1456.353, 968.3920
1458.281, 973.6700
1460.209, 975.7894
1462.138, 972.5239
1464.066, 974.7850
1465.995, 991.2054
1467.923, 1007.406
1469.852, 1012.879
1471.780, 1010.968
1473.709, 1015.508
1475.637, 1029.431
1477.566, 1041.170
1479.494, 1045.610
1481.423, 1050.344
1483.351, 1059.244
1485.280, 1071.570
1487.208, 1084.950
1489.136, 1101.435
1491.065, 1114.285
1492.993, 1123.262
1494.922, 1128.505
1496.850, 1125.920
1498.779, 1120.059
1500.707, 1123.485
1502.636, 1140.004
1504.564, 1158.640
1506.493, 1184.345
1508.421, 1206.453
1510.350, 1217.175
1512.278, 1222.065
1514.207, 1232.129
1516.135, 1248.599
1518.063, 1266.301
1519.992, 1290.406
1521.920, 1309.387
1523.849, 1312.667
1525.777, 1311.706
1527.706, 1323.750
1529.634, 1349.422
1531.563, 1377.326
1533.491, 1408.039
1535.420, 1439.162
1537.348, 1477.207
1539.277, 1510.326
1541.205, 1518.260
1543.134, 1505.868
1545.062, 1512.863
1546.990, 1549.327
1548.919, 1585.179
1550.847, 1615.353
1552.776, 1638.472
1554.704, 1649.008
1556.633, 1651.651
1558.561, 1661.918
1560.490, 1682.463
1562.418, 1701.752
1564.347, 1719.954
1566.275, 1732.733
1568.204, 1736.608
1570.132, 1733.515
1572.061, 1724.479
1573.989, 1708.445
1575.917, 1699.092
1577.846, 1704.441
1579.774, 1706.995
1581.703, 1695.332
1583.631, 1678.864
1585.560, 1669.784
1587.488, 1667.559
1589.417, 1658.662
1591.345, 1638.393
1593.274, 1619.746
1595.202, 1607.695
1597.131, 1597.883
1599.059, 1587.848
1600.988, 1577.510
1602.916, 1567.075
1604.844, 1557.673
1606.773, 1543.790
1608.701, 1519.103
1610.630, 1496.362
1612.558, 1484.436
1614.487, 1476.935
1616.415, 1461.383
1618.344, 1436.544
1620.272, 1416.351
1622.201, 1405.760
1624.129, 1393.176
1626.058, 1377.734
1627.986, 1356.985
1629.915, 1325.214
1631.843, 1284.198
1633.771, 1253.378
1635.700, 1236.709
1637.628, 1219.738
1639.557, 1196.901
1641.485, 1177.035
1643.414, 1167.648
1645.342, 1162.275
1647.271, 1148.272
1649.199, 1123.917
1651.128, 1103.908
1653.056, 1092.142
1654.985, 1079.330
1656.913, 1060.936
1658.842, 1042.811
1660.770, 1030.907
1662.698, 1023.568
1664.627, 1010.835
1666.555, 988.3580
1668.484, 973.9794
1670.412, 980.8273
1672.341, 982.3398
1674.269, 964.3140
1676.198, 939.1357
1678.126, 920.7226
1680.055, 909.0529
1681.983, 906.9891
1683.912, 922.0336
1685.840, 930.5798
1687.769, 922.6558
1689.697, 913.3795
1691.625, 912.7682
1693.554, 915.6315
1695.482, 909.8581
1697.411, 893.6453
1699.339, 882.0543
1701.268, 876.7432
1703.196, 874.7102
1705.125, 880.5680
1707.053, 884.1968
1708.982, 874.8690
1710.910, 857.3924
1712.839, 850.3809
1714.767, 856.6459
1716.696, 858.4791
1718.624, 849.4222
1720.552, 843.1072
1722.481, 847.7724
1724.409, 853.7905
1726.338, 850.8382
1728.266, 841.3973
1730.195, 839.6434
1732.123, 847.9674
1734.052, 853.2070
1735.980, 852.5338
1737.909, 849.6539
1739.837, 844.3696
1741.766, 838.9365
1743.694, 835.1420
1745.623, 833.0854
1747.551, 833.4166
1749.479, 836.3813
1751.408, 840.9484
1753.336, 850.2390
1755.265, 855.8171
1757.193, 852.0704
1759.122, 843.8867
1761.050, 834.0848
1762.979, 823.8483
1764.907, 819.2942
1766.836, 821.5834
1768.764, 824.7878
1770.693, 829.0434
1772.621, 831.8602
1774.550, 831.4609
1776.478, 829.4686
1778.406, 827.7249
1780.335, 825.8586
1782.263, 821.7671
1784.192, 814.6034
1786.120, 809.8878
1788.049, 810.1295
1789.977, 810.4698
1791.906, 809.2137
1793.834, 806.8773
1795.763, 803.3527
1797.691, 799.1312
1799.620, 795.7429
1801.548, 792.7516
1803.477, 793.1221
1805.405, 802.4307
1807.333, 807.4520
1809.262, 798.3675
1811.190, 789.0148
1813.119, 794.5812
1815.047, 808.3340
1816.976, 809.7296
1818.904, 794.6360
1820.833, 785.0189
1822.761, 782.2811
1824.690, 782.9068
1826.618, 789.8017
1828.547, 796.1454
1830.475, 795.6649
1832.404, 792.6647
1834.332, 795.9116
1836.260, 806.1374
1838.189, 812.8257
1840.117, 815.0158
1842.046, 815.3471
1843.974, 812.7686
1845.903, 810.0591
1847.831, 807.6741
1849.760, 806.2126
1851.688, 806.4581
1853.617, 808.2875
1855.545, 811.2830
1857.474, 816.2394
1859.402, 817.9814
1861.331, 812.8627
1863.259, 810.4035
1865.188, 819.3729
1867.116, 826.1943
1869.044, 816.5551
1870.973, 800.6011
1872.901, 799.6818
1874.830, 812.7938
1876.758, 820.9352
1878.687, 821.8823
1880.615, 820.3553
1882.544, 817.0523
1884.472, 812.1570
1886.401, 801.7098
1888.329, 792.8642
1890.258, 795.0957
1892.186, 805.5075
1894.115, 813.3840
1896.043, 818.9595
1897.971, 820.4050
1899.900, 812.5135
1901.828, 808.6370
1903.757, 815.0868
1905.685, 822.2332
1907.614, 824.0880
1909.542, 823.3663
1911.471, 823.7077
1913.399, 825.1022
1915.328, 827.4596
1917.256, 831.5974
1919.185, 834.7482
1921.113, 834.5410
1923.042, 836.6056
1924.970, 846.0202
1926.898, 854.0206
1928.827, 851.6632
1930.755, 845.6635
1932.684, 849.7176
1934.612, 862.5151
1936.541, 867.4467
1938.469, 861.1456
1940.398, 862.3843
1942.326, 878.5253
1944.255, 894.1085
1946.183, 902.7914
1948.112, 909.1125
1950.040, 914.9700
1951.969, 921.3243
1953.897, 929.0464
1955.825, 938.4079
1957.754, 953.2029
1959.682, 976.6138
1961.611, 994.1571
1963.539, 998.3683
1965.468, 1004.713
1967.396, 1022.001
1969.325, 1037.679
1971.253, 1040.269
1973.182, 1037.313
1975.110, 1039.780
1977.039, 1047.736
1978.967, 1063.330
1980.896, 1090.377
1982.824, 1111.999
1984.752, 1125.894
1986.681, 1136.756
1988.609, 1147.595
1990.538, 1153.420
1992.466, 1145.899
1994.395, 1136.364
1996.323, 1141.480
1998.252, 1155.264
2000.180, 1157.661
2002.109, 1147.895
2004.037, 1139.675
2005.966, 1135.782
2007.894, 1129.412
2009.823, 1115.896
2011.751, 1103.521
2013.679, 1096.839
2015.608, 1091.689
2017.536, 1086.476
2019.465, 1079.345
2021.393, 1065.200
2023.322, 1043.909
2025.250, 1023.318
2027.179, 999.1636
2029.107, 987.6063
2031.036, 1002.728
2032.964, 1008.356
2034.893, 988.1536
2036.821, 965.1058
2038.750, 948.6501
2040.678, 937.2421
2042.606, 931.3636
2044.535, 928.6793
2046.463, 920.8474
2048.392, 908.1406
2050.320, 905.2310
2052.249, 916.8206
2054.177, 925.0073
2056.106, 927.6927
2058.034, 924.6444
2059.963, 909.7827
2061.891, 895.8726
2063.820, 889.3116
2065.748, 890.2293
2067.677, 903.3217
2069.605, 924.5942
2071.533, 932.9572
2073.462, 925.9005
2075.390, 926.4513
2077.319, 939.5409
2079.247, 945.8016
2081.176, 938.8101
2083.104, 930.7459
2085.033, 921.3433
2086.961, 918.2260
2088.890, 930.7132
2090.818, 949.1045
2092.747, 965.9851
2094.675, 978.5916
2096.604, 974.1210
2098.532, 949.9522
2100.460, 941.1875
2102.389, 960.0226
2104.317, 970.1881
2106.246, 964.4761
2108.174, 959.5911
2110.103, 959.0074
2112.031, 960.1080
2113.960, 963.1708
2115.888, 965.8719
2117.817, 965.3502
2119.745, 963.0175
2121.674, 961.9933
2123.602, 962.0031
2125.531, 961.5952
2127.459, 960.8643
2129.387, 957.8196
2131.316, 951.8807
2133.244, 944.4585
2135.173, 932.4490
2137.101, 923.7237
2139.030, 923.3624
2140.958, 924.6790
2142.887, 920.8976
2144.815, 917.6550
2146.744, 925.1565
2148.672, 939.1526
2150.601, 944.5292
2152.529, 941.6632
2154.458, 937.1982
2156.386, 930.7713
2158.314, 929.0726
2160.243, 935.7147
2162.171, 939.5139
2164.100, 932.3076
2166.028, 928.7369
2167.957, 938.4764
2169.885, 949.7495
2171.814, 952.6311
2173.742, 952.8876
2175.671, 959.4818
2177.599, 969.6674
2179.528, 973.5421
2181.456, 971.1852
2183.385, 973.3256
2185.313, 980.5818
2187.241, 989.5503
2189.170, 1002.170
2191.098, 1007.922
2193.027, 999.3596
2194.955, 992.4141
2196.884, 993.7037
2198.812, 998.0657
2200.741, 1005.809
2202.669, 1011.947
2204.598, 1010.325
2206.526, 1003.653
2208.455, 994.3428
2210.383, 984.0804
2212.312, 989.6812
2214.240, 1012.001
2216.168, 1022.489
2218.097, 1016.714
2220.025, 1015.651
2221.954, 1025.115
2223.882, 1033.101
2225.811, 1034.917
2227.739, 1036.162
2229.668, 1039.643
2231.596, 1042.615
2233.525, 1042.560
2235.453, 1041.524
2237.382, 1041.923
2239.310, 1043.087
2241.239, 1046.232
2243.167, 1049.328
2245.095, 1035.371
2247.024, 1005.002
2248.952, 994.7556
2250.881, 1011.750
2252.809, 1020.631
2254.738, 1013.992
2256.666, 1003.617
2258.595, 986.8957
2260.523, 974.1444
2262.452, 972.8658
2264.380, 971.2726
2266.309, 958.0467
2268.237, 946.2981
2270.166, 951.0623
2272.094, 962.6368
2274.022, 968.2266
2275.951, 968.4883
2277.879, 963.0068
2279.808, 952.9486
2281.736, 949.2041
2283.665, 953.8635
2285.593, 953.9053
2287.522, 942.6024
2289.450, 938.8355
2291.379, 946.0786
2293.307, 955.0312
2295.236, 970.3660
2297.164, 976.4240
2299.093, 958.8223
2301.021, 943.1757
2302.949, 948.5005
2304.878, 957.7160
2306.806, 955.7258
2308.735, 949.4038
2310.663, 947.2177
2312.592, 948.3985
2314.520, 951.2080
2316.449, 955.6249
2318.377, 962.4537
2320.306, 971.8223
2322.234, 975.6807
2324.163, 973.0790
2326.091, 971.3578
2328.020, 969.8467
2329.948, 976.0720
2331.876, 1002.005
2333.805, 1016.328
2335.733, 1003.678
2337.662, 989.3871
2339.590, 980.5112
2341.519, 975.1998
2343.447, 973.6371
2345.376, 973.8815
2347.304, 974.4949
2349.233, 975.9138
2351.161, 979.7873
2353.090, 984.2059
2355.018, 985.2915
2356.947, 983.7872
2358.875, 982.2325
2360.803, 980.6591
2362.732, 980.8619
2364.660, 983.0865
2366.589, 985.6882
2368.517, 988.8424
2370.446, 991.3918
2372.374, 993.9374
2374.303, 992.4056
2376.231, 980.7541
2378.160, 976.1722
2380.088, 989.9111
2382.017, 1002.341
2383.945, 1006.123
2385.874, 1007.122
2387.802, 1009.020
2389.730, 1008.594
2391.659, 999.2656
2393.587, 990.4431
2395.516, 993.7382
2397.444, 1001.636
2399.373, 1003.239
2401.301, 1001.056
2403.230, 1000.889
2405.158, 1002.406
2407.087, 1004.092
2409.015, 1005.953
2410.944, 1006.622
2412.872, 1006.070
2414.801, 1004.529
2416.729, 1001.343
2418.657, 1005.385
2420.586, 1021.559
2422.514, 1031.585
2424.443, 1030.544
2426.371, 1026.532
2428.300, 1013.509
2430.228, 1009.131
2432.157, 1025.419
2434.085, 1037.085
2436.014, 1030.059
2437.942, 1023.366
2439.871, 1031.415
2441.799, 1039.123
2443.728, 1034.712
2445.656, 1025.920
2447.584, 1016.880
2449.513, 1010.748
2451.441, 1013.025
2453.370, 1020.223
2455.298, 1027.268
2457.227, 1033.791
2459.155, 1038.858
2461.084, 1042.665
2463.012, 1047.058
2464.941, 1051.626
2466.869, 1049.494
2468.798, 1039.777
2470.726, 1031.957
2472.655, 1025.704
2474.583, 1026.068
2476.511, 1034.524
2478.440, 1038.194
2480.368, 1033.043
2482.297, 1032.549
2484.225, 1043.820
2486.154, 1051.334
2488.082, 1048.313
2490.011, 1050.208
2491.939, 1064.861
2493.868, 1073.919
2495.796, 1068.387
2497.725, 1062.620
2499.653, 1062.805
2501.582, 1064.880
2503.510, 1068.201
2505.438, 1070.907
2507.367, 1068.130
2509.295, 1068.453
2511.224, 1084.273
2513.152, 1100.541
2515.081, 1102.427
2517.009, 1098.264
2518.938, 1093.667
2520.866, 1092.052
2522.795, 1102.782
2524.723, 1117.912
2526.652, 1120.031
2528.580, 1113.632
2530.509, 1109.128
2532.437, 1107.599
2534.365, 1115.512
2536.294, 1129.986
2538.222, 1135.390
2540.151, 1132.247
2542.079, 1129.763
2544.008, 1127.726
2545.936, 1130.482
2547.865, 1138.196
2549.793, 1145.365
2551.722, 1151.643
2553.650, 1160.804
2555.579, 1175.312
2557.507, 1181.306
2559.436, 1171.326
2561.364, 1165.925
2563.292, 1165.252
2565.221, 1169.483
2567.149, 1180.772
2569.078, 1188.647
2571.006, 1190.596
2572.935, 1190.216
2574.863, 1185.607
2576.792, 1183.448
2578.720, 1186.768
2580.649, 1189.640
2582.577, 1188.768
2584.506, 1191.799
2586.434, 1205.062
2588.363, 1215.184
2590.291, 1214.414
2592.219, 1212.356
2594.148, 1211.438
2596.076, 1212.621
2598.005, 1219.360
2599.933, 1224.165
2601.862, 1220.112
2603.790, 1217.733
2605.719, 1225.850
2607.647, 1235.166
2609.576, 1240.335
2611.504, 1242.714
2613.433, 1240.406
2615.361, 1239.150
2617.290, 1244.757
2619.218, 1252.678
2621.146, 1260.026
2623.075, 1266.618
2625.003, 1274.711
2626.932, 1279.559
2628.860, 1269.142
2630.789, 1258.174
2632.717, 1268.352
2634.646, 1286.954
2636.574, 1301.182
2638.503, 1309.998
2640.431, 1308.225
2642.360, 1302.668
2644.288, 1304.223
2646.217, 1310.366
2648.145, 1316.974
2650.073, 1324.387
2652.002, 1334.359
2653.930, 1344.941
2655.859, 1353.072
2657.787, 1358.725
2659.716, 1360.692
2661.644, 1360.710
2663.573, 1363.821
2665.501, 1368.533
2667.430, 1368.739
2669.358, 1368.264
2671.287, 1379.828
2673.215, 1398.068
2675.144, 1404.577
2677.072, 1403.426
2679.000, 1410.040
2680.929, 1421.526
2682.857, 1429.433
2684.786, 1433.623
2686.714, 1430.463
2688.643, 1424.446
2690.571, 1436.409
2692.500, 1461.613
2694.428, 1479.345
2696.357, 1490.349
2698.285, 1493.368
2700.214, 1492.557
2702.142, 1509.441
2704.071, 1536.196
2705.999, 1528.713
2707.927, 1498.473
2709.856, 1510.634
2711.784, 1551.429
2713.713, 1569.454
2715.641, 1570.096
2717.570, 1579.451
2719.498, 1594.115
2721.427, 1595.883
2723.355, 1589.068
2725.284, 1595.880
2727.212, 1611.845
2729.141, 1620.476
2731.069, 1625.121
2732.998, 1641.271
2734.926, 1663.489
2736.854, 1666.507
2738.783, 1658.445
2740.711, 1672.481
2742.640, 1699.484
2744.568, 1711.885
2746.497, 1716.407
2748.425, 1735.641
2750.354, 1762.142
2752.282, 1772.163
2754.211, 1772.407
2756.139, 1777.607
2758.068, 1787.394
2759.996, 1802.300
2761.925, 1820.123
2763.853, 1836.409
2765.781, 1851.775
2767.710, 1867.690
2769.638, 1883.627
2771.567, 1900.411
2773.495, 1915.273
2775.424, 1918.222
2777.352, 1920.708
2779.281, 1947.356
2781.209, 1979.963
2783.138, 1988.904
2785.066, 1991.222
2786.995, 2007.881
2788.923, 2028.520
2790.852, 2042.076
2792.780, 2051.477
2794.708, 2052.203
2796.637, 2059.395
2798.565, 2093.684
2800.494, 2131.950
2802.422, 2157.792
2804.351, 2173.580
2806.279, 2168.121
2808.208, 2170.862
2810.136, 2210.162
2812.065, 2250.933
2813.993, 2274.154
2815.922, 2285.976
2817.850, 2277.761
2819.779, 2277.307
2821.707, 2301.310
2823.635, 2329.939
2825.564, 2358.010
2827.492, 2382.607
2829.421, 2398.751
2831.349, 2417.547
2833.278, 2446.565
2835.206, 2469.972
2837.135, 2479.538
2839.063, 2494.467
2840.992, 2526.886
2842.920, 2553.751
2844.849, 2567.804
2846.777, 2583.797
2848.706, 2603.701
2850.634, 2623.089
2852.563, 2639.308
2854.491, 2662.497
2856.419, 2694.014
2858.348, 2734.946
2860.276, 2788.130
2862.205, 2823.807
2864.133, 2839.115
2866.062, 2856.203
2867.990, 2875.552
2869.919, 2912.231
2871.847, 2965.966
2873.776, 2999.968
2875.704, 3018.207
2877.633, 3051.504
2879.561, 3095.682
2881.490, 3126.358
2883.418, 3147.578
2885.346, 3173.385
2887.275, 3203.184
2889.203, 3237.633
2891.132, 3273.434
2893.060, 3301.503
2894.989, 3329.485
2896.917, 3374.174
2898.846, 3420.674
2900.774, 3447.509
2902.703, 3472.835
2904.631, 3516.700
2906.560, 3562.772
2908.488, 3588.296
2910.417, 3625.594
2912.345, 3705.600
2914.273, 3779.827
2916.202, 3817.065
2918.130, 3851.870
2920.059, 3896.831
2921.987, 3943.529
2923.916, 3990.031
2925.844, 4037.728
2927.773, 4085.159
2929.701, 4138.001
2931.630, 4197.872
2933.558, 4262.344
2935.487, 4333.257
2937.415, 4390.875
2939.344, 4430.545
2941.272, 4479.240
2943.200, 4537.664
2945.129, 4613.054
2947.057, 4702.123
2948.986, 4770.723
2950.914, 4822.507
2952.843, 4876.455
2954.771, 4935.477
2956.700, 5017.472
2958.628, 5106.441
2960.557, 5162.806
2962.485, 5211.017
2964.414, 5285.052
2966.342, 5368.256
2968.271, 5446.098
2970.199, 5519.855
2972.127, 5591.142
2974.056, 5658.804
2975.984, 5706.292
2977.913, 5774.762
2979.841, 5908.494
2981.770, 6016.585
2983.698, 6060.446
2985.627, 6116.142
2987.555, 6205.810
2989.484, 6313.248
2991.412, 6451.326
2993.341, 6532.504
2995.269, 6543.414
2997.198, 6603.850
2999.126, 6728.566
3001.054, 6809.098
3002.983, 6848.521
3004.911, 6875.967
3006.840, 6900.806
3008.768, 6962.719
3010.697, 7039.615
3012.625, 7082.199
3014.554, 7103.993
3016.482, 7116.387
3018.411, 7130.232
3020.339, 7161.563
3022.268, 7191.751
3024.196, 7203.071
3026.125, 7214.373
3028.053, 7244.469
3029.981, 7255.222
3031.910, 7208.169
3033.838, 7183.483
3035.767, 7205.649
3037.695, 7220.284
3039.624, 7221.994
3041.552, 7203.611
3043.481, 7156.165
3045.409, 7142.466
3047.338, 7160.217
3049.266, 7141.025
3051.195, 7096.526
3053.123, 7082.469
3055.052, 7088.871
3056.980, 7096.424
3058.908, 7100.385
3060.837, 7088.203
3062.765, 7075.120
3064.694, 7078.852
3066.622, 7083.571
3068.551, 7074.981
3070.479, 7069.385
3072.408, 7076.745
3074.336, 7080.550
3076.265, 7064.169
3078.193, 7068.482
3080.122, 7102.347
3082.050, 7129.071
3083.979, 7144.552
3085.907, 7150.070
3087.835, 7145.966
3089.764, 7147.740
3091.692, 7156.258
3093.621, 7177.314
3095.549, 7206.461
3097.478, 7242.586
3099.406, 7273.814
3101.335, 7276.043
3103.263, 7275.332
3105.192, 7292.259
3107.120, 7313.102
3109.049, 7331.856
3110.977, 7351.456
3112.906, 7381.397
3114.834, 7382.801
3116.762, 7319.882
3118.691, 7304.581
3120.619, 7350.784
3122.548, 7339.523
3124.476, 7274.917
3126.405, 7265.693
3128.333, 7294.097
3130.262, 7277.531
3132.190, 7238.934
3134.119, 7224.875
3136.047, 7213.407
3137.976, 7177.664
3139.904, 7138.372
3141.833, 7105.537
3143.761, 7081.802
3145.689, 7068.876
3147.618, 7065.552
3149.546, 7091.473
3151.475, 7067.298
3153.403, 6982.307
3155.332, 6916.149
3157.260, 6875.194
3159.189, 6811.870
3161.117, 6737.198
3163.046, 6719.183
3164.974, 6721.966
3166.903, 6672.625
3168.831, 6617.558
3170.760, 6622.885
3172.688, 6625.079
3174.616, 6585.178
3176.545, 6533.352
3178.473, 6461.697
3180.402, 6424.319
3182.330, 6437.720
3184.259, 6423.633
3186.187, 6367.043
3188.116, 6320.161
3190.044, 6282.620
3191.973, 6236.440
3193.901, 6196.709
3195.830, 6215.615
3197.758, 6241.924
3199.687, 6195.715
3201.615, 6135.946
3203.543, 6098.833
3205.472, 6071.534
3207.400, 6064.509
3209.329, 6029.857
3211.257, 5949.923
3213.186, 5903.365
3215.114, 5908.553
3217.043, 5896.098
3218.971, 5866.787
3220.900, 5829.927
3222.828, 5793.106
3224.757, 5777.931
3226.685, 5767.416
3228.614, 5734.053
3230.542, 5703.562
3232.470, 5703.054
3234.399, 5691.637
3236.327, 5650.339
3238.256, 5596.050
3240.184, 5524.757
3242.113, 5490.178
3244.041, 5500.124
3245.970, 5500.413
3247.898, 5488.621
3249.827, 5441.544
3251.755, 5384.415
3253.684, 5359.149
3255.612, 5342.695
3257.541, 5315.438
3259.469, 5287.121
3261.397, 5265.193
3263.326, 5236.216
3265.254, 5192.689
3267.183, 5164.795
3269.111, 5155.442
3271.040, 5132.028
3272.968, 5096.458
3274.897, 5064.636
3276.825, 5036.477
3278.754, 5011.841
3280.682, 4989.818
3282.611, 4977.191
3284.539, 4952.658
3286.468, 4893.766
3288.396, 4856.563
3290.324, 4886.687
3292.253, 4868.430
3294.181, 4799.114
3296.110, 4746.205
3298.038, 4711.725
3299.967, 4699.499
3301.895, 4690.667
3303.824, 4643.833
3305.752, 4592.322
3307.681, 4561.279
3309.609, 4537.706
3311.538, 4519.010
3313.466, 4497.959
3315.395, 4471.976
3317.323, 4449.732
3319.251, 4431.459
3321.180, 4402.079
3323.108, 4365.284
3325.037, 4333.513
3326.965, 4299.719
3328.894, 4247.846
3330.822, 4199.929
3332.751, 4166.611
3334.679, 4146.029
3336.608, 4149.837
3338.536, 4113.924
3340.465, 4030.857
3342.393, 4009.604
3344.322, 4034.294
3346.250, 3997.285
3348.178, 3937.915
3350.107, 3916.762
3352.035, 3903.115
3353.964, 3871.480
3355.892, 3841.530
3357.821, 3819.289
3359.749, 3799.549
3361.678, 3783.179
3363.606, 3758.327
3365.535, 3726.468
3367.463, 3700.096
3369.392, 3670.885
3371.320, 3611.828
3373.249, 3557.047
3375.177, 3544.244
3377.105, 3522.952
3379.034, 3461.824
3380.962, 3419.509
3382.891, 3402.520
3384.819, 3399.981
3386.748, 3406.045
3388.676, 3385.797
3390.605, 3352.051
3392.533, 3322.172
3394.462, 3296.801
3396.390, 3280.284
3398.319, 3262.327
3400.247, 3241.954
3402.176, 3211.072
3404.104, 3166.884
3406.032, 3128.525
3407.961, 3097.970
3409.889, 3085.160
3411.818, 3077.489
3413.746, 3055.200
3415.675, 3031.535
3417.603, 3014.215
3419.532, 2997.627
3421.460, 2980.394
3423.389, 2965.591
3425.317, 2952.628
3427.246, 2923.269
3429.174, 2887.096
3431.103, 2871.288
3433.031, 2865.657
3434.959, 2865.521
3436.888, 2863.468
3438.816, 2858.830
3440.745, 2843.008
3442.673, 2811.106
3444.602, 2787.744
3446.530, 2773.369
3448.459, 2774.912
3450.387, 2779.178
3452.316, 2763.618
3454.244, 2748.171
3456.173, 2744.674
3458.101, 2742.896
3460.030, 2745.840
3461.958, 2727.797
3463.886, 2693.346
3465.815, 2698.506
3467.743, 2721.827
3469.672, 2722.711
3471.600, 2708.909
3473.529, 2672.421
3475.457, 2653.481
3477.386, 2675.892
3479.314, 2681.265
3481.243, 2666.238
3483.171, 2666.435
3485.100, 2676.562
3487.028, 2678.529
3488.957, 2679.785
3490.885, 2686.460
3492.813, 2696.501
3494.742, 2709.470
3496.670, 2725.392
3498.599, 2745.807
3500.527, 2734.411
3502.456, 2711.419
3504.384, 2757.283
3506.313, 2821.578
3508.241, 2847.744
3510.170, 2884.437
3512.098, 2948.079
3514.027, 3028.342
3515.955, 3123.491
3517.884, 3226.460
3519.812, 3350.464
3521.740, 3523.563
3523.669, 3739.732
3525.597, 3991.922
3527.526, 4288.935
3529.454, 4638.257
3531.383, 5025.504
3533.311, 5448.624
3535.240, 5965.692
3537.168, 6581.531
3539.097, 7303.769
3541.025, 8135.644
3542.954, 9074.688
3544.882, 10101.25
3546.811, 11262.21
3548.739, 12379.27
3550.667, 13412.97
3552.596, 14172.62
3554.524, 14589.57
3556.453, 14450.89
3558.381, 13935.69
3560.310, 13058.34
3562.238, 12010.19
3564.167, 10819.21
3566.095, 9640.870
3568.024, 8494.632
3569.952, 7390.692
3571.881, 6388.777
3573.809, 5564.364
3575.738, 4860.106
3577.666, 4245.062
3579.594, 3771.169
3581.523, 3457.575
3583.451, 3151.411
3585.380, 2860.726
3587.308, 2639.108
3589.237, 2468.217
3591.165, 2355.046
3593.094, 2252.407
3595.022, 2142.405
3596.951, 2069.790
3598.879, 2035.915
3600.808, 1985.210
3602.736, 1931.483
3604.665, 1895.563
3606.593, 1869.828
3608.521, 1852.332
3610.450, 1834.971
3612.378, 1817.716
3614.307, 1783.865
3616.235, 1742.736
3618.164, 1727.311
3620.092, 1717.196
3622.021, 1686.876
3623.949, 1666.417
3625.878, 1667.891
3627.806, 1670.161
3629.735, 1671.036
3631.663, 1664.150
3633.592, 1647.638
3635.520, 1605.787
3637.448, 1575.149
3639.377, 1576.456
3641.305, 1575.052
3643.234, 1566.458
3645.162, 1562.613
3647.091, 1561.277
3649.019, 1558.781
3650.948, 1553.767
3652.876, 1545.610
3654.805, 1534.121
3656.733, 1516.745
3658.662, 1517.211
3660.590, 1526.302
3662.519, 1514.281
3664.447, 1494.781
3666.375, 1473.901
3668.304, 1465.214
3670.232, 1484.167
3672.161, 1473.989
3674.089, 1444.607
3676.018, 1443.926
3677.946, 1450.624
3679.875, 1437.244
3681.803, 1429.651
3683.732, 1442.845
3685.660, 1453.010
3687.589, 1457.492
3689.517, 1437.772
3691.446, 1414.232
3693.374, 1417.153
3695.302, 1421.551
3697.231, 1416.789
3699.159, 1413.216
3701.088, 1411.642
3703.016, 1415.361
3704.945, 1421.677
3706.873, 1433.652
3708.802, 1433.822
3710.730, 1407.160
3712.659, 1385.335
3714.587, 1371.020
3716.516, 1377.116
3718.444, 1389.002
3720.373, 1386.669
3722.301, 1379.010
3724.229, 1366.976
3726.158, 1356.311
3728.086, 1348.703
3730.015, 1363.491
3731.943, 1381.609
3733.872, 1370.243
3735.800, 1361.857
3737.729, 1373.426
3739.657, 1375.774
3741.586, 1368.543
3743.514, 1361.703
3745.443, 1353.343
3747.371, 1330.800
3749.300, 1326.550
3751.228, 1366.190
3753.156, 1364.896
3755.085, 1331.026
3757.013, 1329.916
3758.942, 1340.512
3760.870, 1342.032
3762.799, 1341.464
3764.727, 1339.431
3766.656, 1342.629
3768.584, 1348.813
3770.513, 1350.182
3772.441, 1347.548
3774.370, 1340.968
3776.298, 1330.893
3778.227, 1314.714
3780.155, 1315.920
3782.083, 1326.791
3784.012, 1329.864
3785.940, 1327.157
3787.869, 1317.472
3789.797, 1311.118
3791.726, 1309.959
3793.654, 1315.901
3795.583, 1321.932
3797.511, 1316.233
3799.440, 1306.850
3801.368, 1294.766
3803.297, 1296.844
3805.225, 1311.839
3807.154, 1312.343
3809.082, 1306.702
3811.010, 1302.968
3812.939, 1298.831
3814.867, 1292.922
3816.796, 1301.169
3818.724, 1315.402
3820.653, 1296.654
3822.581, 1281.568
3824.510, 1307.561
3826.438, 1319.129
3828.367, 1309.899
3830.295, 1295.711
3832.224, 1285.370
3834.152, 1300.394
3836.081, 1310.668
3838.009, 1298.333
3839.938, 1290.062
3841.866, 1287.819
3843.794, 1295.984
3845.723, 1304.356
3847.651, 1303.277
3849.580, 1299.110
3851.508, 1292.768
3853.437, 1305.608
3855.365, 1322.596
3857.294, 1302.485
3859.222, 1289.536
3861.151, 1312.125
3863.079, 1314.764
3865.008, 1298.830
3866.936, 1299.728
3868.865, 1308.750
3870.793, 1324.169
3872.721, 1327.847
3874.650, 1310.269
3876.578, 1313.553
3878.507, 1322.816
3880.435, 1302.335
3882.364, 1286.777
3884.292, 1291.544
3886.221, 1307.434
3888.149, 1328.242
3890.078, 1317.581
3892.006, 1299.055
3893.935, 1291.753
3895.863, 1288.472
3897.792, 1288.005
3899.720, 1302.527
3901.648, 1318.413
3903.577, 1308.698
3905.505, 1294.780
3907.434, 1281.814
3909.362, 1288.702
3911.291, 1305.581
3913.219, 1292.063
3915.148, 1274.552
3917.076, 1269.670
3919.005, 1266.388
3920.933, 1263.353
3922.862, 1268.218
3924.790, 1276.040
3926.719, 1277.426
3928.647, 1273.425
3930.575, 1262.714
3932.504, 1250.722
3934.432, 1246.511
3936.361, 1245.084
3938.289, 1239.952
3940.218, 1238.269
3942.146, 1249.776
3944.075, 1261.905
3946.003, 1263.709
3947.932, 1263.060
3949.860, 1250.944
3951.789, 1249.292
3953.717, 1263.804
3955.646, 1264.623
3957.574, 1258.862
3959.502, 1267.857
3961.431, 1266.492
3963.359, 1253.617
3965.288, 1233.625
3967.216, 1210.816
3969.145, 1209.010
3971.073, 1219.667
3973.002, 1232.642
3974.930, 1239.463
3976.859, 1238.941
3978.787, 1229.730
3980.716, 1224.747
3982.644, 1227.167
3984.573, 1219.528
3986.501, 1208.732
3988.429, 1209.688
3990.358, 1208.647
3992.286, 1202.930
3994.215, 1206.541
3996.143, 1213.189
3998.072, 1190.861
4000.000, 1170.386
4001.929, 1180.511
4003.857, 1185.661
4005.786, 1183.367
4007.714, 1191.690
4009.643, 1195.826
4011.571, 1182.658
4013.500, 1178.284
4015.428, 1171.707
4017.356, 1174.734
4019.285, 1184.369
4021.213, 1188.797
4023.142, 1181.528
4025.070, 1168.919
4026.999, 1172.833
4028.927, 1184.782
4030.856, 1182.998
4032.784, 1173.873
4034.713, 1177.976
4036.641, 1165.590
4038.570, 1146.815
4040.498, 1156.022
4042.427, 1165.029
4044.355, 1162.711
4046.283, 1171.637
4048.212, 1178.157
4050.140, 1165.861
4052.069, 1160.346
4053.997, 1165.006
4055.926, 1169.342
4057.854, 1172.597
4059.783, 1174.109
4061.711, 1164.738
4063.640, 1151.116
4065.568, 1159.290
4067.497, 1166.661
4069.425, 1150.751
4071.354, 1139.350
4073.282, 1141.480
4075.210, 1147.513
4077.139, 1151.357
4079.067, 1145.395
4080.996, 1138.941
4082.924, 1139.431
4084.853, 1137.272
4086.781, 1132.483
4088.710, 1133.018
4090.638, 1134.790
4092.567, 1132.972
4094.495, 1133.801
4096.424, 1137.141
4098.352, 1138.643
4100.280, 1137.188
4102.209, 1133.995
4104.138, 1125.981
4106.066, 1124.286
4107.994, 1140.288
4109.923, 1144.633
4111.852, 1134.871
4113.780, 1134.320
4115.708, 1138.880
4117.637, 1144.574
4119.565, 1143.265
4121.494, 1134.449
4123.422, 1128.526
4125.351, 1125.034
4127.279, 1124.617
4129.208, 1125.242
4131.136, 1125.873
4133.064, 1126.266
4134.993, 1124.065
4136.921, 1112.487
4138.850, 1109.967
4140.778, 1118.505
4142.707, 1124.048
4144.635, 1124.752
4146.563, 1114.870
4148.492, 1115.830
4150.421, 1129.565
4152.349, 1134.814
4154.277, 1133.452
4156.206, 1126.589
4158.135, 1120.483
4160.063, 1118.755
4161.991, 1104.580
4163.920, 1089.325
4165.849, 1100.387
4167.777, 1102.371
4169.705, 1088.047
4171.634, 1086.760
4173.563, 1093.050
4175.491, 1100.632
4177.419, 1106.094
4179.348, 1109.794
4181.276, 1110.614
4183.205, 1110.051
4185.133, 1106.495
4187.062, 1106.435
4188.990, 1110.592
4190.918, 1102.666
4192.847, 1096.729
4194.775, 1112.740
4196.704, 1117.066
4198.632, 1103.356
4200.561, 1095.248
4202.489, 1088.629
4204.418, 1087.574
4206.346, 1086.321
4208.274, 1080.945
4210.203, 1109.252
4212.132, 1130.874
4214.060, 1080.740
4215.988, 1062.991
4217.917, 1086.860
4219.846, 1077.546
4221.774, 1064.469
4223.702, 1076.743
4225.631, 1085.304
4227.560, 1086.340
4229.488, 1078.391
4231.416, 1067.072
4233.345, 1052.585
4235.273, 1042.004
4237.202, 1037.945
4239.130, 1052.970
4241.059, 1068.667
4242.987, 1074.318
4244.916, 1073.590
4246.844, 1067.758
4248.772, 1055.957
4250.701, 1052.735
4252.629, 1072.306
4254.558, 1071.338
4256.486, 1062.483
4258.415, 1074.634
4260.343, 1084.394
4262.271, 1084.038
4264.200, 1075.818
4266.129, 1064.703
4268.057, 1054.273
4269.985, 1053.818
4271.914, 1065.147
4273.843, 1066.368
4275.771, 1063.272
4277.699, 1058.871
4279.628, 1061.155
4281.557, 1069.016
4283.485, 1066.827
4285.413, 1065.223
4287.342, 1077.295
4289.271, 1070.329
4291.199, 1053.419
4293.127, 1066.277
4295.056, 1071.205
4296.984, 1044.084
4298.913, 1039.407
4300.841, 1051.100
4302.770, 1081.517
4304.698, 1087.556
4306.626, 1055.636
4308.555, 1051.453
4310.483, 1057.231
4312.412, 1057.563
4314.340, 1051.487
4316.269, 1041.332
4318.197, 1048.408
4320.126, 1054.945
4322.054, 1049.726
4323.982, 1046.263
4325.911, 1045.820
4327.840, 1051.641
4329.768, 1054.443
4331.696, 1051.289
4333.625, 1044.292
4335.554, 1037.352
4337.482, 1034.997
4339.410, 1033.801
4341.339, 1033.899
4343.268, 1043.763
4345.196, 1055.988
4347.124, 1069.765
4349.053, 1053.019
4350.981, 1019.442
4352.910, 1010.647
4354.838, 1008.580
4356.767, 1006.759
4358.695, 1020.334
4360.624, 1035.009
4362.552, 1032.675
4364.480, 1023.204
4366.409, 1010.519
4368.337, 1009.623
4370.266, 1012.506
4372.194, 1014.236
4374.123, 1015.750
4376.051, 1017.451
4377.979, 1020.710
4379.908, 1023.302
4381.837, 1024.571
4383.765, 1025.513
4385.693, 1023.217
4387.622, 1011.091
4389.551, 1009.876
4391.479, 1018.300
4393.407, 1021.324
4395.336, 1022.302
4397.265, 1022.957
4399.193, 1011.811
4401.121, 999.8249
4403.050, 1003.219
4404.979, 1013.757
4406.907, 1025.753
4408.835, 1013.057
4410.764, 996.9841
4412.692, 988.8884
4414.621, 993.3268
4416.549, 1004.957
4418.478, 1016.187
4420.406, 1021.819
4422.334, 1020.658
4424.263, 1023.087
4426.191, 1018.696
4428.120, 992.9690
4430.048, 979.4608
4431.977, 979.8424
4433.905, 1000.910
4435.834, 1014.675
4437.762, 1013.805
4439.690, 1005.905
4441.619, 1000.333
4443.548, 1005.650
4445.476, 1009.459
4447.404, 1008.242
4449.333, 988.3461
4451.262, 985.6431
4453.190, 1009.323
4455.118, 1011.774
4457.047, 1002.831
4458.976, 988.4116
4460.904, 978.8911
4462.832, 976.1503
4464.761, 987.1874
4466.689, 996.5188
4468.618, 999.6629
4470.546, 999.3813
4472.475, 995.8363
4474.403, 987.7079
4476.332, 985.0502
4478.260, 986.7846
4480.188, 991.9198
4482.117, 987.6098
4484.045, 973.4985
4485.974, 982.7146
4487.902, 994.0850
4489.831, 987.7250
4491.759, 991.2881
4493.688, 997.6895
4495.616, 990.4199
4497.545, 977.9561
4499.473, 963.6588
4501.401, 971.3137
4503.330, 982.8088
4505.259, 989.7813
4507.187, 979.4952
4509.115, 966.8661
4511.044, 976.5487
4512.973, 976.5827
4514.901, 968.2002
4516.829, 977.7554
4518.758, 985.3455
4520.687, 980.8740
4522.615, 991.1454
4524.543, 996.1185
4526.472, 969.9099
4528.400, 974.3835
4530.329, 996.4256
4532.257, 989.8315
4534.186, 986.1602
4536.114, 990.7401
4538.042, 981.5706
4539.971, 978.6766
4541.899, 999.9608
4543.828, 1007.993
4545.756, 1009.271
4547.685, 1014.887
4549.613, 1013.940
4551.542, 1007.409
4553.470, 1004.508
4555.398, 1001.142
4557.327, 995.9429
4559.256, 986.6932
4561.184, 976.7773
4563.112, 964.8513
4565.041, 976.4835
4566.970, 994.7670
4568.898, 987.4269
4570.826, 976.5068
4572.755, 968.2993
4574.684, 983.8387
4576.612, 989.4373
4578.540, 975.3666
4580.469, 982.6622
4582.397, 990.7509
4584.326, 979.8023
4586.254, 972.4902
4588.183, 972.8642
4590.111, 993.9155
4592.040, 998.0782
4593.968, 985.8488
4595.896, 982.4643
4597.825, 985.4890
4599.753, 992.8693
4601.682, 990.6124
4603.610, 982.4079
4605.539, 967.5525
4607.467, 969.2869
4609.396, 974.8116
4611.324, 962.0494
4613.253, 955.4991
4615.181, 958.7118
4617.109, 978.2141
4619.038, 995.3954
4620.967, 1004.203
4622.895, 992.8851
4624.823, 977.7993
4626.752, 967.8157
4628.681, 956.3644
4630.609, 952.3858
4632.537, 967.6694
4634.466, 970.6045
4636.395, 967.6602
4638.323, 976.6244
4640.251, 981.2391
4642.180, 980.0081
4644.108, 975.0281
4646.037, 977.7290
4647.965, 991.4550
4649.894, 979.1921
4651.822, 970.3856
4653.750, 980.3054
4655.679, 988.6592
4657.607, 990.1048
4659.536, 976.4533
4661.464, 972.4146
4663.393, 973.9976
4665.321, 972.4395
4667.250, 966.0676
4669.178, 959.1352
4671.106, 973.1862
4673.035, 974.8000
4674.964, 959.3043
4676.892, 960.1336
4678.820, 967.4099
4680.749, 977.6328
4682.678, 975.4035
4684.606, 965.5281
4686.534, 949.6482
4688.463, 950.8070
4690.392, 960.9141
4692.320, 970.7874
4694.248, 975.1997
4696.177, 973.4139
4698.105, 959.7891
4700.034, 961.2051
4701.962, 974.2310
4703.891, 967.4084
4705.819, 964.5796
4707.748, 971.0641
4709.676, 965.3187
4711.604, 966.5736
4713.533, 983.4453
4715.461, 970.4731
4717.390, 955.9917
4719.318, 958.5833
4721.247, 963.2578
4723.175, 963.0319
4725.104, 944.2701
4727.032, 956.9079
4728.961, 978.4291
4730.889, 969.1883
4732.817, 964.7194
4734.746, 967.4124
4736.675, 974.9226
4738.603, 973.1230
4740.531, 962.3108
4742.460, 948.0097
4744.389, 953.5693
4746.317, 975.8218
4748.245, 962.5381
4750.174, 950.5035
4752.103, 954.9304
4754.031, 948.9240
4755.959, 946.5568
4757.888, 954.7806
4759.816, 967.6921
4761.745, 975.2796
4763.673, 967.7302
4765.602, 965.0422
4767.530, 964.3000
4769.458, 962.4214
4771.387, 959.6165
4773.315, 956.8533
4775.244, 957.6490
4777.172, 945.8842
4779.101, 933.8192
4781.029, 950.5708
4782.958, 955.0648
4784.886, 949.1522
4786.814, 949.8916
4788.743, 951.8271
4790.672, 953.6960
4792.600, 956.2040
4794.528, 953.5227
4796.457, 947.0502
4798.386, 954.4764
4800.314, 947.6204
4802.242, 924.3563
4804.171, 944.6224
4806.100, 954.6448
4808.028, 939.1027
4809.956, 948.6671
4811.885, 951.5739
4813.813, 933.1866
4815.742, 944.5698
4817.670, 961.1672
4819.599, 969.9376
4821.527, 957.9234
4823.456, 942.2604
4825.384, 932.8154
4827.313, 937.9919
4829.241, 947.3710
4831.169, 954.0183
4833.098, 947.1264
4835.026, 935.9216
4836.955, 925.9196
4838.883, 931.6448
4840.812, 940.8486
4842.740, 942.2018
4844.669, 933.6436
4846.597, 927.4513
4848.525, 940.5187
4850.454, 944.9830
4852.383, 941.6068
4854.311, 930.8535
4856.239, 934.2802
4858.168, 941.0877
4860.097, 929.9789
4862.025, 939.0720
4863.953, 952.9301
4865.882, 945.5258
4867.811, 937.9308
4869.739, 937.1500
4871.667, 957.2185
4873.596, 953.0958
4875.524, 938.8032
4877.453, 941.8992
4879.381, 950.7104
4881.310, 954.0109
4883.238, 926.4151
4885.167, 928.5158
4887.095, 944.0460
4889.023, 934.5695
4890.952, 933.4637
4892.880, 937.1071
4894.809, 931.8459
4896.737, 931.5741
4898.666, 935.1302
4900.594, 936.6866
4902.522, 951.7006
4904.451, 962.6683
4906.380, 933.1511
4908.308, 932.9710
4910.236, 943.5332
4912.165, 918.3461
4914.094, 917.3722
4916.022, 926.6198
4917.950, 914.5886
4919.879, 933.7670
4921.808, 958.9672
4923.736, 947.1252
4925.664, 912.2847
4927.593, 888.5472
4929.521, 924.4653
4931.450, 930.4227
4933.378, 917.4809
4935.307, 904.9527
4937.235, 897.4167
4939.164, 902.2889
4941.092, 935.0650
4943.021, 937.8978
4944.949, 930.6140
4946.877, 933.3217
4948.806, 915.1234
4950.734, 907.7661
4952.663, 952.9754
4954.591, 929.7693
4956.520, 902.2293
4958.448, 912.6672
4960.377, 927.1041
4962.305, 928.1822
4964.233, 906.6655
4966.162, 890.9439
4968.091, 891.9837
4970.019, 914.5026
4971.947, 904.5151
4973.876, 909.8843
4975.805, 941.7206
4977.733, 930.0669
4979.661, 918.4177
4981.590, 921.2957
4983.519, 924.2566
4985.447, 920.2036
4987.375, 912.4825
4989.304, 931.0338
4991.232, 919.7999
4993.161, 887.4883
4995.089, 905.7104
4997.018, 913.8893
4998.946, 910.7734
5000.875, 922.6786
5002.803, 908.3911
5004.731, 887.0026
5006.660, 905.1658
5008.588, 904.0868
5010.517, 894.8400
5012.445, 895.1797
5014.374, 914.2719
5016.302, 927.0616
5018.230, 909.3701
5020.159, 903.2725
5022.088, 898.6625
5024.016, 882.1752
5025.944, 910.1111
5027.873, 923.0803
5029.802, 897.7662
5031.730, 890.9245
5033.658, 897.4272
5035.587, 910.0897
5037.516, 892.3624
5039.444, 888.0682
5041.372, 903.0280
5043.301, 917.7430
5045.229, 913.0612
5047.158, 899.8036
5049.086, 912.1736
5051.015, 913.1779
5052.943, 904.6218
5054.872, 892.6915
5056.800, 889.0944
5058.729, 892.0803
5060.657, 899.3762
5062.585, 905.0643
5064.514, 908.0010
5066.442, 908.0641
5068.371, 890.6251
5070.299, 890.2109
5072.228, 916.0833
5074.156, 896.4307
5076.085, 886.5910
5078.013, 891.9892
5079.941, 864.4122
5081.870, 868.8849
5083.799, 894.2894
5085.727, 884.0734
5087.655, 888.7495
5089.584, 899.0166
5091.513, 895.3996
5093.441, 882.7151
5095.369, 872.7943
5097.298, 875.9453
5099.227, 875.1134
5101.155, 876.9429
5103.083, 883.8374
5105.012, 884.1837
5106.940, 880.7217
5108.869, 878.2360
5110.797, 896.7640
5112.726, 894.7134
5114.654, 881.8530
5116.583, 902.6712
5118.511, 891.0698
5120.439, 872.4294
5122.368, 883.3060
5124.296, 894.4940
5126.225, 900.8976
5128.153, 900.8707
5130.082, 883.5633
5132.010, 882.8709
5133.938, 903.9407
5135.867, 889.8914
5137.796, 886.6748
5139.724, 895.3447
5141.652, 897.6127
5143.581, 887.6678
5145.510, 869.6036
5147.438, 840.8314
5149.366, 858.0964
5151.295, 881.7554
5153.224, 884.3657
5155.152, 880.6302
5157.080, 871.2471
5159.009, 861.6728
5160.938, 893.0118
5162.866, 882.9966
5164.794, 847.4960
5166.723, 859.4849
5168.651, 868.0070
5170.580, 870.2938
5172.508, 869.9394
5174.437, 875.5083
5176.365, 879.9048
5178.293, 879.3112
5180.222, 892.9791
5182.150, 891.9887
5184.079, 874.2083
5186.007, 855.0333
5187.936, 856.3503
5189.864, 869.7119
5191.793, 880.6939
5193.721, 891.1873
5195.649, 891.8085
5197.578, 875.6249
5199.507, 869.6790
5201.435, 861.4970
5203.363, 852.5445
5205.292, 869.3491
5207.221, 876.6844
5209.149, 871.2689
5211.077, 849.9741
5213.006, 852.4998
5214.935, 869.0471
5216.863, 890.8245
5218.791, 855.7216
5220.720, 838.4885
5222.648, 854.7293
5224.577, 869.4201
5226.505, 871.5510
5228.434, 866.6995
5230.362, 863.5365
5232.291, 874.2502
5234.219, 870.2791
5236.147, 836.2862
5238.076, 820.4340
5240.004, 833.2517
5241.933, 858.9722
5243.861, 834.9356
5245.790, 848.4978
5247.718, 873.3493
5249.646, 863.0359
5251.575, 838.4930
5253.504, 833.2941
5255.432, 856.5192
5257.360, 853.3795
5259.289, 841.5533
5261.218, 832.9478
5263.146, 848.5106
5265.074, 838.1683
5267.003, 825.0942
5268.932, 832.3873
5270.860, 833.3253
5272.788, 832.3425
5274.717, 832.5751
5276.646, 839.1367
5278.574, 851.1700
5280.502, 855.8571
5282.431, 831.8088
5284.359, 838.1848
5286.288, 845.5291
5288.216, 839.2858
5290.145, 830.5223
5292.073, 831.7663
5294.001, 840.2646
5295.930, 847.8328
5297.858, 845.5829
5299.787, 841.5951
5301.715, 841.8041
5303.644, 841.4240
5305.572, 842.8143
5307.501, 847.2573
5309.429, 858.7282
5311.357, 852.0247
5313.286, 840.7808
5315.215, 838.4547
5317.143, 844.1337
5319.071, 831.0447
5321.000, 807.1163
5322.929, 835.4261
5324.857, 823.3938
5326.785, 810.3275
5328.714, 843.9045
5330.643, 857.8782
5332.571, 837.3767
5334.499, 799.0121
5336.428, 808.4993
5338.356, 824.3064
5340.285, 837.6815
5342.213, 847.9084
5344.142, 832.4072
5346.070, 819.4481
5347.999, 815.7431
5349.927, 804.7964
5351.855, 796.2387
5353.784, 803.7124
5355.712, 837.6968
5357.641, 851.9998
5359.569, 837.1973
5361.498, 806.9263
5363.426, 816.8430
5365.354, 821.8471
5367.283, 821.6614
5369.212, 821.5549
5371.140, 822.1647
5373.068, 814.5972
5374.997, 801.9604
5376.926, 797.8058
5378.854, 803.0432
5380.782, 809.7747
5382.711, 812.0557
5384.640, 799.6465
5386.568, 799.8574
5388.496, 810.9112
5390.425, 815.0051
5392.354, 803.6956
5394.282, 793.0421
5396.210, 794.1515
5398.139, 816.0697
5400.067, 827.6000
5401.996, 824.3149
5403.924, 805.7161
5405.853, 795.4586
5407.781, 799.7866
5409.709, 813.4976
5411.638, 798.9802
5413.566, 802.0356
5415.495, 807.5279
5417.423, 795.2320
5419.352, 799.7536
5421.280, 816.1978
5423.209, 832.4888
5425.137, 823.5134
5427.065, 811.8635
5428.994, 812.8763
5430.923, 831.7291
5432.851, 831.1693
5434.779, 828.1622
5436.708, 817.0868
5438.637, 785.5424
5440.565, 794.5619
5442.493, 805.7243
5444.422, 805.1022
5446.351, 806.2755
5448.279, 806.1427
5450.207, 808.4070
5452.136, 815.5743
5454.064, 797.2453
5455.993, 774.7313
5457.921, 765.6257
5459.850, 788.0923
5461.778, 790.0055
5463.707, 787.6045
5465.635, 788.7619
5467.563, 791.9460
5469.492, 779.0986
5471.420, 764.6729
5473.349, 760.9725
5475.277, 772.9562
5477.206, 768.0808
5479.134, 764.1766
5481.063, 798.2601
5482.991, 798.7112
5484.920, 798.6999
5486.848, 803.5020
5488.776, 784.4988
5490.705, 792.6073
5492.634, 798.1703
5494.562, 783.9658
5496.490, 793.0645
5498.419, 801.9992
5500.348, 796.7247
5502.276, 764.5274
5504.204, 765.4210
5506.133, 775.5303
5508.062, 785.6563
5509.990, 793.9316
5511.918, 775.4763
5513.847, 776.8066
5515.775, 800.7555
5517.704, 779.7391
5519.632, 778.0430
5521.561, 786.1492
5523.489, 791.3577
5525.417, 774.0325
5527.346, 767.8743
5529.274, 767.3030
5531.203, 759.9005
5533.131, 758.4900
5535.060, 767.2636
5536.988, 779.4109
5538.917, 783.7289
5540.845, 772.2027
5542.773, 771.1462
5544.702, 780.4789
5546.631, 772.2811
5548.559, 766.3764
5550.487, 760.9846
5552.416, 755.1831
5554.345, 752.6443
5556.273, 752.8391
5558.201, 750.4249
5560.130, 744.7845
5562.059, 766.5590
5563.987, 758.2360
5565.915, 751.1541
5567.844, 778.9304
5569.772, 767.3939
5571.701, 759.9625
5573.629, 759.6479
5575.558, 756.2823
5577.486, 735.9794
5579.415, 732.4010
5581.343, 748.9941
5583.271, 779.0436
5585.200, 766.1714
5587.128, 758.6544
5589.057, 763.3522
5590.985, 753.1328
5592.914, 763.2698
5594.842, 759.8996
5596.771, 742.6039
5598.699, 759.9598
5600.628, 758.4915
5602.556, 748.2129
5604.484, 739.3212
5606.413, 736.9023
5608.342, 748.1712
5610.270, 750.7245
5612.198, 737.3724
5614.127, 750.3309
5616.056, 731.8390
5617.984, 722.7222
5619.912, 748.9613
5621.841, 757.6903
5623.770, 749.8335
5625.698, 739.9623
5627.626, 736.3224
5629.555, 713.9495
5631.483, 727.5826
5633.412, 744.1467
5635.340, 732.3463
5637.269, 718.0332
5639.197, 724.8469
5641.125, 735.6717
5643.054, 732.3801
5644.982, 716.0889
5646.911, 715.3273
5648.839, 724.9277
5650.768, 734.5748
5652.696, 744.4548
5654.625, 745.1144
5656.553, 737.7201
5658.481, 725.6901
5660.410, 704.5273
5662.339, 726.8962
5664.267, 751.0639
5666.195, 736.4306
5668.124, 722.0806
5670.053, 721.3826
5671.981, 722.8867
5673.909, 716.1861
5675.838, 723.2025
5677.767, 717.4996
5679.695, 713.9833
5681.623, 726.0811
5683.552, 730.5125
5685.480, 722.7639
5687.409, 717.3686
5689.337, 721.7781
5691.266, 711.3395
5693.194, 714.1033
5695.123, 727.9819
5697.051, 741.9385
5698.979, 722.5785
5700.908, 732.0213
5702.836, 732.7763
5704.765, 708.0414
5706.693, 696.0012
5708.622, 682.3970
5710.550, 691.5613
5712.479, 718.6863
5714.407, 707.4524
5716.336, 700.5443
5718.264, 704.4008
5720.192, 714.9261
5722.121, 721.9730
5724.050, 709.1554
5725.978, 703.9126
5727.906, 707.4764
5729.835, 705.7891
5731.764, 704.0063
5733.692, 709.0131
5735.620, 706.0222
5737.549, 678.2236
5739.478, 663.5247
5741.406, 674.3314
5743.334, 697.1693
5745.263, 714.4847
5747.191, 680.4058
5749.120, 690.8587
5751.048, 702.9317
5752.977, 684.5968
5754.905, 702.6068
5756.833, 706.3452
5758.762, 697.0369
5760.690, 686.7542
5762.619, 700.0522
5764.547, 694.0161
5766.476, 684.0363
5768.404, 680.3049
5770.333, 686.4323
5772.261, 695.0183
5774.189, 688.0804
5776.118, 684.0035
5778.047, 704.6288
5779.975, 689.6192
5781.903, 695.4746
5783.832, 703.7902
5785.761, 693.5422
5787.689, 680.5329
5789.617, 679.9947
5791.546, 688.7435
5793.475, 697.9236
5795.403, 685.1201
5797.331, 699.2201
5799.260, 689.6622
5801.188, 666.8035
5803.117, 686.4865
5805.045, 682.7036
5806.974, 684.9155
5808.902, 691.6984
5810.831, 693.3618
5812.759, 685.1921
5814.688, 681.4845
5816.616, 675.9111
5818.544, 671.7077
5820.473, 696.4213
5822.401, 674.2582
5824.330, 659.8322
5826.258, 669.1096
5828.187, 686.9382
5830.115, 669.5240
5832.044, 661.4993
5833.972, 665.5587
5835.900, 671.4392
5837.829, 661.2177
5839.758, 668.2501
5841.686, 680.1098
5843.614, 686.2413
5845.543, 682.7439
5847.472, 675.8568
5849.400, 671.5374
5851.328, 673.7556
5853.257, 684.4230
5855.186, 689.3422
5857.114, 679.5380
5859.042, 667.9850
5860.971, 664.0648
5862.899, 671.2449
5864.828, 663.1205
5866.756, 659.9093
5868.685, 668.0778
5870.613, 683.7652
5872.542, 649.1202
5874.470, 633.6783
5876.398, 649.8593
5878.327, 679.4734
5880.255, 667.8994
5882.184, 642.6758
5884.112, 628.7731
5886.041, 634.5734
5887.969, 656.9492
5889.897, 653.0234
5891.826, 654.7574
5893.755, 659.7021
5895.683, 659.2355
5897.611, 646.2346
5899.540, 646.1749
5901.469, 647.5765
5903.397, 648.6690
5905.325, 653.2880
5907.254, 659.8953
5909.183, 648.8922
5911.111, 638.3712
5913.039, 640.3229
5914.968, 655.1315
5916.896, 648.1748
5918.825, 639.7578
5920.753, 642.1044
5922.682, 656.4745
5924.610, 650.0257
5926.539, 646.5870
5928.467, 650.9197
5930.396, 658.1885
5932.324, 658.0067
5934.252, 651.5231
5936.181, 642.4963
5938.109, 638.3802
5940.038, 639.4113
5941.966, 625.9229
5943.895, 630.9965
5945.823, 657.6718
5947.752, 665.3411
5949.680, 615.9520
5951.608, 638.5760
5953.537, 665.1778
5955.466, 659.4938
5957.394, 632.2307
5959.322, 622.5851
5961.251, 645.5106
5963.180, 632.7946
5965.108, 619.9067
5967.036, 630.5604
5968.965, 630.1025
5970.894, 642.4844
5972.822, 653.4504
5974.750, 651.5114
5976.679, 634.6044
5978.607, 620.6800
5980.536, 624.2756
5982.464, 620.8124
5984.393, 613.8204
5986.321, 618.3682
5988.250, 617.0573
5990.178, 629.4908
5992.106, 641.0032
5994.035, 635.9482
5995.963, 608.9808
5997.892, 625.1296
5999.820, 622.0964
6001.749, 619.1794
6003.677, 625.9760
6005.605, 621.0756
6007.534, 616.0090
6009.463, 605.5082
6011.391, 603.5911
6013.319, 614.9072
6015.248, 621.9810
6017.177, 636.3561
6019.105, 628.2502
6021.033, 613.7699
6022.962, 613.4026
6024.891, 632.0406
6026.819, 624.5536
6028.747, 618.5303
6030.676, 616.6341
6032.604, 613.3787
6034.533, 615.5659
6036.461, 610.2740
6038.390, 597.6685
6040.318, 594.9252
6042.247, 611.2328
6044.175, 616.0471
6046.104, 621.5095
6048.032, 612.6432
6049.960, 602.5605
6051.889, 606.1161
6053.817, 603.8179
6055.746, 603.2012
6057.674, 614.1602
6059.603, 626.8526
6061.531, 628.3989
6063.460, 616.1108
6065.388, 606.1380
6067.316, 600.0742
6069.245, 596.6665
6071.174, 596.8621
6073.102, 618.0154
6075.030, 603.5189
6076.959, 604.2012
6078.888, 612.4959
6080.816, 608.0273
6082.744, 603.3259
6084.673, 597.1977
6086.602, 605.3342
6088.530, 614.5032
6090.458, 610.4766
6092.387, 588.7972
6094.315, 613.7245
6096.244, 605.4124
6098.172, 591.8353
6100.101, 599.0311
6102.029, 603.6499
6103.958, 580.6876
6105.886, 603.1082
6107.814, 611.7136
6109.743, 590.6249
6111.671, 594.2032
6113.600, 590.4722
6115.528, 578.0149
6117.457, 576.2402
6119.385, 594.4202
6121.313, 623.8118
6123.242, 598.7029
6125.171, 590.1341
6127.099, 595.4768
6129.027, 596.4738
6130.956, 584.8817
6132.885, 585.2238
6134.813, 587.3475
6136.741, 593.7513
6138.670, 587.4376
6140.599, 569.9111
6142.527, 581.8784
6144.455, 582.3422
6146.384, 571.6130
6148.313, 569.7426
6150.241, 575.9277
6152.169, 572.1118
6154.098, 585.0684
6156.026, 583.2780
6157.955, 575.6845
6159.883, 578.5646
6161.812, 593.5840
6163.740, 581.1397
6165.668, 581.7319
6167.597, 571.0519
6169.525, 560.0084
6171.454, 563.2660
6173.382, 577.7359
6175.311, 571.0826
6177.239, 580.0660
6179.168, 580.7262
6181.096, 575.6138
6183.024, 584.1949
6184.953, 579.2734
6186.882, 550.1871
6188.810, 563.8306
6190.738, 584.0288
6192.667, 578.7551
6194.596, 589.3372
6196.524, 583.6650
6198.452, 574.5685
6200.381, 572.9583
6202.310, 572.9906
6204.238, 564.4877
6206.166, 567.5546
6208.095, 569.0049
6210.023, 574.0301
6211.952, 574.7484
6213.880, 569.5665
6215.809, 571.6085
6217.737, 562.6067
6219.666, 556.6298
6221.594, 553.7213
6223.522, 558.0438
6225.451, 567.6416
6227.379, 539.4968
6229.308, 561.3319
6231.236, 552.5806
6233.165, 548.1870
6235.093, 560.6271
6237.021, 557.5942
6238.950, 541.6688
6240.879, 526.9597
6242.807, 546.6613
6244.735, 557.6265
6246.664, 536.9235
6248.593, 524.4553
6250.521, 551.4732
6252.449, 564.8221
6254.378, 565.9542
6256.307, 561.2772
6258.235, 553.9636
6260.163, 546.6984
6262.092, 535.0280
6264.021, 544.8349
6265.949, 552.4749
6267.877, 550.9201
6269.806, 548.7853
6271.734, 549.2325
6273.663, 543.8826
6275.591, 546.4277
6277.520, 549.8903
6279.448, 545.5409
6281.376, 535.1530
6283.305, 547.7167
6285.233, 533.2737
6287.162, 543.5081
6289.090, 545.0464
6291.019, 537.4819
6292.947, 550.5583
6294.876, 530.1755
6296.804, 528.0499
6298.732, 531.9045
6300.661, 535.1984
6302.590, 535.8421
6304.518, 533.4240
6306.446, 533.8294
6308.375, 531.4969
6310.304, 522.0931
6312.232, 527.0642
6314.160, 539.6163
6316.089, 537.4697
6318.018, 538.3984
6319.946, 530.6165
6321.874, 524.4208
6323.803, 522.8985
6325.731, 526.1655
6327.660, 526.7244
6329.588, 500.2049
6331.517, 535.0825
6333.445, 539.7212
6335.374, 526.6786
6337.302, 530.8503
6339.230, 549.2802
6341.159, 515.3951
6343.087, 524.5059
6345.016, 532.1654
6346.944, 520.4048
6348.873, 518.9480
6350.801, 535.2053
6352.729, 516.6600
6354.658, 511.6143
6356.587, 502.1127
6358.515, 517.2344
6360.443, 516.6769
6362.372, 505.6689
6364.301, 538.7797
6366.229, 516.1738
6368.157, 533.9622
6370.086, 528.6550
6372.015, 512.8201
6373.943, 504.2138
6375.871, 507.6888
6377.800, 531.6210
6379.729, 519.7427
6381.657, 512.4879
6383.585, 521.3619
6385.514, 524.3732
6387.442, 514.2907
6389.371, 514.2163
6391.299, 517.0720
6393.228, 506.2454
6395.156, 502.1407
6397.084, 513.2615
6399.013, 517.8702
6400.941, 497.3663
6402.870, 490.5014
6404.798, 478.7256
6406.727, 510.0254
6408.655, 508.5752
6410.584, 492.1120
6412.512, 493.5656
6414.440, 500.2071
6416.369, 501.6805
6418.298, 509.0396
6420.226, 498.7439
6422.154, 495.1256
6424.083, 494.2557
6426.012, 484.2737
6427.940, 483.3538
6429.868, 509.7069
6431.797, 498.9525
6433.726, 486.5594
6435.654, 494.4619
6437.582, 506.1700
6439.511, 502.7631
6441.439, 513.4680
6443.368, 484.3987
6445.296, 497.3029
6447.225, 492.0559
6449.153, 492.9682
6451.082, 500.3029
6453.010, 482.6716
6454.938, 478.9928
6456.867, 498.3746
6458.795, 508.8626
6460.724, 497.9945
6462.652, 486.2037
6464.581, 486.7325
6466.509, 495.3189
6468.438, 508.0297
6470.366, 495.3799
6472.295, 491.2920
6474.223, 482.8990
6476.151, 492.6974
6478.080, 508.8076
6480.009, 494.2270
6481.937, 482.2814
6483.865, 484.6068
6485.794, 486.8435
6487.723, 496.7637
6489.651, 495.5349
6491.579, 484.8303
6493.508, 481.5479
6495.437, 476.6441
6497.365, 495.8671
6499.293, 498.3242
6501.222, 479.5907
6503.150, 473.4536
6505.079, 483.1037
6507.007, 491.0699
6508.936, 494.4496
6510.864, 488.3466
6512.792, 484.0454
6514.721, 476.5536
6516.649, 481.4930
6518.578, 496.3549
6520.506, 503.5790
6522.435, 492.8720
6524.363, 479.0135
6526.292, 487.2455
6528.220, 486.6560
6530.148, 485.2406
6532.077, 480.0527
6534.006, 474.6995
6535.934, 475.8784
6537.862, 470.1271
6539.791, 470.8164
6541.720, 474.5808
6543.648, 471.3609
6545.576, 467.3054
6547.505, 468.7606
6549.434, 474.7868
6551.362, 476.4667
6553.290, 460.4868
6555.219, 476.7121
6557.147, 457.2928
6559.076, 445.3225
6561.004, 453.9538
6562.933, 467.0924
##END=



