##NAMES=Strontioruizite
##RRUFFID=R160085
##IDEAL CHEMISTRY=Sr_2_Mn^3+^_2_Si_4_O_11_(OH)_4_·2H_2_O
##LOCALITY=N’Chwaning III mine, Kalahari manganese field, Northern Cape Province, South Africa
##OWNER=RRUFF
##SOURCE=Bruce Cairncross
##DESCRIPTION=Clusters of brown, elongate crystals, associated with clusters of purple sugilite, bronze fibrous potassic-magnesioarfvedsonite, and dark red-brown lipuite
##STATUS=The identification of this mineral is confirmed by single-crystal X-ray diffraction and chemical analysis
##URL=https://www.rruff.net/odr/rruff_sample/R160085
##MEASURED CHEMISTRY=(Sr_1.61_Ca_0.42_)(Mn^3+^_1.95_Fe^3+^_0.05_)Si_3.98_O_11_(OH)_4_·2H_2_O
##DIFFRACTION SAMPLE DESCRIPTION=Single crystal, powder profile is calculated
##CELL PARAMETERS=a: 9.149 b: 6.287 c: 12.044 alpha: 90 beta: 91.73 gamma: 90 volume: 692.4 crystal system: monoclinic
##FILETYPE=Raman Processed
##RAMAN WAVELENGTH=780

124.8408, 39165.42
126.7693, 39291.15
128.6978, 39412.07
130.6262, 39518.32
132.5547, 39611.07
134.4832, 39660.38
136.4116, 39717.82
138.3401, 39828.21
140.2686, 39969.70
142.1970, 40069.88
144.1255, 40121.89
146.0540, 40182.67
147.9824, 40280.61
149.9109, 40374.17
151.8394, 40432.22
153.7678, 40475.32
155.6963, 40552.93
157.6248, 40668.39
159.5532, 40758.32
161.4817, 40781.86
163.4102, 40810.99
165.3386, 40869.90
167.2671, 40947.01
169.1956, 41030.55
171.1240, 41120.66
173.0525, 41201.35
174.9810, 41245.59
176.9094, 41316.31
178.8379, 41466.73
180.7664, 41617.28
182.6948, 41673.97
184.6233, 41661.10
186.5518, 41685.27
188.4802, 41782.94
190.4087, 41866.00
192.3372, 41932.74
194.2656, 41973.63
196.1941, 41950.12
198.1226, 41903.26
200.0510, 41919.25
201.9795, 42025.98
203.9080, 42130.59
205.8364, 42258.31
207.7649, 42350.83
209.6934, 42348.78
211.6218, 42322.43
213.5503, 42353.78
215.4788, 42451.59
217.4072, 42532.36
219.3357, 42606.87
221.2642, 42646.10
223.1926, 42587.74
225.1211, 42551.79
227.0496, 42648.40
228.9780, 42834.04
230.9065, 42925.02
232.8350, 42864.35
234.7634, 42856.13
236.6919, 42932.80
238.6204, 43019.19
240.5488, 43078.16
242.4773, 43125.30
244.4058, 43180.71
246.3342, 43243.93
248.2627, 43287.44
250.1912, 43306.23
252.1196, 43323.50
254.0481, 43358.77
255.9766, 43380.81
257.9050, 43359.01
259.8335, 43315.17
261.7620, 43311.70
263.6904, 43355.03
265.6189, 43363.99
267.5474, 43305.05
269.4758, 43275.63
271.4043, 43335.62
273.3328, 43420.40
275.2612, 43491.39
277.1897, 43543.35
279.1182, 43541.07
281.0466, 43474.43
282.9751, 43451.61
284.9036, 43528.27
286.8320, 43598.70
288.7605, 43608.47
290.6890, 43601.90
292.6174, 43653.54
294.5459, 43742.25
296.4744, 43742.94
298.4028, 43623.82
300.3313, 43552.69
302.2598, 43590.42
304.1882, 43660.80
306.1167, 43766.29
308.0452, 43866.52
309.9736, 43888.27
311.9021, 43849.22
313.8306, 43830.08
315.7590, 43846.33
317.6875, 43857.16
319.6160, 43851.46
321.5445, 43847.76
323.4729, 43853.80
325.4014, 43869.69
327.3299, 43901.11
329.2583, 43942.66
331.1868, 43962.48
333.1153, 43945.88
335.0437, 43928.70
336.9722, 43906.36
338.9007, 43894.38
340.8291, 43906.71
342.7576, 43932.74
344.6861, 43960.58
346.6145, 43992.84
348.5430, 44038.98
350.4715, 44143.76
352.3999, 44170.08
354.3284, 44037.12
356.2569, 43917.30
358.1853, 43891.36
360.1138, 43894.11
362.0423, 43861.46
363.9707, 43801.48
365.8992, 43770.16
367.8277, 43789.77
369.7561, 43796.71
371.6846, 43785.54
373.6131, 43780.42
375.5415, 43801.53
377.4700, 43821.22
379.3985, 43815.64
381.3269, 43791.14
383.2554, 43761.67
385.1839, 43716.80
387.1123, 43708.01
389.0408, 43746.64
390.9693, 43783.14
392.8977, 43812.97
394.8262, 43824.78
396.7547, 43788.94
398.6831, 43748.61
400.6116, 43780.49
402.5401, 43879.86
404.4685, 43921.79
406.3970, 43900.21
408.3255, 43865.71
410.2539, 43818.10
412.1824, 43776.40
414.1109, 43744.73
416.0393, 43728.79
417.9678, 43740.74
419.8963, 43772.65
421.8247, 43806.00
423.7532, 43840.53
425.6817, 43851.61
427.6101, 43830.26
429.5386, 43805.37
431.4671, 43765.13
433.3955, 43745.09
435.3240, 43793.36
437.2525, 43841.92
439.1809, 43792.42
441.1094, 43682.48
443.0379, 43658.04
444.9663, 43721.25
446.8948, 43738.38
448.8233, 43671.45
450.7517, 43611.78
452.6802, 43579.29
454.6087, 43560.93
456.5371, 43559.28
458.4656, 43559.02
460.3941, 43535.77
462.3225, 43497.25
464.2510, 43468.53
466.1795, 43450.43
468.1079, 43426.96
470.0364, 43390.25
471.9649, 43357.43
473.8933, 43341.63
475.8218, 43318.88
477.7503, 43276.43
479.6787, 43223.07
481.6072, 43163.07
483.5357, 43102.40
485.4641, 43053.42
487.3926, 43016.07
489.3211, 42994.38
491.2495, 43013.11
493.1780, 43004.06
495.1065, 42956.94
497.0349, 42884.01
498.9634, 42737.15
500.8919, 42615.50
502.8203, 42642.87
504.7488, 42742.25
506.6773, 42745.64
508.6057, 42645.93
510.5342, 42562.86
512.4626, 42493.51
514.3911, 42452.81
516.3196, 42455.89
518.2480, 42460.25
520.1765, 42444.86
522.1050, 42432.62
524.0334, 42456.77
525.9619, 42476.00
527.8904, 42431.54
529.8188, 42335.06
531.7473, 42248.95
533.6758, 42176.51
535.6042, 42112.88
537.5327, 42056.64
539.4612, 42030.80
541.3896, 42065.74
543.3181, 42087.48
545.2466, 42037.07
547.1750, 41983.55
549.1035, 41964.13
551.0320, 41972.23
552.9604, 42005.23
554.8889, 42058.51
556.8174, 42110.06
558.7458, 42161.75
560.6743, 42183.94
562.6028, 42172.59
564.5313, 42139.05
566.4598, 42080.54
568.3882, 42004.68
570.3167, 41882.75
572.2452, 41775.13
574.1736, 41742.69
576.1021, 41736.64
578.0306, 41683.52
579.9590, 41596.77
581.8875, 41524.09
583.8160, 41468.07
585.7444, 41434.24
587.6729, 41435.87
589.6014, 41410.18
591.5298, 41317.47
593.4583, 41244.14
595.3868, 41213.99
597.3152, 41202.32
599.2437, 41187.42
601.1722, 41187.98
603.1006, 41236.95
605.0291, 41307.77
606.9576, 41361.45
608.8860, 41391.50
610.8145, 41362.81
612.7430, 41266.23
614.6714, 41184.34
616.5999, 41141.00
618.5284, 41086.97
620.4568, 40998.61
622.3853, 40931.40
624.3138, 40924.26
626.2422, 40919.94
628.1707, 40885.95
630.0992, 40833.39
632.0276, 40767.05
633.9561, 40693.58
635.8846, 40625.31
637.8130, 40561.61
639.7415, 40498.72
641.6700, 40435.32
643.5984, 40371.09
645.5269, 40289.75
647.4554, 40233.70
649.3839, 40220.35
651.3123, 40205.15
653.2408, 40182.72
655.1693, 40148.71
657.0977, 40099.05
659.0262, 40043.51
660.9547, 39977.77
662.8831, 39920.59
664.8116, 39911.86
666.7401, 39932.87
668.6685, 39908.02
670.5970, 39832.27
672.5255, 39766.37
674.4539, 39706.97
676.3824, 39665.68
678.3109, 39651.71
680.2393, 39626.46
682.1678, 39575.63
684.0963, 39534.61
686.0247, 39526.68
687.9532, 39519.89
689.8817, 39522.79
691.8101, 39493.42
693.7386, 39357.84
695.6671, 39199.89
697.5955, 39149.46
699.5240, 39171.79
701.4525, 39165.91
703.3809, 39138.09
705.3094, 39146.75
707.2379, 39190.48
709.1663, 39169.71
711.0948, 39061.33
713.0233, 38994.16
714.9517, 39008.46
716.8802, 39009.53
718.8087, 38966.03
720.7371, 38915.40
722.6656, 38859.99
724.5941, 38815.66
726.5225, 38794.33
728.4510, 38786.50
730.3795, 38800.23
732.3079, 38809.21
734.2364, 38770.95
736.1649, 38701.56
738.0933, 38622.95
740.0218, 38544.89
741.9503, 38524.88
743.8787, 38556.86
745.8072, 38498.36
747.7357, 38313.04
749.6641, 38240.41
751.5926, 38375.41
753.5211, 38456.19
755.4495, 38443.05
757.3780, 38403.36
759.3065, 38323.85
761.2349, 38252.10
763.1634, 38198.89
765.0919, 38158.84
767.0203, 38126.75
768.9488, 38104.32
770.8773, 38119.00
772.8057, 38118.20
774.7342, 38020.10
776.6627, 37892.42
778.5911, 37870.35
780.5196, 37913.59
782.4481, 37859.87
784.3765, 37726.78
786.3050, 37741.70
788.2335, 37932.77
790.1619, 37990.26
792.0904, 37854.72
794.0189, 37784.27
795.9473, 37800.64
797.8758, 37802.06
799.8043, 37782.39
801.7327, 37732.81
803.6612, 37628.69
805.5897, 37562.60
807.5181, 37590.61
809.4466, 37617.15
811.3751, 37593.03
813.3035, 37558.92
815.2320, 37540.89
817.1605, 37511.17
819.0889, 37435.46
821.0174, 37352.83
822.9459, 37293.09
824.8743, 37262.63
826.8028, 37305.66
828.7313, 37369.87
830.6597, 37324.61
832.5882, 37205.73
834.5167, 37120.89
836.4451, 37069.81
838.3736, 37066.36
840.3021, 37100.62
842.2305, 37087.54
844.1590, 37024.93
846.0875, 36993.06
848.0159, 37003.08
849.9444, 36981.92
851.8729, 36918.43
853.8013, 36843.82
855.7298, 36756.21
857.6583, 36681.04
859.5867, 36624.79
861.5152, 36577.83
863.4437, 36545.54
865.3721, 36509.88
867.3006, 36443.89
869.2291, 36408.13
871.1575, 36461.41
873.0860, 36500.14
875.0145, 36455.32
876.9429, 36400.41
878.8714, 36381.46
880.7999, 36370.44
882.7283, 36353.78
884.6568, 36322.55
886.5853, 36246.60
888.5137, 36170.03
890.4422, 36160.38
892.3707, 36167.63
894.2991, 36119.41
896.2276, 36044.25
898.1561, 35995.48
900.0845, 35963.11
902.0130, 35914.92
903.9415, 35860.32
905.8699, 35836.29
907.7984, 35839.87
909.7269, 35832.50
911.6553, 35817.40
913.5838, 35855.91
915.5123, 35952.31
917.4407, 35932.38
919.3692, 35769.16
921.2977, 35707.45
923.2261, 35767.93
925.1546, 35808.05
927.0831, 35829.74
929.0115, 35803.29
930.9400, 35716.11
932.8685, 35652.84
934.7969, 35627.19
936.7254, 35603.41
938.6539, 35577.29
940.5823, 35562.64
942.5108, 35561.60
944.4393, 35581.65
946.3677, 35637.42
948.2962, 35659.92
950.2247, 35636.34
952.1531, 35553.58
954.0816, 35365.72
956.0101, 35236.58
957.9385, 35240.11
959.8670, 35248.32
961.7955, 35209.29
963.7239, 35194.93
965.6524, 35256.66
967.5809, 35298.16
969.5093, 35276.90
971.4378, 35248.40
973.3663, 35221.28
975.2947, 35205.05
977.2232, 35210.48
979.1517, 35217.36
981.0801, 35236.38
983.0086, 35226.34
984.9371, 35157.79
986.8655, 35068.09
988.7940, 34947.07
990.7225, 34855.26
992.6509, 34842.02
994.5794, 34853.36
996.5079, 34880.98
998.4363, 34889.79
1000.365, 34837.36
1002.293, 34781.45
1004.222, 34755.29
1006.150, 34742.64
1008.079, 34747.53
1010.007, 34738.43
1011.936, 34671.15
1013.864, 34610.24
1015.793, 34611.37
1017.721, 34632.61
1019.649, 34670.59
1021.578, 34683.50
1023.506, 34596.89
1025.435, 34527.94
1027.363, 34606.48
1029.292, 34680.18
1031.220, 34624.37
1033.149, 34525.23
1035.077, 34411.36
1037.006, 34327.35
1038.934, 34314.71
1040.863, 34337.24
1042.791, 34414.58
1044.719, 34463.31
1046.648, 34400.22
1048.576, 34321.81
1050.505, 34288.49
1052.433, 34270.60
1054.362, 34256.38
1056.290, 34240.68
1058.219, 34220.21
1060.147, 34198.33
1062.076, 34162.66
1064.004, 34145.45
1065.933, 34201.82
1067.861, 34231.07
1069.790, 34117.39
1071.718, 34035.46
1073.647, 34138.80
1075.575, 34215.94
1077.504, 34101.91
1079.432, 34017.51
1081.360, 34132.34
1083.289, 34211.81
1085.217, 34119.97
1087.146, 34022.64
1089.074, 33960.24
1091.003, 33947.15
1092.931, 34030.74
1094.860, 34092.43
1096.788, 34088.23
1098.717, 34060.37
1100.645, 33978.36
1102.574, 33946.17
1104.502, 34053.77
1106.431, 34104.21
1108.359, 34004.61
1110.287, 33942.39
1112.216, 33968.71
1114.144, 33996.41
1116.073, 34008.20
1118.001, 34029.48
1119.930, 34085.20
1121.858, 34094.32
1123.787, 34019.58
1125.715, 33971.97
1127.644, 33967.16
1129.572, 33961.23
1131.501, 33954.34
1133.429, 33948.13
1135.358, 33944.69
1137.286, 33943.33
1139.214, 33947.69
1141.143, 33937.16
1143.071, 33910.62
1145.000, 33900.12
1146.928, 33904.26
1148.857, 33861.32
1150.785, 33780.87
1152.714, 33792.16
1154.642, 33869.43
1156.571, 33884.82
1158.499, 33852.82
1160.428, 33800.98
1162.356, 33754.48
1164.285, 33780.36
1166.213, 33850.25
1168.141, 33929.07
1170.070, 33992.96
1171.998, 33995.85
1173.927, 33969.71
1175.855, 33934.30
1177.784, 33907.98
1179.712, 33911.97
1181.641, 33929.04
1183.569, 33974.18
1185.498, 33994.32
1187.426, 33930.65
1189.355, 33879.45
1191.283, 33888.94
1193.212, 33906.75
1195.140, 33934.75
1197.068, 33925.46
1198.997, 33838.75
1200.925, 33800.07
1202.854, 33858.22
1204.782, 33890.93
1206.711, 33875.80
1208.639, 33881.91
1210.568, 33919.69
1212.496, 33936.75
1214.425, 33925.77
1216.353, 33929.90
1218.282, 33945.47
1220.210, 33936.14
1222.139, 33910.96
1224.067, 33949.27
1225.995, 34016.60
1227.924, 33971.79
1229.852, 33894.57
1231.781, 33976.92
1233.709, 34111.67
1235.638, 34158.44
1237.566, 34158.27
1239.495, 34128.80
1241.423, 34105.12
1243.352, 34135.78
1245.280, 34151.91
1247.209, 34058.63
1249.137, 34032.85
1251.066, 34212.27
1252.994, 34343.30
1254.922, 34333.74
1256.851, 34292.94
1258.779, 34224.02
1260.708, 34184.38
1262.636, 34192.49
1264.565, 34195.63
1266.493, 34195.88
1268.422, 34173.35
1270.350, 34130.75
1272.279, 34189.53
1274.207, 34315.35
1276.136, 34308.60
1278.064, 34235.69
1279.993, 34293.48
1281.921, 34394.93
1283.849, 34419.89
1285.778, 34392.96
1287.706, 34294.54
1289.635, 34226.73
1291.563, 34287.96
1293.492, 34367.07
1295.420, 34429.22
1297.349, 34468.52
1299.277, 34468.05
1301.206, 34479.50
1303.134, 34512.63
1305.063, 34538.35
1306.991, 34551.76
1308.920, 34548.92
1310.848, 34533.25
1312.776, 34526.12
1314.705, 34536.81
1316.633, 34621.69
1318.562, 34728.23
1320.490, 34719.78
1322.419, 34657.75
1324.347, 34604.64
1326.276, 34578.05
1328.204, 34610.18
1330.133, 34653.70
1332.061, 34669.98
1333.990, 34708.57
1335.918, 34834.61
1337.847, 34900.50
1339.775, 34818.30
1341.703, 34795.64
1343.632, 34851.13
1345.560, 34914.16
1347.489, 34982.69
1349.417, 34997.03
1351.346, 34973.44
1353.274, 35016.06
1355.203, 35076.18
1357.131, 35005.21
1359.060, 34924.98
1360.988, 34988.82
1362.917, 35075.89
1364.845, 35105.11
1366.774, 35118.02
1368.702, 35115.85
1370.630, 35147.29
1372.559, 35251.24
1374.487, 35285.04
1376.416, 35212.01
1378.344, 35191.20
1380.273, 35228.70
1382.201, 35303.69
1384.130, 35390.08
1386.058, 35363.67
1387.987, 35281.54
1389.915, 35237.22
1391.844, 35211.26
1393.772, 35176.89
1395.701, 35164.84
1397.629, 35225.66
1399.557, 35236.20
1401.486, 35146.27
1403.414, 35078.86
1405.343, 35059.88
1407.271, 35027.65
1409.200, 34982.79
1411.128, 35011.94
1413.057, 35087.19
1414.985, 35070.45
1416.914, 35030.30
1418.842, 35104.24
1420.771, 35197.12
1422.699, 35235.23
1424.628, 35227.86
1426.556, 35140.03
1428.484, 35086.54
1430.413, 35100.30
1432.341, 35145.50
1434.270, 35228.59
1436.198, 35225.32
1438.127, 35149.09
1440.055, 35122.06
1441.984, 35147.80
1443.912, 35292.72
1445.841, 35409.39
1447.769, 35271.51
1449.698, 35125.54
1451.626, 35156.35
1453.555, 35175.09
1455.483, 35081.84
1457.411, 35046.77
1459.340, 35124.64
1461.268, 35125.11
1463.197, 35055.55
1465.125, 35031.43
1467.054, 35035.20
1468.982, 35010.48
1470.911, 34979.93
1472.839, 34949.47
1474.768, 34952.88
1476.696, 35039.75
1478.625, 35060.37
1480.553, 34938.17
1482.482, 34874.31
1484.410, 34904.36
1486.339, 34935.59
1488.267, 34961.92
1490.195, 34947.21
1492.124, 34909.43
1494.052, 34871.59
1495.981, 34843.18
1497.909, 34822.83
1499.838, 34837.19
1501.766, 34922.12
1503.695, 34942.05
1505.623, 34861.72
1507.552, 34845.63
1509.480, 34898.13
1511.409, 34941.00
1513.337, 34957.16
1515.266, 34880.07
1517.194, 34798.13
1519.122, 34842.48
1521.051, 34870.93
1522.979, 34774.69
1524.908, 34720.08
1526.836, 34746.38
1528.765, 34755.58
1530.693, 34743.96
1532.622, 34745.44
1534.550, 34753.20
1536.479, 34729.46
1538.407, 34719.87
1540.336, 34806.10
1542.264, 34866.17
1544.193, 34792.78
1546.121, 34756.06
1548.049, 34794.14
1549.978, 34837.56
1551.906, 34881.15
1553.835, 34843.98
1555.763, 34770.16
1557.692, 34779.87
1559.620, 34788.34
1561.549, 34696.80
1563.477, 34644.29
1565.406, 34703.34
1567.334, 34760.89
1569.263, 34799.12
1571.191, 34785.41
1573.120, 34728.57
1575.048, 34693.80
1576.976, 34673.35
1578.905, 34673.34
1580.833, 34661.11
1582.762, 34614.52
1584.690, 34576.02
1586.619, 34559.25
1588.547, 34533.50
1590.476, 34493.72
1592.404, 34430.32
1594.333, 34369.91
1596.261, 34396.50
1598.190, 34433.24
1600.118, 34425.49
1602.047, 34373.67
1603.975, 34259.53
1605.903, 34218.83
1607.832, 34262.78
1609.760, 34227.92
1611.689, 34156.00
1613.617, 34205.64
1615.546, 34266.86
1617.474, 34214.28
1619.403, 34138.86
1621.331, 34065.30
1623.260, 34005.68
1625.188, 33961.18
1627.117, 33929.24
1629.045, 33909.87
1630.974, 33918.40
1632.902, 33917.26
1634.830, 33860.64
1636.759, 33790.30
1638.687, 33703.00
1640.616, 33660.95
1642.544, 33671.88
1644.473, 33674.57
1646.401, 33665.20
1648.330, 33628.00
1650.258, 33589.57
1652.187, 33583.74
1654.115, 33570.68
1656.044, 33531.35
1657.972, 33503.68
1659.901, 33494.18
1661.829, 33443.27
1663.757, 33388.24
1665.686, 33447.39
1667.614, 33518.73
1669.543, 33542.44
1671.471, 33501.36
1673.400, 33369.93
1675.328, 33298.26
1677.257, 33292.82
1679.185, 33286.36
1681.114, 33275.63
1683.042, 33246.96
1684.971, 33219.68
1686.899, 33204.42
1688.828, 33177.72
1690.756, 33133.70
1692.684, 33108.18
1694.613, 33097.82
1696.541, 33089.70
1698.470, 33078.34
1700.398, 33066.83
1702.327, 33034.89
1704.255, 32976.86
1706.184, 32880.92
1708.112, 32759.43
1710.041, 32740.95
1711.969, 32768.58
1713.898, 32764.82
1715.826, 32734.94
1717.755, 32661.12
1719.683, 32608.65
1721.611, 32585.06
1723.540, 32586.63
1725.468, 32594.97
1727.397, 32562.28
1729.325, 32516.47
1731.254, 32470.49
1733.182, 32445.56
1735.111, 32474.80
1737.039, 32386.66
1738.968, 32217.35
1740.896, 32197.19
1742.825, 32226.19
1744.753, 32214.37
1746.682, 32174.03
1748.610, 32090.64
1750.538, 32039.43
1752.467, 32021.40
1754.395, 32034.89
1756.324, 32050.08
1758.252, 32023.06
1760.181, 31983.12
1762.109, 31944.77
1764.038, 31874.53
1765.966, 31772.43
1767.895, 31776.11
1769.823, 31806.35
1771.752, 31699.95
1773.680, 31603.95
1775.609, 31595.07
1777.537, 31554.64
1779.465, 31471.11
1781.394, 31447.85
1783.322, 31451.18
1785.251, 31414.43
1787.179, 31366.86
1789.108, 31309.78
1791.036, 31287.85
1792.965, 31294.66
1794.893, 31184.03
1796.822, 31055.03
1798.750, 31136.95
1800.679, 31183.04
1802.607, 31056.12
1804.536, 30925.44
1806.464, 30819.42
1808.392, 30858.32
1810.321, 30937.12
1812.249, 30880.04
1814.178, 30830.34
1816.106, 30884.50
1818.035, 30855.01
1819.963, 30746.41
1821.892, 30661.37
1823.820, 30593.13
1825.749, 30533.85
1827.677, 30480.47
1829.606, 30411.77
1831.534, 30421.23
1833.463, 30482.02
1835.391, 30445.02
1837.319, 30354.00
1839.248, 30222.56
1841.176, 30126.10
1843.105, 30098.74
1845.033, 30074.76
1846.962, 30053.88
1848.890, 30055.18
1850.819, 30009.97
1852.747, 29838.91
1854.676, 29766.00
1856.604, 29835.12
1858.533, 29837.31
1860.461, 29771.47
1862.390, 29574.32
1864.318, 29429.70
1866.246, 29415.38
1868.175, 29386.30
1870.103, 29326.19
1872.032, 29207.07
1873.960, 29119.66
1875.889, 29205.81
1877.817, 29258.63
1879.746, 29240.36
1881.674, 29142.41
1883.603, 29006.75
1885.531, 28888.38
1887.460, 28838.04
1889.388, 28916.87
1891.317, 28918.64
1893.245, 28834.45
1895.173, 28746.97
1897.102, 28652.79
1899.030, 28523.38
1900.959, 28447.42
1902.887, 28450.99
1904.816, 28436.96
1906.744, 28412.05
1908.673, 28408.92
1910.601, 28384.55
1912.530, 28294.85
1914.458, 28205.18
1916.387, 28123.51
1918.315, 28109.45
1920.244, 28115.32
1922.172, 28103.78
1924.100, 28082.98
1926.029, 28063.27
1927.957, 27935.91
1929.886, 27780.36
1931.814, 27764.77
1933.743, 27740.86
1935.671, 27642.50
1937.600, 27562.19
1939.528, 27496.75
1941.457, 27401.81
1943.385, 27315.59
1945.314, 27257.74
1947.242, 27232.71
1949.171, 27238.44
1951.099, 27256.80
1953.027, 27239.04
1954.956, 27090.19
1956.884, 26998.32
1958.813, 27000.66
1960.741, 26943.61
1962.670, 26862.82
1964.598, 26818.44
1966.527, 26816.97
1968.455, 26866.84
1970.384, 26819.95
1972.312, 26701.78
1974.241, 26598.40
1976.169, 26502.60
1978.098, 26404.32
1980.026, 26375.04
1981.954, 26387.87
1983.883, 26285.61
1985.811, 26185.56
1987.740, 26192.00
1989.668, 26196.88
1991.597, 26182.01
1993.525, 26090.34
1995.454, 25987.53
1997.382, 25956.68
1999.311, 25884.47
2001.239, 25758.51
2003.168, 25723.43
2005.096, 25712.70
2007.025, 25636.24
2008.953, 25576.24
2010.881, 25550.31
2012.810, 25583.37
2014.738, 25590.00
2016.667, 25416.86
2018.595, 25278.37
2020.524, 25253.82
2022.452, 25197.79
2024.381, 25128.26
2026.309, 25083.49
2028.238, 25021.68
2030.166, 24924.29
2032.095, 24908.47
2034.023, 24928.41
2035.952, 24904.32
2037.880, 24819.14
2039.808, 24660.93
2041.737, 24614.11
2043.665, 24614.10
2045.594, 24501.54
2047.522, 24403.12
2049.451, 24361.49
2051.379, 24273.77
2053.308, 24185.69
2055.236, 24252.51
2057.165, 24230.46
2059.093, 24034.67
2061.022, 24020.41
2062.950, 24093.48
2064.879, 24037.49
2066.807, 23981.51
2068.736, 23973.33
2070.664, 23826.05
2072.593, 23644.60
2074.521, 23647.90
2076.449, 23613.61
2078.378, 23467.17
2080.306, 23412.47
2082.235, 23389.27
2084.163, 23301.28
2086.092, 23209.80
2088.020, 23128.88
2089.949, 23081.42
2091.877, 23045.15
2093.806, 22999.91
2095.734, 22939.79
2097.663, 22864.56
2099.591, 22803.10
2101.520, 22760.35
2103.448, 22740.92
2105.376, 22723.44
2107.305, 22697.80
2109.233, 22619.21
2111.162, 22524.76
2113.090, 22438.50
2115.019, 22382.25
2116.947, 22347.44
2118.876, 22289.51
2120.804, 22196.63
2122.733, 22051.21
2124.661, 22008.83
2126.590, 22030.79
2128.518, 21996.04
2130.447, 21935.26
2132.375, 21860.31
2134.303, 21797.38
2136.232, 21740.62
2138.160, 21688.66
2140.089, 21596.45
2142.017, 21462.60
2143.946, 21450.31
2145.874, 21471.31
2147.803, 21434.85
2149.731, 21383.92
2151.660, 21322.95
2153.588, 21236.46
2155.517, 21154.45
2157.445, 21101.02
2159.374, 21056.94
2161.302, 21001.24
2163.230, 20853.13
2165.159, 20742.21
2167.087, 20740.81
2169.016, 20744.61
2170.944, 20732.57
2172.873, 20655.78
2174.801, 20620.76
2176.730, 20639.86
2178.658, 20494.70
2180.587, 20370.19
2182.515, 20432.41
2184.444, 20373.69
2186.372, 20218.82
2188.301, 20154.58
2190.229, 20098.29
2192.157, 20018.75
2194.086, 19967.33
2196.014, 19936.72
2197.943, 19924.12
2199.871, 19890.45
2201.800, 19832.74
2203.728, 19800.88
2205.657, 19760.63
2207.585, 19688.77
2209.514, 19580.28
2211.442, 19469.56
2213.371, 19463.18
2215.299, 19429.99
2217.228, 19334.20
2219.156, 19245.39
2221.084, 19165.81
2223.013, 19112.89
2224.941, 19013.82
2226.870, 18892.35
2228.798, 18845.92
2230.727, 18848.97
2232.655, 18909.66
2234.584, 18790.42
2236.512, 18639.17
2238.441, 18710.73
2240.369, 18683.02
2242.298, 18537.74
2244.226, 18569.86
2246.155, 18591.65
2248.083, 18472.55
2250.011, 18435.41
2251.940, 18417.89
2253.868, 18289.01
2255.797, 18205.49
2257.725, 18191.94
2259.654, 18139.12
2261.582, 18085.43
2263.511, 18055.59
2265.439, 17997.37
2267.368, 17929.22
2269.296, 17901.05
2271.225, 17837.17
2273.153, 17733.88
2275.082, 17708.73
2277.010, 17688.43
2278.938, 17630.87
2280.867, 17587.77
2282.795, 17543.81
2284.724, 17463.29
2286.652, 17389.55
2288.581, 17322.72
2290.509, 17206.53
2292.438, 17111.73
2294.366, 17072.66
2296.295, 17025.86
2298.223, 16975.51
2300.152, 16939.63
2302.080, 16867.93
2304.009, 16779.87
2305.937, 16772.79
2307.865, 16780.25
2309.794, 16781.64
2311.722, 16684.79
2313.651, 16569.66
2315.579, 16509.92
2317.508, 16474.00
2319.436, 16444.88
2321.365, 16400.15
2323.293, 16313.32
2325.222, 16185.45
2327.150, 16188.53
2329.079, 16194.36
2331.007, 16123.16
2332.936, 16053.35
2334.864, 16007.60
2336.792, 16024.88
2338.721, 15986.48
2340.649, 15899.77
2342.578, 15867.39
2344.506, 15818.66
2346.435, 15732.61
2348.363, 15711.42
2350.292, 15692.96
2352.220, 15634.18
2354.149, 15583.81
2356.077, 15528.70
2358.006, 15424.11
2359.934, 15343.83
2361.863, 15295.36
2363.791, 15258.50
2365.719, 15227.80
2367.648, 15199.71
2369.576, 15184.62
2371.505, 15174.10
2373.433, 15169.58
2375.362, 15108.12
2377.290, 15029.81
2379.219, 15015.79
2381.147, 14946.80
2383.076, 14841.63
2385.004, 14803.80
2386.933, 14749.34
2388.861, 14656.74
2390.790, 14612.51
2392.718, 14582.06
2394.646, 14550.27
2396.575, 14496.32
2398.503, 14442.53
2400.432, 14418.16
2402.360, 14385.06
2404.289, 14327.56
2406.217, 14196.77
2408.146, 14136.65
2410.074, 14143.92
2412.003, 14072.82
2413.931, 13985.09
2415.860, 13902.76
2417.788, 13854.40
2419.717, 13811.53
2421.645, 13756.56
2423.573, 13723.22
2425.502, 13707.50
2427.430, 13714.29
2429.359, 13657.29
2431.287, 13568.54
2433.216, 13520.94
2435.144, 13462.94
2437.073, 13398.14
2439.001, 13360.28
2440.930, 13338.26
2442.858, 13317.05
2444.787, 13211.87
2446.715, 13146.70
2448.644, 13170.25
2450.572, 13085.70
2452.500, 12987.39
2454.429, 12949.77
2456.357, 12879.17
2458.286, 12827.04
2460.214, 12896.50
2462.143, 12828.23
2464.071, 12691.80
2466.000, 12609.35
2467.928, 12595.47
2469.857, 12607.71
2471.785, 12528.79
2473.714, 12450.89
2475.642, 12392.49
2477.571, 12339.69
2479.499, 12298.88
2481.427, 12272.01
2483.356, 12259.50
2485.284, 12217.81
2487.213, 12129.85
2489.141, 12112.15
2491.070, 12093.33
2492.998, 12031.43
2494.927, 11925.48
2496.855, 11823.42
2498.784, 11762.93
2500.712, 11738.54
2502.641, 11723.81
2504.569, 11698.35
2506.498, 11594.73
2508.426, 11490.48
2510.354, 11552.81
2512.283, 11567.94
2514.211, 11534.89
2516.140, 11503.69
2518.068, 11473.14
2519.997, 11440.75
2521.925, 11400.14
2523.854, 11372.00
2525.782, 11338.25
2527.711, 11182.54
2529.639, 11077.07
2531.568, 11055.28
2533.496, 11071.80
2535.425, 11047.05
2537.353, 10963.34
2539.281, 10954.86
2541.210, 10944.79
2543.138, 10903.38
2545.067, 10856.96
2546.995, 10797.18
2548.924, 10718.00
2550.852, 10727.38
2552.781, 10720.72
2554.709, 10642.84
2556.638, 10622.50
2558.566, 10592.69
2560.495, 10514.75
2562.423, 10525.38
2564.352, 10506.56
2566.280, 10384.43
2568.208, 10331.60
2570.137, 10312.04
2572.065, 10295.49
2573.994, 10199.86
2575.922, 10112.25
2577.851, 10103.60
2579.779, 10116.31
2581.708, 10090.41
2583.636, 9961.387
2585.565, 9924.614
2587.493, 9939.620
2589.422, 9988.612
2591.350, 9875.356
2593.279, 9749.115
2595.207, 9795.356
2597.135, 9749.295
2599.064, 9684.392
2600.992, 9681.164
2602.921, 9681.402
2604.849, 9649.868
2606.778, 9540.021
2608.706, 9499.120
2610.635, 9479.617
2612.563, 9440.759
2614.492, 9359.264
2616.420, 9287.595
2618.349, 9267.624
2620.277, 9230.148
2622.206, 9170.712
2624.134, 9089.923
2626.063, 9008.862
2627.991, 8983.002
2629.919, 9039.063
2631.848, 9009.415
2633.776, 8939.320
2635.705, 8865.265
2637.633, 8840.752
2639.562, 8835.160
2641.490, 8827.165
2643.419, 8753.900
2645.347, 8692.625
2647.276, 8670.466
2649.204, 8579.181
2651.133, 8521.871
2653.061, 8529.692
2654.990, 8535.434
2656.918, 8508.690
2658.846, 8447.770
2660.775, 8376.241
2662.703, 8346.765
2664.632, 8355.284
2666.560, 8324.183
2668.489, 8271.295
2670.417, 8213.213
2672.346, 8187.827
2674.274, 8163.916
2676.203, 8136.907
2678.131, 8116.832
2680.060, 8073.667
2681.988, 8015.947
2683.917, 7967.587
2685.845, 7884.567
2687.773, 7818.526
2689.702, 7842.502
2691.630, 7818.415
2693.559, 7785.637
2695.487, 7792.632
2697.416, 7719.397
2699.344, 7637.134
2701.273, 7597.967
2703.201, 7586.266
2705.130, 7549.156
2707.058, 7472.271
2708.987, 7451.052
2710.915, 7420.175
2712.844, 7364.305
2714.772, 7324.398
2716.700, 7320.897
2718.629, 7332.286
2720.557, 7280.912
2722.486, 7212.772
2724.414, 7154.137
2726.343, 7151.478
2728.271, 7103.569
2730.200, 7023.259
2732.128, 6920.218
2734.057, 6933.456
2735.985, 6965.394
2737.914, 6916.995
2739.842, 6870.509
2741.771, 6831.770
2743.699, 6804.082
2745.627, 6785.121
2747.556, 6721.748
2749.484, 6613.388
2751.413, 6575.634
2753.341, 6589.401
2755.270, 6610.378
2757.198, 6515.216
2759.127, 6471.957
2761.055, 6477.613
2762.984, 6506.665
2764.912, 6422.783
2766.841, 6316.553
2768.769, 6266.993
2770.698, 6270.598
2772.626, 6262.526
2774.554, 6218.213
2776.483, 6177.275
2778.411, 6149.725
2780.340, 6122.693
2782.268, 6028.840
2784.197, 6000.976
2786.125, 6015.086
2788.054, 5983.183
2789.982, 5984.338
2791.911, 5979.707
2793.839, 5905.184
2795.768, 5898.602
2797.696, 5902.070
2799.625, 5883.072
2801.553, 5780.569
2803.481, 5730.140
2805.410, 5735.728
2807.338, 5683.994
2809.267, 5603.843
2811.195, 5538.025
2813.124, 5537.949
2815.052, 5514.550
2816.981, 5488.134
2818.909, 5476.614
2820.838, 5434.500
2822.766, 5395.822
2824.695, 5370.418
2826.623, 5336.989
2828.552, 5305.428
2830.480, 5270.468
2832.408, 5214.960
2834.337, 5176.889
2836.265, 5146.712
2838.194, 5113.783
2840.122, 5119.410
2842.051, 5106.879
2843.979, 5060.677
2845.908, 5011.363
2847.836, 4977.301
2849.765, 4960.967
2851.693, 4975.306
2853.622, 4919.786
2855.550, 4846.586
2857.479, 4803.992
2859.407, 4802.380
2861.335, 4795.530
2863.264, 4762.380
2865.192, 4672.012
2867.121, 4669.096
2869.049, 4697.990
2870.978, 4652.164
2872.906, 4610.089
2874.835, 4571.243
2876.763, 4531.212
2878.692, 4496.464
2880.620, 4491.898
2882.549, 4498.590
2884.477, 4444.282
2886.406, 4412.453
2888.334, 4391.236
2890.262, 4360.762
2892.191, 4286.756
2894.119, 4266.862
2896.048, 4296.474
2897.976, 4199.319
2899.905, 4168.312
2901.833, 4169.744
2903.762, 4100.365
2905.690, 4092.259
2907.619, 4082.882
2909.547, 4043.476
2911.476, 4032.087
2913.404, 4002.614
2915.333, 3957.397
2917.261, 3913.845
2919.189, 3894.747
2921.118, 3891.368
2923.046, 3895.528
2924.975, 3823.906
2926.903, 3797.724
2928.832, 3807.646
2930.760, 3774.566
2932.689, 3753.392
2934.617, 3733.203
2936.546, 3702.799
2938.474, 3654.843
2940.403, 3625.932
2942.331, 3611.354
2944.260, 3577.654
2946.188, 3554.000
2948.116, 3542.691
2950.045, 3537.745
2951.973, 3497.904
2953.902, 3444.167
2955.830, 3403.061
2957.759, 3417.822
2959.687, 3444.092
2961.616, 3447.265
2963.544, 3412.789
2965.473, 3372.559
2967.401, 3344.742
2969.330, 3321.740
2971.258, 3284.642
2973.187, 3249.367
2975.115, 3223.357
2977.043, 3212.048
2978.972, 3243.171
2980.900, 3205.664
2982.829, 3143.170
2984.757, 3125.699
2986.686, 3153.976
2988.614, 3142.578
2990.543, 3076.522
2992.471, 3013.104
2994.400, 3005.190
2996.328, 3006.569
2998.257, 2980.892
3000.185, 2972.520
3002.114, 2959.990
3004.042, 2939.229
3005.970, 2913.966
3007.899, 2882.501
3009.827, 2868.866
3011.756, 2869.383
3013.684, 2810.861
3015.613, 2779.874
3017.541, 2766.061
3019.470, 2742.375
3021.398, 2693.536
3023.327, 2674.797
3025.255, 2683.237
3027.184, 2681.659
3029.112, 2665.304
3031.041, 2642.581
3032.969, 2621.078
3034.897, 2623.120
3036.826, 2589.484
3038.754, 2542.107
3040.683, 2512.545
3042.611, 2510.080
3044.540, 2501.127
3046.468, 2484.230
3048.397, 2478.604
3050.325, 2426.950
3052.254, 2388.546
3054.182, 2386.900
3056.111, 2386.306
3058.039, 2353.635
3059.968, 2326.760
3061.896, 2331.179
3063.824, 2323.404
3065.753, 2287.932
3067.681, 2251.874
3069.610, 2253.032
3071.538, 2212.463
3073.467, 2193.489
3075.395, 2202.758
3077.324, 2216.303
3079.252, 2152.549
3081.181, 2109.429
3083.109, 2121.322
3085.038, 2126.023
3086.966, 2109.692
3088.895, 2093.373
3090.823, 2093.046
3092.751, 2105.254
3094.680, 2074.397
3096.608, 2032.302
3098.537, 2020.742
3100.465, 2012.965
3102.394, 1996.567
3104.322, 1968.033
3106.251, 1927.250
3108.179, 1916.839
3110.108, 1901.096
3112.036, 1880.946
3113.965, 1887.151
3115.893, 1855.820
3117.822, 1831.986
3119.750, 1825.677
3121.678, 1799.233
3123.607, 1783.488
3125.535, 1783.570
3127.464, 1787.429
3129.392, 1741.857
3131.321, 1736.883
3133.249, 1750.082
3135.178, 1756.668
3137.106, 1746.573
3139.035, 1723.109
3140.963, 1696.065
3142.892, 1673.564
3144.820, 1667.357
3146.749, 1643.409
3148.677, 1618.750
3150.605, 1612.276
3152.534, 1616.297
3154.462, 1611.736
3156.391, 1595.258
3158.319, 1569.334
3160.248, 1566.362
3162.176, 1568.550
3164.105, 1551.266
3166.033, 1502.082
3167.962, 1491.539
3169.890, 1483.035
3171.819, 1477.082
3173.747, 1480.242
3175.676, 1462.115
3177.604, 1453.630
3179.532, 1439.355
3181.461, 1402.525
3183.389, 1417.677
3185.318, 1395.684
3187.246, 1360.168
3189.175, 1352.230
3191.103, 1323.851
3193.032, 1308.088
3194.960, 1302.586
3196.889, 1298.291
3198.817, 1300.898
3200.746, 1265.917
3202.674, 1233.276
3204.603, 1237.811
3206.531, 1202.853
3208.459, 1189.827
3210.388, 1185.841
3212.316, 1171.802
3214.245, 1133.896
3216.173, 1137.737
3218.102, 1153.032
3220.030, 1153.993
3221.959, 1142.182
3223.887, 1105.857
3225.816, 1084.180
3227.744, 1092.934
3229.673, 1122.361
3231.601, 1106.069
3233.530, 1089.339
3235.458, 1082.574
3237.386, 1057.604
3239.315, 1048.633
3241.243, 1027.964
3243.172, 1008.014
3245.100, 1026.118
3247.029, 1035.705
3248.957, 1025.450
3250.886, 999.9398
3252.814, 966.1993
3254.743, 955.6547
3256.671, 969.6824
3258.600, 971.4264
3260.528, 940.7372
3262.457, 954.7814
3264.385, 943.7507
3266.313, 918.7977
3268.242, 893.9092
3270.170, 868.1085
3272.099, 896.0970
3274.027, 893.5268
3275.956, 863.7861
3277.884, 883.5562
3279.813, 889.1978
3281.741, 882.0522
3283.670, 873.9941
3285.598, 875.0282
3287.527, 877.7986
3289.455, 851.0975
3291.384, 834.8053
3293.312, 848.5651
3295.240, 830.7220
3297.169, 836.0668
3299.097, 841.4666
3301.026, 835.3112
3302.954, 822.6519
3304.883, 810.3848
3306.811, 795.6316
3308.740, 787.6379
3310.668, 796.4904
3312.597, 792.7891
3314.525, 775.4894
3316.454, 768.8288
3318.382, 776.7693
3320.311, 757.9408
3322.239, 748.1190
3324.167, 740.2310
3326.096, 733.9493
3328.024, 733.3910
3329.953, 704.4838
3331.881, 698.7056
3333.810, 711.5041
3335.738, 720.5998
3337.667, 688.6098
3339.595, 679.8247
3341.524, 673.1019
3343.452, 660.1481
3345.381, 647.6949
3347.309, 645.0262
3349.238, 652.1318
3351.166, 655.8612
3353.094, 647.3260
3355.023, 641.2115
3356.951, 613.9789
3358.880, 611.0378
3360.808, 632.1915
3362.737, 640.1064
3364.665, 636.2819
3366.594, 619.5294
3368.522, 618.2869
3370.451, 635.4404
3372.379, 598.6089
3374.308, 612.8900
3376.236, 615.9281
3378.165, 600.2939
3380.093, 593.8768
3382.021, 582.2927
3383.950, 594.8365
3385.878, 598.6167
3387.807, 581.5106
3389.735, 566.9548
3391.664, 559.2454
3393.592, 558.4608
3395.521, 565.5220
3397.449, 574.5831
3399.378, 547.1571
3401.306, 541.5416
3403.235, 533.7694
3405.163, 526.8617
3407.092, 541.9502
3409.020, 537.0585
3410.948, 540.0742
3412.877, 531.5412
3414.805, 511.3449
3416.734, 508.7507
3418.662, 506.3785
3420.591, 507.2628
3422.519, 510.7439
3424.448, 514.4235
3426.376, 515.1468
3428.305, 506.3054
3430.233, 512.3395
3432.162, 513.9559
3434.090, 493.3990
3436.019, 487.3907
3437.947, 504.3404
3439.875, 505.7688
3441.804, 491.3534
3443.732, 479.1305
3445.661, 475.3824
3447.589, 461.6140
3449.518, 455.1768
3451.446, 458.4884
##END=



