##NAMES=Strontiojoaquinite
##RRUFFID=R070084
##IDEAL CHEMISTRY=(Na,Fe)_2_Ba_2_Sr_2_Ti_2_(SiO_3_)_8_(O,OH)_2_·H_2_O
##LOCALITY=Clear Creek area, San Benito County, California, USA
##OWNER=RRUFF
##SOURCE=James Shigley
##DESCRIPTION=Yellow prismatic single crystals
##STATUS=The identification of this mineral is not yet confirmed
##URL=https://www.rruff.net/odr/rruff_sample/R070084
##FILETYPE=Raman RAW
##RAMAN WAVELENGTH=785

179.3162, 4795.652
181.2446, 4855.234
183.1731, 4916.686
185.1016, 4979.440
187.0300, 5046.099
188.9585, 5130.917
190.8870, 5215.175
192.8154, 5262.173
194.7439, 5274.953
196.6724, 5282.402
198.6008, 5285.036
200.5293, 5288.341
202.4578, 5300.210
204.3862, 5305.931
206.3147, 5286.935
208.2432, 5259.464
210.1716, 5249.119
212.1001, 5256.952
214.0286, 5269.310
215.9570, 5291.314
217.8855, 5309.644
219.8140, 5323.878
221.7424, 5331.867
223.6709, 5325.171
225.5994, 5313.834
227.5278, 5315.014
229.4563, 5327.472
231.3848, 5362.146
233.3132, 5427.000
235.2417, 5493.646
237.1702, 5547.586
239.0986, 5612.268
241.0271, 5704.601
242.9556, 5814.997
244.8840, 5933.144
246.8125, 6061.375
248.7410, 6158.754
250.6694, 6216.927
252.5979, 6277.898
254.5264, 6360.583
256.4548, 6436.018
258.3833, 6487.875
260.3118, 6527.235
262.2402, 6572.203
264.1687, 6612.828
266.0972, 6614.095
268.0256, 6572.583
269.9541, 6533.534
271.8826, 6502.501
273.8110, 6478.552
275.7395, 6465.858
277.6680, 6461.782
279.5964, 6459.329
281.5249, 6461.654
283.4534, 6478.824
285.3818, 6511.303
287.3103, 6526.693
289.2388, 6504.735
291.1672, 6492.518
293.0957, 6491.456
295.0242, 6511.263
296.9526, 6580.237
298.8811, 6652.692
300.8096, 6667.993
302.7380, 6635.134
304.6665, 6631.858
306.5950, 6688.384
308.5234, 6717.668
310.4519, 6702.077
312.3804, 6677.979
314.3088, 6649.076
316.2373, 6618.114
318.1658, 6599.032
320.0942, 6585.065
322.0227, 6553.199
323.9512, 6497.187
325.8796, 6457.805
327.8081, 6435.195
329.7366, 6431.863
331.6650, 6460.830
333.5935, 6489.559
335.5220, 6496.423
337.4504, 6496.612
339.3789, 6505.250
341.3074, 6517.715
343.2358, 6508.049
345.1643, 6475.457
347.0928, 6481.121
349.0212, 6548.041
350.9497, 6573.126
352.8782, 6509.220
354.8066, 6425.695
356.7351, 6335.701
358.6636, 6249.226
360.5920, 6176.332
362.5205, 6107.291
364.4490, 6030.879
366.3774, 5949.195
368.3059, 5857.995
370.2344, 5752.896
372.1628, 5652.741
374.0913, 5554.465
376.0198, 5466.655
377.9482, 5407.837
379.8767, 5358.202
381.8052, 5280.706
383.7336, 5191.723
385.6621, 5131.538
387.5906, 5101.369
389.5190, 5061.536
391.4475, 4994.851
393.3760, 4949.152
395.3044, 4943.427
397.2329, 4939.406
399.1614, 4916.524
401.0898, 4889.473
403.0183, 4877.927
404.9468, 4876.276
406.8752, 4870.203
408.8037, 4861.301
410.7322, 4867.825
412.6606, 4890.152
414.5891, 4927.981
416.5176, 4984.363
418.4460, 5035.377
420.3745, 5069.623
422.3030, 5110.538
424.2314, 5176.305
426.1599, 5266.336
428.0884, 5381.102
430.0168, 5502.414
431.9453, 5602.281
433.8738, 5680.933
435.8022, 5738.912
437.7307, 5775.702
439.6592, 5789.808
441.5876, 5768.029
443.5161, 5724.440
445.4446, 5665.075
447.3730, 5599.079
449.3015, 5531.411
451.2300, 5454.896
453.1584, 5368.608
455.0869, 5276.511
457.0154, 5180.198
458.9438, 5086.407
460.8723, 5003.248
462.8008, 4926.850
464.7292, 4859.875
466.6577, 4810.546
468.5862, 4768.297
470.5146, 4720.089
472.4431, 4672.800
474.3716, 4626.036
476.3000, 4598.479
478.2285, 4616.652
480.1570, 4652.717
482.0854, 4662.869
484.0139, 4646.426
485.9424, 4643.303
487.8708, 4672.120
489.7993, 4703.045
491.7278, 4713.483
493.6563, 4741.796
495.5847, 4797.019
497.5132, 4839.812
499.4417, 4870.175
501.3701, 4910.884
503.2986, 4961.561
505.2271, 5002.570
507.1555, 5025.847
509.0840, 5036.220
511.0125, 5044.806
512.9409, 5049.590
514.8694, 5018.085
516.7979, 4944.861
518.7263, 4878.530
520.6548, 4833.507
522.5833, 4781.138
524.5117, 4725.522
526.4402, 4656.692
528.3687, 4552.488
530.2971, 4458.190
532.2256, 4404.535
534.1541, 4354.383
536.0825, 4272.738
538.0110, 4189.785
539.9395, 4132.383
541.8679, 4089.939
543.7964, 4064.167
545.7249, 4052.097
547.6533, 4026.979
549.5818, 3981.286
551.5103, 3947.478
553.4387, 3935.835
555.3672, 3928.328
557.2957, 3921.441
559.2241, 3913.698
561.1526, 3908.386
563.0811, 3901.384
565.0095, 3880.688
566.9380, 3865.572
568.8665, 3873.630
570.7949, 3897.301
572.7234, 3929.248
574.6519, 3963.371
576.5803, 3981.996
578.5088, 3986.746
580.4373, 4016.694
582.3657, 4078.784
584.2942, 4149.239
586.2227, 4222.691
588.1511, 4303.462
590.0796, 4389.757
592.0081, 4482.131
593.9365, 4593.653
595.8650, 4707.556
597.7935, 4812.579
599.7219, 4899.245
601.6504, 4962.956
603.5789, 5024.569
605.5073, 5111.097
607.4358, 5204.857
609.3643, 5268.210
611.2927, 5300.512
613.2212, 5318.334
615.1497, 5334.664
617.0781, 5353.109
619.0066, 5367.380
620.9351, 5366.462
622.8635, 5348.295
624.7920, 5324.484
626.7205, 5300.193
628.6489, 5261.704
630.5774, 5199.367
632.5059, 5135.667
634.4343, 5075.673
636.3628, 5022.001
638.2913, 4977.838
640.2197, 4942.332
642.1482, 4909.814
644.0767, 4878.761
646.0051, 4855.484
647.9336, 4847.103
649.8621, 4851.753
651.7905, 4860.299
653.7190, 4873.570
655.6475, 4897.805
657.5759, 4932.467
659.5044, 4972.231
661.4329, 5037.920
663.3613, 5137.839
665.2898, 5226.825
667.2183, 5296.518
669.1467, 5360.647
671.0752, 5422.653
673.0037, 5479.190
674.9321, 5529.540
676.8606, 5573.323
678.7891, 5627.460
680.7175, 5653.227
682.6460, 5619.138
684.5745, 5559.253
686.5029, 5506.265
688.4314, 5442.389
690.3599, 5336.405
692.2883, 5202.460
694.2168, 5066.128
696.1453, 4930.293
698.0737, 4798.283
700.0022, 4672.368
701.9307, 4565.584
703.8591, 4478.611
705.7876, 4395.298
707.7161, 4313.837
709.6445, 4239.848
711.5730, 4179.741
713.5015, 4113.813
715.4299, 4025.701
717.3584, 3956.728
719.2869, 3928.914
721.2153, 3896.883
723.1438, 3838.545
725.0723, 3782.214
727.0007, 3747.753
728.9292, 3715.630
730.8577, 3668.570
732.7861, 3621.062
734.7146, 3588.897
736.6431, 3555.257
738.5715, 3503.766
740.5000, 3450.637
742.4285, 3414.064
744.3569, 3387.592
746.2854, 3359.359
748.2139, 3322.644
750.1423, 3275.539
752.0708, 3224.968
753.9993, 3181.439
755.9277, 3147.280
757.8562, 3120.020
759.7847, 3095.434
761.7131, 3069.197
763.6416, 3040.163
765.5701, 3018.484
767.4985, 3010.666
769.4270, 3003.806
771.3555, 2993.494
773.2839, 2974.558
775.2124, 2937.521
777.1409, 2916.469
779.0693, 2942.611
780.9978, 2955.583
782.9263, 2909.125
784.8547, 2874.078
786.7832, 2883.185
788.7117, 2888.340
790.6401, 2872.085
792.5686, 2853.539
794.4971, 2841.647
796.4255, 2832.295
798.3540, 2817.865
800.2825, 2809.258
802.2109, 2823.042
804.1394, 2833.567
806.0679, 2814.063
807.9963, 2788.137
809.9248, 2780.389
811.8533, 2778.133
813.7817, 2762.750
815.7102, 2747.203
817.6387, 2747.022
819.5671, 2746.040
821.4956, 2740.932
823.4241, 2745.396
825.3525, 2748.197
827.2810, 2740.189
829.2095, 2730.503
831.1379, 2724.181
833.0664, 2722.645
834.9949, 2721.370
836.9233, 2711.326
838.8518, 2698.704
840.7803, 2687.238
842.7087, 2668.677
844.6372, 2654.717
846.5657, 2654.228
848.4941, 2661.901
850.4226, 2673.379
852.3511, 2672.410
854.2795, 2652.071
856.2080, 2641.415
858.1365, 2655.792
860.0649, 2672.313
861.9934, 2679.458
863.9219, 2686.422
865.8503, 2696.748
867.7788, 2706.995
869.7073, 2713.623
871.6357, 2721.072
873.5642, 2738.556
875.4927, 2765.976
877.4211, 2790.103
879.3496, 2809.333
881.2781, 2838.652
883.2065, 2871.537
885.1350, 2899.779
887.0635, 2936.328
888.9919, 2975.957
890.9204, 2993.465
892.8489, 2994.686
894.7773, 2994.629
896.7058, 2988.925
898.6343, 2979.267
900.5627, 2978.624
902.4912, 2982.534
904.4197, 2972.290
906.3481, 2950.025
908.2766, 2920.030
910.2051, 2874.039
912.1335, 2831.071
914.0620, 2810.980
915.9905, 2798.210
917.9189, 2773.988
919.8474, 2738.741
921.7759, 2711.266
923.7043, 2709.560
925.6328, 2712.156
927.5613, 2682.850
929.4897, 2646.007
931.4182, 2643.070
933.3467, 2647.704
935.2751, 2639.990
937.2036, 2648.192
939.1321, 2658.209
941.0605, 2643.970
942.9890, 2619.958
944.9175, 2606.758
946.8459, 2622.434
948.7744, 2652.485
950.7029, 2660.460
952.6313, 2649.527
954.5598, 2662.021
956.4883, 2709.802
958.4167, 2745.172
960.3452, 2746.859
962.2737, 2759.453
964.2021, 2799.724
966.1306, 2823.042
968.0591, 2829.529
969.9875, 2839.422
971.9160, 2832.858
973.8445, 2813.557
975.7729, 2811.505
977.7014, 2813.655
979.6299, 2789.849
981.5583, 2757.434
983.4868, 2734.446
985.4153, 2707.421
987.3438, 2671.309
989.2722, 2638.325
991.2007, 2613.810
993.1292, 2593.733
995.0576, 2567.858
996.9861, 2548.142
998.9146, 2544.023
1000.843, 2541.247
1002.771, 2537.526
1004.700, 2540.041
1006.628, 2551.754
1008.557, 2557.149
1010.485, 2548.474
1012.414, 2553.315
1014.342, 2577.286
1016.271, 2597.882
1018.199, 2615.867
1020.128, 2630.180
1022.056, 2639.787
1023.985, 2660.127
1025.913, 2683.275
1027.842, 2696.322
1029.770, 2715.305
1031.698, 2748.561
1033.627, 2778.935
1035.555, 2793.077
1037.484, 2801.592
1039.412, 2818.917
1041.341, 2842.926
1043.269, 2867.533
1045.198, 2888.921
1047.126, 2897.367
1049.055, 2900.088
1050.983, 2922.313
1052.912, 2955.392
1054.840, 2971.840
1056.769, 2981.108
1058.697, 2992.891
1060.625, 2992.738
1062.554, 2966.941
1064.482, 2927.967
1066.411, 2905.138
1068.339, 2882.532
1070.268, 2820.968
1072.196, 2745.259
1074.125, 2688.040
1076.053, 2644.215
1077.982, 2605.052
1079.910, 2571.477
1081.839, 2547.228
1083.767, 2532.573
1085.696, 2533.290
1087.624, 2543.134
1089.552, 2550.347
1091.481, 2559.848
1093.409, 2579.645
1095.338, 2609.216
1097.266, 2651.260
1099.195, 2702.388
1101.123, 2760.413
1103.052, 2809.516
1104.980, 2840.863
1106.909, 2890.633
1108.837, 2965.292
1110.766, 3047.609
1112.694, 3145.923
1114.623, 3243.464
1116.551, 3340.827
1118.479, 3406.860
1120.408, 3445.271
1122.336, 3461.385
1124.265, 3450.632
1126.193, 3397.417
1128.122, 3307.873
1130.050, 3212.079
1131.979, 3107.828
1133.907, 3006.432
1135.836, 2910.179
1137.764, 2824.329
1139.693, 2753.972
1141.621, 2706.815
1143.550, 2677.948
1145.478, 2673.860
1147.406, 2677.666
1149.335, 2656.795
1151.263, 2634.742
1153.192, 2643.785
1155.120, 2657.437
1157.049, 2654.852
1158.977, 2649.857
1160.906, 2648.225
1162.834, 2649.237
1164.763, 2651.127
1166.691, 2661.128
1168.620, 2686.357
1170.548, 2703.961
1172.477, 2706.016
1174.405, 2710.059
1176.333, 2719.940
1178.262, 2724.064
1180.190, 2720.083
1182.119, 2736.084
1184.047, 2773.125
1185.976, 2787.713
1187.904, 2784.539
1189.833, 2827.537
1191.761, 2896.526
1193.690, 2911.243
1195.618, 2893.082
1197.547, 2884.794
1199.475, 2882.874
1201.404, 2882.735
1203.332, 2885.186
1205.260, 2895.835
1207.189, 2901.106
1209.117, 2891.738
1211.046, 2876.038
1212.974, 2850.754
1214.903, 2828.392
1216.831, 2820.115
1218.760, 2803.450
1220.688, 2771.952
1222.617, 2735.850
1224.545, 2696.458
1226.474, 2659.693
1228.402, 2625.474
1230.331, 2604.882
1232.259, 2595.649
1234.188, 2578.909
1236.116, 2556.124
1238.044, 2537.500
1239.973, 2523.737
1241.901, 2507.080
1243.830, 2492.081
1245.758, 2491.443
1247.687, 2493.482
1249.615, 2483.610
1251.544, 2476.010
1253.472, 2480.757
1255.401, 2493.725
1257.329, 2512.232
1259.258, 2533.684
1261.186, 2558.164
1263.115, 2589.496
1265.043, 2627.611
1266.971, 2655.978
1268.900, 2676.599
1270.828, 2718.162
1272.757, 2772.922
1274.685, 2785.938
1276.614, 2779.606
1278.542, 2823.075
1280.471, 2871.967
1282.399, 2861.991
1284.328, 2848.098
1286.256, 2872.301
1288.185, 2895.901
1290.113, 2906.365
1292.042, 2906.449
1293.970, 2884.743
1295.898, 2880.121
1297.827, 2910.075
1299.755, 2917.915
1301.684, 2901.393
1303.612, 2893.603
1305.541, 2891.819
1307.469, 2905.748
1309.398, 2922.474
1311.326, 2913.040
1313.255, 2895.664
1315.183, 2882.214
1317.112, 2872.954
1319.040, 2877.903
1320.969, 2883.170
1322.897, 2879.470
1324.825, 2868.451
1326.754, 2848.001
1328.682, 2843.762
1330.611, 2861.536
1332.539, 2861.376
1334.468, 2842.302
1336.396, 2810.636
1338.325, 2773.983
1340.253, 2762.333
1342.182, 2766.619
1344.110, 2783.683
1346.039, 2791.668
1347.967, 2765.669
1349.896, 2736.335
1351.824, 2709.097
1353.752, 2694.306
1355.681, 2701.522
1357.609, 2690.438
1359.538, 2655.515
1361.466, 2631.573
1363.395, 2620.241
1365.323, 2616.018
1367.252, 2611.918
1369.180, 2602.216
1371.109, 2584.972
1373.037, 2542.897
1374.966, 2505.499
1376.894, 2499.844
1378.823, 2494.637
1380.751, 2470.481
1382.679, 2474.473
1384.608, 2519.576
1386.536, 2526.013
1388.465, 2492.820
1390.393, 2462.858
1392.322, 2438.760
1394.250, 2419.237
1396.179, 2409.711
1398.107, 2427.924
1400.036, 2443.811
1401.964, 2430.990
1403.893, 2417.459
1405.821, 2405.482
1407.750, 2413.940
1409.678, 2453.806
1411.606, 2465.697
1413.535, 2450.920
1415.463, 2448.866
1417.392, 2456.438
1419.320, 2471.558
1421.249, 2481.750
1423.177, 2471.094
1425.106, 2455.375
1427.034, 2439.034
1428.963, 2429.311
1430.891, 2428.814
1432.820, 2435.328
1434.748, 2450.922
1436.677, 2447.775
1438.605, 2431.883
1440.533, 2437.805
1442.462, 2449.046
1444.390, 2439.321
1446.319, 2420.893
1448.247, 2390.959
1450.176, 2383.201
1452.104, 2422.180
1454.033, 2432.401
1455.961, 2396.446
1457.890, 2374.444
1459.818, 2366.074
1461.747, 2363.896
1463.675, 2364.732
1465.604, 2368.404
1467.532, 2363.550
1469.460, 2333.424
1471.389, 2311.407
1473.317, 2310.999
1475.246, 2306.961
1477.174, 2295.025
1479.103, 2285.397
1481.031, 2276.552
1482.960, 2252.795
1484.888, 2228.292
1486.817, 2231.098
1488.745, 2237.358
1490.674, 2228.198
1492.602, 2222.369
1494.531, 2227.839
1496.459, 2211.313
1498.387, 2171.037
1500.316, 2150.924
1502.244, 2147.142
1504.173, 2143.558
1506.101, 2141.809
1508.030, 2148.954
1509.958, 2150.229
1511.887, 2125.196
1513.815, 2122.901
1515.744, 2153.518
1517.672, 2171.327
1519.601, 2173.229
1521.529, 2153.177
1523.458, 2127.844
1525.386, 2123.236
1527.314, 2128.829
1529.243, 2144.179
1531.171, 2152.617
1533.100, 2147.185
1535.028, 2141.593
1536.957, 2136.743
1538.885, 2138.481
1540.814, 2140.842
1542.742, 2127.937
1544.671, 2110.763
1546.599, 2094.174
1548.528, 2085.667
1550.456, 2096.605
1552.385, 2097.423
1554.313, 2086.875
1556.241, 2050.779
1558.170, 2004.253
1560.098, 2001.362
1562.027, 2012.140
1563.955, 2013.389
1565.884, 2008.842
1567.812, 2000.081
1569.741, 1983.265
1571.669, 1955.396
1573.598, 1957.198
1575.526, 1975.107
1577.455, 1964.854
1579.383, 1945.034
1581.312, 1928.951
1583.240, 1917.583
1585.168, 1911.247
1587.097, 1911.897
1589.025, 1920.160
1590.954, 1909.449
1592.882, 1891.540
1594.811, 1900.754
1596.739, 1912.895
1598.668, 1907.015
1600.596, 1905.592
1602.525, 1918.144
1604.453, 1905.048
1606.382, 1867.860
1608.310, 1877.680
1610.239, 1906.598
1612.167, 1908.431
1614.095, 1898.255
1616.024, 1880.784
1617.952, 1867.639
1619.881, 1861.213
1621.809, 1850.460
1623.738, 1838.981
1625.666, 1851.032
1627.595, 1862.469
1629.523, 1840.152
1631.452, 1815.037
1633.380, 1796.029
1635.309, 1786.278
1637.237, 1784.513
1639.166, 1775.163
1641.094, 1758.939
1643.022, 1729.614
1644.951, 1708.237
1646.879, 1717.768
1648.808, 1722.031
1650.736, 1715.555
1652.665, 1699.267
1654.593, 1680.947
1656.522, 1692.819
1658.450, 1705.357
1660.379, 1684.305
1662.307, 1663.295
1664.236, 1654.994
1666.164, 1640.341
1668.093, 1621.440
1670.021, 1623.239
1671.949, 1633.209
1673.878, 1639.120
1675.806, 1636.978
1677.735, 1621.087
1679.663, 1604.709
1681.592, 1588.769
1683.520, 1575.686
1685.449, 1567.174
1687.377, 1573.825
1689.306, 1572.151
1691.234, 1536.943
1693.163, 1524.737
1695.091, 1548.345
1697.020, 1544.797
1698.948, 1525.574
1700.876, 1517.662
1702.805, 1511.370
1704.733, 1498.746
1706.662, 1494.436
1708.590, 1504.390
1710.519, 1496.647
1712.447, 1476.862
1714.376, 1456.609
1716.304, 1440.300
1718.233, 1429.031
1720.161, 1429.787
1722.090, 1445.551
1724.018, 1440.417
1725.947, 1420.223
1727.875, 1395.484
1729.803, 1377.969
1731.732, 1376.649
1733.660, 1378.629
1735.589, 1381.456
1737.517, 1386.467
1739.446, 1391.187
1741.374, 1391.572
1743.303, 1384.982
1745.231, 1364.587
1747.160, 1355.781
1749.088, 1361.915
1751.017, 1378.480
1752.945, 1391.054
1754.874, 1366.377
1756.802, 1337.819
1758.730, 1318.757
1760.659, 1320.127
1762.587, 1338.962
1764.516, 1337.167
1766.444, 1322.399
1768.373, 1297.785
1770.301, 1282.013
1772.230, 1285.396
1774.158, 1286.740
1776.087, 1284.413
1778.015, 1275.938
1779.944, 1266.646
1781.872, 1259.989
1783.801, 1260.178
1785.729, 1272.760
1787.657, 1253.853
1789.586, 1217.709
1791.514, 1208.679
1793.443, 1209.013
1795.371, 1211.606
1797.300, 1205.974
1799.228, 1190.422
1801.157, 1185.473
1803.085, 1186.663
1805.014, 1190.123
1806.942, 1188.203
1808.871, 1175.630
1810.799, 1162.114
1812.728, 1148.899
1814.656, 1142.083
1816.584, 1135.841
1818.513, 1123.349
1820.441, 1115.836
1822.370, 1116.651
1824.298, 1127.257
1826.227, 1136.161
1828.155, 1110.286
1830.084, 1086.371
1832.012, 1080.731
1833.941, 1079.020
1835.869, 1077.181
1837.798, 1056.599
1839.726, 1037.204
1841.655, 1037.112
1843.583, 1041.319
1845.511, 1047.512
1847.440, 1064.753
1849.368, 1076.500
1851.297, 1035.206
1853.225, 1004.150
1855.154, 1009.711
1857.082, 1008.950
1859.011, 1001.094
1860.939, 1004.618
1862.868, 1010.646
1864.796, 1015.567
1866.725, 1003.593
1868.653, 976.6573
1870.582, 975.9221
1872.510, 984.1375
1874.438, 980.3406
1876.367, 972.6956
1878.295, 962.3806
1880.224, 964.4009
1882.152, 969.4659
1884.081, 951.4977
1886.009, 935.7876
1887.938, 938.8906
1889.866, 939.1797
1891.795, 936.3894
1893.723, 943.0230
1895.652, 944.3471
1897.580, 916.7775
1899.509, 912.4199
1901.437, 933.3380
1903.365, 933.6448
1905.294, 921.9102
1907.222, 901.4335
1909.151, 888.9756
1911.079, 888.8132
1913.008, 892.1567
1914.936, 895.7346
1916.865, 892.2023
1918.793, 888.5497
1920.722, 890.2634
1922.650, 886.1032
1924.579, 879.2559
1926.507, 878.2740
1928.436, 879.8379
1930.364, 882.5848
1932.292, 883.7017
1934.221, 882.1566
1936.149, 867.7839
1938.078, 853.8741
1940.006, 847.6082
1941.935, 850.4749
1943.863, 857.3098
1945.792, 848.3077
1947.720, 836.7531
1949.649, 828.5542
1951.577, 829.9547
1953.506, 837.9042
1955.434, 829.1276
1957.363, 813.5268
1959.291, 794.3062
1961.219, 792.0680
1963.148, 806.6016
1965.076, 814.5996
1967.005, 816.6768
1968.933, 810.9519
1970.862, 807.8090
1972.790, 806.8509
1974.719, 793.8265
1976.647, 781.1694
1978.576, 782.8730
1980.504, 783.5856
1982.433, 781.1566
1984.361, 775.1386
1986.290, 766.7952
1988.218, 754.3636
1990.146, 748.7153
1992.075, 749.0409
1994.003, 740.0466
1995.932, 733.0729
1997.860, 742.5773
1999.789, 746.5861
2001.717, 742.8691
2003.646, 724.1937
2005.574, 711.7063
2007.503, 731.4785
2009.431, 737.7911
2011.360, 729.2486
2013.288, 717.8988
2015.217, 708.7264
2017.145, 707.8404
2019.073, 703.4418
2021.002, 697.3860
2022.930, 716.1877
2024.859, 727.9169
2026.787, 708.7443
2028.716, 697.5383
2030.644, 693.0852
2032.573, 683.6623
2034.501, 680.2076
2036.430, 690.6154
2038.358, 703.4306
2040.287, 708.7888
2042.215, 672.9743
2044.144, 651.0105
2046.072, 663.9976
2048.000, 669.6738
2049.929, 668.5949
2051.857, 658.9786
2053.786, 657.6951
2055.714, 667.6292
2057.643, 658.0189
2059.571, 643.5621
2061.500, 642.7429
2063.428, 637.3625
2065.357, 625.4045
2067.285, 626.3748
2069.214, 635.1257
2071.142, 647.2753
2073.071, 639.4255
2074.999, 620.3177
2076.927, 612.5685
2078.856, 612.6032
2080.784, 620.6942
2082.713, 617.5809
2084.641, 609.5693
2086.570, 611.3206
2088.498, 605.7379
2090.427, 588.6919
2092.355, 591.4933
2094.284, 601.3413
2096.212, 599.8828
2098.141, 600.4658
2100.069, 602.6603
2101.998, 593.1734
2103.926, 582.6884
2105.854, 578.4061
2107.783, 577.4932
2109.711, 580.7663
2111.640, 590.3547
2113.568, 584.8364
2115.497, 553.0137
2117.425, 551.4423
2119.354, 563.0593
2121.282, 565.8630
2123.211, 565.5640
2125.139, 563.9278
2127.068, 558.8103
2128.996, 553.4268
2130.925, 550.7184
2132.853, 546.2733
2134.781, 539.9993
2136.710, 538.9937
2138.638, 541.5315
2140.567, 543.2604
2142.495, 543.7865
2144.424, 538.0408
2146.352, 524.2972
2148.281, 519.4849
2150.209, 520.4518
2152.138, 519.0509
2154.066, 518.0370
2155.995, 517.0780
2157.923, 508.8042
2159.852, 502.6069
2161.780, 508.9544
2163.708, 517.1144
2165.637, 519.4474
2167.565, 500.9298
2169.494, 490.5421
2171.422, 499.8120
2173.351, 502.6764
2175.279, 501.3667
2177.208, 500.4625
2179.136, 492.4344
2181.065, 477.8246
2182.993, 475.0160
2184.922, 475.3896
2186.850, 470.1150
2188.779, 474.3605
2190.707, 485.1387
2192.635, 486.4374
2194.564, 478.4126
2196.492, 473.1591
2198.421, 469.2789
2200.349, 462.4021
2202.278, 459.3719
2204.206, 465.7478
2206.135, 472.4497
2208.063, 473.2833
2209.992, 465.6080
2211.920, 447.9054
2213.849, 446.5441
2215.777, 452.3658
2217.706, 452.9959
2219.634, 447.5716
2221.563, 443.6228
2223.491, 446.3552
2225.419, 439.9317
2227.348, 432.1665
2229.276, 435.0737
2231.205, 436.4392
2233.133, 437.3840
2235.062, 435.2055
2236.990, 430.2299
2238.919, 438.1368
2240.847, 430.1414
2242.776, 410.3980
2244.704, 425.0040
2246.633, 435.3273
2248.561, 424.3326
2250.490, 415.9989
2252.418, 414.1915
2254.346, 418.4604
2256.275, 411.7840
2258.203, 402.2039
2260.132, 402.2942
2262.060, 406.4210
2263.989, 407.0981
2265.917, 385.8258
2267.846, 381.1180
2269.774, 407.4156
2271.703, 400.6423
2273.631, 380.4631
2275.560, 384.6368
2277.488, 391.6356
2279.417, 396.1549
2281.345, 404.4477
2283.273, 398.8836
2285.202, 377.8174
2287.130, 374.9628
2289.059, 378.3036
2290.987, 381.1342
2292.916, 377.7585
2294.844, 372.8102
2296.773, 377.7946
2298.701, 379.8354
2300.630, 378.7877
2302.558, 367.9158
2304.487, 360.0646
2306.415, 361.2917
2308.344, 367.8973
2310.272, 370.2736
2312.200, 366.3792
2314.129, 363.5694
2316.057, 359.6865
2317.986, 360.7335
2319.914, 351.6459
2321.843, 342.0529
2323.771, 358.9685
2325.700, 363.3107
2327.628, 349.0576
2329.557, 347.2701
2331.485, 349.9004
2333.414, 351.3951
2335.342, 352.9389
2337.271, 344.5189
2339.199, 327.7331
2341.127, 330.6395
2343.056, 339.9458
2344.984, 337.0024
2346.913, 335.3842
2348.841, 334.2269
2350.770, 330.9268
2352.698, 324.3791
2354.627, 316.4940
2356.555, 325.6283
2358.484, 325.0627
2360.412, 311.9020
2362.341, 318.2229
2364.269, 324.0822
2366.198, 320.1642
2368.126, 318.2930
2370.054, 316.1879
2371.983, 309.4391
2373.911, 311.3683
2375.840, 314.6792
2377.768, 302.1028
2379.697, 300.5093
2381.625, 303.9882
2383.554, 290.0138
2385.482, 290.9481
2387.411, 304.5834
2389.339, 299.2337
2391.268, 294.0425
2393.196, 299.0029
2395.125, 296.0982
2397.053, 289.4102
2398.981, 284.2372
2400.910, 288.5260
2402.838, 292.0887
2404.767, 289.3576
2406.695, 288.3617
2408.624, 284.4401
2410.552, 270.4823
2412.481, 271.9990
2414.409, 281.2693
2416.338, 282.9153
2418.266, 281.0934
2420.195, 280.0959
2422.123, 286.1336
2424.052, 283.2108
2425.980, 273.1232
2427.908, 265.8203
2429.837, 266.5188
2431.765, 273.7712
2433.694, 269.9128
2435.622, 265.8676
2437.551, 265.2458
2439.479, 261.5892
2441.408, 258.1685
2443.336, 256.6356
2445.265, 252.2238
2447.193, 249.2267
2449.122, 250.7977
2451.050, 248.1606
2452.979, 248.0726
2454.907, 259.7068
2456.835, 260.3726
2458.764, 254.6857
2460.692, 250.1769
2462.621, 243.0793
2464.549, 236.3906
2466.478, 235.0908
2468.406, 237.9540
2470.335, 242.3677
2472.263, 245.0647
2474.192, 243.4184
2476.120, 238.5608
2478.049, 231.6275
2479.977, 226.9794
2481.906, 225.4135
2483.834, 225.7948
2485.762, 222.8741
2487.691, 219.6692
2489.619, 226.7241
2491.548, 230.6552
2493.476, 228.8110
2495.405, 222.7890
2497.333, 219.9241
2499.262, 223.8236
2501.190, 234.5840
2503.119, 237.9567
2505.047, 228.0083
2506.976, 218.2796
2508.904, 210.9071
2510.833, 202.9999
2512.761, 211.6282
2514.689, 218.4674
2516.618, 213.5787
2518.546, 211.6424
2520.475, 211.4180
2522.403, 205.3957
2524.332, 211.2793
2526.260, 216.9961
2528.189, 208.6371
2530.117, 215.8872
2532.046, 218.2517
2533.974, 207.1084
2535.903, 207.4077
2537.831, 204.1314
2539.760, 195.4005
2541.688, 203.0491
2543.616, 208.0880
2545.545, 205.0279
2547.473, 202.1250
2549.402, 199.4311
2551.330, 196.4413
2553.259, 196.4397
2555.187, 198.4856
2557.116, 194.4052
2559.044, 192.0045
2560.973, 194.4029
2562.901, 196.8058
2564.830, 194.7202
2566.758, 190.8355
2568.687, 183.4334
2570.615, 178.0386
2572.543, 175.5930
2574.472, 176.3932
2576.400, 181.7260
2578.329, 183.4404
2580.257, 180.5130
2582.186, 172.2810
2584.114, 174.4230
2586.043, 182.8736
2587.971, 178.5160
2589.900, 176.0841
2591.828, 172.7254
2593.757, 172.3542
2595.685, 177.9706
2597.614, 179.7282
2599.542, 172.2752
2601.470, 174.8685
2603.399, 175.3135
2605.327, 172.8833
2607.256, 166.6160
2609.184, 160.0130
2611.113, 158.4138
2613.041, 159.4715
2614.970, 162.2457
2616.898, 164.6955
2618.827, 165.2250
2620.755, 162.8826
2622.684, 168.7866
2624.612, 167.6800
2626.541, 157.8145
2628.469, 157.5183
2630.397, 158.0955
2632.326, 161.2534
2634.254, 159.4380
2636.183, 159.8308
2638.111, 157.2302
2640.040, 154.9260
2641.968, 158.0731
2643.897, 157.1709
2645.825, 157.0875
2647.754, 155.2334
2649.682, 147.7428
2651.611, 146.2006
2653.539, 147.4397
2655.468, 149.7437
2657.396, 144.9153
2659.324, 150.9715
2661.253, 157.3720
2663.181, 150.9125
2665.110, 144.2086
2667.038, 140.9246
2668.967, 134.5381
2670.895, 138.6404
2672.824, 144.6697
2674.752, 149.7060
2676.681, 149.4398
2678.609, 141.1965
2680.538, 132.3542
2682.466, 134.5508
2684.395, 140.6773
2686.323, 138.8869
2688.251, 125.6506
2690.180, 127.2682
2692.108, 139.9743
2694.037, 135.4045
2695.965, 122.5965
2697.894, 119.8079
2699.822, 129.0957
2701.751, 136.1491
2703.679, 132.8097
2705.608, 123.6260
2707.536, 118.7398
2709.465, 127.4147
2711.393, 126.5942
2713.322, 126.3797
2715.250, 131.0598
2717.178, 124.3404
2719.107, 123.8676
2721.035, 123.9011
2722.964, 117.3731
2724.892, 118.1307
2726.821, 120.7545
2728.749, 127.5961
2730.678, 128.9839
2732.606, 123.2646
2734.535, 117.3122
2736.463, 117.6161
2738.392, 118.3110
2740.320, 118.5997
2742.249, 117.3826
2744.177, 122.3511
2746.105, 124.2622
2748.034, 120.9337
2749.962, 118.3650
2751.891, 115.7508
2753.819, 114.4555
2755.748, 119.7831
2757.676, 114.2818
2759.605, 109.8421
2761.533, 118.9656
2763.462, 119.5853
2765.390, 114.1736
2767.319, 104.5741
2769.247, 97.29369
2771.176, 101.7827
2773.104, 106.6733
2775.032, 108.5885
2776.961, 111.5062
2778.889, 113.4740
2780.818, 112.7442
2782.746, 111.1409
2784.675, 106.4779
2786.603, 106.2681
2788.532, 102.0782
2790.460, 99.66428
2792.389, 99.27879
2794.317, 101.9872
2796.246, 95.16727
2798.174, 89.08446
2800.103, 95.93079
2802.031, 98.00717
2803.959, 98.34242
2805.888, 98.22358
2807.816, 95.73931
2809.745, 96.44089
2811.673, 95.94572
2813.602, 96.59194
2815.530, 94.59492
2817.459, 90.93530
2819.387, 90.69828
2821.316, 91.39870
2823.244, 91.89632
2825.173, 96.29456
2827.101, 91.51340
2829.030, 86.40742
2830.958, 86.67692
2832.886, 90.75565
2834.815, 86.09782
2836.743, 80.57335
2838.672, 88.47453
2840.600, 87.33836
2842.529, 83.39973
2844.457, 85.79975
2846.386, 86.08627
2848.314, 88.54836
2850.243, 89.13933
2852.171, 89.25339
2854.100, 84.69291
2856.028, 84.21095
2857.957, 93.33126
2859.885, 89.63866
2861.813, 87.89230
2863.742, 89.97020
2865.670, 89.39860
2867.599, 87.33421
2869.527, 84.58598
2871.456, 81.78088
2873.384, 80.85133
2875.313, 83.11050
2877.241, 86.07497
2879.170, 82.84747
2881.098, 81.18023
2883.027, 79.48271
2884.955, 76.01585
2886.884, 78.12318
2888.812, 78.59449
2890.740, 76.33823
2892.669, 74.48447
2894.597, 72.42844
2896.526, 72.86018
2898.454, 77.38697
2900.383, 83.56229
2902.311, 81.13770
2904.240, 74.50581
2906.168, 77.59543
2908.097, 75.69763
2910.025, 73.21858
2911.954, 74.07448
2913.882, 71.48256
2915.811, 71.99420
2917.739, 75.71721
2919.667, 76.78307
2921.596, 65.48701
2923.524, 60.63669
2925.453, 69.90901
2927.381, 72.69196
2929.310, 72.35122
2931.238, 69.83580
2933.167, 67.08045
2935.095, 72.69077
2937.024, 73.34795
2938.952, 66.82636
2940.881, 69.47959
2942.809, 68.31622
2944.738, 65.58683
2946.666, 67.36324
2948.594, 63.45641
2950.523, 62.00684
2952.451, 62.51556
2954.380, 66.41465
2956.308, 66.39439
2958.237, 63.35416
2960.165, 58.52385
2962.094, 66.04816
2964.022, 69.95020
2965.951, 67.46008
2967.879, 64.52583
2969.808, 56.23502
2971.736, 59.93734
2973.665, 69.98354
2975.593, 65.64407
2977.521, 63.06927
2979.450, 63.77837
2981.378, 66.80460
2983.307, 62.19363
2985.235, 57.02220
2987.164, 55.11113
2989.092, 57.70766
2991.021, 60.49872
2992.949, 60.61885
2994.878, 61.83637
2996.806, 60.37140
2998.735, 61.25597
3000.663, 63.36806
3002.592, 58.73997
3004.520, 53.32483
3006.448, 55.40829
3008.377, 56.74332
3010.305, 53.93707
3012.234, 53.98103
3014.162, 53.43610
3016.091, 52.78626
3018.019, 53.37778
3019.948, 55.26101
3021.876, 51.31400
3023.805, 44.27831
3025.733, 60.31266
3027.662, 56.48901
3029.590, 45.34713
3031.519, 43.73839
3033.447, 50.02187
3035.375, 54.34775
3037.304, 55.15888
3039.232, 44.65643
3041.161, 49.68798
3043.089, 48.66517
3045.018, 39.82189
3046.946, 50.20470
3048.875, 56.41740
3050.803, 58.18507
3052.732, 58.50198
3054.660, 52.23296
3056.589, 50.04637
3058.517, 45.88253
3060.446, 47.76967
3062.374, 54.38646
3064.302, 46.16093
3066.231, 44.19115
3068.159, 55.68898
3070.088, 48.24123
3072.016, 41.22165
3073.945, 42.62121
3075.873, 51.18216
3077.802, 50.45830
3079.730, 47.41426
3081.659, 44.89046
3083.587, 41.68863
3085.516, 42.70534
3087.444, 41.73281
3089.373, 35.84413
3091.301, 45.68049
3093.229, 48.07972
3095.158, 46.85623
3097.086, 43.34790
3099.015, 45.16704
3100.943, 41.16529
3102.872, 47.65513
3104.800, 53.40637
3106.729, 45.07270
3108.657, 47.59081
3110.586, 47.98583
3112.514, 42.60266
3114.443, 42.95632
3116.371, 41.96759
3118.300, 41.09505
3120.228, 39.84463
3122.156, 44.01674
3124.085, 41.60363
3126.013, 38.42642
3127.942, 40.55912
3129.870, 51.58058
3131.799, 46.67540
3133.727, 33.75452
3135.656, 30.79464
3137.584, 42.78968
3139.513, 38.67611
3141.441, 40.25591
3143.370, 48.09859
3145.298, 43.95401
3147.227, 47.60326
3149.155, 44.22466
3151.083, 34.18048
3153.012, 40.92381
3154.940, 38.28690
3156.869, 37.69997
3158.797, 37.48068
3160.726, 42.05204
3162.654, 44.04015
3164.583, 35.68209
3166.511, 33.79362
3168.440, 42.98463
3170.368, 41.49735
3172.297, 36.37867
3174.225, 32.17804
3176.154, 40.61333
3178.082, 43.75165
3180.010, 39.78787
3181.939, 35.59093
3183.867, 29.77506
3185.796, 32.66568
3187.724, 36.50131
3189.653, 39.37908
3191.581, 37.21154
3193.510, 37.59549
3195.438, 34.67943
3197.367, 35.67772
3199.295, 42.96909
3201.224, 42.21398
3203.152, 37.38403
3205.081, 34.17373
3207.009, 34.51831
3208.938, 32.10915
3210.866, 28.87191
3212.794, 30.45473
3214.723, 35.49628
3216.651, 35.64349
3218.580, 35.17962
3220.508, 35.02764
3222.437, 33.67733
3224.365, 33.17135
3226.294, 30.83246
3228.222, 36.67831
3230.151, 39.76873
3232.079, 36.54549
3234.008, 41.33194
3235.936, 40.05936
3237.865, 40.55903
3239.793, 45.01833
3241.721, 39.07297
3243.650, 43.66188
3245.578, 42.49609
3247.507, 34.20611
3249.435, 32.19480
3251.364, 31.09078
3253.292, 33.27932
3255.221, 38.47699
3257.149, 41.93198
3259.078, 41.57866
3261.006, 43.49751
3262.935, 46.02254
3264.863, 47.56140
3266.792, 49.61988
3268.720, 48.80500
3270.648, 44.27027
3272.577, 45.01579
3274.505, 52.62726
3276.434, 49.66484
3278.362, 45.36178
3280.291, 45.68080
3282.219, 48.37984
3284.148, 42.12570
3286.076, 46.79039
3288.005, 45.42728
3289.933, 43.17507
3291.862, 52.35040
3293.790, 48.83089
3295.719, 49.43272
3297.647, 49.59146
3299.575, 47.70279
3301.504, 51.87582
3303.432, 48.22435
3305.361, 45.04038
3307.289, 45.49648
3309.218, 50.21351
3311.146, 54.05302
3313.075, 45.36220
3315.003, 41.32283
3316.932, 46.80093
3318.860, 40.03391
3320.789, 39.45190
3322.717, 43.71344
3324.646, 43.49794
3326.574, 32.52706
3328.502, 41.12653
3330.431, 46.51543
3332.359, 46.60759
3334.288, 42.87781
3336.216, 37.30401
3338.145, 41.39228
3340.073, 34.34827
3342.002, 28.56106
3343.930, 34.68389
3345.859, 40.33846
3347.787, 40.63775
3349.716, 38.58550
3351.644, 41.64144
3353.573, 52.75935
3355.501, 43.29802
3357.429, 35.71758
3359.358, 33.51530
3361.286, 36.22096
3363.215, 43.21824
3365.143, 38.19011
3367.072, 29.98288
3369.000, 26.56103
3370.929, 27.85163
3372.857, 21.49448
3374.786, 27.47938
3376.714, 26.43663
3378.643, 26.96032
3380.571, 36.95446
3382.500, 33.70323
3384.428, 29.70174
3386.356, 33.15681
3388.285, 35.47408
3390.213, 27.34001
3392.142, 33.34774
3394.070, 32.95850
3395.999, 27.89754
3397.927, 25.85449
3399.856, 33.62373
3401.784, 22.41950
3403.713, 21.49263
3405.641, 26.50866
3407.570, 28.39013
3409.498, 21.66534
3411.427, 20.24486
3413.355, 19.61309
3415.283, 22.47166
3417.212, 26.89165
3419.140, 26.91023
3421.069, 15.06365
3422.997, 27.81650
3424.926, 35.88051
3426.854, 27.19937
3428.783, 17.00306
3430.711, 24.53586
3432.640, 26.51090
3434.568, 19.07394
3436.497, 14.70500
3438.425, 29.91165
3440.354, 26.92222
3442.282, 22.39851
3444.210, 19.58938
3446.139, 16.30103
3448.067, 11.23627
3449.996, 26.68747
3451.924, 24.17516
3453.853, 15.48008
3455.781, 13.02936
3457.710, 19.00843
3459.638, 9.862635
3461.567, 19.02569
3463.495, 19.03564
3465.424, 13.78124
3467.352, 19.51609
3469.281, 20.33767
3471.209, 24.40870
3473.137, 24.07404
3475.066, 19.82409
3476.994, 17.18660
3478.923, 29.24369
3480.851, 20.78708
3482.780, 21.56856
3484.708, 23.17290
3486.637, 17.59558
3488.565, 15.96873
3490.494, 14.06968
3492.422, 15.03335
3494.351, 14.39905
3496.279, 13.01468
3498.208, 16.67852
3500.136, 24.14246
3502.064, 17.32667
3503.993, 20.33158
3505.921, 26.17040
3507.850, 21.58377
3509.778, 30.67745
3511.707, 29.93833
3513.635, 25.09290
3515.564, 19.63709
3517.492, 17.34543
3519.421, 22.82586
3521.349, 16.82276
3523.278, 19.77323
3525.206, 20.86934
3527.135, 18.54074
3529.063, 18.49235
3530.991, 18.94140
3532.920, 14.62133
3534.848, 16.83126
3536.777, 23.39984
3538.705, 24.94865
3540.634, 13.37009
3542.562, 26.79172
3544.491, 23.34858
3546.419, 15.19739
3548.348, 12.70579
3550.276, 15.62279
3552.205, 15.19939
3554.133, 21.12244
3556.062, 18.35696
3557.990, 15.98274
3559.918, 16.29404
3561.847, 10.53307
3563.775, 14.38412
3565.704, 17.74908
3567.632, 17.44063
3569.561, 20.78740
3571.489, 24.18069
3573.418, 4.504170
3575.346, 11.73727
3577.275, 16.16239
3579.203, 15.28586
3581.132, 18.77950
3583.060, 25.95732
3584.989, 10.87138
3586.917, 18.09356
3588.845, 18.20844
3590.774, 15.07470
3592.702, 14.82366
3594.631, 15.59355
3596.559, 6.056049
3598.488, 16.65057
3600.416, 15.23305
3602.345, 10.37153
3604.273, 11.21054
3606.202, 16.54250
3608.130, 19.38406
3610.059, 18.77752
3611.987, 21.39582
3613.916, 18.82035
3615.844, 13.65714
3617.772, 12.63516
3619.701, 1.889844
3621.629, 16.32492
3623.558, 17.47846
3625.486, 4.046956
3627.415, -2.270995
3629.343, 10.67503
3631.272, 15.56620
3633.200, 15.01873
3635.129, 10.86660
3637.057, 18.61714
3638.986, 22.11969
3640.914, 8.931481
3642.843, 14.56608
3644.771, 24.08641
3646.699, 22.12764
3648.628, 14.29272
3650.556, 6.816931
3652.485, 5.683496
3654.413, 17.07554
3656.342, 11.66539
3658.270, 19.50649
3660.199, 19.84175
3662.127, 20.26674
3664.056, 23.27400
3665.984, 18.53333
3667.913, 14.10567
3669.841, 13.46266
3671.770, 14.60195
3673.698, 5.141143
3675.626, -8.0504507E-02
3677.555, 10.86628
3679.483, 11.34320
3681.412, 13.17291
3683.340, 11.38438
3685.269, 15.77575
3687.197, 15.17990
3689.126, 8.673777
3691.054, 10.13095
3692.983, 18.33521
3694.911, 15.43863
3696.840, 10.46623
3698.768, 12.83615
3700.697, 13.13907
3702.625, 6.807666
3704.553, 8.978231
3706.482, 16.82905
3708.410, 9.716423
3710.339, 14.20549
3712.267, 9.801802
3714.196, 0.1973564
3716.124, 5.015811
3718.053, 17.32282
3719.981, 11.95642
3721.910, 13.96253
3723.838, 6.738345
3725.767, 4.314629
3727.695, 10.31599
3729.624, 12.22320
3731.552, 8.043250
3733.480, 11.28294
3735.409, 1.052420
3737.337, 4.077928
3739.266, 8.689921
3741.194, 10.17957
3743.123, 16.06713
3745.051, 13.21249
3746.980, 10.51361
3748.908, 7.179111
3750.837, 15.14844
3752.765, 11.86213
3754.694, 7.297966
3756.622, 18.79093
3758.551, 14.98404
3760.479, 15.48189
3762.407, 15.90343
3764.336, 9.236024
3766.264, 7.783516
3768.193, 8.295568
3770.121, 6.317243
3772.050, 13.13829
3773.978, 13.66186
3775.907, 14.62920
3777.835, 6.264844
3779.764, 13.08238
3781.692, 21.29496
3783.621, 14.41998
3785.549, 1.842631
3787.478, 9.307043
3789.406, 2.738516
3791.334, 9.529736
3793.263, 2.869629
3795.191, 1.537941
3797.120, 7.170211
3799.048, 5.934449
3800.977, 2.082460
3802.905, 15.80348
3804.834, 15.38125
3806.762, 3.408201
3808.691, 5.250062
3810.619, 11.42305
3812.548, 13.27400
3814.476, 13.51217
3816.405, 9.361685
3818.333, 5.797889
3820.261, 12.12425
3822.190, 6.352472
3824.118, 4.073787
3826.047, 7.369698
3827.975, 8.034757
3829.904, 3.941154
3831.832, 2.035069
3833.761, 3.297944
3835.689, 5.711233
3837.618, 16.14885
3839.546, 13.26635
3841.475, 8.285726
3843.403, 9.188344
3845.332, 8.712859
3847.260, 4.217475
3849.188, 6.219147
3851.117, 10.20307
3853.045, 9.479434
3854.974, 9.820557
3856.902, 8.508731
3858.831, 7.063890
3860.759, 9.473749
3862.688, 14.90512
3864.616, 19.19638
3866.545, 10.83455
3868.473, 9.440948
3870.402, 4.815260
3872.330, 13.88231
3874.259, 15.06636
3876.187, 6.716092
3878.115, 6.149338
3880.044, -0.7769786
3881.972, 2.200156
3883.901, 7.033013
3885.829, -0.1079978
3887.758, 8.298186
3889.686, 8.908294
3891.615, 3.919628
3893.543, 4.358845
3895.472, 5.019744
3897.400, 2.538054
3899.329, -7.513353
3901.257, -1.5249450E-02
3903.186, 0.3807148
3905.114, 6.450963
3907.042, 6.437687
3908.971, 1.689350
3910.899, 2.356642
3912.828, 8.021290
3914.756, 8.942912
3916.685, 10.52399
3918.613, 16.40316
3920.542, 5.526591
3922.470, 11.20347
3924.399, -0.7512797
3926.327, -2.258859
3928.256, 5.119894
3930.184, 4.556605
3932.113, 15.31040
3934.041, 22.29535
3935.969, 14.56973
3937.898, 0.4865518
3939.826, 7.888700
3941.755, 9.084592
3943.683, 6.173823
3945.612, 0.7527186
3947.540, 2.566661
3949.469, 14.92800
3951.397, 18.23908
3953.326, 9.323896
3955.254, 19.86401
3957.183, 10.04646
3959.111, 5.711166
3961.040, 11.08753
3962.968, 6.626554
3964.896, 3.038564
3966.825, 8.538507
3968.753, 10.55746
3970.682, 2.421344
3972.610, 5.929132
3974.539, 9.386232
3976.467, 3.800855
3978.396, -3.249251
3980.324, 6.794404
3982.253, 4.780697
3984.181, 0.9430146
3986.110, 6.706722
3988.038, 11.43954
3989.967, 8.056670
3991.895, 5.903858
3993.823, 3.819799
3995.752, 12.09770
3997.680, 16.30088
3999.609, 4.662662
4001.537, 7.057585
4003.466, 7.034577
4005.394, 11.59096
4007.323, 14.26641
4009.251, 9.965472
4011.180, 8.008142
4013.108, 10.03462
4015.037, 3.385972
4016.965, 6.171370
4018.894, 0.3469792
4020.822, 4.129555
4022.750, 11.71367
4024.679, 11.57822
4026.607, 10.83338
4028.536, 4.321892
4030.464, 2.233118
4032.393, 6.916022
4034.321, 3.917717
4036.250, -2.145690
4038.178, 10.17896
4040.107, -0.9969115
4042.035, 13.40069
4043.964, 13.38451
4045.892, 18.86045
4047.821, 9.502242
4049.749, 6.293193
4051.677, 8.990601
4053.606, 3.398172
4055.534, 0.1213411
4057.463, 3.861829
4059.391, 1.479966
4061.320, -0.8180107
4063.248, 4.062209
4065.177, 3.8860809E-02
4067.105, 6.003921
4069.034, 0.4604204
4070.962, -3.169012
4072.891, 7.239284
4074.819, 7.988215
4076.748, -3.507397
4078.676, -1.325752
4080.604, 7.753106
4082.533, 6.169663
4084.461, 1.841807
4086.390, 1.512324
4088.318, -2.543710
4090.247, 13.64814
4092.175, 6.038624
4094.104, 5.326692
4096.032, 3.999152
4097.961, 7.540346
4099.889, 7.310522
4101.818, 9.864646
4103.746, 9.250225
4105.675, 1.805666
4107.603, -4.051645
4109.532, -5.554791
4111.460, -6.095695
4113.389, 2.016855
4115.317, 20.31418
4117.246, 18.91446
4119.174, 3.906945
4121.103, -8.045797
4123.031, 4.359758
4124.959, 9.997206
4126.888, 10.25872
4128.816, 3.734560
4130.745, 17.27921
4132.673, 14.50102
4134.602, 12.19309
4136.530, 3.343255
4138.458, -3.503058
4140.387, 3.558876
4142.315, 9.496121
4144.244, 7.917869
4146.172, 9.370615
4148.101, 10.31164
4150.029, 12.16654
4151.958, 2.460513
4153.886, 2.727467
4155.815, 11.25883
4157.743, 5.074418
4159.672, 5.498558
4161.600, 19.61835
4163.529, 11.62811
4165.457, 6.170469
4167.386, -2.068110
4169.314, 5.956810
4171.243, -0.9502643
4173.171, 7.401693
4175.100, 14.95760
4177.028, 5.054918
4178.957, 3.953720
4180.885, 8.889919
4182.813, 7.723071
4184.742, 3.585993
4186.670, 2.672015
4188.599, -4.347935
4190.527, -5.448271
4192.456, 11.29224
4194.384, -0.8643987
4196.313, 0.3792410
4198.241, 3.459862
4200.169, 7.336446
4202.098, 3.914123
4204.026, 5.670308
4205.955, 6.726914
4207.883, -0.6590892
4209.812, -2.101706
4211.740, 8.784027
4213.669, 7.782567
4215.597, 3.773042
4217.526, 7.656934
4219.454, 7.911504
4221.383, 6.635360
4223.311, 4.540296
4225.240, 5.496562
4227.168, 18.74560
4229.097, 10.23423
4231.025, 2.329490
4232.954, 8.912690
4234.882, 6.210893
4236.811, 13.71491
4238.739, 0.8389577
4240.667, -1.644839
4242.596, 10.33672
4244.524, 0.4092441
4246.453, -0.6276194
4248.381, 3.957380
4250.310, 9.224152
4252.238, 16.11098
4254.167, 9.456439
4256.095, 2.744916
4258.023, 12.98990
4259.952, 13.11412
4261.880, 3.525981
4263.809, 6.297913
4265.737, -0.4140342
4267.666, 6.582792
4269.594, 7.676765
4271.523, 5.361917
4273.451, 7.419146
4275.380, 9.344168
4277.308, 6.459960
4279.237, 5.217824
4281.165, 2.594754
4283.094, -1.342861
4285.022, 3.156172
4286.951, -0.8153040
4288.879, 11.91612
4290.808, 15.39982
4292.736, 9.284450
4294.665, 14.46055
4296.593, 6.105705
4298.521, 3.926267
4300.450, 17.61101
4302.378, 14.32375
4304.307, 2.754108
4306.235, 14.75527
4308.164, 3.029423
4310.092, 6.337021
4312.021, 3.329778
4313.949, 4.518280
4315.877, 27.10265
4317.806, 6.078482
4319.734, -0.6756588
4321.663, -0.7137082
4323.591, 7.951406
4325.520, -7.073737
4327.448, -3.513176
4329.377, 22.12107
4331.305, 7.229317
4333.234, 1.873608
4335.162, 7.036431
4337.091, 5.835178
4339.019, -2.730162
4340.948, 13.24528
4342.876, 10.40413
4344.805, 4.571861
4346.733, 2.394955
4348.662, 3.045262
4350.590, 2.844232
4352.519, 7.450273
4354.447, 1.183112
4356.375, 5.938776
4358.304, 11.56057
4360.232, 11.26790
4362.161, 7.511006
4364.089, 1.626183
4366.018, 7.061308
4367.946, 3.254398
4369.875, 17.01219
4371.803, 5.674034
4373.731, 0.5749416
4375.660, 4.534778
4377.588, 10.14130
4379.517, 14.61050
4381.445, 10.59459
##END=



