##NAMES=Stutzite
##RRUFFID=R060332
##IDEAL CHEMISTRY=Ag_5-x_Te_3_ (x = 0.24-0.36)
##LOCALITY=Bambollita mine, Moctezuma District, Sonora, Mexico
##OWNER=RRUFF
##SOURCE=Michael Scott
##DESCRIPTION=Dark lead gray metallic massive
##STATUS=The identification of this mineral is not yet confirmed
##URL=https://www.rruff.net/odr/rruff_sample/R060332
##FILETYPE=Raman Processed
##RAMAN WAVELENGTH=532

95.17188, 286.4956
97.10034, 294.5139
99.02881, 304.1134
100.9573, 321.0094
102.8857, 339.8881
104.8142, 359.9433
106.7427, 382.5126
108.6711, 404.5967
110.5996, 426.5367
112.5281, 449.0283
114.4565, 469.0070
116.3850, 487.5162
118.3135, 504.0617
120.2419, 517.8180
122.1704, 528.5228
124.0989, 538.9631
126.0273, 549.3736
127.9558, 559.4912
129.8843, 569.7731
131.8127, 578.9894
133.7412, 588.2822
135.6697, 598.3761
137.5981, 609.3763
139.5266, 620.5601
141.4551, 631.8527
143.3835, 643.2047
145.3120, 653.8895
147.2405, 663.1274
149.1689, 671.7489
151.0974, 681.0367
153.0259, 692.1181
154.9543, 703.0991
156.8828, 713.0600
158.8113, 721.8815
160.7397, 730.7069
162.6682, 739.1980
164.5967, 747.5674
166.5251, 756.9624
168.4536, 769.1363
170.3821, 780.5266
172.3105, 789.4505
174.2390, 794.9681
176.1675, 799.6353
178.0959, 804.0463
180.0244, 808.0553
181.9529, 811.2174
183.8813, 812.9870
185.8098, 814.4751
187.7383, 816.4246
189.6667, 820.4744
191.5952, 823.5635
193.5237, 825.5927
195.4521, 826.6403
197.3806, 826.5186
199.3091, 823.8999
201.2375, 820.8236
203.1660, 818.9711
205.0945, 818.5634
207.0229, 818.8636
208.9514, 820.1761
210.8799, 822.4412
212.8083, 823.7288
214.7368, 823.7196
216.6653, 822.7811
218.5938, 821.0967
220.5222, 817.9835
222.4507, 815.5756
224.3792, 814.5221
226.3076, 815.0892
228.2361, 816.3324
230.1646, 819.2821
232.0930, 822.4637
234.0215, 824.2474
235.9500, 823.8066
237.8784, 823.1032
239.8069, 822.4846
241.7354, 821.7479
243.6638, 822.1989
245.5923, 825.1820
247.5208, 828.8824
249.4492, 831.3615
251.3777, 831.6376
253.3062, 831.5212
255.2346, 831.5135
257.1631, 831.6595
259.0916, 831.2832
261.0200, 828.9359
262.9485, 826.4871
264.8770, 826.3010
266.8054, 831.1282
268.7339, 835.6302
270.6624, 838.5208
272.5908, 839.9188
274.5193, 840.4600
276.4478, 839.5783
278.3762, 838.0320
280.3047, 836.6519
282.2332, 835.4474
284.1616, 834.3400
286.0901, 833.6168
288.0186, 833.2809
289.9470, 832.1089
291.8755, 828.2366
293.8040, 824.2537
295.7324, 823.6141
297.6609, 827.8676
299.5894, 831.8161
301.5178, 833.6395
303.4463, 833.2751
305.3748, 833.0848
307.3032, 833.1105
309.2317, 833.2820
311.1602, 833.5364
313.0886, 833.8489
315.0171, 834.2386
316.9456, 834.7743
318.8740, 835.4427
320.8025, 835.8716
322.7310, 835.4886
324.6594, 835.2459
326.5879, 836.0060
328.5164, 838.4149
330.4448, 839.5854
332.3733, 838.0677
334.3018, 834.5335
336.2302, 832.7249
338.1587, 833.7455
340.0872, 835.4704
342.0156, 837.1478
343.9441, 839.1940
345.8726, 840.2595
347.8010, 839.4575
349.7295, 837.8065
351.6580, 837.5460
353.5864, 839.4078
355.5149, 841.4212
357.4434, 842.5981
359.3718, 842.3265
361.3003, 842.7215
363.2288, 844.6287
365.1572, 846.6898
367.0857, 847.2542
369.0142, 845.5990
370.9426, 844.0133
372.8711, 843.1356
374.7996, 843.0616
376.7280, 843.5049
378.6565, 845.5820
380.5850, 847.4603
382.5134, 847.5453
384.4419, 844.7580
386.3704, 843.5389
388.2988, 845.8804
390.2273, 850.7871
392.1558, 853.6696
394.0842, 853.2639
396.0127, 852.2794
397.9412, 851.5830
399.8696, 850.8583
401.7981, 851.4993
403.7266, 854.9364
405.6550, 859.1068
407.5835, 860.6447
409.5120, 858.2748
411.4404, 855.8561
413.3689, 854.5379
415.2974, 854.3265
417.2258, 855.1623
419.1543, 858.6093
421.0828, 862.1238
423.0112, 863.4476
424.9397, 862.1216
426.8682, 861.5929
428.7966, 863.5632
430.7251, 867.0936
432.6536, 869.3937
434.5820, 869.0589
436.5105, 868.9193
438.4390, 869.9961
440.3674, 872.1278
442.2959, 874.8853
444.2244, 879.1779
446.1528, 883.4432
448.0813, 885.9448
450.0098, 884.6046
451.9382, 884.4449
453.8667, 887.3203
455.7952, 892.1673
457.7236, 896.2555
459.6521, 899.5822
461.5806, 902.1324
463.5090, 903.6902
465.4375, 904.1158
467.3660, 905.1419
469.2944, 907.3783
471.2229, 910.2127
473.1514, 912.8560
475.0798, 914.3815
477.0083, 916.5231
478.9368, 920.2593
480.8652, 924.8597
482.7937, 927.0455
484.7222, 924.4178
486.6506, 921.7811
488.5791, 922.0306
490.5076, 927.4474
492.4360, 930.1824
494.3645, 929.1686
496.2930, 926.2015
498.2214, 923.1254
500.1499, 919.2792
502.0784, 916.9621
504.0068, 917.4246
505.9353, 920.1154
507.8638, 921.5524
509.7922, 920.2050
511.7207, 918.8099
513.6492, 919.3424
515.5776, 921.7975
517.5061, 922.5246
519.4346, 918.9844
521.3630, 914.5409
523.2915, 912.2044
525.2200, 913.1946
527.1484, 914.8135
529.0769, 917.1819
531.0054, 919.9679
532.9338, 922.5298
534.8623, 924.9121
536.7908, 926.7175
538.7192, 927.5267
540.6477, 927.0677
542.5762, 927.2108
544.5046, 928.2350
546.4331, 929.7191
548.3616, 931.6593
550.2900, 934.5609
552.2185, 936.3919
554.1470, 936.1834
556.0754, 935.0316
558.0039, 934.8994
559.9324, 935.6981
561.8608, 937.3033
563.7893, 940.4328
565.7178, 944.4727
567.6462, 946.9606
569.5747, 945.7811
571.5032, 944.4650
573.4316, 944.4684
575.3601, 945.9888
577.2886, 947.5154
579.2170, 949.5001
581.1455, 951.3068
583.0740, 952.4130
585.0024, 952.3680
586.9309, 952.9429
588.8594, 955.2557
590.7878, 958.1885
592.7163, 959.2137
594.6448, 956.7303
596.5732, 955.2547
598.5017, 956.5443
600.4302, 960.1924
602.3586, 963.7258
604.2871, 967.3641
606.2156, 970.5485
608.1440, 973.0768
610.0725, 975.0189
612.0010, 976.3757
613.9294, 976.4470
615.8579, 976.7547
617.7864, 978.3915
619.7148, 982.1131
621.6433, 986.0881
623.5718, 990.7094
625.5002, 995.2767
627.4287, 998.5576
629.3572, 999.6071
631.2856, 1001.432
633.2141, 1006.232
635.1426, 1012.589
637.0710, 1015.702
638.9995, 1012.027
640.9280, 1008.911
642.8564, 1008.650
644.7849, 1010.922
646.7134, 1013.623
648.6418, 1017.440
650.5703, 1020.840
652.4988, 1023.002
654.4272, 1023.466
656.3557, 1024.149
658.2842, 1024.880
660.2126, 1025.920
662.1411, 1028.015
664.0696, 1031.563
665.9980, 1033.569
667.9265, 1031.075
669.8550, 1027.740
671.7834, 1027.450
673.7119, 1033.607
675.6404, 1038.890
677.5688, 1042.354
679.4973, 1044.643
681.4258, 1047.145
683.3542, 1050.070
685.2827, 1052.433
687.2112, 1053.396
689.1396, 1053.307
691.0681, 1054.399
692.9966, 1058.293
694.9250, 1061.755
696.8535, 1063.735
698.7820, 1064.503
700.7104, 1064.891
702.6389, 1064.054
704.5674, 1063.964
706.4958, 1065.719
708.4243, 1069.845
710.3528, 1073.140
712.2813, 1075.708
714.2097, 1077.289
716.1382, 1076.982
718.0667, 1074.705
719.9951, 1073.795
721.9236, 1077.017
723.8521, 1080.721
725.7805, 1082.211
727.7090, 1078.987
729.6375, 1077.738
731.5659, 1080.043
733.4944, 1083.629
735.4229, 1085.622
737.3513, 1085.328
739.2798, 1086.203
741.2083, 1090.201
743.1367, 1095.481
745.0652, 1099.480
746.9937, 1100.885
748.9221, 1102.297
750.8506, 1103.715
752.7791, 1105.232
754.7075, 1107.082
756.6360, 1109.434
758.5645, 1111.946
760.4929, 1114.769
762.4214, 1117.856
764.3499, 1120.823
766.2783, 1124.492
768.2068, 1127.132
770.1353, 1127.039
772.0637, 1125.266
773.9922, 1125.757
775.9207, 1130.260
777.8491, 1133.888
779.7776, 1133.980
781.7061, 1131.038
783.6345, 1130.172
785.5630, 1134.267
787.4915, 1137.660
789.4199, 1138.169
791.3484, 1136.304
793.2769, 1135.152
795.2053, 1135.012
797.1338, 1135.329
799.0623, 1136.033
800.9907, 1137.107
802.9192, 1137.516
804.8477, 1136.723
806.7761, 1135.870
808.7046, 1134.978
810.6331, 1134.278
812.5615, 1135.419
814.4900, 1139.910
816.4185, 1144.630
818.3469, 1147.996
820.2754, 1149.984
822.2039, 1151.895
824.1323, 1152.700
826.0608, 1154.210
827.9893, 1157.551
829.9177, 1162.758
831.8462, 1167.013
833.7747, 1170.017
835.7031, 1172.366
837.6316, 1174.935
839.5601, 1177.684
841.4885, 1178.259
843.4170, 1173.195
845.3455, 1169.038
847.2739, 1169.297
849.2024, 1174.238
851.1309, 1176.260
853.0593, 1171.548
854.9878, 1167.807
856.9163, 1169.877
858.8447, 1176.615
860.7732, 1181.525
862.7017, 1182.950
864.6301, 1183.578
866.5586, 1184.444
868.4871, 1185.594
870.4155, 1186.111
872.3440, 1186.200
874.2725, 1185.559
876.2009, 1183.147
878.1294, 1179.631
880.0579, 1177.638
881.9863, 1178.003
883.9148, 1178.921
885.8433, 1180.583
887.7717, 1182.615
889.7002, 1181.754
891.6287, 1174.643
893.5571, 1168.726
895.4856, 1166.205
897.4141, 1166.610
899.3425, 1168.410
901.2710, 1172.960
903.1995, 1176.411
905.1279, 1176.644
907.0564, 1174.832
908.9849, 1174.134
910.9133, 1175.404
912.8418, 1176.595
914.7703, 1176.672
916.6987, 1176.487
918.6272, 1178.151
920.5557, 1182.592
922.4841, 1186.017
924.4126, 1187.124
926.3411, 1186.798
928.2695, 1185.867
930.1980, 1183.749
932.1265, 1182.774
934.0549, 1183.673
935.9834, 1185.592
937.9119, 1187.606
939.8403, 1189.628
941.7688, 1191.775
943.6973, 1194.071
945.6257, 1196.325
947.5542, 1198.518
949.4827, 1200.671
951.4111, 1202.169
953.3396, 1201.381
955.2681, 1201.220
957.1965, 1203.949
959.1250, 1210.459
961.0535, 1214.387
962.9819, 1214.385
964.9104, 1213.321
966.8389, 1211.279
968.7673, 1208.922
970.6958, 1209.763
972.6243, 1216.853
974.5527, 1222.758
976.4812, 1224.167
978.4097, 1222.026
980.3381, 1220.577
982.2666, 1220.286
984.1951, 1220.329
986.1235, 1220.607
988.0520, 1221.215
989.9805, 1222.415
991.9089, 1224.508
993.8374, 1226.099
995.7659, 1225.860
997.6943, 1225.351
999.6228, 1226.405
1001.551, 1229.620
1003.480, 1231.945
1005.408, 1231.780
1007.337, 1231.565
1009.265, 1233.329
1011.194, 1237.766
1013.122, 1241.275
1015.051, 1243.843
1016.979, 1245.732
1018.907, 1247.173
1020.836, 1248.185
1022.764, 1248.150
1024.693, 1245.086
1026.621, 1244.120
1028.550, 1247.762
1030.478, 1254.681
1032.407, 1260.660
1034.335, 1264.923
1036.264, 1268.763
1038.192, 1272.138
1040.121, 1275.029
1042.049, 1277.469
1043.978, 1279.493
1045.906, 1280.899
1047.834, 1280.813
1049.763, 1280.915
1051.691, 1283.061
1053.620, 1287.741
1055.548, 1290.269
1057.477, 1289.140
1059.405, 1287.219
1061.334, 1284.637
1063.262, 1281.812
1065.191, 1282.502
1067.119, 1289.279
1069.048, 1295.658
1070.976, 1299.854
1072.905, 1302.206
1074.833, 1303.190
1076.761, 1302.119
1078.690, 1301.393
1080.618, 1301.596
1082.547, 1302.365
1084.475, 1303.610
1086.404, 1305.734
1088.332, 1307.586
1090.261, 1308.406
1092.189, 1310.058
1094.118, 1314.851
1096.046, 1322.089
1097.975, 1325.314
1099.903, 1321.946
1101.832, 1318.800
1103.760, 1318.183
1105.688, 1319.431
1107.617, 1321.928
1109.545, 1326.362
1111.474, 1329.898
1113.402, 1330.978
1115.331, 1331.702
1117.259, 1333.856
1119.188, 1337.876
1121.116, 1341.112
1123.045, 1343.883
1124.973, 1345.452
1126.902, 1345.006
1128.830, 1343.103
1130.759, 1341.361
1132.687, 1338.968
1134.615, 1339.170
1136.544, 1346.487
1138.472, 1355.461
1140.401, 1358.946
1142.329, 1354.700
1144.258, 1353.268
1146.186, 1357.590
1148.115, 1362.977
1150.043, 1366.843
1151.972, 1369.137
1153.900, 1371.568
1155.829, 1375.004
1157.757, 1377.561
1159.686, 1378.493
1161.614, 1378.380
1163.542, 1377.970
1165.471, 1377.040
1167.399, 1377.344
1169.328, 1379.718
1171.256, 1383.241
1173.185, 1388.257
1175.113, 1395.112
1177.042, 1398.521
1178.970, 1394.459
1180.899, 1391.337
1182.827, 1390.547
1184.756, 1392.154
1186.684, 1396.946
1188.613, 1406.665
1190.541, 1414.594
1192.469, 1419.826
1194.398, 1422.853
1196.326, 1423.374
1198.255, 1421.890
1200.183, 1421.166
1202.112, 1421.412
1204.040, 1423.303
1205.969, 1428.191
1207.897, 1434.717
1209.826, 1439.962
1211.754, 1443.297
1213.683, 1446.371
1215.611, 1448.445
1217.540, 1450.677
1219.468, 1454.140
1221.396, 1458.791
1223.325, 1462.294
1225.253, 1462.523
1227.182, 1464.603
1229.110, 1472.792
1231.039, 1482.692
1232.967, 1487.329
1234.896, 1486.006
1236.824, 1485.903
1238.753, 1487.796
1240.681, 1492.307
1242.610, 1501.672
1244.538, 1514.848
1246.467, 1522.406
1248.395, 1518.683
1250.323, 1517.878
1252.252, 1525.049
1254.180, 1534.591
1256.109, 1539.981
1258.037, 1539.615
1259.966, 1540.948
1261.894, 1546.426
1263.823, 1550.906
1265.751, 1552.012
1267.680, 1550.779
1269.608, 1549.234
1271.537, 1546.832
1273.465, 1547.147
1275.394, 1554.238
1277.322, 1561.494
1279.250, 1563.887
1281.179, 1562.065
1283.107, 1561.781
1285.036, 1563.585
1286.964, 1566.312
1288.893, 1570.355
1290.821, 1574.373
1292.750, 1576.239
1294.678, 1574.005
1296.607, 1576.063
1298.535, 1587.493
1300.464, 1597.370
1302.392, 1599.608
1304.321, 1597.634
1306.249, 1600.111
1308.177, 1608.302
1310.106, 1615.208
1312.034, 1619.913
1313.963, 1622.410
1315.891, 1620.722
1317.820, 1616.718
1319.748, 1617.282
1321.677, 1624.907
1323.605, 1632.280
1325.534, 1636.677
1327.462, 1640.659
1329.391, 1646.592
1331.319, 1654.706
1333.248, 1660.994
1335.176, 1662.488
1337.104, 1664.850
1339.033, 1669.279
1340.961, 1674.755
1342.890, 1680.467
1344.818, 1687.381
1346.747, 1690.953
1348.675, 1688.413
1350.604, 1686.392
1352.532, 1688.798
1354.461, 1693.565
1356.389, 1696.236
1358.318, 1696.660
1360.246, 1697.215
1362.175, 1697.071
1364.103, 1698.490
1366.031, 1703.142
1367.960, 1709.976
1369.888, 1717.155
1371.817, 1724.928
1373.745, 1731.471
1375.674, 1735.219
1377.602, 1738.661
1379.531, 1742.719
1381.459, 1747.547
1383.388, 1754.370
1385.316, 1765.794
1387.245, 1774.486
1389.173, 1777.537
1391.102, 1779.281
1393.030, 1782.941
1394.958, 1788.433
1396.887, 1793.512
1398.815, 1797.938
1400.744, 1802.642
1402.672, 1806.376
1404.601, 1811.528
1406.529, 1821.363
1408.458, 1835.118
1410.386, 1846.070
1412.315, 1853.370
1414.243, 1858.905
1416.172, 1861.004
1418.100, 1863.330
1420.029, 1870.151
1421.957, 1880.759
1423.885, 1889.240
1425.814, 1894.965
1427.742, 1899.599
1429.671, 1902.634
1431.599, 1905.674
1433.528, 1909.734
1435.456, 1914.708
1437.385, 1921.297
1439.313, 1932.161
1441.242, 1939.540
1443.170, 1939.577
1445.099, 1937.033
1447.027, 1936.813
1448.956, 1939.146
1450.884, 1937.689
1452.813, 1927.144
1454.741, 1920.174
1456.669, 1920.879
1458.598, 1924.039
1460.526, 1925.803
1462.455, 1926.054
1464.383, 1923.647
1466.312, 1916.095
1468.240, 1910.117
1470.169, 1908.587
1472.097, 1907.819
1474.026, 1904.816
1475.954, 1900.245
1477.883, 1896.616
1479.811, 1893.964
1481.740, 1893.203
1483.668, 1896.354
1485.596, 1899.793
1487.525, 1899.608
1489.453, 1897.336
1491.382, 1898.434
1493.310, 1903.988
1495.239, 1907.309
1497.167, 1905.517
1499.096, 1902.556
1501.024, 1901.575
1502.953, 1901.335
1504.881, 1897.633
1506.810, 1889.457
1508.738, 1884.092
1510.667, 1883.230
1512.595, 1884.921
1514.523, 1890.474
1516.452, 1897.000
1518.380, 1898.568
1520.309, 1892.943
1522.237, 1891.303
1524.166, 1898.614
1526.094, 1904.263
1528.023, 1904.673
1529.951, 1902.773
1531.880, 1901.932
1533.808, 1902.343
1535.737, 1902.874
1537.665, 1904.287
1539.594, 1904.814
1541.522, 1902.875
1543.450, 1900.893
1545.379, 1900.775
1547.307, 1902.269
1549.236, 1904.354
1551.164, 1908.273
1553.093, 1910.094
1555.021, 1907.696
1556.950, 1905.104
1558.878, 1904.551
1560.807, 1905.653
1562.735, 1907.554
1564.664, 1910.488
1566.592, 1912.955
1568.521, 1915.697
1570.449, 1916.336
1572.377, 1911.559
1574.306, 1905.280
1576.234, 1902.686
1578.163, 1903.395
1580.091, 1904.508
1582.020, 1907.115
1583.948, 1907.504
1585.877, 1902.756
1587.805, 1897.491
1589.734, 1895.291
1591.662, 1895.276
1593.591, 1895.189
1595.519, 1894.887
1597.448, 1894.114
1599.376, 1892.839
1601.304, 1890.594
1603.233, 1887.419
1605.161, 1882.822
1607.090, 1875.325
1609.018, 1865.177
1610.947, 1857.308
1612.875, 1852.316
1614.804, 1849.735
1616.732, 1850.195
1618.661, 1852.288
1620.589, 1856.408
1622.518, 1861.194
1624.446, 1861.700
1626.375, 1856.984
1628.303, 1851.732
1630.231, 1844.806
1632.160, 1840.573
1634.088, 1843.136
1636.017, 1848.090
1637.945, 1849.064
1639.874, 1846.140
1641.802, 1846.320
1643.731, 1852.409
1645.659, 1855.283
1647.588, 1849.318
1649.516, 1842.654
1651.445, 1840.443
1653.373, 1841.025
1655.302, 1839.558
1657.230, 1835.468
1659.158, 1834.126
1661.087, 1839.520
1663.015, 1842.169
1664.944, 1835.156
1666.872, 1827.728
1668.801, 1829.406
1670.729, 1838.617
1672.658, 1843.581
1674.586, 1843.071
1676.515, 1842.538
1678.443, 1843.634
1680.372, 1844.093
1682.300, 1840.788
1684.229, 1837.927
1686.157, 1841.852
1688.085, 1852.710
1690.014, 1859.211
1691.942, 1858.431
1693.871, 1858.843
1695.799, 1862.776
1697.728, 1866.756
1699.656, 1869.599
1701.585, 1871.325
1703.513, 1871.823
1705.442, 1871.145
1707.370, 1870.486
1709.299, 1869.763
1711.227, 1869.861
1713.156, 1872.434
1715.084, 1874.380
1717.012, 1871.576
1718.941, 1867.608
1720.869, 1871.644
1722.798, 1885.535
1724.726, 1892.109
1726.655, 1886.011
1728.583, 1881.035
1730.512, 1881.062
1732.440, 1882.296
1734.369, 1882.520
1736.297, 1882.291
1738.226, 1882.931
1740.154, 1884.529
1742.083, 1885.914
1744.011, 1886.790
1745.939, 1887.626
1747.868, 1888.666
1749.796, 1889.557
1751.725, 1889.806
1753.653, 1890.078
1755.582, 1892.309
1757.510, 1896.896
1759.439, 1898.749
1761.367, 1895.331
1763.296, 1893.870
1765.224, 1896.848
1767.153, 1901.211
1769.081, 1906.427
1771.010, 1911.143
1772.938, 1913.021
1774.866, 1912.154
1776.795, 1909.080
1778.723, 1902.377
1780.652, 1898.691
1782.580, 1901.881
1784.509, 1905.998
1786.437, 1908.239
1788.366, 1909.188
1790.294, 1908.868
1792.223, 1907.537
1794.151, 1908.415
1796.080, 1912.359
1798.008, 1915.155
1799.937, 1914.998
1801.865, 1914.808
1803.793, 1915.580
1805.722, 1917.387
1807.650, 1921.756
1809.579, 1927.248
1811.507, 1927.646
1813.436, 1921.855
1815.364, 1918.530
1817.293, 1918.798
1819.221, 1922.562
1821.150, 1934.121
1823.078, 1945.339
1825.007, 1948.425
1826.935, 1946.577
1828.864, 1947.139
1830.792, 1950.041
1832.720, 1953.295
1834.649, 1956.905
1836.577, 1959.859
1838.506, 1961.649
1840.434, 1962.797
1842.363, 1963.213
1844.291, 1963.435
1846.220, 1964.841
1848.148, 1967.249
1850.077, 1966.804
1852.005, 1960.843
1853.934, 1959.295
1855.862, 1967.822
1857.791, 1974.207
1859.719, 1973.007
1861.647, 1970.273
1863.576, 1970.618
1865.504, 1973.427
1867.433, 1977.621
1869.361, 1983.984
1871.290, 1985.983
1873.218, 1977.652
1875.147, 1974.211
1877.075, 1980.847
1879.004, 1987.729
1880.932, 1991.292
1882.861, 1992.729
1884.789, 1992.078
1886.718, 1990.432
1888.646, 1994.036
1890.574, 2004.355
1892.503, 2010.950
1894.431, 2011.332
1896.360, 2011.053
1898.288, 2012.376
1900.217, 2012.189
1902.145, 2005.303
1904.074, 1998.213
1906.002, 2002.114
1907.931, 2013.977
1909.859, 2018.092
1911.788, 2012.667
1913.716, 2010.898
1915.645, 2016.998
1917.573, 2022.117
1919.501, 2021.909
1921.430, 2020.837
1923.358, 2021.251
1925.287, 2022.767
1927.215, 2025.910
1929.144, 2030.169
1931.072, 2030.056
1933.001, 2023.120
1934.929, 2021.046
1936.858, 2028.311
1938.786, 2035.546
1940.715, 2041.811
1942.643, 2046.035
1944.572, 2046.374
1946.500, 2044.860
1948.428, 2043.761
1950.357, 2043.256
1952.285, 2046.617
1954.214, 2056.853
1956.142, 2060.617
1958.071, 2051.999
1959.999, 2045.880
1961.928, 2047.234
1963.856, 2049.786
1965.785, 2050.886
1967.713, 2051.462
1969.642, 2052.813
1971.570, 2054.821
1973.499, 2056.458
1975.427, 2057.825
1977.355, 2059.664
1979.284, 2061.764
1981.212, 2065.126
1983.141, 2070.925
1985.069, 2076.009
1986.998, 2078.386
1988.926, 2079.292
1990.855, 2079.264
1992.783, 2078.722
1994.712, 2079.055
1996.640, 2080.427
1998.569, 2080.938
2000.497, 2080.656
2002.426, 2080.336
2004.354, 2081.422
2006.282, 2080.920
2008.211, 2075.490
2010.139, 2071.178
2012.068, 2072.656
2013.996, 2076.569
2015.925, 2078.576
2017.853, 2079.006
2019.782, 2079.145
2021.710, 2078.789
2023.639, 2082.860
2025.567, 2094.674
2027.496, 2100.285
2029.424, 2091.503
2031.353, 2084.742
2033.281, 2088.286
2035.209, 2095.347
2037.138, 2102.352
2039.066, 2108.681
2040.995, 2113.750
2042.923, 2117.420
2044.852, 2118.016
2046.780, 2114.447
2048.709, 2113.269
2050.637, 2117.730
2052.566, 2119.706
2054.494, 2115.627
2056.423, 2112.467
2058.351, 2114.278
2060.280, 2116.959
2062.208, 2116.932
2064.136, 2115.843
2066.065, 2116.549
2067.993, 2118.819
2069.922, 2120.784
2071.850, 2122.235
2073.779, 2124.285
2075.707, 2127.484
2077.636, 2128.632
2079.564, 2125.642
2081.493, 2122.726
2083.421, 2123.037
2085.350, 2123.030
2087.278, 2117.875
2089.207, 2112.676
2091.135, 2117.027
2093.063, 2127.883
2094.992, 2130.733
2096.920, 2123.654
2098.849, 2120.340
2100.777, 2123.335
2102.706, 2124.334
2104.634, 2118.610
2106.563, 2117.503
2108.491, 2129.090
2110.420, 2139.587
2112.348, 2141.219
2114.277, 2139.604
2116.205, 2139.334
2118.134, 2139.929
2120.062, 2140.244
2121.990, 2140.414
2123.919, 2142.190
2125.847, 2146.001
2127.776, 2147.285
2129.704, 2142.888
2131.633, 2141.653
2133.561, 2148.370
2135.490, 2153.273
2137.418, 2153.303
2139.347, 2150.268
2141.275, 2142.264
2143.204, 2134.642
2145.132, 2135.667
2147.061, 2141.920
2148.989, 2143.327
2150.917, 2140.689
2152.846, 2139.097
2154.774, 2138.401
2156.703, 2142.551
2158.631, 2154.321
2160.560, 2161.327
2162.488, 2157.500
2164.417, 2152.828
2166.345, 2151.276
2168.274, 2149.671
2170.202, 2145.710
2172.131, 2141.775
2174.059, 2140.156
2175.988, 2140.823
2177.916, 2143.890
2179.844, 2149.084
2181.773, 2153.745
2183.701, 2157.674
2185.630, 2160.622
2187.558, 2162.414
2189.487, 2162.367
2191.415, 2158.959
2193.344, 2156.820
2195.272, 2157.810
2197.201, 2160.109
2199.129, 2164.693
2201.058, 2168.592
2202.986, 2168.978
2204.915, 2167.881
2206.843, 2168.722
2208.771, 2170.287
2210.700, 2167.286
2212.628, 2159.964
2214.557, 2159.283
2216.485, 2165.726
2218.414, 2172.187
2220.342, 2178.438
2222.271, 2181.121
2224.199, 2176.402
2226.128, 2174.892
2228.056, 2185.158
2229.985, 2192.972
2231.913, 2189.712
2233.842, 2184.535
2235.770, 2185.661
2237.698, 2188.143
2239.627, 2183.520
2241.555, 2175.788
2243.484, 2175.674
2245.412, 2181.981
2247.341, 2187.360
2249.269, 2191.646
2251.198, 2194.711
2253.126, 2196.490
2255.055, 2198.319
2256.983, 2201.675
2258.912, 2202.311
2260.840, 2195.370
2262.769, 2191.283
2264.697, 2196.767
2266.625, 2201.627
2268.554, 2198.568
2270.482, 2194.219
2272.411, 2194.231
2274.339, 2196.510
2276.268, 2197.870
2278.196, 2199.259
2280.125, 2203.739
2282.053, 2210.522
2283.982, 2215.656
2285.910, 2219.176
2287.839, 2219.350
2289.767, 2213.752
2291.696, 2211.421
2293.624, 2214.435
2295.552, 2217.518
2297.481, 2220.999
2299.409, 2222.844
2301.338, 2220.321
2303.266, 2219.262
2305.195, 2223.293
2307.123, 2228.583
2309.052, 2234.509
2310.980, 2238.481
2312.909, 2236.901
2314.837, 2231.937
2316.766, 2225.388
2318.694, 2218.998
2320.623, 2219.586
2322.551, 2226.975
2324.479, 2234.989
2326.408, 2244.076
2328.336, 2246.007
2330.265, 2238.911
2332.193, 2236.097
2334.122, 2240.469
2336.050, 2244.523
2337.979, 2247.206
2339.907, 2248.030
2341.836, 2244.993
2343.764, 2242.938
2345.693, 2244.625
2347.621, 2246.929
2349.550, 2247.438
2351.478, 2248.433
2353.406, 2253.408
2355.335, 2258.404
2357.263, 2256.992
2359.192, 2253.148
2361.120, 2254.744
2363.049, 2259.762
2364.977, 2261.729
2366.906, 2260.731
2368.834, 2257.466
2370.763, 2251.321
2372.691, 2247.499
2374.620, 2246.058
2376.548, 2248.546
2378.477, 2256.866
2380.405, 2260.878
2382.333, 2256.278
2384.262, 2254.801
2386.190, 2263.239
2388.119, 2269.354
2390.047, 2267.650
2391.976, 2265.175
2393.904, 2262.688
2395.833, 2263.005
2397.761, 2270.967
2399.690, 2278.995
2401.618, 2279.901
2403.547, 2278.450
2405.475, 2279.699
2407.404, 2281.835
2409.332, 2281.163
2411.260, 2279.474
2413.189, 2282.596
2415.117, 2289.327
2417.046, 2291.974
2418.974, 2290.820
2420.903, 2288.858
2422.831, 2286.142
2424.760, 2285.522
2426.688, 2286.862
2428.617, 2292.064
2430.545, 2303.740
2432.474, 2309.405
2434.402, 2302.307
2436.331, 2298.062
2438.259, 2300.036
2440.188, 2302.563
2442.116, 2305.295
2444.044, 2308.336
2445.973, 2312.250
2447.901, 2315.632
2449.830, 2315.859
2451.758, 2317.232
2453.687, 2324.841
2455.615, 2330.855
2457.544, 2327.182
2459.472, 2320.869
2461.401, 2318.554
2463.329, 2318.608
2465.258, 2321.395
2467.186, 2323.957
2469.115, 2318.656
2471.043, 2310.705
2472.971, 2313.134
2474.900, 2322.222
2476.828, 2322.564
2478.757, 2315.412
2480.685, 2315.972
2482.614, 2323.878
2484.542, 2329.406
2486.471, 2332.448
2488.399, 2334.674
2490.328, 2336.510
2492.256, 2334.630
2494.185, 2326.141
2496.113, 2322.588
2498.042, 2326.791
2499.970, 2330.395
2501.898, 2332.469
2503.827, 2334.983
2505.755, 2339.395
2507.684, 2340.731
2509.612, 2335.718
2511.541, 2332.374
2513.469, 2335.985
2515.398, 2338.301
2517.326, 2332.991
2519.255, 2330.915
2521.183, 2339.293
2523.112, 2347.730
2525.040, 2350.810
2526.969, 2352.567
2528.897, 2357.050
2530.825, 2359.578
2532.754, 2354.043
2534.682, 2348.251
2536.611, 2350.482
2538.539, 2355.531
2540.468, 2358.160
2542.396, 2359.296
2544.325, 2359.877
2546.253, 2359.673
2548.182, 2357.014
2550.110, 2354.307
2552.039, 2357.920
2553.967, 2364.674
2555.896, 2365.208
2557.824, 2362.111
2559.752, 2365.033
2561.681, 2371.861
2563.609, 2374.148
2565.538, 2372.994
2567.466, 2375.604
2569.395, 2381.653
2571.323, 2386.080
2573.252, 2388.983
2575.180, 2390.920
2577.109, 2391.974
2579.037, 2392.583
2580.966, 2392.690
2582.894, 2391.390
2584.823, 2387.987
2586.751, 2389.535
2588.679, 2400.052
2590.608, 2402.446
2592.536, 2393.558
2594.465, 2390.782
2596.393, 2396.525
2598.322, 2399.197
2600.250, 2396.014
2602.179, 2396.150
2604.107, 2404.814
2606.036, 2407.646
2607.964, 2397.240
2609.893, 2394.202
2611.821, 2403.425
2613.750, 2410.141
2615.678, 2410.554
2617.606, 2411.967
2619.535, 2417.209
2621.463, 2421.598
2623.392, 2424.753
2625.320, 2425.292
2627.249, 2420.172
2629.177, 2418.068
2631.106, 2422.923
2633.034, 2426.541
2634.963, 2424.871
2636.891, 2424.216
2638.820, 2427.053
2640.748, 2430.996
2642.677, 2437.602
2644.605, 2441.099
2646.533, 2437.015
2648.462, 2434.287
2650.390, 2438.858
2652.319, 2441.557
2654.247, 2436.843
2656.176, 2432.049
2658.104, 2428.974
2660.033, 2429.457
2661.961, 2438.355
2663.890, 2444.361
2665.818, 2438.922
2667.747, 2433.876
2669.675, 2435.778
2671.604, 2438.565
2673.532, 2438.710
2675.460, 2439.106
2677.389, 2441.774
2679.317, 2444.451
2681.246, 2445.330
2683.174, 2447.117
2685.103, 2453.410
2687.031, 2458.385
2688.960, 2458.616
2690.888, 2456.854
2692.817, 2450.932
2694.745, 2449.027
2696.674, 2458.916
2698.602, 2468.946
2700.531, 2470.633
2702.459, 2471.849
2704.387, 2478.644
2706.316, 2483.731
2708.244, 2481.445
2710.173, 2478.371
2712.101, 2479.902
2714.030, 2479.449
2715.958, 2467.061
2717.887, 2460.980
2719.815, 2480.166
2721.744, 2496.367
2723.672, 2490.831
2725.601, 2484.333
2727.529, 2489.803
2729.458, 2492.928
2731.386, 2479.912
2733.314, 2471.706
2735.243, 2486.002
2737.171, 2497.024
2739.100, 2490.741
2741.028, 2484.827
2742.957, 2489.984
2744.885, 2493.643
2746.814, 2487.323
2748.742, 2483.089
2750.671, 2485.625
2752.599, 2492.271
2754.528, 2505.006
2756.456, 2515.657
2758.385, 2520.565
2760.313, 2522.529
2762.241, 2519.978
2764.170, 2517.867
2766.098, 2517.918
2768.027, 2517.254
2769.955, 2514.221
2771.884, 2513.121
2773.812, 2517.974
2775.741, 2520.877
2777.669, 2520.201
2779.598, 2517.508
2781.526, 2510.824
2783.455, 2510.210
2785.383, 2521.016
2787.312, 2527.081
2789.240, 2519.551
2791.168, 2517.130
2793.097, 2524.719
2795.025, 2524.882
2796.954, 2512.955
2798.882, 2511.591
2800.811, 2528.196
2802.739, 2536.711
2804.668, 2530.236
2806.596, 2527.240
2808.525, 2528.238
2810.453, 2529.313
2812.382, 2530.109
2814.310, 2531.135
2816.239, 2532.323
2818.167, 2535.025
2820.095, 2539.895
2822.024, 2538.852
2823.952, 2532.695
2825.881, 2533.311
2827.809, 2539.862
2829.738, 2541.334
2831.666, 2538.161
2833.595, 2535.021
2835.523, 2532.445
2837.452, 2534.602
2839.380, 2539.735
2841.309, 2542.780
2843.237, 2544.035
2845.166, 2542.330
2847.094, 2539.885
2849.022, 2543.067
2850.951, 2547.247
2852.879, 2542.724
2854.808, 2535.798
2856.736, 2533.546
2858.665, 2535.355
2860.593, 2544.506
2862.522, 2553.143
2864.450, 2552.977
2866.379, 2550.046
2868.307, 2547.111
2870.236, 2545.865
2872.164, 2548.212
2874.093, 2551.851
2876.021, 2557.878
2877.949, 2561.033
2879.878, 2555.321
2881.806, 2552.354
2883.735, 2559.948
2885.663, 2565.050
2887.592, 2562.494
2889.520, 2561.114
2891.449, 2563.663
2893.377, 2564.473
2895.306, 2558.720
2897.234, 2559.723
2899.163, 2572.360
2901.091, 2575.701
2903.020, 2567.034
2904.948, 2562.802
2906.876, 2565.338
2908.805, 2565.740
2910.733, 2563.348
2912.662, 2563.531
2914.590, 2565.910
2916.519, 2567.219
2918.447, 2567.481
2920.376, 2565.458
2922.304, 2562.885
2924.233, 2566.983
2926.161, 2574.076
2928.090, 2574.478
2930.018, 2572.360
2931.947, 2575.448
2933.875, 2578.276
2935.803, 2571.590
2937.732, 2563.791
2939.660, 2561.949
2941.589, 2563.685
2943.517, 2569.864
2945.446, 2575.609
2947.374, 2580.129
2949.303, 2579.676
2951.231, 2569.158
2953.160, 2562.418
2955.088, 2567.240
2957.017, 2571.094
2958.945, 2571.079
2960.874, 2570.609
2962.802, 2569.684
2964.730, 2570.285
2966.659, 2573.011
2968.587, 2572.869
2970.516, 2568.254
2972.444, 2569.909
2974.373, 2577.000
2976.301, 2581.104
2978.230, 2582.130
2980.158, 2580.575
2982.087, 2577.389
2984.015, 2574.993
2985.944, 2573.199
2987.872, 2571.700
2989.801, 2570.466
2991.729, 2568.584
2993.657, 2568.159
2995.586, 2574.752
2997.514, 2578.924
2999.443, 2571.394
3001.371, 2565.144
3003.300, 2569.662
3005.228, 2571.616
3007.157, 2562.143
3009.085, 2560.744
3011.014, 2575.250
3012.942, 2583.496
3014.871, 2578.602
3016.799, 2573.517
3018.728, 2568.437
3020.656, 2564.562
3022.584, 2562.060
3024.513, 2566.343
3026.441, 2575.486
3028.370, 2575.945
3030.298, 2570.921
3032.227, 2571.857
3034.155, 2575.103
3036.084, 2574.657
3038.012, 2572.735
3039.941, 2571.635
3041.869, 2570.762
3043.798, 2568.934
3045.726, 2568.223
3047.655, 2573.144
3049.583, 2573.869
3051.511, 2562.004
3053.440, 2556.540
3055.368, 2564.076
3057.297, 2566.538
3059.225, 2555.217
3061.154, 2556.046
3063.082, 2570.912
3065.011, 2576.285
3066.939, 2571.840
3068.868, 2560.359
3070.796, 2545.862
3072.725, 2547.011
3074.653, 2556.014
3076.582, 2556.830
3078.510, 2554.011
3080.438, 2551.637
3082.367, 2550.093
3084.295, 2550.261
3086.224, 2550.807
3088.152, 2550.908
3090.081, 2551.432
3092.009, 2553.051
3093.938, 2554.049
3095.866, 2554.082
3097.795, 2553.309
3099.723, 2551.543
3101.652, 2552.429
3103.580, 2556.315
3105.509, 2562.144
3107.437, 2567.824
3109.365, 2557.910
3111.294, 2543.216
3113.222, 2551.073
3115.151, 2565.255
3117.079, 2562.271
3119.008, 2555.880
3120.936, 2556.005
3122.865, 2557.775
3124.793, 2558.921
3126.722, 2560.160
3128.650, 2561.085
3130.579, 2563.847
3132.507, 2570.245
3134.436, 2574.025
3136.364, 2575.157
3138.292, 2571.304
3140.221, 2563.847
3142.149, 2561.342
3144.078, 2562.715
3146.006, 2565.573
3147.935, 2568.824
3149.863, 2570.960
3151.792, 2572.472
3153.720, 2576.621
3155.649, 2576.075
3157.577, 2562.594
3159.506, 2552.801
3161.434, 2551.908
3163.363, 2554.813
3165.291, 2563.204
3167.219, 2566.039
3169.148, 2563.170
3171.076, 2562.115
3173.005, 2563.039
3174.933, 2563.916
3176.862, 2564.857
3178.790, 2565.581
3180.719, 2566.643
3182.647, 2569.144
3184.576, 2571.194
3186.504, 2573.157
3188.433, 2570.691
3190.361, 2558.891
3192.290, 2552.389
3194.218, 2559.656
3196.146, 2563.557
3198.075, 2563.365
3200.003, 2564.801
3201.932, 2568.116
3203.860, 2575.632
3205.789, 2583.315
3207.717, 2577.259
3209.646, 2566.130
3211.574, 2557.441
3213.503, 2553.506
3215.431, 2558.655
3217.360, 2564.659
3219.288, 2569.505
3221.217, 2571.048
3223.145, 2565.802
3225.073, 2563.740
3227.002, 2565.293
3228.930, 2567.266
3230.859, 2568.613
3232.787, 2560.517
3234.716, 2549.401
3236.644, 2551.581
3238.573, 2557.177
3240.501, 2554.756
3242.430, 2553.191
3244.358, 2561.109
3246.287, 2564.971
3248.215, 2559.961
3250.144, 2555.421
3252.072, 2553.445
3254.000, 2551.072
3255.929, 2548.427
3257.857, 2544.555
3259.786, 2541.171
3261.714, 2545.128
3263.643, 2550.043
3265.571, 2544.314
3267.500, 2539.966
3269.428, 2549.228
3271.357, 2554.478
3273.285, 2547.977
3275.214, 2543.231
3277.142, 2542.017
3279.071, 2546.375
3280.999, 2556.032
3282.927, 2554.928
3284.856, 2548.080
3286.784, 2550.757
3288.713, 2555.307
3290.641, 2550.564
3292.570, 2544.641
3294.498, 2541.826
3296.427, 2541.094
3298.355, 2543.951
3300.284, 2543.961
3302.212, 2540.046
3304.141, 2540.748
3306.069, 2545.675
3307.998, 2547.797
3309.926, 2547.329
3311.854, 2544.625
3313.783, 2540.753
3315.711, 2536.584
3317.640, 2532.509
3319.568, 2528.665
3321.497, 2525.936
3323.425, 2524.901
3325.354, 2523.621
3327.282, 2521.712
3329.211, 2523.297
3331.139, 2527.123
3333.068, 2528.255
3334.996, 2528.692
3336.925, 2534.654
3338.853, 2537.006
3340.781, 2524.125
3342.710, 2516.208
3344.638, 2521.782
3346.567, 2524.513
3348.495, 2521.925
3350.424, 2525.001
3352.352, 2532.675
3354.281, 2533.904
3356.209, 2532.239
3358.138, 2534.082
3360.066, 2535.934
3361.995, 2536.552
3363.923, 2532.675
3365.852, 2519.967
3367.780, 2513.428
3369.708, 2516.327
3371.637, 2523.567
3373.565, 2533.325
3375.494, 2534.431
3377.422, 2531.054
3379.351, 2529.799
3381.279, 2530.502
3383.208, 2533.585
3385.136, 2536.863
3387.065, 2540.977
3388.993, 2539.934
3390.922, 2532.646
3392.850, 2531.446
3394.779, 2535.627
3396.707, 2537.949
3398.635, 2538.152
3400.564, 2536.127
3402.492, 2532.234
3404.421, 2525.583
3406.349, 2519.330
3408.278, 2512.679
3410.206, 2514.938
3412.135, 2528.872
3414.063, 2532.268
3415.992, 2528.407
3417.920, 2528.729
3419.849, 2530.906
3421.777, 2531.869
3423.706, 2533.378
3425.634, 2537.575
3427.563, 2540.456
3429.491, 2541.139
3431.419, 2542.047
3433.348, 2542.983
3435.276, 2540.201
3437.205, 2536.090
3439.133, 2536.683
3441.062, 2538.813
3442.990, 2541.518
3444.919, 2541.682
3446.847, 2536.908
3448.776, 2536.727
3450.704, 2543.249
3452.633, 2541.021
3454.561, 2532.517
3456.490, 2527.364
3458.418, 2526.009
3460.346, 2533.029
3462.275, 2537.602
3464.203, 2534.083
3466.132, 2530.548
3468.060, 2528.649
3469.989, 2529.054
3471.917, 2530.957
3473.846, 2529.550
3475.774, 2526.548
3477.703, 2522.988
3479.631, 2522.126
3481.560, 2529.172
3483.488, 2531.013
3485.417, 2520.352
3487.345, 2521.188
3489.273, 2531.793
3491.202, 2530.917
3493.130, 2523.789
3495.059, 2519.453
3496.987, 2517.252
3498.916, 2517.791
3500.844, 2518.871
3502.773, 2520.997
3504.701, 2518.271
3506.630, 2510.774
3508.558, 2509.644
3510.487, 2511.608
3512.415, 2508.331
3514.344, 2506.614
3516.272, 2513.978
3518.200, 2520.814
3520.129, 2526.418
3522.057, 2519.705
3523.986, 2501.059
3525.914, 2498.117
3527.843, 2504.158
3529.771, 2509.308
3531.700, 2512.237
3533.628, 2511.236
3535.557, 2509.665
3537.485, 2508.802
3539.414, 2505.969
3541.342, 2501.860
3543.271, 2504.084
3545.199, 2508.329
3547.127, 2506.932
3549.056, 2505.463
3550.984, 2506.113
3552.913, 2508.886
3554.841, 2515.647
3556.770, 2514.714
3558.698, 2508.300
3560.627, 2505.944
3562.555, 2505.715
3564.484, 2506.771
3566.412, 2506.448
3568.341, 2502.167
3570.269, 2501.894
3572.198, 2506.637
3574.126, 2502.540
3576.054, 2494.681
3577.983, 2499.316
3579.911, 2506.146
3581.840, 2506.259
3583.768, 2505.510
3585.697, 2504.655
3587.625, 2508.650
3589.554, 2516.095
3591.482, 2511.565
3593.411, 2504.082
3595.339, 2513.824
3597.268, 2521.497
3599.196, 2512.492
3601.125, 2507.364
3603.053, 2508.722
3604.981, 2508.035
3606.910, 2505.557
3608.838, 2504.601
3610.767, 2502.658
3612.695, 2494.845
3614.624, 2491.860
3616.552, 2498.631
3618.481, 2501.183
3620.409, 2498.827
3622.338, 2498.341
3624.266, 2500.030
3626.195, 2506.358
3628.123, 2511.479
3630.052, 2511.032
3631.980, 2511.041
3633.908, 2512.052
3635.837, 2514.317
3637.765, 2515.369
3639.694, 2504.774
3641.622, 2495.126
3643.551, 2497.894
3645.479, 2501.899
3647.408, 2505.732
3649.336, 2505.657
3651.265, 2502.792
3653.193, 2500.887
3655.122, 2500.562
3657.050, 2501.975
3658.979, 2505.402
3660.907, 2511.317
3662.835, 2513.911
3664.764, 2512.688
3666.692, 2506.838
3668.621, 2500.775
3670.549, 2500.662
3672.478, 2502.039
3674.406, 2503.831
3676.335, 2503.000
3678.263, 2499.429
3680.192, 2500.808
3682.120, 2505.249
3684.049, 2510.883
3685.977, 2514.774
3687.906, 2514.918
3689.834, 2512.781
3691.762, 2508.274
3693.691, 2506.251
3695.619, 2506.679
3697.548, 2512.379
3699.476, 2515.452
3701.405, 2508.021
3703.333, 2503.275
3705.262, 2503.134
3707.190, 2507.112
3709.119, 2511.714
3711.047, 2506.394
3712.976, 2501.038
3714.904, 2504.322
3716.833, 2503.355
3718.761, 2496.204
3720.689, 2499.482
3722.618, 2508.766
3724.546, 2515.039
3726.475, 2516.395
3728.403, 2506.906
3730.332, 2502.583
3732.260, 2505.577
3734.189, 2512.162
3736.117, 2518.843
3738.046, 2517.121
3739.974, 2512.798
3741.903, 2507.498
3743.831, 2505.558
3745.760, 2507.327
3747.688, 2501.941
3749.616, 2495.824
3751.545, 2507.073
3753.473, 2516.761
3755.402, 2511.255
3757.330, 2507.715
3759.259, 2507.531
3761.187, 2509.790
3763.116, 2512.497
3765.044, 2511.312
3766.973, 2511.288
3768.901, 2516.530
3770.830, 2519.139
3772.758, 2519.259
3774.687, 2521.004
3776.615, 2524.379
3778.543, 2533.437
3780.472, 2534.241
3782.400, 2515.729
3784.329, 2509.560
3786.257, 2512.940
3788.186, 2504.943
3790.114, 2496.028
3792.043, 2494.722
3793.971, 2499.952
3795.900, 2514.075
3797.828, 2513.781
3799.757, 2505.357
3801.685, 2510.218
3803.614, 2513.433
3805.542, 2503.097
3807.470, 2498.880
3809.399, 2504.327
3811.327, 2505.645
3813.256, 2503.083
3815.184, 2493.946
3817.113, 2487.593
3819.041, 2488.522
3820.970, 2490.058
3822.898, 2491.422
3824.827, 2493.516
3826.755, 2494.777
3828.684, 2492.348
3830.612, 2491.071
3832.541, 2492.797
3834.469, 2489.173
3836.397, 2482.860
3838.326, 2481.248
3840.254, 2482.733
3842.183, 2488.007
3844.111, 2490.843
3846.040, 2490.166
3847.968, 2483.519
3849.897, 2478.436
3851.825, 2485.975
3853.754, 2496.824
3855.682, 2509.567
3857.611, 2506.458
3859.539, 2492.739
3861.468, 2493.553
3863.396, 2496.026
3865.324, 2488.300
3867.253, 2484.615
3869.181, 2486.511
3871.110, 2491.911
3873.038, 2495.328
3874.967, 2482.744
3876.895, 2476.278
3878.824, 2490.890
3880.752, 2493.702
3882.681, 2487.158
3884.609, 2482.156
3886.538, 2479.206
3888.466, 2479.497
3890.395, 2477.692
3892.323, 2472.925
3894.251, 2483.580
3896.180, 2496.952
3898.108, 2494.951
3900.037, 2488.148
3901.965, 2478.042
3903.894, 2479.389
3905.822, 2487.296
3907.751, 2485.410
3909.679, 2481.519
3911.608, 2479.272
3913.536, 2480.533
3915.465, 2484.587
3917.393, 2481.202
3919.322, 2476.699
3921.250, 2477.766
3923.178, 2480.378
3925.107, 2483.777
3927.035, 2482.930
3928.964, 2481.093
3930.892, 2484.416
3932.821, 2489.443
3934.749, 2496.250
3936.678, 2498.128
3938.606, 2494.845
3940.535, 2483.727
3942.463, 2475.867
3944.392, 2479.532
3946.320, 2483.527
3948.249, 2486.173
3950.177, 2480.662
3952.105, 2476.335
3954.034, 2486.209
3955.962, 2491.012
3957.891, 2485.835
3959.819, 2484.030
3961.748, 2484.190
3963.676, 2486.612
3965.605, 2484.232
3967.533, 2474.759
3969.462, 2473.877
3971.390, 2478.127
3973.319, 2475.868
3975.247, 2475.126
3977.176, 2481.172
3979.104, 2484.050
3981.032, 2482.945
3982.961, 2473.316
3984.889, 2469.106
3986.818, 2486.453
3988.746, 2488.570
3990.675, 2476.186
3992.603, 2473.598
3994.532, 2476.247
3996.460, 2481.651
3998.389, 2483.521
4000.317, 2480.508
4002.246, 2482.431
4004.174, 2483.473
4006.103, 2474.514
4008.031, 2467.921
4009.959, 2466.579
4011.888, 2468.532
4013.816, 2471.211
4015.745, 2469.145
4017.673, 2469.830
4019.602, 2475.124
4021.530, 2478.095
4023.459, 2478.132
4025.387, 2471.867
4027.316, 2468.304
4029.244, 2473.845
4031.173, 2472.860
4033.101, 2468.212
4035.030, 2465.404
4036.958, 2464.150
4038.886, 2463.847
4040.815, 2467.128
4042.743, 2470.748
4044.672, 2464.587
4046.600, 2457.902
4048.529, 2455.423
4050.457, 2452.882
4052.386, 2450.583
4054.314, 2450.706
4056.243, 2450.875
4058.171, 2448.972
4060.100, 2448.063
4062.028, 2447.629
4063.957, 2446.795
4065.885, 2444.200
4067.813, 2438.452
4069.742, 2433.202
4071.670, 2430.492
4073.599, 2440.036
4075.527, 2445.879
4077.456, 2437.504
4079.384, 2438.545
4081.313, 2447.155
4083.241, 2446.184
4085.170, 2444.683
4087.098, 2449.153
4089.027, 2446.291
4090.955, 2438.260
4092.884, 2436.323
4094.812, 2436.994
4096.740, 2438.897
4098.669, 2441.436
4100.598, 2443.385
4102.526, 2441.458
4104.454, 2437.883
4106.383, 2433.747
4108.312, 2430.618
4110.240, 2429.157
4112.168, 2431.083
4114.097, 2434.812
4116.025, 2440.757
4117.954, 2433.927
4119.882, 2422.204
4121.811, 2428.609
4123.739, 2434.505
4125.667, 2430.534
4127.596, 2438.825
4129.524, 2451.078
4131.453, 2449.314
4133.381, 2445.913
4135.310, 2445.220
4137.238, 2439.936
4139.167, 2433.348
4141.095, 2431.167
4143.023, 2427.207
4144.952, 2420.634
4146.881, 2425.679
4148.809, 2434.813
4150.737, 2438.136
4152.666, 2443.870
4154.595, 2451.916
4156.523, 2446.963
4158.451, 2441.365
4160.380, 2447.497
4162.309, 2450.847
4164.237, 2450.012
4166.165, 2449.299
4168.094, 2447.423
4170.022, 2441.868
4171.951, 2444.242
4173.879, 2452.646
4175.808, 2457.221
4177.736, 2460.006
4179.665, 2463.059
4181.593, 2456.803
4183.521, 2447.167
4185.450, 2447.982
4187.378, 2451.284
4189.307, 2455.039
4191.235, 2453.445
4193.164, 2449.046
4195.092, 2445.386
4197.021, 2441.731
4198.949, 2438.497
4200.878, 2441.617
4202.806, 2441.834
4204.734, 2423.772
4206.663, 2423.441
4208.592, 2436.983
4210.520, 2428.290
4212.448, 2424.633
4214.377, 2443.404
4216.306, 2449.592
4218.234, 2444.464
4220.162, 2432.904
4222.091, 2428.833
4224.020, 2436.195
4225.948, 2436.639
4227.876, 2432.719
4229.805, 2427.316
4231.733, 2425.897
4233.662, 2428.559
4235.590, 2422.835
4237.519, 2416.250
##END=



