##NAMES=Surite
##RRUFFID=R110145
##IDEAL CHEMISTRY=(Pb,Ca)_3_Al_2_(Si,Al)_4_O_10_(CO_3_)_2_(OH)_3_·0.3H_2_O
##LOCALITY=Mammoth mine, Tiger, Arizona, USA
##OWNER=RRUFF
##SOURCE=Joe Ruiz
##DESCRIPTION=Spherical aggregates of white to transparent waxy platy crystals associated with yellow mimetite
##STATUS=The identification of this mineral is not yet confirmed
##URL=https://www.rruff.net/odr/rruff_sample/R110145
##FILETYPE=Raman RAW
##RAMAN WAVELENGTH=780

156.4573, 4049.188
158.3857, 4045.433
160.3142, 4044.557
162.2427, 4051.587
164.1711, 4058.585
166.0996, 4062.284
168.0281, 4063.275
169.9565, 4062.457
171.8850, 4059.695
173.8135, 4058.230
175.7419, 4060.055
177.6704, 4061.743
179.5989, 4064.128
181.5273, 4064.695
183.4558, 4059.100
185.3843, 4047.974
187.3127, 4036.277
189.2412, 4025.665
191.1697, 4012.970
193.0981, 3997.307
195.0266, 3979.474
196.9551, 3959.765
198.8835, 3938.486
200.8120, 3916.525
202.7405, 3894.844
204.6689, 3870.117
206.5974, 3839.609
208.5259, 3808.592
210.4543, 3779.552
212.3828, 3752.241
214.3113, 3725.910
216.2397, 3700.050
218.1682, 3677.807
220.0967, 3662.850
222.0251, 3646.630
223.9536, 3624.446
225.8821, 3601.349
227.8105, 3582.754
229.7390, 3563.634
231.6675, 3545.227
233.5959, 3531.434
235.5244, 3514.322
237.4529, 3503.173
239.3813, 3495.172
241.3098, 3488.718
243.2383, 3484.024
245.1667, 3481.595
247.0952, 3480.542
249.0237, 3485.069
250.9521, 3496.783
252.8806, 3511.356
254.8091, 3529.547
256.7375, 3548.376
258.6660, 3567.591
260.5945, 3586.382
262.5229, 3594.271
264.4514, 3590.239
266.3799, 3577.768
268.3083, 3553.723
270.2368, 3525.918
272.1653, 3495.233
274.0938, 3465.335
276.0222, 3441.570
277.9507, 3424.461
279.8792, 3411.996
281.8076, 3404.512
283.7361, 3400.713
285.6646, 3404.188
287.5930, 3406.428
289.5215, 3401.918
291.4500, 3392.351
293.3784, 3382.061
295.3069, 3371.115
297.2354, 3356.191
299.1638, 3334.766
301.0923, 3315.159
303.0208, 3300.917
304.9492, 3289.457
306.8777, 3279.772
308.8062, 3271.624
310.7346, 3264.343
312.6631, 3257.888
314.5916, 3251.012
316.5200, 3242.825
318.4485, 3235.402
320.3770, 3228.923
322.3054, 3223.738
324.2339, 3221.384
326.1624, 3220.561
328.0908, 3216.436
330.0193, 3209.000
331.9477, 3203.138
333.8762, 3200.452
335.8047, 3198.458
337.7331, 3196.459
339.6616, 3194.833
341.5901, 3194.099
343.5185, 3193.897
345.4470, 3193.047
347.3755, 3191.441
349.3039, 3190.844
351.2324, 3192.728
353.1609, 3193.431
355.0893, 3191.141
357.0178, 3188.473
358.9463, 3187.503
360.8747, 3187.626
362.8032, 3188.391
364.7317, 3189.822
366.6601, 3187.536
368.5886, 3177.770
370.5171, 3169.856
372.4455, 3166.415
374.3740, 3163.617
376.3025, 3159.548
378.2309, 3154.347
380.1594, 3147.866
382.0879, 3140.274
384.0163, 3133.934
385.9448, 3128.874
387.8733, 3125.633
389.8017, 3125.296
391.7302, 3125.563
393.6587, 3125.230
395.5871, 3125.436
397.5156, 3127.064
399.4441, 3129.968
401.3725, 3134.050
403.3010, 3140.836
405.2295, 3143.938
407.1579, 3140.995
409.0864, 3138.021
411.0149, 3138.017
412.9433, 3136.408
414.8718, 3129.287
416.8003, 3119.163
418.7287, 3109.329
420.6572, 3099.670
422.5857, 3093.860
424.5141, 3094.929
426.4426, 3092.038
428.3711, 3081.221
430.2995, 3071.555
432.2280, 3069.743
434.1565, 3068.591
436.0849, 3061.980
438.0134, 3051.457
439.9419, 3041.294
441.8703, 3031.384
443.7988, 3023.341
445.7273, 3017.975
447.6557, 3011.421
449.5842, 3000.279
451.5127, 2991.543
453.4411, 2990.886
455.3696, 2992.054
457.2981, 2988.653
459.2265, 2981.530
461.1550, 2973.746
463.0835, 2965.126
465.0119, 2959.577
466.9404, 2958.714
468.8689, 2956.305
470.7973, 2950.020
472.7258, 2942.479
474.6543, 2933.894
476.5827, 2925.580
478.5112, 2919.146
480.4397, 2914.212
482.3681, 2909.367
484.2966, 2904.630
486.2251, 2899.991
488.1535, 2895.238
490.0820, 2891.082
492.0105, 2888.753
493.9389, 2885.346
495.8674, 2879.277
497.7959, 2871.983
499.7243, 2864.147
501.6528, 2856.333
503.5813, 2850.571
505.5097, 2846.458
507.4382, 2839.381
509.3667, 2827.464
511.2951, 2820.073
513.2236, 2823.867
515.1521, 2825.565
517.0806, 2820.679
519.0090, 2814.021
520.9375, 2807.198
522.8660, 2801.363
524.7944, 2799.236
526.7229, 2799.384
528.6514, 2797.154
530.5798, 2792.258
532.5083, 2787.188
534.4368, 2782.458
536.3652, 2777.639
538.2937, 2771.961
540.2222, 2767.391
542.1506, 2765.978
544.0791, 2764.689
546.0076, 2760.454
547.9360, 2754.642
549.8645, 2748.915
551.7930, 2743.319
553.7214, 2739.276
555.6499, 2737.695
557.5784, 2735.028
559.5068, 2730.145
561.4353, 2726.177
563.3638, 2724.661
565.2922, 2722.651
567.2207, 2717.796
569.1492, 2712.878
571.0776, 2710.944
573.0061, 2709.860
574.9345, 2705.640
576.8630, 2698.521
578.7914, 2691.205
580.7199, 2682.766
582.6484, 2678.504
584.5768, 2680.532
586.5053, 2681.026
588.4338, 2677.908
590.3622, 2674.245
592.2907, 2671.837
594.2192, 2668.781
596.1476, 2662.118
598.0761, 2655.313
600.0046, 2654.355
601.9330, 2657.320
603.8615, 2656.431
605.7900, 2651.434
607.7184, 2646.617
609.6469, 2642.155
611.5754, 2636.726
613.5038, 2629.369
615.4323, 2623.138
617.3608, 2619.328
619.2892, 2616.375
621.2177, 2614.881
623.1462, 2612.517
625.0746, 2606.438
627.0031, 2598.827
628.9316, 2592.975
630.8600, 2588.808
632.7885, 2586.684
634.7170, 2586.297
636.6454, 2582.524
638.5739, 2574.395
640.5024, 2567.948
642.4308, 2564.655
644.3593, 2562.325
646.2878, 2561.001
648.2162, 2559.616
650.1447, 2557.743
652.0732, 2555.636
654.0016, 2552.646
655.9301, 2550.110
657.8586, 2549.928
659.7870, 2551.580
661.7155, 2554.292
663.6440, 2557.779
665.5724, 2559.900
667.5009, 2560.196
669.4294, 2563.781
671.3578, 2573.519
673.2863, 2580.691
675.2148, 2583.366
677.1432, 2584.688
679.0717, 2582.943
681.0002, 2583.124
682.9286, 2589.277
684.8571, 2596.608
686.7856, 2600.227
688.7141, 2607.792
690.6425, 2611.116
692.5710, 2621.278
694.4995, 2630.165
696.4279, 2637.643
698.3564, 2641.959
700.2849, 2642.427
702.2133, 2643.091
704.1418, 2650.583
706.0703, 2645.860
707.9987, 2622.925
709.9272, 2598.515
711.8557, 2575.937
713.7841, 2551.891
715.7126, 2521.085
717.6411, 2493.677
719.5695, 2477.854
721.4980, 2466.826
723.4265, 2456.284
725.3549, 2445.817
727.2834, 2433.806
729.2119, 2421.509
731.1403, 2413.808
733.0688, 2405.520
734.9973, 2398.274
736.9257, 2394.422
738.8542, 2387.835
740.7827, 2384.927
742.7111, 2382.757
744.6396, 2381.664
746.5681, 2378.414
748.4965, 2371.395
750.4250, 2363.987
752.3535, 2356.137
754.2819, 2350.484
756.2104, 2350.868
758.1389, 2350.888
760.0673, 2345.780
761.9958, 2339.089
763.9243, 2333.791
765.8527, 2329.782
767.7812, 2327.031
769.7097, 2325.220
771.6381, 2323.757
773.5666, 2322.381
775.4951, 2320.433
777.4235, 2317.828
779.3520, 2314.682
781.2805, 2310.944
783.2089, 2308.541
785.1374, 2308.411
787.0659, 2305.925
788.9943, 2298.588
790.9228, 2293.509
792.8513, 2295.344
794.7797, 2294.995
796.7082, 2288.636
798.6367, 2282.165
800.5651, 2278.420
802.4936, 2274.799
804.4221, 2269.812
806.3505, 2264.152
808.2790, 2257.543
810.2075, 2251.411
812.1359, 2247.366
814.0644, 2245.037
815.9929, 2244.659
817.9213, 2245.047
819.8498, 2243.504
821.7783, 2240.239
823.7067, 2235.724
825.6352, 2230.138
827.5637, 2227.835
829.4921, 2229.459
831.4206, 2229.637
833.3491, 2227.897
835.2775, 2225.851
837.2060, 2224.116
839.1345, 2221.415
841.0629, 2217.408
842.9914, 2213.431
844.9199, 2208.661
846.8483, 2205.894
848.7768, 2206.589
850.7053, 2207.695
852.6337, 2207.571
854.5622, 2208.216
856.4907, 2211.710
858.4191, 2214.393
860.3476, 2214.619
862.2761, 2212.254
864.2045, 2206.775
866.1330, 2199.331
868.0615, 2189.564
869.9899, 2179.808
871.9184, 2173.583
873.8469, 2166.038
875.7753, 2162.379
877.7038, 2155.075
879.6323, 2149.762
881.5607, 2146.357
883.4892, 2145.650
885.4177, 2140.899
887.3461, 2143.267
889.2746, 2135.732
891.2031, 2132.302
893.1315, 2132.716
895.0600, 2131.662
896.9885, 2128.995
898.9169, 2126.146
900.8454, 2123.174
902.7739, 2120.362
904.7023, 2117.796
906.6308, 2114.687
908.5593, 2110.822
910.4877, 2107.908
912.4162, 2107.073
914.3447, 2104.061
916.2731, 2096.642
918.2016, 2091.748
920.1301, 2092.523
922.0585, 2092.635
923.9870, 2090.065
925.9155, 2087.141
927.8439, 2083.413
929.7724, 2080.369
931.7009, 2078.984
933.6293, 2077.087
935.5578, 2073.218
937.4863, 2069.507
939.4147, 2067.571
941.3432, 2065.502
943.2717, 2061.799
945.2001, 2058.647
947.1286, 2059.083
949.0571, 2058.781
950.9855, 2053.226
952.9140, 2047.399
954.8425, 2044.831
956.7709, 2044.198
958.6994, 2045.679
960.6279, 2046.843
962.5563, 2044.798
964.4848, 2041.485
966.4133, 2039.154
968.3417, 2036.412
970.2702, 2030.620
972.1987, 2024.544
974.1271, 2022.801
976.0556, 2017.532
977.9841, 2017.624
979.9125, 2011.892
981.8410, 2010.752
983.7695, 2011.730
985.6979, 2009.620
987.6264, 2009.947
989.5549, 2007.111
991.4833, 2009.764
993.4118, 2011.781
995.3403, 2012.306
997.2687, 2008.300
999.1972, 2001.506
1001.126, 1996.053
1003.054, 1992.155
1004.983, 1991.407
1006.911, 1992.448
1008.840, 1990.744
1010.768, 1986.864
1012.696, 1981.853
1014.625, 1976.426
1016.553, 1973.222
1018.482, 1971.947
1020.410, 1972.568
1022.339, 1970.701
1024.267, 1973.036
1026.196, 1970.084
1028.124, 1969.609
1030.053, 1970.543
1031.981, 1967.641
1033.910, 1962.406
1035.838, 1960.070
1037.767, 1960.122
1039.695, 1961.749
1041.624, 1963.768
1043.552, 1960.984
1045.480, 1955.344
1047.409, 1952.990
1049.337, 1953.654
1051.266, 1957.580
1053.194, 1963.557
1055.123, 1966.396
1057.051, 1968.963
1058.980, 1977.945
1060.908, 1993.525
1062.837, 2015.727
1064.765, 2044.772
1066.694, 2081.811
1068.622, 2125.799
1070.550, 2177.209
1072.479, 2231.851
1074.407, 2285.090
1076.336, 2332.090
1078.264, 2370.569
1080.193, 2390.886
1082.121, 2373.965
1084.050, 2327.183
1085.978, 2252.484
1087.907, 2165.621
1089.835, 2082.096
1091.764, 2011.150
1093.692, 1969.345
1095.620, 1945.899
1097.549, 1931.086
1099.477, 1921.616
1101.406, 1914.808
1103.334, 1909.734
1105.263, 1906.254
1107.191, 1902.990
1109.120, 1897.923
1111.048, 1893.206
1112.977, 1891.752
1114.905, 1890.149
1116.834, 1884.391
1118.762, 1879.396
1120.691, 1879.519
1122.619, 1880.025
1124.547, 1878.200
1126.476, 1875.521
1128.404, 1872.439
1130.333, 1869.103
1132.261, 1865.482
1134.190, 1861.726
1136.118, 1857.740
1138.047, 1854.106
1139.975, 1850.835
1141.904, 1848.812
1143.832, 1848.849
1145.761, 1848.794
1147.689, 1848.001
1149.618, 1847.274
1151.546, 1847.113
1153.474, 1845.343
1155.403, 1841.127
1157.331, 1837.962
1159.260, 1836.714
1161.188, 1834.358
1163.117, 1830.409
1165.045, 1827.692
1166.974, 1826.428
1168.902, 1827.367
1170.831, 1824.593
1172.759, 1828.354
1174.688, 1822.505
1176.616, 1820.829
1178.545, 1822.440
1180.473, 1820.593
1182.401, 1819.935
1184.330, 1819.389
1186.258, 1817.333
1188.187, 1816.638
1190.115, 1814.631
1192.044, 1811.970
1193.972, 1809.313
1195.901, 1807.183
1197.829, 1805.837
1199.758, 1806.910
1201.686, 1807.210
1203.615, 1802.067
1205.543, 1797.439
1207.472, 1799.254
1209.400, 1800.884
1211.328, 1798.356
1213.257, 1795.319
1215.185, 1793.170
1217.114, 1791.277
1219.042, 1789.279
1220.971, 1787.709
1222.899, 1786.879
1224.828, 1785.643
1226.756, 1783.682
1228.685, 1781.419
1230.613, 1778.642
1232.542, 1776.967
1234.470, 1774.537
1236.399, 1772.827
1238.327, 1771.209
1240.255, 1769.836
1242.184, 1770.313
1244.112, 1769.557
1246.041, 1767.996
1247.969, 1766.868
1249.898, 1766.109
1251.826, 1764.713
1253.755, 1764.414
1255.683, 1769.809
1257.612, 1774.716
1259.540, 1770.579
1261.469, 1766.699
1263.397, 1771.476
1265.326, 1775.101
1267.254, 1771.390
1269.182, 1769.138
1271.111, 1772.508
1273.039, 1773.334
1274.968, 1769.359
1276.896, 1765.177
1278.825, 1761.167
1280.753, 1759.741
1282.682, 1758.909
1284.610, 1761.455
1286.539, 1761.163
1288.467, 1763.428
1290.396, 1763.607
1292.324, 1766.559
1294.253, 1763.881
1296.181, 1762.186
1298.109, 1761.719
1300.038, 1763.911
1301.966, 1766.010
1303.895, 1764.097
1305.823, 1762.748
1307.752, 1766.475
1309.680, 1769.008
1311.609, 1766.486
1313.537, 1764.268
1315.466, 1762.807
1317.394, 1763.706
1319.323, 1764.730
1321.251, 1766.712
1323.180, 1770.458
1325.108, 1772.281
1327.036, 1776.801
1328.965, 1778.996
1330.893, 1779.074
1332.822, 1776.370
1334.750, 1773.356
1336.679, 1775.726
1338.607, 1779.176
1340.536, 1778.037
1342.464, 1777.477
1344.393, 1782.333
1346.321, 1784.977
1348.250, 1780.542
1350.178, 1778.099
1352.107, 1780.429
1354.035, 1785.228
1355.964, 1793.094
1357.892, 1794.583
1359.820, 1788.896
1361.749, 1785.752
1363.677, 1784.846
1365.606, 1784.386
1367.534, 1784.370
1369.463, 1784.737
1371.391, 1785.708
1373.320, 1788.397
1375.248, 1790.654
1377.177, 1790.493
1379.105, 1789.744
1381.034, 1787.770
1382.962, 1788.858
1384.891, 1788.226
1386.819, 1787.979
1388.747, 1790.134
1390.676, 1788.734
1392.604, 1792.503
1394.533, 1794.948
1396.461, 1796.550
1398.390, 1798.723
1400.318, 1801.852
1402.247, 1807.420
1404.175, 1812.757
1406.104, 1815.558
1408.032, 1816.882
1409.961, 1816.324
1411.889, 1816.053
1413.818, 1817.440
1415.746, 1817.514
1417.674, 1815.957
1419.603, 1814.579
1421.531, 1813.445
1423.460, 1812.460
1425.388, 1811.557
1427.317, 1810.802
1429.245, 1809.688
1431.174, 1808.475
1433.102, 1805.231
1435.031, 1796.928
1436.959, 1789.403
1438.888, 1785.313
1440.816, 1781.808
1442.745, 1779.135
1444.673, 1773.514
1446.601, 1764.651
1448.530, 1754.808
1450.458, 1744.820
1452.387, 1739.775
1454.315, 1736.537
1456.244, 1729.699
1458.172, 1721.744
1460.101, 1713.861
1462.029, 1707.487
1463.958, 1700.583
1465.886, 1693.421
1467.815, 1688.682
1469.743, 1680.805
1471.672, 1675.765
1473.600, 1672.384
1475.528, 1669.712
1477.457, 1664.209
1479.385, 1657.451
1481.314, 1651.293
1483.242, 1645.971
1485.171, 1641.880
1487.099, 1638.307
1489.028, 1635.225
1490.956, 1631.948
1492.885, 1628.411
1494.813, 1625.049
1496.742, 1621.760
1498.670, 1617.022
1500.599, 1611.655
1502.527, 1607.459
1504.455, 1603.636
1506.384, 1599.018
1508.312, 1595.031
1510.241, 1592.689
1512.169, 1590.781
1514.098, 1589.317
1516.026, 1587.222
1517.955, 1584.316
1519.883, 1578.975
1521.812, 1572.908
1523.740, 1572.891
1525.669, 1573.731
1527.597, 1569.814
1529.526, 1564.244
1531.454, 1557.057
1533.382, 1552.546
1535.311, 1553.199
1537.239, 1553.070
1539.168, 1551.914
1541.096, 1550.327
1543.025, 1548.365
1544.953, 1545.622
1546.882, 1543.668
1548.810, 1545.569
1550.739, 1546.474
1552.667, 1543.218
1554.596, 1541.293
1556.524, 1542.366
1558.453, 1542.001
1560.381, 1539.893
1562.309, 1537.338
1564.238, 1534.975
1566.166, 1535.539
1568.095, 1535.710
1570.023, 1530.236
1571.952, 1528.000
1573.880, 1533.502
1575.809, 1535.138
1577.737, 1531.047
1579.666, 1527.825
1581.594, 1525.184
1583.523, 1519.543
1585.451, 1512.958
1587.380, 1506.905
1589.308, 1503.501
1591.236, 1506.386
1593.165, 1507.157
1595.093, 1504.228
1597.022, 1499.456
1598.950, 1493.455
1600.879, 1489.137
1602.807, 1486.084
1604.736, 1484.225
1606.664, 1482.048
1608.593, 1477.984
1610.521, 1474.063
1612.450, 1470.863
1614.378, 1468.028
1616.307, 1465.472
1618.235, 1461.977
1620.163, 1458.175
1622.092, 1456.323
1624.020, 1453.816
1625.949, 1447.494
1627.877, 1441.507
1629.806, 1436.977
1631.734, 1434.109
1633.663, 1429.819
1635.591, 1429.138
1637.520, 1423.957
1639.448, 1421.700
1641.377, 1419.822
1643.305, 1415.968
1645.234, 1413.091
1647.162, 1412.703
1649.090, 1411.797
1651.019, 1410.046
1652.947, 1406.621
1654.876, 1402.172
1656.804, 1397.627
1658.733, 1393.955
1660.661, 1392.167
1662.590, 1390.419
1664.518, 1388.362
1666.447, 1386.134
1668.375, 1383.840
1670.304, 1380.889
1672.232, 1378.124
1674.161, 1376.482
1676.089, 1376.357
1678.017, 1379.435
1679.946, 1377.885
1681.874, 1377.079
1683.803, 1376.104
1685.731, 1372.436
1687.660, 1370.901
1689.588, 1366.988
1691.517, 1362.384
1693.445, 1359.389
1695.374, 1359.322
1697.302, 1359.162
1699.231, 1358.439
1701.159, 1355.388
1703.088, 1350.857
1705.016, 1345.502
1706.944, 1341.392
1708.873, 1341.249
1710.801, 1340.182
1712.730, 1337.478
1714.658, 1333.478
1716.587, 1328.896
1718.515, 1326.488
1720.444, 1324.441
1722.372, 1321.143
1724.301, 1317.114
1726.229, 1310.836
1728.158, 1308.958
1730.086, 1305.348
1732.015, 1302.512
1733.943, 1300.818
1735.871, 1298.270
1737.800, 1296.537
1739.728, 1294.497
1741.657, 1292.215
1743.585, 1289.728
1745.514, 1288.467
1747.442, 1287.482
1749.371, 1285.126
1751.299, 1280.715
1753.228, 1272.832
1755.156, 1266.755
1757.085, 1263.615
1759.013, 1262.827
1760.942, 1262.829
1762.870, 1259.066
1764.798, 1254.450
1766.727, 1250.528
1768.655, 1248.898
1770.584, 1245.843
1772.512, 1247.288
1774.441, 1241.769
1776.369, 1238.676
1778.298, 1235.795
1780.226, 1230.096
1782.155, 1226.468
1784.083, 1226.021
1786.012, 1222.887
1787.940, 1218.041
1789.869, 1216.647
1791.797, 1215.268
1793.725, 1209.445
1795.654, 1205.748
1797.582, 1205.755
1799.511, 1204.773
1801.439, 1202.318
1803.368, 1197.121
1805.296, 1191.330
1807.225, 1186.316
1809.153, 1182.243
1811.082, 1179.323
1813.010, 1176.280
1814.939, 1172.885
1816.867, 1167.952
1818.796, 1163.386
1820.724, 1160.348
1822.652, 1158.422
1824.581, 1157.723
1826.509, 1156.271
1828.438, 1153.282
1830.366, 1144.191
1832.295, 1137.940
1834.223, 1140.605
1836.152, 1140.027
1838.080, 1134.751
1840.009, 1133.391
1841.937, 1132.486
1843.866, 1125.169
1845.794, 1119.060
1847.723, 1116.888
1849.651, 1115.786
1851.579, 1114.942
1853.508, 1110.761
1855.436, 1106.838
1857.365, 1107.518
1859.293, 1108.696
1861.222, 1109.619
1863.150, 1106.680
1865.079, 1100.299
1867.007, 1088.926
1868.936, 1080.264
1870.864, 1080.610
1872.793, 1080.347
1874.721, 1078.541
1876.650, 1078.326
1878.578, 1078.178
1880.506, 1076.628
1882.435, 1072.419
1884.363, 1064.206
1886.292, 1060.273
1888.220, 1059.587
1890.149, 1057.416
1892.077, 1054.413
1894.006, 1051.109
1895.934, 1046.940
1897.863, 1041.843
1899.791, 1038.952
1901.720, 1036.491
1903.648, 1030.754
1905.577, 1026.380
1907.505, 1026.164
1909.433, 1025.719
1911.362, 1024.567
1913.290, 1020.224
1915.219, 1015.078
1917.147, 1009.945
1919.076, 1007.764
1921.004, 1008.901
1922.933, 1008.302
1924.861, 1005.835
1926.790, 1003.378
1928.718, 995.8741
1930.647, 994.8879
1932.575, 990.8937
1934.504, 985.4329
1936.432, 983.8222
1938.360, 982.0165
1940.289, 977.9059
1942.217, 974.8792
1944.146, 972.8264
1946.074, 967.7786
1948.003, 963.0720
1949.931, 962.7009
1951.860, 961.2225
1953.788, 957.8262
1955.717, 952.6309
1957.645, 947.4303
1959.574, 944.6827
1961.502, 943.0983
1963.431, 942.4540
1965.359, 937.9399
1967.287, 932.0244
1969.216, 930.2250
1971.144, 930.0006
1973.073, 930.9689
1975.001, 929.3308
1976.930, 925.4778
1978.858, 921.2634
1980.787, 916.8534
1982.715, 911.4462
1984.644, 908.6896
1986.572, 908.4774
1988.501, 909.5425
1990.429, 908.7935
1992.358, 902.3265
1994.286, 896.3643
1996.214, 891.8152
1998.143, 889.8537
2000.071, 888.3536
2002.000, 884.5127
2003.928, 882.3625
2005.857, 883.0988
2007.785, 880.9909
2009.714, 877.4468
2011.642, 874.1100
2013.571, 871.5144
2015.499, 869.9605
2017.428, 866.2521
2019.356, 861.2538
2021.285, 854.5833
2023.213, 852.5746
2025.141, 850.1265
2027.070, 847.8953
2028.998, 848.0803
2030.927, 845.3266
2032.855, 842.9460
2034.784, 839.7490
2036.712, 837.9464
2038.641, 836.7332
2040.569, 835.0113
2042.498, 830.8690
2044.426, 829.3159
2046.355, 826.7110
2048.283, 823.5861
2050.212, 821.2117
2052.140, 817.2172
2054.068, 814.3293
2055.997, 809.4754
2057.925, 807.6266
2059.854, 803.0977
2061.782, 799.4301
2063.711, 798.5771
2065.639, 794.7637
2067.568, 790.1695
2069.496, 789.6329
2071.425, 788.9440
2073.353, 786.4285
2075.281, 782.2764
2077.210, 778.6041
2079.138, 776.6703
2081.067, 780.3055
2082.995, 773.4648
2084.924, 772.4158
2086.852, 772.6847
2088.781, 766.8019
2090.709, 761.9508
2092.638, 760.2285
2094.566, 760.4968
2096.495, 759.8815
2098.423, 757.2029
2100.352, 754.9227
2102.280, 751.1038
2104.208, 747.8613
2106.137, 743.3320
2108.065, 739.7960
2109.994, 737.9469
2111.922, 737.3985
2113.851, 733.8253
2115.779, 731.4448
2117.708, 729.9286
2119.636, 728.1171
2121.565, 726.4505
2123.493, 725.0375
2125.422, 723.6896
2127.350, 719.9041
2129.279, 717.4259
2131.207, 716.0158
2133.135, 714.9493
2135.064, 713.2855
2136.992, 710.7805
2138.921, 706.3548
2140.849, 701.8962
2142.778, 700.6760
2144.706, 698.6705
2146.635, 695.1893
2148.563, 693.3627
2150.492, 691.2479
2152.420, 688.4998
2154.349, 683.3831
2156.277, 683.6856
2158.206, 683.3991
2160.134, 681.2249
2162.063, 675.3215
2163.991, 672.7289
2165.919, 672.2115
2167.848, 670.1043
2169.776, 668.6311
2171.705, 668.7236
2173.633, 664.0298
2175.562, 659.4785
2177.490, 662.5848
2179.419, 659.6793
2181.347, 649.9638
2183.276, 647.0344
2185.204, 646.4559
2187.133, 645.5900
2189.061, 645.1902
2190.990, 644.7941
2192.918, 643.2302
2194.846, 640.8408
2196.775, 637.7700
2198.703, 635.5354
2200.632, 633.0025
2202.560, 629.4179
2204.489, 627.3082
2206.417, 622.9467
2208.346, 617.9417
2210.274, 615.8601
2212.203, 619.8187
2214.131, 619.3298
2216.060, 615.2229
2217.988, 608.2266
2219.917, 604.3982
2221.845, 604.5823
2223.773, 604.9459
2225.702, 603.8802
2227.630, 602.1584
2229.559, 596.8557
2231.487, 597.1739
2233.416, 592.7723
2235.344, 589.9552
2237.273, 591.3866
2239.201, 590.2891
2241.130, 587.6855
2243.058, 584.3358
2244.987, 580.6647
2246.915, 577.3331
2248.844, 578.0850
2250.772, 577.3284
2252.700, 572.8355
2254.629, 570.8829
2256.557, 569.2175
2258.486, 564.4081
2260.414, 563.2112
2262.343, 564.9539
2264.271, 562.6231
2266.200, 559.0325
2268.128, 555.2615
2270.057, 556.3217
2271.985, 557.6635
2273.914, 553.1213
2275.842, 547.8557
2277.771, 543.5632
2279.699, 544.5656
2281.627, 544.9806
2283.556, 542.7623
2285.484, 543.3289
2287.413, 534.9260
2289.341, 540.1194
2291.270, 538.4527
2293.198, 532.3850
2295.127, 533.3604
2297.055, 532.7780
2298.984, 527.9992
2300.912, 524.1835
2302.841, 521.4283
2304.769, 520.4157
2306.698, 517.7207
2308.626, 514.8258
2310.554, 516.0021
2312.483, 515.4069
2314.411, 512.0401
2316.340, 511.0243
2318.268, 508.7853
2320.197, 506.5930
2322.125, 505.1633
2324.054, 502.5709
2325.982, 501.5359
2327.911, 499.6022
2329.839, 497.3581
2331.768, 496.7607
2333.696, 495.3148
2335.625, 492.2194
2337.553, 488.5410
2339.481, 485.3426
2341.410, 483.5105
2343.338, 480.9217
2345.267, 478.3857
2347.195, 478.2896
2349.124, 477.1717
2351.052, 474.9586
2352.981, 473.9670
2354.909, 473.1714
2356.838, 472.1089
2358.766, 468.6771
2360.695, 465.7531
2362.623, 467.5434
2364.552, 463.7782
2366.480, 458.5446
2368.408, 461.7514
2370.337, 460.4292
2372.265, 454.6385
2374.194, 455.1848
2376.122, 455.4980
2378.051, 452.8605
2379.979, 450.1707
2381.908, 448.2929
2383.836, 448.0614
2385.765, 445.4483
2387.693, 443.6794
2389.622, 442.5683
2391.550, 439.5405
2393.479, 439.6527
2395.407, 438.7557
2397.335, 437.3073
2399.264, 435.3912
2401.192, 434.1478
2403.121, 430.6347
2405.049, 430.8539
2406.978, 428.4703
2408.906, 426.4440
2410.835, 427.9731
2412.763, 427.0109
2414.692, 424.2474
2416.620, 420.9375
2418.549, 420.2614
2420.477, 420.7741
2422.406, 415.1572
2424.334, 411.8899
2426.262, 412.2581
2428.191, 409.8560
2430.119, 407.3726
2432.048, 406.1258
2433.976, 403.3488
2435.905, 400.8549
2437.833, 400.9479
2439.762, 398.3835
2441.690, 395.2401
2443.619, 394.8954
2445.547, 393.4763
2447.476, 391.2883
2449.404, 389.7406
2451.333, 388.3016
2453.261, 386.9817
2455.189, 386.8944
2457.118, 385.4279
2459.046, 382.0453
2460.975, 381.6408
2462.903, 381.5121
2464.832, 380.3246
2466.760, 382.7155
2468.689, 383.5192
2470.617, 379.4740
2472.546, 373.7199
2474.474, 368.4699
2476.403, 365.3364
2478.331, 365.4117
2480.260, 366.3280
2482.188, 364.8107
2484.116, 361.2301
2486.045, 357.1284
2487.973, 356.1122
2489.902, 355.5555
2491.830, 354.5928
2493.759, 353.7494
2495.687, 352.3525
2497.616, 351.4373
2499.544, 349.2246
2501.473, 346.7594
2503.401, 345.0276
2505.330, 343.5457
2507.258, 340.9053
2509.187, 341.3012
2511.115, 341.1980
2513.043, 340.3705
2514.972, 338.5467
2516.900, 337.4756
2518.829, 335.7528
2520.757, 334.4402
2522.686, 333.4545
2524.614, 331.6392
2526.543, 331.4327
2528.471, 329.8395
2530.400, 328.5472
2532.328, 329.8826
2534.257, 328.0493
2536.185, 325.4190
2538.114, 326.6774
2540.042, 323.9803
2541.970, 319.3544
2543.899, 317.6379
2545.827, 317.9026
2547.756, 318.6780
2549.684, 316.6708
2551.613, 315.3867
2553.541, 314.8319
2555.470, 313.7406
2557.398, 312.4516
2559.327, 310.8354
2561.255, 307.9114
2563.184, 306.2978
2565.112, 305.6256
2567.041, 302.5597
2568.969, 301.1589
2570.897, 301.4007
2572.826, 300.2554
2574.754, 298.4223
2576.683, 296.5529
2578.611, 294.8494
2580.540, 292.7952
2582.468, 291.3853
2584.397, 289.3328
2586.325, 288.4374
2588.254, 288.0728
2590.182, 286.1356
2592.111, 284.7276
2594.039, 284.0416
2595.968, 280.3464
2597.896, 279.6959
2599.824, 278.4272
2601.753, 279.5170
2603.681, 277.0768
2605.610, 276.4740
2607.538, 276.5153
2609.467, 275.4280
2611.395, 273.1636
2613.324, 271.5412
2615.252, 271.2635
2617.181, 271.9390
2619.109, 271.5916
2621.038, 269.6393
2622.966, 266.9342
2624.895, 267.5290
2626.823, 266.2111
2628.751, 262.9607
2630.680, 261.3456
2632.608, 259.4299
2634.537, 257.4645
2636.465, 257.1290
2638.394, 257.2556
2640.322, 257.1798
2642.251, 256.1483
2644.179, 253.7667
2646.108, 251.0974
2648.036, 250.6588
2649.965, 248.3162
2651.893, 245.9861
2653.822, 245.2123
2655.750, 243.2369
2657.678, 243.2816
2659.607, 241.1473
2661.535, 241.1307
2663.464, 241.5069
2665.392, 240.5302
2667.321, 238.4878
2669.249, 237.5692
2671.178, 236.2784
2673.106, 235.0891
2675.035, 233.8557
2676.963, 232.7757
2678.892, 231.2420
2680.820, 229.3103
2682.749, 227.2340
2684.677, 226.4934
2686.605, 225.9452
2688.534, 225.1302
2690.462, 224.6784
2692.391, 223.0293
2694.319, 220.3783
2696.248, 219.3084
2698.176, 218.3634
2700.105, 217.5208
2702.033, 218.1365
2703.962, 217.9957
2705.890, 216.7177
2707.819, 213.1561
2709.747, 215.6454
2711.676, 212.3577
2713.604, 213.5307
2715.532, 208.9104
2717.461, 205.7115
2719.389, 204.0878
2721.318, 203.1460
2723.246, 202.7456
2725.175, 202.8306
2727.103, 201.9430
2729.032, 201.6658
2730.960, 200.5984
2732.889, 200.3989
2734.817, 198.0551
2736.746, 196.1302
2738.674, 194.4399
2740.603, 193.4546
2742.531, 193.7888
2744.459, 197.8716
2746.388, 197.5800
2748.316, 194.4459
2750.245, 191.2496
2752.173, 189.4157
2754.102, 187.9782
2756.030, 186.1875
2757.959, 184.4376
2759.887, 184.4370
2761.816, 182.3793
2763.744, 182.6312
2765.673, 180.0089
2767.601, 179.5533
2769.530, 179.5235
2771.458, 180.0499
2773.386, 180.0530
2775.315, 177.1531
2777.243, 176.4155
2779.172, 176.5154
2781.100, 175.6749
2783.029, 175.1870
2784.957, 173.4134
2786.886, 172.5283
2788.814, 171.3167
2790.743, 170.1700
2792.671, 168.8090
2794.600, 168.1141
2796.528, 166.8475
2798.457, 165.6212
2800.385, 166.1527
2802.313, 164.4993
2804.242, 161.9118
2806.170, 159.7690
2808.099, 161.4653
2810.027, 162.3230
2811.956, 160.7767
2813.884, 161.0403
2815.813, 159.6239
2817.741, 156.7379
2819.670, 155.1258
2821.598, 154.2522
2823.527, 153.7911
2825.455, 153.4926
2827.384, 153.4918
2829.312, 152.5626
2831.240, 152.0180
2833.169, 150.8071
2835.097, 150.7676
2837.026, 149.5307
2838.954, 149.8690
2840.883, 148.0639
2842.811, 146.0483
2844.740, 146.8842
2846.668, 146.5923
2848.597, 145.5064
2850.525, 144.0334
2852.454, 142.7370
2854.382, 142.0537
2856.311, 141.7427
2858.239, 140.8195
2860.167, 139.1932
2862.096, 137.9567
2864.024, 138.2140
2865.953, 138.2221
2867.881, 137.2583
2869.810, 135.5213
2871.738, 135.2204
2873.667, 133.8445
2875.595, 136.6216
2877.524, 132.4760
2879.452, 132.8917
2881.381, 133.9256
2883.309, 131.9141
2885.238, 129.7715
2887.166, 129.0619
2889.094, 129.6585
2891.023, 129.9285
2892.951, 129.4492
2894.880, 128.3797
2896.808, 127.0718
2898.737, 123.7693
2900.665, 121.9122
2902.594, 122.7010
2904.522, 122.9242
2906.451, 122.4019
2908.379, 121.3080
2910.308, 119.8889
2912.236, 118.4682
2914.165, 118.1012
2916.093, 118.9395
2918.021, 117.6127
2919.950, 116.9714
2921.878, 116.7782
2923.807, 115.0259
2925.735, 115.3279
2927.664, 115.4778
2929.592, 114.0654
2931.521, 112.0145
2933.449, 111.0543
2935.378, 110.8989
2937.306, 109.9876
2939.235, 109.7863
2941.163, 109.5221
2943.092, 108.5602
2945.020, 105.9894
2946.948, 104.8825
2948.877, 104.7895
2950.805, 103.0299
2952.734, 104.3476
2954.662, 104.6889
2956.591, 101.3935
2958.519, 99.87833
2960.448, 99.81277
2962.376, 100.3523
2964.305, 100.4079
2966.233, 100.2272
2968.162, 99.90079
2970.090, 99.14944
2972.019, 98.27785
2973.947, 96.44579
2975.875, 94.72701
2977.804, 94.07140
2979.732, 93.21529
2981.661, 93.14741
2983.589, 93.39111
2985.518, 90.12565
2987.446, 88.70573
2989.375, 89.32474
2991.303, 91.24966
2993.232, 89.03894
2995.160, 87.69420
2997.089, 87.67134
2999.017, 86.47359
3000.946, 85.31931
3002.874, 84.96883
3004.802, 83.99596
3006.731, 84.40916
3008.659, 83.13713
3010.588, 82.49174
3012.516, 82.95456
3014.445, 82.86376
3016.373, 82.30119
3018.302, 81.49501
3020.230, 80.84824
3022.159, 79.86668
3024.087, 79.19492
3026.016, 78.18243
3027.944, 77.85699
3029.873, 77.86114
3031.801, 77.58376
3033.729, 76.92963
3035.658, 77.60302
3037.586, 77.59048
3039.515, 76.29987
3041.443, 74.00285
3043.372, 73.67033
3045.300, 73.11777
3047.229, 71.50761
3049.157, 73.45468
3051.086, 74.42677
3053.014, 74.23093
3054.943, 73.76226
3056.871, 70.80128
3058.800, 69.83936
3060.728, 70.33879
3062.656, 68.52297
3064.585, 68.29652
3066.513, 68.39963
3068.442, 68.17760
3070.370, 68.12244
3072.299, 67.62022
3074.227, 67.18753
3076.156, 67.19421
3078.084, 66.90551
3080.013, 67.31370
3081.941, 67.31478
3083.870, 65.82311
3085.798, 66.06963
3087.727, 66.40982
3089.655, 65.74944
3091.583, 63.20897
3093.512, 61.55973
3095.440, 62.45607
3097.369, 64.31913
3099.297, 61.46716
3101.226, 61.80797
3103.154, 62.05630
3105.083, 61.00848
3107.011, 61.60928
3108.940, 61.39495
3110.868, 60.42525
3112.797, 59.07447
3114.725, 57.95404
3116.654, 57.46018
3118.582, 57.22306
3120.510, 56.87649
3122.439, 56.86828
3124.367, 56.16622
3126.296, 55.13650
3128.224, 54.42083
3130.153, 56.18284
3132.081, 56.21883
3134.010, 55.15115
3135.938, 55.06264
3137.867, 54.47143
3139.795, 53.43929
3141.724, 52.67589
3143.652, 53.10542
3145.581, 53.66899
3147.509, 52.77330
3149.438, 53.66141
3151.366, 53.02905
3153.294, 54.05231
3155.223, 54.19121
3157.151, 53.34062
3159.080, 51.18440
3161.008, 49.84221
3162.937, 49.35128
3164.865, 49.58924
3166.794, 50.56661
3168.722, 50.69359
3170.651, 50.79980
3172.579, 50.52154
3174.508, 50.45418
3176.436, 48.15741
3178.365, 49.39120
3180.293, 50.23485
3182.221, 48.53990
3184.150, 46.50914
3186.078, 46.07687
3188.007, 45.04528
3189.935, 44.53268
3191.864, 44.52522
3193.792, 44.17255
3195.721, 44.62738
3197.649, 44.63909
3199.578, 43.69062
3201.506, 44.09414
3203.435, 44.83039
3205.363, 43.08550
3207.292, 43.48232
3209.220, 43.14971
3211.148, 42.35633
3213.077, 42.72332
3215.005, 42.18212
3216.934, 40.82935
3218.862, 38.96136
3220.791, 36.77114
3222.719, 40.20980
3224.648, 41.45843
3226.576, 40.65260
3228.505, 39.48139
3230.433, 39.08446
3232.362, 39.86853
3234.290, 39.71282
3236.219, 37.89795
3238.147, 38.74851
3240.075, 38.21509
3242.004, 38.04234
3243.932, 38.69595
3245.861, 37.68262
3247.789, 37.99406
3249.718, 38.00110
3251.646, 37.25531
3253.575, 36.31485
3255.503, 37.14657
3257.432, 36.49309
3259.360, 35.70100
3261.289, 38.10727
3263.217, 37.38299
3265.146, 35.53643
3267.074, 34.67741
3269.002, 35.91349
3270.931, 35.02276
3272.859, 35.58002
3274.788, 35.89061
3276.716, 35.16737
3278.645, 36.01111
3280.573, 35.63972
3282.502, 34.04334
3284.430, 32.63192
3286.359, 33.55902
3288.287, 33.51580
3290.216, 33.07789
3292.144, 32.54340
3294.073, 32.27396
3296.001, 32.52454
3297.929, 32.16839
3299.858, 32.73896
3301.786, 32.31609
3303.715, 32.47322
3305.643, 31.68935
3307.572, 32.50431
3309.500, 32.25319
3311.429, 32.11280
3313.357, 31.11057
3315.286, 31.28494
3317.214, 30.88648
3319.143, 31.30248
3321.071, 30.64404
3323.000, 32.00269
3324.928, 33.50634
3326.856, 34.01945
3328.785, 34.06801
3330.713, 32.79446
3332.642, 30.50815
3334.570, 29.06061
3336.499, 29.90320
3338.427, 29.70343
3340.356, 30.12885
3342.284, 30.81446
3344.213, 31.26226
3346.141, 31.17279
3348.070, 31.42226
3349.998, 31.47280
3351.927, 31.15145
3353.855, 30.55161
3355.783, 29.80815
3357.712, 31.32196
3359.640, 32.46043
3361.569, 31.85228
3363.497, 30.34724
3365.426, 29.22697
3367.354, 29.71626
3369.283, 30.89260
3371.211, 31.48753
3373.140, 30.77030
3375.068, 30.40526
3376.997, 29.57339
3378.925, 28.35660
3380.854, 27.82691
3382.782, 27.60935
3384.710, 29.54939
3386.639, 28.89547
3388.567, 29.72772
3390.496, 28.09529
3392.424, 30.08927
3394.353, 29.86111
3396.281, 28.82567
3398.210, 28.54809
3400.138, 27.74116
3402.067, 27.57147
3403.995, 28.07488
3405.924, 28.40912
3407.852, 26.93992
3409.781, 28.11017
3411.709, 35.54410
3413.637, 40.87696
3415.566, 38.42618
3417.494, 29.79245
3419.423, 26.53995
3421.351, 25.50908
3423.280, 25.37043
3425.208, 25.69849
3427.137, 24.89164
3429.065, 27.39398
3430.994, 27.02653
3432.922, 25.00131
3434.851, 25.00037
3436.779, 22.66598
3438.708, 24.51617
3440.636, 25.11091
3442.564, 24.06290
3444.493, 24.40635
3446.421, 24.21088
3448.350, 22.81279
3450.278, 23.33574
3452.207, 24.68409
3454.135, 22.27745
3456.064, 25.04819
##END=



