##NAMES=Sussexite
##RRUFFID=R130121
##IDEAL CHEMISTRY=Mn^2+^BO_2_(OH)
##LOCALITY=Mine Hill, Franklin, Sussex County, New Jersey, USA
##OWNER=RRUFF
##SOURCE=Rock Currier
##DESCRIPTION=Pink massive
##STATUS=The identification of this mineral has been confirmed by X-ray diffraction
##URL=https://www.rruff.net/odr/rruff_sample/R130121
##DIFFRACTION SAMPLE DESCRIPTION=Powder
##CELL PARAMETERS=a: 3.191 b: 10.61 c: 12.747 alpha: 90 beta: 96.58 gamma: 90 volume: 428.7 crystal system: monoclinic
##FILETYPE=Raman RAW
##RAMAN WAVELENGTH=780

7.826855e+001, 8.158858e+002
8.019702e+001, 7.518232e+002
8.212549e+001, 7.278824e+002
8.405396e+001, 7.556385e+002
8.598242e+001, 8.158596e+002
8.791089e+001, 8.849451e+002
8.983936e+001, 9.621016e+002
9.176782e+001, 1.037087e+003
9.369629e+001, 1.066465e+003
9.562476e+001, 1.029665e+003
9.755322e+001, 9.977083e+002
9.948169e+001, 9.665566e+002
1.014102e+002, 9.296816e+002
1.033386e+002, 8.874964e+002
1.052671e+002, 8.425778e+002
1.071956e+002, 7.883262e+002
1.091240e+002, 7.360693e+002
1.110525e+002, 6.843101e+002
1.129810e+002, 6.360674e+002
1.149094e+002, 5.948184e+002
1.168379e+002, 5.595375e+002
1.187664e+002, 5.294987e+002
1.206948e+002, 5.049263e+002
1.226233e+002, 4.841774e+002
1.245518e+002, 4.674042e+002
1.264802e+002, 4.537974e+002
1.284087e+002, 4.424069e+002
1.303372e+002, 4.331205e+002
1.322656e+002, 4.248326e+002
1.341941e+002, 4.168594e+002
1.361226e+002, 4.105164e+002
1.380510e+002, 4.066654e+002
1.399795e+002, 4.042639e+002
1.419080e+002, 4.022513e+002
1.438364e+002, 4.006265e+002
1.457649e+002, 3.995831e+002
1.476934e+002, 3.994246e+002
1.496218e+002, 3.994541e+002
1.515503e+002, 3.989554e+002
1.534788e+002, 3.991447e+002
1.554072e+002, 4.010188e+002
1.573357e+002, 4.044165e+002
1.592642e+002, 4.081722e+002
1.611926e+002, 4.128497e+002
1.631211e+002, 4.170404e+002
1.650496e+002, 4.198293e+002
1.669780e+002, 4.229309e+002
1.689065e+002, 4.272533e+002
1.708350e+002, 4.327013e+002
1.727634e+002, 4.390798e+002
1.746919e+002, 4.471090e+002
1.766204e+002, 4.548236e+002
1.785488e+002, 4.622014e+002
1.804773e+002, 4.692286e+002
1.824058e+002, 4.761378e+002
1.843342e+002, 4.826036e+002
1.862627e+002, 4.879354e+002
1.881912e+002, 4.918657e+002
1.901196e+002, 4.955213e+002
1.920481e+002, 4.991772e+002
1.939766e+002, 5.021261e+002
1.959050e+002, 5.044303e+002
1.978335e+002, 5.055840e+002
1.997620e+002, 5.049184e+002
2.016904e+002, 5.023822e+002
2.036189e+002, 4.988230e+002
2.055474e+002, 4.944183e+002
2.074758e+002, 4.887194e+002
2.094043e+002, 4.802940e+002
2.113328e+002, 4.719639e+002
2.132612e+002, 4.656824e+002
2.151897e+002, 4.609562e+002
2.171182e+002, 4.559415e+002
2.190466e+002, 4.505408e+002
2.209751e+002, 4.453555e+002
2.229036e+002, 4.403759e+002
2.248320e+002, 4.357567e+002
2.267605e+002, 4.315499e+002
2.286890e+002, 4.276692e+002
2.306174e+002, 4.241652e+002
2.325459e+002, 4.210300e+002
2.344744e+002, 4.172971e+002
2.364028e+002, 4.125231e+002
2.383313e+002, 4.085750e+002
2.402598e+002, 4.064007e+002
2.421882e+002, 4.049892e+002
2.441167e+002, 4.036937e+002
2.460452e+002, 4.027099e+002
2.479736e+002, 4.026674e+002
2.499021e+002, 4.035499e+002
2.518306e+002, 4.047605e+002
2.537590e+002, 4.062937e+002
2.556875e+002, 4.079173e+002
2.576160e+002, 4.095937e+002
2.595444e+002, 4.112514e+002
2.614729e+002, 4.127877e+002
2.634014e+002, 4.142413e+002
2.653298e+002, 4.158823e+002
2.672583e+002, 4.179936e+002
2.691868e+002, 4.193868e+002
2.711152e+002, 4.194283e+002
2.730437e+002, 4.191775e+002
2.749722e+002, 4.191478e+002
2.769006e+002, 4.191342e+002
2.788291e+002, 4.188751e+002
2.807576e+002, 4.183542e+002
2.826860e+002, 4.173316e+002
2.846145e+002, 4.159466e+002
2.865430e+002, 4.136233e+002
2.884714e+002, 4.101959e+002
2.903999e+002, 4.059237e+002
2.923284e+002, 4.008720e+002
2.942568e+002, 3.950933e+002
2.961853e+002, 3.885978e+002
2.981138e+002, 3.813084e+002
3.000422e+002, 3.741485e+002
3.019707e+002, 3.669589e+002
3.038992e+002, 3.602831e+002
3.058276e+002, 3.542256e+002
3.077561e+002, 3.487261e+002
3.096846e+002, 3.437545e+002
3.116130e+002, 3.393089e+002
3.135415e+002, 3.354670e+002
3.154700e+002, 3.322231e+002
3.173984e+002, 3.296752e+002
3.193269e+002, 3.278574e+002
3.212554e+002, 3.265991e+002
3.231838e+002, 3.264290e+002
3.251123e+002, 3.262959e+002
3.270408e+002, 3.249308e+002
3.289692e+002, 3.229357e+002
3.308977e+002, 3.223201e+002
3.328262e+002, 3.238197e+002
3.347546e+002, 3.248660e+002
3.366831e+002, 3.252469e+002
3.386116e+002, 3.254943e+002
3.405400e+002, 3.255555e+002
3.424685e+002, 3.257433e+002
3.443970e+002, 3.264161e+002
3.463254e+002, 3.273824e+002
3.482539e+002, 3.279999e+002
3.501824e+002, 3.282230e+002
3.521108e+002, 3.281816e+002
3.540393e+002, 3.280210e+002
3.559678e+002, 3.273078e+002
3.578962e+002, 3.254456e+002
3.598247e+002, 3.234819e+002
3.617532e+002, 3.222854e+002
3.636816e+002, 3.214764e+002
3.656101e+002, 3.201130e+002
3.675386e+002, 3.180919e+002
3.694670e+002, 3.161351e+002
3.713955e+002, 3.142505e+002
3.733240e+002, 3.124435e+002
3.752524e+002, 3.105949e+002
3.771809e+002, 3.090132e+002
3.791094e+002, 3.081102e+002
3.810378e+002, 3.074110e+002
3.829663e+002, 3.060572e+002
3.848948e+002, 3.040407e+002
3.868232e+002, 3.024403e+002
3.887517e+002, 3.012874e+002
3.906802e+002, 3.003093e+002
3.926086e+002, 2.995093e+002
3.945371e+002, 2.987759e+002
3.964656e+002, 2.979435e+002
3.983940e+002, 2.972538e+002
4.003225e+002, 2.970637e+002
4.022510e+002, 2.972443e+002
4.041794e+002, 2.972061e+002
4.061079e+002, 2.969497e+002
4.080364e+002, 2.966510e+002
4.099648e+002, 2.963562e+002
4.118933e+002, 2.959440e+002
4.138218e+002, 2.951982e+002
4.157502e+002, 2.945162e+002
4.176787e+002, 2.941328e+002
4.196072e+002, 2.939592e+002
4.215356e+002, 2.939847e+002
4.234641e+002, 2.941253e+002
4.253926e+002, 2.937463e+002
4.273210e+002, 2.926709e+002
4.292495e+002, 2.919490e+002
4.311780e+002, 2.920479e+002
4.331064e+002, 2.922256e+002
4.350349e+002, 2.921393e+002
4.369634e+002, 2.921634e+002
4.388918e+002, 2.926962e+002
4.408203e+002, 2.935681e+002
4.427488e+002, 2.944003e+002
4.446772e+002, 2.951981e+002
4.466057e+002, 2.959737e+002
4.485342e+002, 2.966241e+002
4.504626e+002, 2.975417e+002
4.523911e+002, 2.991559e+002
4.543196e+002, 3.005440e+002
4.562480e+002, 3.011613e+002
4.581765e+002, 3.015572e+002
4.601050e+002, 3.019248e+002
4.620334e+002, 3.026190e+002
4.639619e+002, 3.045375e+002
4.658904e+002, 3.077257e+002
4.678188e+002, 3.109024e+002
4.697473e+002, 3.140396e+002
4.716758e+002, 3.169406e+002
4.736042e+002, 3.192340e+002
4.755327e+002, 3.217230e+002
4.774612e+002, 3.253355e+002
4.793896e+002, 3.287394e+002
4.813181e+002, 3.307775e+002
4.832466e+002, 3.316723e+002
4.851750e+002, 3.317533e+002
4.871035e+002, 3.310132e+002
4.890320e+002, 3.296347e+002
4.909604e+002, 3.270529e+002
4.928889e+002, 3.247400e+002
4.948174e+002, 3.226737e+002
4.967458e+002, 3.209559e+002
4.986743e+002, 3.198471e+002
5.006028e+002, 3.188842e+002
5.025313e+002, 3.179713e+002
5.044597e+002, 3.168587e+002
5.063882e+002, 3.150414e+002
5.083167e+002, 3.125332e+002
5.102451e+002, 3.098940e+002
5.121736e+002, 3.074332e+002
5.141021e+002, 3.039410e+002
5.160305e+002, 2.987609e+002
5.179590e+002, 2.938099e+002
5.198875e+002, 2.892780e+002
5.218159e+002, 2.856300e+002
5.237444e+002, 2.834054e+002
5.256729e+002, 2.819635e+002
5.276013e+002, 2.806534e+002
5.295298e+002, 2.795608e+002
5.314583e+002, 2.791161e+002
5.333867e+002, 2.794755e+002
5.353152e+002, 2.793744e+002
5.372437e+002, 2.786726e+002
5.391721e+002, 2.780719e+002
5.411006e+002, 2.776085e+002
5.430291e+002, 2.774339e+002
5.449575e+002, 2.778116e+002
5.468860e+002, 2.782675e+002
5.488145e+002, 2.785036e+002
5.507429e+002, 2.786389e+002
5.526714e+002, 2.787868e+002
5.545999e+002, 2.789838e+002
5.565283e+002, 2.793422e+002
5.584568e+002, 2.798426e+002
5.603853e+002, 2.811963e+002
5.623137e+002, 2.836207e+002
5.642422e+002, 2.862223e+002
5.661707e+002, 2.890814e+002
5.680991e+002, 2.915280e+002
5.700276e+002, 2.926398e+002
5.719561e+002, 2.940733e+002
5.738845e+002, 2.971357e+002
5.758130e+002, 3.010462e+002
5.777415e+002, 3.045919e+002
5.796699e+002, 3.080456e+002
5.815984e+002, 3.123930e+002
5.835269e+002, 3.175891e+002
5.854553e+002, 3.230607e+002
5.873838e+002, 3.286917e+002
5.893123e+002, 3.349290e+002
5.912407e+002, 3.425519e+002
5.931692e+002, 3.495988e+002
5.950977e+002, 3.548676e+002
5.970261e+002, 3.603489e+002
5.989546e+002, 3.673103e+002
6.008831e+002, 3.748638e+002
6.028115e+002, 3.823681e+002
6.047400e+002, 3.896081e+002
6.066685e+002, 3.962016e+002
6.085969e+002, 4.021674e+002
6.105254e+002, 4.075278e+002
6.124539e+002, 4.121814e+002
6.143823e+002, 4.171549e+002
6.163108e+002, 4.240975e+002
6.182393e+002, 4.281203e+002
6.201677e+002, 4.286436e+002
6.220962e+002, 4.263315e+002
6.240247e+002, 4.202203e+002
6.259531e+002, 4.127223e+002
6.278816e+002, 4.048988e+002
6.298101e+002, 3.969389e+002
6.317385e+002, 3.887499e+002
6.336670e+002, 3.807053e+002
6.355955e+002, 3.735456e+002
6.375239e+002, 3.672687e+002
6.394524e+002, 3.617731e+002
6.413809e+002, 3.574355e+002
6.433093e+002, 3.525141e+002
6.452378e+002, 3.464163e+002
6.471663e+002, 3.406989e+002
6.490947e+002, 3.357682e+002
6.510232e+002, 3.307198e+002
6.529517e+002, 3.252550e+002
6.548801e+002, 3.196372e+002
6.568086e+002, 3.133495e+002
6.587371e+002, 3.076659e+002
6.606655e+002, 3.038673e+002
6.625940e+002, 3.012377e+002
6.645225e+002, 2.986863e+002
6.664509e+002, 2.962353e+002
6.683794e+002, 2.941198e+002
6.703079e+002, 2.924686e+002
6.722363e+002, 2.898940e+002
6.741648e+002, 2.861499e+002
6.760933e+002, 2.824765e+002
6.780217e+002, 2.786644e+002
6.799502e+002, 2.757430e+002
6.818787e+002, 2.738994e+002
6.838071e+002, 2.730958e+002
6.857356e+002, 2.739388e+002
6.876641e+002, 2.749401e+002
6.895925e+002, 2.749742e+002
6.915210e+002, 2.750710e+002
6.934495e+002, 2.768687e+002
6.953779e+002, 2.789344e+002
6.973064e+002, 2.788539e+002
6.992349e+002, 2.769240e+002
7.011633e+002, 2.742080e+002
7.030918e+002, 2.706886e+002
7.050203e+002, 2.661863e+002
7.069487e+002, 2.605892e+002
7.088772e+002, 2.563375e+002
7.108057e+002, 2.538855e+002
7.127341e+002, 2.516227e+002
7.146626e+002, 2.490670e+002
7.165911e+002, 2.470481e+002
7.185195e+002, 2.462060e+002
7.204480e+002, 2.453999e+002
7.223765e+002, 2.438309e+002
7.243049e+002, 2.426105e+002
7.262334e+002, 2.427386e+002
7.281619e+002, 2.432912e+002
7.300903e+002, 2.435033e+002
7.320188e+002, 2.433595e+002
7.339473e+002, 2.426215e+002
7.358757e+002, 2.415546e+002
7.378042e+002, 2.409444e+002
7.397327e+002, 2.407278e+002
7.416611e+002, 2.406206e+002
7.435896e+002, 2.406045e+002
7.455181e+002, 2.402641e+002
7.474465e+002, 2.393814e+002
7.493750e+002, 2.391172e+002
7.513035e+002, 2.398783e+002
7.532319e+002, 2.407266e+002
7.551604e+002, 2.418250e+002
7.570889e+002, 2.424870e+002
7.590173e+002, 2.419460e+002
7.609458e+002, 2.417637e+002
7.628743e+002, 2.429276e+002
7.648027e+002, 2.443637e+002
7.667312e+002, 2.452027e+002
7.686597e+002, 2.460750e+002
7.705881e+002, 2.475876e+002
7.725166e+002, 2.495537e+002
7.744451e+002, 2.511183e+002
7.763735e+002, 2.531772e+002
7.783020e+002, 2.575896e+002
7.802305e+002, 2.643033e+002
7.821589e+002, 2.725492e+002
7.840874e+002, 2.822406e+002
7.860159e+002, 2.964165e+002
7.879443e+002, 3.161192e+002
7.898728e+002, 3.365977e+002
7.918013e+002, 3.598194e+002
7.937297e+002, 3.798276e+002
7.956582e+002, 3.958972e+002
7.975867e+002, 4.101292e+002
7.995151e+002, 4.201160e+002
8.014436e+002, 4.334565e+002
8.033721e+002, 4.503775e+002
8.053005e+002, 4.742584e+002
8.072290e+002, 5.079963e+002
8.091575e+002, 5.468798e+002
8.110859e+002, 5.915716e+002
8.130144e+002, 6.360705e+002
8.149429e+002, 6.805617e+002
8.168713e+002, 7.183102e+002
8.187998e+002, 7.473926e+002
8.207283e+002, 7.620966e+002
8.226567e+002, 7.537984e+002
8.245852e+002, 7.250259e+002
8.265137e+002, 6.764851e+002
8.284421e+002, 6.127408e+002
8.303706e+002, 5.489259e+002
8.322991e+002, 4.858536e+002
8.342275e+002, 4.328742e+002
8.361560e+002, 3.902006e+002
8.380845e+002, 3.557138e+002
8.400129e+002, 3.296237e+002
8.419414e+002, 3.084054e+002
8.438699e+002, 2.919958e+002
8.457983e+002, 2.792140e+002
8.477268e+002, 2.701988e+002
8.496553e+002, 2.632721e+002
8.515837e+002, 2.585229e+002
8.535122e+002, 2.542634e+002
8.554407e+002, 2.498672e+002
8.573691e+002, 2.464248e+002
8.592976e+002, 2.446942e+002
8.612261e+002, 2.432331e+002
8.631545e+002, 2.416169e+002
8.650830e+002, 2.400911e+002
8.670115e+002, 2.389611e+002
8.689399e+002, 2.376772e+002
8.708684e+002, 2.358834e+002
8.727969e+002, 2.338721e+002
8.747253e+002, 2.317732e+002
8.766538e+002, 2.296572e+002
8.785823e+002, 2.276029e+002
8.805107e+002, 2.255628e+002
8.824392e+002, 2.233301e+002
8.843677e+002, 2.212063e+002
8.862961e+002, 2.196536e+002
8.882246e+002, 2.185263e+002
8.901531e+002, 2.177941e+002
8.920815e+002, 2.171548e+002
8.940100e+002, 2.158592e+002
8.959385e+002, 2.141176e+002
8.978669e+002, 2.125809e+002
8.997954e+002, 2.111889e+002
9.017239e+002, 2.095343e+002
9.036523e+002, 2.076741e+002
9.055808e+002, 2.062764e+002
9.075093e+002, 2.053623e+002
9.094377e+002, 2.043929e+002
9.113662e+002, 2.033140e+002
9.132947e+002, 2.026118e+002
9.152231e+002, 2.024851e+002
9.171516e+002, 2.019448e+002
9.190801e+002, 2.008203e+002
9.210085e+002, 1.996733e+002
9.229370e+002, 1.981116e+002
9.248655e+002, 1.973549e+002
9.267939e+002, 1.980999e+002
9.287224e+002, 1.982400e+002
9.306509e+002, 1.972991e+002
9.325793e+002, 1.964905e+002
9.345078e+002, 1.958920e+002
9.364363e+002, 1.955965e+002
9.383647e+002, 1.956547e+002
9.402932e+002, 1.959590e+002
9.422217e+002, 1.966712e+002
9.441501e+002, 1.971824e+002
9.460786e+002, 1.972321e+002
9.480071e+002, 1.971785e+002
9.499355e+002, 1.969425e+002
9.518640e+002, 1.970991e+002
9.537925e+002, 1.982605e+002
9.557209e+002, 1.991622e+002
9.576494e+002, 1.992050e+002
9.595779e+002, 1.988680e+002
9.615063e+002, 1.980299e+002
9.634348e+002, 1.974575e+002
9.653633e+002, 1.978484e+002
9.672917e+002, 1.982448e+002
9.692202e+002, 1.981481e+002
9.711487e+002, 1.978463e+002
9.730771e+002, 1.971831e+002
9.750056e+002, 1.967769e+002
9.769341e+002, 1.975849e+002
9.788625e+002, 1.981541e+002
9.807910e+002, 1.970238e+002
9.827195e+002, 1.955836e+002
9.846479e+002, 1.952119e+002
9.865764e+002, 1.948293e+002
9.885049e+002, 1.931180e+002
9.904333e+002, 1.912792e+002
9.923618e+002, 1.904041e+002
9.942903e+002, 1.901083e+002
9.962188e+002, 1.904769e+002
9.981472e+002, 1.907084e+002
1.000076e+003, 1.897302e+002
1.002004e+003, 1.883040e+002
1.003933e+003, 1.871183e+002
1.005861e+003, 1.862054e+002
1.007790e+003, 1.857538e+002
1.009718e+003, 1.854524e+002
1.011646e+003, 1.849204e+002
1.013575e+003, 1.842751e+002
1.015503e+003, 1.836353e+002
1.017432e+003, 1.830008e+002
1.019360e+003, 1.823826e+002
1.021289e+003, 1.817693e+002
1.023217e+003, 1.811075e+002
1.025146e+003, 1.804917e+002
1.027074e+003, 1.798892e+002
1.029003e+003, 1.795658e+002
1.030931e+003, 1.801480e+002
1.032860e+003, 1.809968e+002
1.034788e+003, 1.811628e+002
1.036717e+003, 1.811373e+002
1.038645e+003, 1.817631e+002
1.040573e+003, 1.824091e+002
1.042502e+003, 1.820261e+002
1.044430e+003, 1.813580e+002
1.046359e+003, 1.813241e+002
1.048287e+003, 1.815853e+002
1.050216e+003, 1.817924e+002
1.052144e+003, 1.819925e+002
1.054073e+003, 1.822952e+002
1.056001e+003, 1.825991e+002
1.057930e+003, 1.829157e+002
1.059858e+003, 1.830394e+002
1.061787e+003, 1.827803e+002
1.063715e+003, 1.821248e+002
1.065644e+003, 1.806799e+002
1.067572e+003, 1.791893e+002
1.069500e+003, 1.785319e+002
1.071429e+003, 1.781651e+002
1.073357e+003, 1.775777e+002
1.075286e+003, 1.769503e+002
1.077214e+003, 1.766794e+002
1.079143e+003, 1.762275e+002
1.081071e+003, 1.748027e+002
1.083000e+003, 1.733502e+002
1.084928e+003, 1.729303e+002
1.086857e+003, 1.725433e+002
1.088785e+003, 1.710228e+002
1.090714e+003, 1.696717e+002
1.092642e+003, 1.696474e+002
1.094571e+003, 1.698778e+002
1.096499e+003, 1.695649e+002
1.098427e+003, 1.693416e+002
1.100356e+003, 1.700837e+002
1.102284e+003, 1.703428e+002
1.104213e+003, 1.685407e+002
1.106141e+003, 1.671456e+002
1.108070e+003, 1.677920e+002
1.109998e+003, 1.685221e+002
1.111927e+003, 1.687455e+002
1.113855e+003, 1.684760e+002
1.115784e+003, 1.673508e+002
1.117712e+003, 1.663474e+002
1.119641e+003, 1.657801e+002
1.121569e+003, 1.653791e+002
1.123498e+003, 1.649814e+002
1.125426e+003, 1.649311e+002
1.127354e+003, 1.655582e+002
1.129283e+003, 1.659954e+002
1.131211e+003, 1.660098e+002
1.133140e+003, 1.658834e+002
1.135068e+003, 1.652937e+002
1.136997e+003, 1.657209e+002
1.138925e+003, 1.679176e+002
1.140854e+003, 1.692681e+002
1.142782e+003, 1.692187e+002
1.144711e+003, 1.692696e+002
1.146639e+003, 1.694774e+002
1.148568e+003, 1.703642e+002
1.150496e+003, 1.720264e+002
1.152425e+003, 1.739270e+002
1.154353e+003, 1.760264e+002
1.156281e+003, 1.785393e+002
1.158210e+003, 1.814683e+002
1.160138e+003, 1.846927e+002
1.162067e+003, 1.881410e+002
1.163995e+003, 1.908859e+002
1.165924e+003, 1.930094e+002
1.167852e+003, 1.950443e+002
1.169781e+003, 1.971692e+002
1.171709e+003, 2.004748e+002
1.173638e+003, 2.043777e+002
1.175566e+003, 2.071154e+002
1.177495e+003, 2.090366e+002
1.179423e+003, 2.110724e+002
1.181352e+003, 2.126625e+002
1.183280e+003, 2.128515e+002
1.185208e+003, 2.120738e+002
1.187137e+003, 2.107426e+002
1.189065e+003, 2.088412e+002
1.190994e+003, 2.062243e+002
1.192922e+003, 2.031799e+002
1.194851e+003, 1.995726e+002
1.196779e+003, 1.961688e+002
1.198708e+003, 1.936029e+002
1.200636e+003, 1.910831e+002
1.202565e+003, 1.881417e+002
1.204493e+003, 1.853437e+002
1.206422e+003, 1.829118e+002
1.208350e+003, 1.805936e+002
1.210279e+003, 1.781555e+002
1.212207e+003, 1.763713e+002
1.214135e+003, 1.755834e+002
1.216064e+003, 1.745921e+002
1.217992e+003, 1.730779e+002
1.219921e+003, 1.722707e+002
1.221849e+003, 1.723918e+002
1.223778e+003, 1.721637e+002
1.225706e+003, 1.715122e+002
1.227635e+003, 1.721087e+002
1.229563e+003, 1.739273e+002
1.231492e+003, 1.757627e+002
1.233420e+003, 1.776019e+002
1.235349e+003, 1.795074e+002
1.237277e+003, 1.815145e+002
1.239206e+003, 1.836925e+002
1.241134e+003, 1.860932e+002
1.243063e+003, 1.886208e+002
1.244991e+003, 1.916526e+002
1.246919e+003, 1.961694e+002
1.248848e+003, 2.009391e+002
1.250776e+003, 2.047412e+002
1.252705e+003, 2.082071e+002
1.254633e+003, 2.122081e+002
1.256562e+003, 2.154090e+002
1.258490e+003, 2.170209e+002
1.260419e+003, 2.177914e+002
1.262347e+003, 2.177719e+002
1.264276e+003, 2.173328e+002
1.266204e+003, 2.167102e+002
1.268133e+003, 2.152397e+002
1.270061e+003, 2.123410e+002
1.271990e+003, 2.104839e+002
1.273918e+003, 2.100714e+002
1.275846e+003, 2.087990e+002
1.277775e+003, 2.065808e+002
1.279703e+003, 2.045445e+002
1.281632e+003, 2.026942e+002
1.283560e+003, 2.009732e+002
1.285489e+003, 1.992688e+002
1.287417e+003, 1.971040e+002
1.289346e+003, 1.948270e+002
1.291274e+003, 1.929872e+002
1.293203e+003, 1.914705e+002
1.295131e+003, 1.903304e+002
1.297060e+003, 1.891845e+002
1.298988e+003, 1.878822e+002
1.300917e+003, 1.862076e+002
1.302845e+003, 1.837578e+002
1.304773e+003, 1.815507e+002
1.306702e+003, 1.800329e+002
1.308630e+003, 1.785914e+002
1.310559e+003, 1.770046e+002
1.312487e+003, 1.758497e+002
1.314416e+003, 1.752790e+002
1.316344e+003, 1.747993e+002
1.318273e+003, 1.744153e+002
1.320201e+003, 1.733515e+002
1.322130e+003, 1.717984e+002
1.324058e+003, 1.714815e+002
1.325987e+003, 1.718891e+002
1.327915e+003, 1.714746e+002
1.329844e+003, 1.708098e+002
1.331772e+003, 1.709414e+002
1.333700e+003, 1.711929e+002
1.335629e+003, 1.710581e+002
1.337557e+003, 1.705333e+002
1.339486e+003, 1.692586e+002
1.341414e+003, 1.682167e+002
1.343343e+003, 1.676897e+002
1.345271e+003, 1.676248e+002
1.347200e+003, 1.681875e+002
1.349128e+003, 1.680475e+002
1.351057e+003, 1.669578e+002
1.352985e+003, 1.673393e+002
1.354914e+003, 1.690976e+002
1.356842e+003, 1.690014e+002
1.358771e+003, 1.675413e+002
1.360699e+003, 1.670071e+002
1.362627e+003, 1.670929e+002
1.364556e+003, 1.672517e+002
1.366484e+003, 1.675875e+002
1.368413e+003, 1.684681e+002
1.370341e+003, 1.692237e+002
1.372270e+003, 1.694708e+002
1.374198e+003, 1.692659e+002
1.376127e+003, 1.680666e+002
1.378055e+003, 1.675108e+002
1.379984e+003, 1.680528e+002
1.381912e+003, 1.688502e+002
1.383841e+003, 1.699265e+002
1.385769e+003, 1.705294e+002
1.387698e+003, 1.706574e+002
1.389626e+003, 1.705643e+002
1.391554e+003, 1.703727e+002
1.393483e+003, 1.703780e+002
1.395411e+003, 1.705928e+002
1.397340e+003, 1.711063e+002
1.399268e+003, 1.717147e+002
1.401197e+003, 1.722682e+002
1.403125e+003, 1.728204e+002
1.405054e+003, 1.735421e+002
1.406982e+003, 1.739574e+002
1.408911e+003, 1.737917e+002
1.410839e+003, 1.736605e+002
1.412768e+003, 1.734683e+002
1.414696e+003, 1.741739e+002
1.416625e+003, 1.757464e+002
1.418553e+003, 1.765412e+002
1.420481e+003, 1.768424e+002
1.422410e+003, 1.775701e+002
1.424338e+003, 1.785734e+002
1.426267e+003, 1.795852e+002
1.428195e+003, 1.808619e+002
1.430124e+003, 1.831080e+002
1.432052e+003, 1.846367e+002
1.433981e+003, 1.846613e+002
1.435909e+003, 1.842091e+002
1.437838e+003, 1.834712e+002
1.439766e+003, 1.826732e+002
1.441695e+003, 1.818408e+002
1.443623e+003, 1.807378e+002
1.445552e+003, 1.794243e+002
1.447480e+003, 1.780776e+002
1.449408e+003, 1.769080e+002
1.451337e+003, 1.764249e+002
1.453265e+003, 1.762110e+002
1.455194e+003, 1.760184e+002
1.457122e+003, 1.756428e+002
1.459051e+003, 1.746078e+002
1.460979e+003, 1.742705e+002
1.462908e+003, 1.750087e+002
1.464836e+003, 1.761089e+002
1.466765e+003, 1.774604e+002
1.468693e+003, 1.776165e+002
1.470622e+003, 1.769776e+002
1.472550e+003, 1.776178e+002
1.474479e+003, 1.788833e+002
1.476407e+003, 1.795649e+002
1.478335e+003, 1.803265e+002
1.480264e+003, 1.819816e+002
1.482192e+003, 1.835678e+002
1.484121e+003, 1.848884e+002
1.486049e+003, 1.854254e+002
1.487978e+003, 1.847572e+002
1.489906e+003, 1.851629e+002
1.491835e+003, 1.866411e+002
1.493763e+003, 1.857873e+002
1.495692e+003, 1.834640e+002
1.497620e+003, 1.825918e+002
1.499549e+003, 1.820819e+002
1.501477e+003, 1.807873e+002
1.503406e+003, 1.789650e+002
1.505334e+003, 1.765128e+002
1.507262e+003, 1.741075e+002
1.509191e+003, 1.719830e+002
1.511119e+003, 1.698400e+002
1.513048e+003, 1.675211e+002
1.514976e+003, 1.665301e+002
1.516905e+003, 1.664775e+002
1.518833e+003, 1.650350e+002
1.520762e+003, 1.629792e+002
1.522690e+003, 1.613965e+002
1.524619e+003, 1.600738e+002
1.526547e+003, 1.587704e+002
1.528476e+003, 1.579368e+002
1.530404e+003, 1.578925e+002
1.532333e+003, 1.576263e+002
1.534261e+003, 1.569479e+002
1.536189e+003, 1.565043e+002
1.538118e+003, 1.562793e+002
1.540046e+003, 1.562705e+002
1.541975e+003, 1.561627e+002
1.543903e+003, 1.552331e+002
1.545832e+003, 1.542362e+002
1.547760e+003, 1.535505e+002
1.549689e+003, 1.533039e+002
1.551617e+003, 1.537018e+002
1.553546e+003, 1.533974e+002
1.555474e+003, 1.522337e+002
1.557403e+003, 1.515173e+002
1.559331e+003, 1.511257e+002
1.561260e+003, 1.503488e+002
1.563188e+003, 1.496097e+002
1.565116e+003, 1.497858e+002
1.567045e+003, 1.497274e+002
1.568973e+003, 1.483167e+002
1.570902e+003, 1.474399e+002
1.572830e+003, 1.474299e+002
1.574759e+003, 1.479824e+002
1.576687e+003, 1.488212e+002
1.578616e+003, 1.478331e+002
1.580544e+003, 1.460514e+002
1.582473e+003, 1.453865e+002
1.584401e+003, 1.454606e+002
1.586330e+003, 1.465400e+002
1.588258e+003, 1.471741e+002
1.590187e+003, 1.463627e+002
1.592115e+003, 1.461971e+002
1.594043e+003, 1.468517e+002
1.595972e+003, 1.465361e+002
1.597900e+003, 1.455488e+002
1.599829e+003, 1.450213e+002
1.601757e+003, 1.446574e+002
1.603686e+003, 1.439765e+002
1.605614e+003, 1.435899e+002
1.607543e+003, 1.441454e+002
1.609471e+003, 1.443447e+002
1.611400e+003, 1.439694e+002
1.613328e+003, 1.432967e+002
1.615257e+003, 1.424366e+002
1.617185e+003, 1.419779e+002
1.619114e+003, 1.418473e+002
1.621042e+003, 1.422021e+002
1.622970e+003, 1.423084e+002
1.624899e+003, 1.415763e+002
1.626827e+003, 1.411977e+002
1.628756e+003, 1.416258e+002
1.630684e+003, 1.410090e+002
1.632613e+003, 1.395963e+002
1.634541e+003, 1.393092e+002
1.636470e+003, 1.395656e+002
1.638398e+003, 1.396026e+002
1.640327e+003, 1.396184e+002
1.642255e+003, 1.397765e+002
1.644184e+003, 1.396368e+002
1.646112e+003, 1.390690e+002
1.648041e+003, 1.389327e+002
1.649969e+003, 1.391208e+002
1.651897e+003, 1.389343e+002
1.653826e+003, 1.385072e+002
1.655754e+003, 1.378000e+002
1.657683e+003, 1.373470e+002
1.659611e+003, 1.375643e+002
1.661540e+003, 1.372778e+002
1.663468e+003, 1.363263e+002
1.665397e+003, 1.359836e+002
1.667325e+003, 1.361062e+002
1.669254e+003, 1.360770e+002
1.671182e+003, 1.358870e+002
1.673111e+003, 1.354135e+002
1.675039e+003, 1.349715e+002
1.676968e+003, 1.347345e+002
1.678896e+003, 1.340760e+002
1.680824e+003, 1.330453e+002
1.682753e+003, 1.335797e+002
1.684681e+003, 1.345775e+002
1.686610e+003, 1.332952e+002
1.688538e+003, 1.321092e+002
1.690467e+003, 1.333778e+002
1.692395e+003, 1.340656e+002
1.694324e+003, 1.333251e+002
1.696252e+003, 1.330224e+002
1.698181e+003, 1.331091e+002
1.700109e+003, 1.330454e+002
1.702038e+003, 1.328508e+002
1.703966e+003, 1.324015e+002
1.705895e+003, 1.321304e+002
1.707823e+003, 1.327036e+002
1.709751e+003, 1.321356e+002
1.711680e+003, 1.301750e+002
1.713608e+003, 1.301682e+002
1.715537e+003, 1.311046e+002
1.717465e+003, 1.303596e+002
1.719394e+003, 1.298265e+002
1.721322e+003, 1.309928e+002
1.723251e+003, 1.317506e+002
1.725179e+003, 1.315101e+002
1.727108e+003, 1.310930e+002
1.729036e+003, 1.305359e+002
1.730965e+003, 1.296808e+002
1.732893e+003, 1.290489e+002
1.734822e+003, 1.293564e+002
1.736750e+003, 1.295553e+002
1.738678e+003, 1.293136e+002
1.740607e+003, 1.291143e+002
1.742535e+003, 1.289511e+002
1.744464e+003, 1.281207e+002
1.746392e+003, 1.272922e+002
1.748321e+003, 1.277071e+002
1.750249e+003, 1.279504e+002
1.752178e+003, 1.274302e+002
1.754106e+003, 1.269562e+002
1.756035e+003, 1.266305e+002
1.757963e+003, 1.264467e+002
1.759892e+003, 1.263060e+002
1.761820e+003, 1.261227e+002
1.763749e+003, 1.257769e+002
1.765677e+003, 1.250947e+002
1.767605e+003, 1.246146e+002
1.769534e+003, 1.243876e+002
1.771462e+003, 1.241750e+002
1.773391e+003, 1.240855e+002
1.775319e+003, 1.247204e+002
1.777248e+003, 1.249345e+002
1.779176e+003, 1.232907e+002
1.781105e+003, 1.229130e+002
1.783033e+003, 1.240859e+002
1.784962e+003, 1.242111e+002
1.786890e+003, 1.236641e+002
1.788819e+003, 1.231633e+002
1.790747e+003, 1.228714e+002
1.792676e+003, 1.231402e+002
1.794604e+003, 1.230208e+002
1.796532e+003, 1.223909e+002
1.798461e+003, 1.216678e+002
1.800389e+003, 1.211131e+002
1.802318e+003, 1.214342e+002
1.804246e+003, 1.217756e+002
1.806175e+003, 1.216765e+002
1.808103e+003, 1.214643e+002
1.810032e+003, 1.211936e+002
1.811960e+003, 1.204077e+002
1.813889e+003, 1.197257e+002
1.815817e+003, 1.208205e+002
1.817746e+003, 1.213291e+002
1.819674e+003, 1.198380e+002
1.821603e+003, 1.191817e+002
1.823531e+003, 1.196081e+002
1.825459e+003, 1.198542e+002
1.827388e+003, 1.198403e+002
1.829316e+003, 1.190877e+002
1.831245e+003, 1.188732e+002
1.833173e+003, 1.198285e+002
1.835102e+003, 1.194743e+002
1.837030e+003, 1.180530e+002
1.838959e+003, 1.185219e+002
1.840887e+003, 1.191443e+002
1.842816e+003, 1.175129e+002
1.844744e+003, 1.164363e+002
1.846673e+003, 1.165209e+002
1.848601e+003, 1.168529e+002
1.850530e+003, 1.172067e+002
1.852458e+003, 1.173680e+002
1.854386e+003, 1.170594e+002
1.856315e+003, 1.155624e+002
1.858243e+003, 1.149817e+002
1.860172e+003, 1.155092e+002
1.862100e+003, 1.157904e+002
1.864029e+003, 1.157565e+002
1.865957e+003, 1.151779e+002
1.867886e+003, 1.147106e+002
1.869814e+003, 1.147443e+002
1.871743e+003, 1.145661e+002
1.873671e+003, 1.142088e+002
1.875600e+003, 1.141668e+002
1.877528e+003, 1.141541e+002
1.879457e+003, 1.137628e+002
1.881385e+003, 1.136341e+002
1.883313e+003, 1.140373e+002
1.885242e+003, 1.136253e+002
1.887170e+003, 1.127379e+002
1.889099e+003, 1.119174e+002
1.891027e+003, 1.116531e+002
1.892956e+003, 1.130976e+002
1.894884e+003, 1.124207e+002
1.896813e+003, 1.096728e+002
1.898741e+003, 1.091180e+002
1.900670e+003, 1.096062e+002
1.902598e+003, 1.102558e+002
1.904527e+003, 1.104119e+002
1.906455e+003, 1.097421e+002
1.908384e+003, 1.093139e+002
1.910312e+003, 1.091716e+002
1.912240e+003, 1.096177e+002
1.914169e+003, 1.099835e+002
1.916097e+003, 1.100107e+002
1.918026e+003, 1.094141e+002
1.919954e+003, 1.083187e+002
1.921883e+003, 1.076909e+002
1.923811e+003, 1.073989e+002
1.925740e+003, 1.074252e+002
1.927668e+003, 1.074016e+002
1.929597e+003, 1.072491e+002
1.931525e+003, 1.069773e+002
1.933454e+003, 1.066245e+002
1.935382e+003, 1.063605e+002
1.937311e+003, 1.057520e+002
1.939239e+003, 1.045667e+002
1.941167e+003, 1.041671e+002
1.943096e+003, 1.044053e+002
1.945024e+003, 1.045933e+002
1.946953e+003, 1.044454e+002
1.948881e+003, 1.035743e+002
1.950810e+003, 1.027677e+002
1.952738e+003, 1.021891e+002
1.954667e+003, 1.026988e+002
1.956595e+003, 1.032376e+002
1.958524e+003, 1.025267e+002
1.960452e+003, 1.017799e+002
1.962381e+003, 1.012139e+002
1.964309e+003, 1.016518e+002
1.966238e+003, 1.022304e+002
1.968166e+003, 1.012740e+002
1.970094e+003, 1.007303e+002
1.972023e+003, 1.016760e+002
1.973951e+003, 1.010558e+002
1.975880e+003, 9.966663e+001
1.977808e+003, 9.970169e+001
1.979737e+003, 9.987669e+001
1.981665e+003, 9.966725e+001
1.983594e+003, 9.876620e+001
1.985522e+003, 9.751241e+001
1.987451e+003, 9.764205e+001
1.989379e+003, 9.803381e+001
1.991308e+003, 9.806898e+001
1.993236e+003, 9.779391e+001
1.995165e+003, 9.728857e+001
1.997093e+003, 9.711687e+001
1.999021e+003, 9.691425e+001
2.000950e+003, 9.631220e+001
2.002878e+003, 9.610169e+001
2.004807e+003, 9.634011e+001
2.006735e+003, 9.500716e+001
2.008664e+003, 9.370521e+001
2.010592e+003, 9.443216e+001
2.012521e+003, 9.484274e+001
2.014449e+003, 9.448902e+001
2.016378e+003, 9.444071e+001
2.018306e+003, 9.441883e+001
2.020235e+003, 9.393712e+001
2.022163e+003, 9.348440e+001
2.024092e+003, 9.315473e+001
2.026020e+003, 9.271518e+001
2.027948e+003, 9.237098e+001
2.029877e+003, 9.276478e+001
2.031805e+003, 9.252168e+001
2.033734e+003, 9.134870e+001
2.035662e+003, 9.103519e+001
2.037591e+003, 9.109963e+001
2.039519e+003, 9.066288e+001
2.041448e+003, 9.029884e+001
2.043376e+003, 9.017013e+001
2.045305e+003, 8.978110e+001
2.047233e+003, 8.914758e+001
2.049162e+003, 8.780718e+001
2.051090e+003, 8.763057e+001
2.053019e+003, 8.937859e+001
2.054947e+003, 8.894975e+001
2.056875e+003, 8.769299e+001
2.058804e+003, 8.806550e+001
2.060732e+003, 8.811224e+001
2.062661e+003, 8.711043e+001
2.064589e+003, 8.636769e+001
2.066518e+003, 8.597045e+001
2.068446e+003, 8.613219e+001
2.070375e+003, 8.631719e+001
2.072303e+003, 8.637683e+001
2.074232e+003, 8.623537e+001
2.076160e+003, 8.604913e+001
2.078089e+003, 8.611944e+001
2.080017e+003, 8.594789e+001
2.081946e+003, 8.538554e+001
2.083874e+003, 8.490630e+001
2.085802e+003, 8.459128e+001
2.087731e+003, 8.458868e+001
2.089659e+003, 8.451503e+001
2.091588e+003, 8.429454e+001
2.093516e+003, 8.443391e+001
2.095445e+003, 8.442329e+001
2.097373e+003, 8.365853e+001
2.099302e+003, 8.309029e+001
2.101230e+003, 8.282786e+001
2.103159e+003, 8.230655e+001
2.105087e+003, 8.185644e+001
2.107016e+003, 8.185812e+001
2.108944e+003, 8.121490e+001
2.110873e+003, 8.014796e+001
2.112801e+003, 8.039201e+001
2.114729e+003, 8.056179e+001
2.116658e+003, 7.966208e+001
2.118586e+003, 7.980251e+001
2.120515e+003, 8.061997e+001
2.122443e+003, 8.075401e+001
2.124372e+003, 8.056213e+001
2.126300e+003, 8.020942e+001
2.128229e+003, 7.926202e+001
2.130157e+003, 7.828631e+001
2.132086e+003, 7.837479e+001
2.134014e+003, 7.863226e+001
2.135943e+003, 7.881955e+001
2.137871e+003, 7.863356e+001
2.139800e+003, 7.829066e+001
2.141728e+003, 7.812697e+001
2.143656e+003, 7.762362e+001
2.145585e+003, 7.678317e+001
2.147513e+003, 7.703376e+001
2.149442e+003, 7.731467e+001
2.151370e+003, 7.668100e+001
2.153299e+003, 7.642333e+001
2.155227e+003, 7.650620e+001
2.157156e+003, 7.637407e+001
2.159084e+003, 7.623144e+001
2.161013e+003, 7.623050e+001
2.162941e+003, 7.562743e+001
2.164870e+003, 7.481658e+001
2.166798e+003, 7.460845e+001
2.168727e+003, 7.442696e+001
2.170655e+003, 7.413622e+001
2.172583e+003, 7.479902e+001
2.174512e+003, 7.521314e+001
2.176440e+003, 7.397749e+001
2.178369e+003, 7.316406e+001
2.180297e+003, 7.299981e+001
2.182226e+003, 7.295572e+001
2.184154e+003, 7.295887e+001
2.186083e+003, 7.301082e+001
2.188011e+003, 7.255949e+001
2.189940e+003, 7.184719e+001
2.191868e+003, 7.125163e+001
2.193797e+003, 7.110733e+001
2.195725e+003, 7.144326e+001
2.197654e+003, 7.186771e+001
2.199582e+003, 7.189605e+001
2.201510e+003, 7.045928e+001
2.203439e+003, 7.030940e+001
2.205367e+003, 7.112601e+001
2.207296e+003, 7.073008e+001
2.209224e+003, 7.022691e+001
2.211153e+003, 7.020902e+001
2.213081e+003, 6.965285e+001
2.215010e+003, 6.915334e+001
2.216938e+003, 7.015443e+001
2.218867e+003, 6.991071e+001
2.220795e+003, 6.822301e+001
2.222724e+003, 6.860866e+001
2.224652e+003, 6.925558e+001
2.226581e+003, 6.873660e+001
2.228509e+003, 6.878093e+001
2.230438e+003, 6.906210e+001
2.232366e+003, 6.850108e+001
2.234294e+003, 6.812547e+001
2.236223e+003, 6.825889e+001
2.238151e+003, 6.781846e+001
2.240080e+003, 6.743755e+001
2.242008e+003, 6.769637e+001
2.243937e+003, 6.779023e+001
2.245865e+003, 6.758611e+001
2.247794e+003, 6.669385e+001
2.249722e+003, 6.599149e+001
2.251651e+003, 6.577950e+001
2.253579e+003, 6.639706e+001
2.255508e+003, 6.664569e+001
2.257436e+003, 6.498518e+001
2.259365e+003, 6.477026e+001
2.261293e+003, 6.576421e+001
2.263221e+003, 6.552150e+001
2.265150e+003, 6.559383e+001
2.267078e+003, 6.644852e+001
2.269007e+003, 6.625346e+001
2.270935e+003, 6.550182e+001
2.272864e+003, 6.444122e+001
2.274792e+003, 6.432161e+001
2.276721e+003, 6.481760e+001
2.278649e+003, 6.459903e+001
2.280578e+003, 6.403383e+001
2.282506e+003, 6.328513e+001
2.284435e+003, 6.375232e+001
2.286363e+003, 6.434494e+001
2.288292e+003, 6.400318e+001
2.290220e+003, 6.316101e+001
2.292148e+003, 6.222935e+001
2.294077e+003, 6.217803e+001
2.296005e+003, 6.219804e+001
2.297934e+003, 6.205424e+001
2.299862e+003, 6.169987e+001
2.301791e+003, 6.124086e+001
2.303719e+003, 6.055964e+001
2.305648e+003, 6.070094e+001
2.307576e+003, 6.132911e+001
2.309505e+003, 6.192214e+001
2.311433e+003, 6.196061e+001
2.313362e+003, 6.144843e+001
2.315290e+003, 6.134699e+001
2.317219e+003, 6.142764e+001
2.319147e+003, 6.160502e+001
2.321075e+003, 6.138028e+001
2.323004e+003, 6.116082e+001
2.324932e+003, 6.155339e+001
2.326861e+003, 6.162004e+001
2.328789e+003, 6.118402e+001
2.330718e+003, 5.968229e+001
2.332646e+003, 5.886278e+001
2.334575e+003, 5.915319e+001
2.336503e+003, 5.869708e+001
2.338432e+003, 5.817993e+001
2.340360e+003, 5.806964e+001
2.342289e+003, 5.889744e+001
2.344217e+003, 5.962724e+001
2.346146e+003, 5.776661e+001
2.348074e+003, 5.731947e+001
2.350002e+003, 5.830033e+001
2.351931e+003, 5.810268e+001
2.353859e+003, 5.804018e+001
2.355788e+003, 5.855877e+001
2.357716e+003, 5.760569e+001
2.359645e+003, 5.659929e+001
2.361573e+003, 5.706105e+001
2.363502e+003, 5.677516e+001
2.365430e+003, 5.623782e+001
2.367359e+003, 5.648598e+001
2.369287e+003, 5.682258e+001
2.371216e+003, 5.702284e+001
2.373144e+003, 5.657354e+001
2.375073e+003, 5.603424e+001
2.377001e+003, 5.560558e+001
2.378929e+003, 5.528233e+001
2.380858e+003, 5.524173e+001
2.382786e+003, 5.572078e+001
2.384715e+003, 5.613255e+001
2.386643e+003, 5.600261e+001
2.388572e+003, 5.437540e+001
2.390500e+003, 5.420113e+001
2.392429e+003, 5.518785e+001
2.394357e+003, 5.540084e+001
2.396286e+003, 5.511816e+001
2.398214e+003, 5.445217e+001
2.400143e+003, 5.392651e+001
2.402071e+003, 5.390761e+001
2.404000e+003, 5.454734e+001
2.405928e+003, 5.463108e+001
2.407856e+003, 5.431477e+001
2.409785e+003, 5.371677e+001
2.411713e+003, 5.349832e+001
2.413642e+003, 5.353191e+001
2.415570e+003, 5.365156e+001
2.417499e+003, 5.331965e+001
2.419427e+003, 5.278740e+001
2.421356e+003, 5.320490e+001
2.423284e+003, 5.356089e+001
2.425213e+003, 5.352039e+001
2.427141e+003, 5.261094e+001
2.429070e+003, 5.148107e+001
2.430998e+003, 5.040899e+001
2.432927e+003, 5.156895e+001
2.434855e+003, 5.257493e+001
2.436783e+003, 5.087647e+001
2.438712e+003, 5.073364e+001
2.440640e+003, 5.128555e+001
2.442569e+003, 5.139275e+001
2.444497e+003, 5.065842e+001
2.446426e+003, 4.980889e+001
2.448354e+003, 5.060769e+001
2.450283e+003, 5.131742e+001
2.452211e+003, 5.160315e+001
2.454140e+003, 5.131168e+001
2.456068e+003, 5.094509e+001
2.457997e+003, 5.063926e+001
2.459925e+003, 4.987097e+001
2.461854e+003, 4.955133e+001
2.463782e+003, 5.016705e+001
2.465710e+003, 5.032868e+001
2.467639e+003, 4.992978e+001
2.469567e+003, 4.888521e+001
2.471496e+003, 4.845705e+001
2.473424e+003, 4.868189e+001
2.475353e+003, 4.967113e+001
2.477281e+003, 4.954326e+001
2.479210e+003, 4.885319e+001
2.481138e+003, 4.852103e+001
2.483067e+003, 4.900544e+001
2.484995e+003, 4.956234e+001
2.486924e+003, 4.785746e+001
2.488852e+003, 4.704942e+001
2.490781e+003, 4.731304e+001
2.492709e+003, 4.735153e+001
2.494637e+003, 4.697822e+001
2.496566e+003, 4.641216e+001
2.498494e+003, 4.713440e+001
2.500423e+003, 4.725139e+001
2.502351e+003, 4.633797e+001
2.504280e+003, 4.627364e+001
2.506208e+003, 4.635430e+001
2.508137e+003, 4.623722e+001
2.510065e+003, 4.545401e+001
2.511994e+003, 4.490664e+001
2.513922e+003, 4.536657e+001
2.515851e+003, 4.502213e+001
2.517779e+003, 4.462647e+001
2.519708e+003, 4.513622e+001
2.521636e+003, 4.396684e+001
2.523564e+003, 4.291387e+001
2.525493e+003, 4.399624e+001
2.527421e+003, 4.467839e+001
2.529350e+003, 4.469941e+001
2.531278e+003, 4.391062e+001
2.533207e+003, 4.336529e+001
2.535135e+003, 4.316271e+001
2.537064e+003, 4.335447e+001
2.538992e+003, 4.331659e+001
2.540921e+003, 4.316991e+001
2.542849e+003, 4.331210e+001
2.544778e+003, 4.342800e+001
2.546706e+003, 4.336017e+001
2.548635e+003, 4.249482e+001
2.550563e+003, 4.257270e+001
2.552491e+003, 4.343645e+001
2.554420e+003, 4.405786e+001
2.556348e+003, 4.397208e+001
2.558277e+003, 4.335882e+001
2.560205e+003, 4.311476e+001
2.562134e+003, 4.266540e+001
2.564062e+003, 4.212165e+001
2.565991e+003, 4.254734e+001
2.567919e+003, 4.224933e+001
2.569848e+003, 4.121201e+001
2.571776e+003, 4.079657e+001
2.573705e+003, 4.067989e+001
2.575633e+003, 4.078164e+001
2.577562e+003, 4.158408e+001
2.579490e+003, 4.155546e+001
2.581418e+003, 4.064182e+001
2.583347e+003, 4.091749e+001
2.585275e+003, 4.087624e+001
2.587204e+003, 4.020875e+001
2.589132e+003, 3.997879e+001
2.591061e+003, 3.961374e+001
2.592989e+003, 3.897250e+001
2.594918e+003, 3.807942e+001
2.596846e+003, 3.785259e+001
2.598775e+003, 3.839347e+001
2.600703e+003, 3.832249e+001
2.602632e+003, 3.807743e+001
2.604560e+003, 3.780387e+001
2.606489e+003, 3.742439e+001
2.608417e+003, 3.750666e+001
2.610345e+003, 3.806152e+001
2.612274e+003, 3.821717e+001
2.614202e+003, 3.782489e+001
2.616131e+003, 3.701694e+001
2.618059e+003, 3.665464e+001
2.619988e+003, 3.651977e+001
2.621916e+003, 3.652409e+001
2.623845e+003, 3.665567e+001
2.625773e+003, 3.647143e+001
2.627702e+003, 3.602548e+001
2.629630e+003, 3.593645e+001
2.631559e+003, 3.573774e+001
2.633487e+003, 3.533216e+001
2.635416e+003, 3.449976e+001
2.637344e+003, 3.468981e+001
2.639272e+003, 3.546156e+001
2.641201e+003, 3.498702e+001
2.643129e+003, 3.432646e+001
2.645058e+003, 3.380766e+001
2.646986e+003, 3.352763e+001
2.648915e+003, 3.428830e+001
2.650843e+003, 3.514161e+001
2.652772e+003, 3.386183e+001
2.654700e+003, 3.351783e+001
2.656629e+003, 3.376707e+001
2.658557e+003, 3.354512e+001
2.660486e+003, 3.327097e+001
2.662414e+003, 3.324078e+001
2.664343e+003, 3.389616e+001
2.666271e+003, 3.306853e+001
2.668199e+003, 3.207200e+001
2.670128e+003, 3.236697e+001
2.672056e+003, 3.136138e+001
2.673985e+003, 3.072274e+001
2.675913e+003, 3.177669e+001
2.677842e+003, 3.151845e+001
2.679770e+003, 3.123060e+001
2.681699e+003, 3.168763e+001
2.683627e+003, 3.116811e+001
2.685556e+003, 3.077438e+001
2.687484e+003, 3.094748e+001
2.689413e+003, 3.073292e+001
2.691341e+003, 3.047109e+001
2.693270e+003, 3.031038e+001
2.695198e+003, 3.035658e+001
2.697126e+003, 3.016111e+001
2.699055e+003, 2.972447e+001
2.700983e+003, 2.931437e+001
2.702912e+003, 2.941938e+001
2.704840e+003, 2.988668e+001
2.706769e+003, 3.034817e+001
2.708697e+003, 2.996382e+001
2.710626e+003, 2.926062e+001
2.712554e+003, 2.924594e+001
2.714483e+003, 2.950836e+001
2.716411e+003, 2.964975e+001
2.718340e+003, 2.915735e+001
2.720268e+003, 2.919931e+001
2.722197e+003, 2.898977e+001
2.724125e+003, 2.768828e+001
2.726053e+003, 2.786300e+001
2.727982e+003, 2.802056e+001
2.729910e+003, 2.735742e+001
2.731839e+003, 2.702496e+001
2.733767e+003, 2.728077e+001
2.735696e+003, 2.793797e+001
2.737624e+003, 2.704883e+001
2.739553e+003, 2.710182e+001
2.741481e+003, 2.784025e+001
2.743410e+003, 2.676068e+001
2.745338e+003, 2.600038e+001
2.747267e+003, 2.568303e+001
2.749195e+003, 2.547808e+001
2.751124e+003, 2.617765e+001
2.753052e+003, 2.672623e+001
2.754980e+003, 2.610893e+001
2.756909e+003, 2.606903e+001
2.758837e+003, 2.598474e+001
2.760766e+003, 2.552530e+001
2.762694e+003, 2.560941e+001
2.764623e+003, 2.542681e+001
2.766551e+003, 2.498143e+001
2.768480e+003, 2.571475e+001
2.770408e+003, 2.581743e+001
2.772337e+003, 2.522776e+001
2.774265e+003, 2.443872e+001
2.776194e+003, 2.464886e+001
2.778122e+003, 2.510792e+001
2.780051e+003, 2.455076e+001
2.781979e+003, 2.471805e+001
2.783907e+003, 2.479685e+001
2.785836e+003, 2.405210e+001
2.787764e+003, 2.429325e+001
2.789693e+003, 2.448349e+001
2.791621e+003, 2.418247e+001
2.793550e+003, 2.295754e+001
2.795478e+003, 2.299244e+001
2.797407e+003, 2.375020e+001
2.799335e+003, 2.280097e+001
2.801264e+003, 2.226508e+001
2.803192e+003, 2.222216e+001
2.805121e+003, 2.247083e+001
2.807049e+003, 2.225384e+001
2.808978e+003, 2.226015e+001
2.810906e+003, 2.273654e+001
2.812834e+003, 2.196540e+001
2.814763e+003, 2.155917e+001
2.816691e+003, 2.191141e+001
2.818620e+003, 2.260289e+001
2.820548e+003, 2.254380e+001
2.822477e+003, 2.189545e+001
2.824405e+003, 2.100885e+001
2.826334e+003, 2.084183e+001
2.828262e+003, 2.119500e+001
2.830191e+003, 2.187757e+001
2.832119e+003, 2.112833e+001
2.834048e+003, 2.094226e+001
2.835976e+003, 2.161641e+001
2.837905e+003, 2.097720e+001
2.839833e+003, 2.087007e+001
2.841761e+003, 2.126473e+001
2.843690e+003, 2.168100e+001
2.845618e+003, 2.109716e+001
2.847547e+003, 2.076221e+001
2.849475e+003, 2.185415e+001
2.851404e+003, 2.098322e+001
2.853332e+003, 2.043769e+001
2.855261e+003, 2.088201e+001
2.857189e+003, 2.144955e+001
2.859118e+003, 2.170337e+001
2.861046e+003, 2.144946e+001
2.862975e+003, 2.045840e+001
2.864903e+003, 2.053763e+001
2.866832e+003, 2.084469e+001
2.868760e+003, 2.078924e+001
2.870688e+003, 2.046818e+001
2.872617e+003, 2.054248e+001
2.874545e+003, 2.082136e+001
2.876474e+003, 2.003319e+001
2.878402e+003, 1.985744e+001
2.880331e+003, 1.991176e+001
2.882259e+003, 1.959550e+001
2.884188e+003, 1.979449e+001
2.886116e+003, 1.986727e+001
2.888045e+003, 1.954391e+001
2.889973e+003, 1.865198e+001
2.891902e+003, 1.872377e+001
2.893830e+003, 1.927567e+001
2.895759e+003, 1.900456e+001
2.897687e+003, 1.922795e+001
2.899615e+003, 1.934578e+001
2.901544e+003, 1.894544e+001
2.903472e+003, 1.820275e+001
2.905401e+003, 1.801803e+001
2.907329e+003, 1.850064e+001
2.909258e+003, 1.963670e+001
2.911186e+003, 1.916518e+001
2.913115e+003, 1.820437e+001
2.915043e+003, 1.779106e+001
2.916972e+003, 1.730227e+001
2.918900e+003, 1.721895e+001
2.920829e+003, 1.741312e+001
2.922757e+003, 1.704007e+001
2.924686e+003, 1.712055e+001
2.926614e+003, 1.719960e+001
2.928542e+003, 1.683321e+001
2.930471e+003, 1.648709e+001
2.932399e+003, 1.654755e+001
2.934328e+003, 1.693448e+001
2.936256e+003, 1.704088e+001
2.938185e+003, 1.729695e+001
2.940113e+003, 1.724251e+001
2.942042e+003, 1.644183e+001
2.943970e+003, 1.590710e+001
2.945899e+003, 1.546659e+001
2.947827e+003, 1.505012e+001
2.949756e+003, 1.462630e+001
2.951684e+003, 1.453674e+001
2.953613e+003, 1.462584e+001
2.955541e+003, 1.475682e+001
2.957469e+003, 1.375016e+001
2.959398e+003, 1.368041e+001
2.961326e+003, 1.459015e+001
2.963255e+003, 1.517105e+001
2.965183e+003, 1.457319e+001
2.967112e+003, 1.384065e+001
2.969040e+003, 1.381743e+001
2.970969e+003, 1.337198e+001
2.972897e+003, 1.325235e+001
2.974826e+003, 1.331394e+001
2.976754e+003, 1.286331e+001
2.978683e+003, 1.365695e+001
2.980611e+003, 1.396983e+001
2.982540e+003, 1.309713e+001
2.984468e+003, 1.417091e+001
2.986396e+003, 1.381396e+001
2.988325e+003, 1.293517e+001
2.990253e+003, 1.359853e+001
2.992182e+003, 1.354452e+001
2.994110e+003, 1.325098e+001
2.996039e+003, 1.295406e+001
2.997967e+003, 1.243740e+001
2.999896e+003, 1.208203e+001
3.001824e+003, 1.209598e+001
3.003753e+003, 1.256867e+001
3.005681e+003, 1.274983e+001
3.007610e+003, 1.257842e+001
3.009538e+003, 1.227992e+001
3.011467e+003, 1.225608e+001
3.013395e+003, 1.242335e+001
3.015323e+003, 1.224476e+001
3.017252e+003, 1.156798e+001
3.019180e+003, 1.117443e+001
3.021109e+003, 1.138149e+001
3.023037e+003, 1.180314e+001
3.024966e+003, 1.202493e+001
3.026894e+003, 1.184236e+001
3.028823e+003, 1.122822e+001
3.030751e+003, 1.081350e+001
3.032680e+003, 1.194854e+001
3.034608e+003, 1.092980e+001
3.036537e+003, 1.034960e+001
3.038465e+003, 1.130033e+001
3.040394e+003, 1.111287e+001
3.042322e+003, 1.009853e+001
3.044250e+003, 9.385777e+000
3.046179e+003, 9.831747e+000
3.048107e+003, 1.076762e+001
3.050036e+003, 1.039487e+001
3.051964e+003, 9.413062e+000
3.053893e+003, 9.849283e+000
3.055821e+003, 9.576991e+000
3.057750e+003, 9.592377e+000
3.059678e+003, 9.901690e+000
3.061607e+003, 8.838186e+000
3.063535e+003, 9.698191e+000
3.065464e+003, 1.008178e+001
3.067392e+003, 8.567408e+000
3.069321e+003, 9.747999e+000
3.071249e+003, 9.487286e+000
3.073177e+003, 8.649347e+000
3.075106e+003, 9.074587e+000
3.077034e+003, 9.082541e+000
3.078963e+003, 8.984558e+000
3.080891e+003, 8.823713e+000
3.082820e+003, 8.491086e+000
3.084748e+003, 9.143200e+000
3.086677e+003, 9.722074e+000
3.088605e+003, 9.747964e+000
3.090534e+003, 9.195221e+000
3.092462e+003, 9.186011e+000
3.094391e+003, 9.177922e+000
3.096319e+003, 8.869846e+000
3.098248e+003, 8.541692e+000
3.100176e+003, 8.513654e+000
3.102104e+003, 8.646455e+000
3.104033e+003, 8.766863e+000
3.105961e+003, 8.588593e+000
3.107890e+003, 8.725088e+000
3.109818e+003, 8.748942e+000
3.111747e+003, 8.207963e+000
3.113675e+003, 8.643600e+000
3.115604e+003, 8.553923e+000
3.117532e+003, 8.015764e+000
3.119461e+003, 7.593173e+000
3.121389e+003, 8.176250e+000
3.123318e+003, 8.014853e+000
3.125246e+003, 7.518516e+000
3.127175e+003, 8.368785e+000
3.129103e+003, 8.351454e+000
3.131031e+003, 8.162671e+000
3.132960e+003, 7.821924e+000
3.134888e+003, 6.644810e+000
3.136817e+003, 6.967023e+000
3.138745e+003, 7.124980e+000
3.140674e+003, 6.869087e+000
3.142602e+003, 7.788085e+000
3.144531e+003, 7.721100e+000
3.146459e+003, 6.975671e+000
3.148388e+003, 6.382959e+000
3.150316e+003, 7.813891e+000
3.152245e+003, 7.587472e+000
3.154173e+003, 7.123641e+000
3.156102e+003, 7.123387e+000
3.158030e+003, 6.616735e+000
3.159958e+003, 6.513234e+000
3.161887e+003, 6.841521e+000
3.163815e+003, 7.172896e+000
3.165744e+003, 5.876916e+000
3.167672e+003, 6.184715e+000
3.169601e+003, 6.921604e+000
3.171529e+003, 7.139595e+000
3.173458e+003, 6.591195e+000
3.175386e+003, 7.009391e+000
3.177315e+003, 6.914804e+000
3.179243e+003, 5.907122e+000
3.181172e+003, 6.849688e+000
3.183100e+003, 6.839036e+000
3.185029e+003, 6.110934e+000
3.186957e+003, 5.415170e+000
3.188885e+003, 6.279467e+000
3.190814e+003, 6.143046e+000
3.192742e+003, 6.240710e+000
3.194671e+003, 6.838577e+000
3.196599e+003, 5.859951e+000
3.198528e+003, 6.498242e+000
3.200456e+003, 6.807024e+000
3.202385e+003, 6.025524e+000
3.204313e+003, 5.193993e+000
3.206242e+003, 5.369526e+000
3.208170e+003, 6.040867e+000
3.210099e+003, 6.579903e+000
3.212027e+003, 6.222154e+000
3.213956e+003, 5.192739e+000
3.215884e+003, 5.399446e+000
3.217813e+003, 6.276013e+000
3.219741e+003, 5.292935e+000
3.221669e+003, 6.197299e+000
3.223598e+003, 5.944707e+000
3.225526e+003, 5.088449e+000
3.227455e+003, 6.150608e+000
3.229383e+003, 5.306255e+000
3.231312e+003, 5.688673e+000
3.233240e+003, 6.235700e+000
3.235169e+003, 4.777079e+000
3.237097e+003, 5.577431e+000
3.239026e+003, 5.917740e+000
3.240954e+003, 5.501569e+000
3.242883e+003, 4.744990e+000
3.244811e+003, 5.412874e+000
3.246740e+003, 5.640192e+000
3.248668e+003, 5.617931e+000
3.250596e+003, 5.646061e+000
3.252525e+003, 5.585118e+000
3.254453e+003, 5.570134e+000
3.256382e+003, 5.604798e+000
3.258310e+003, 5.373146e+000
3.260239e+003, 4.003117e+000
3.262167e+003, 4.521811e+000
3.264096e+003, 5.772792e+000
3.266024e+003, 6.419960e+000
3.267953e+003, 5.297386e+000
3.269881e+003, 3.974049e+000
3.271810e+003, 3.693995e+000
3.273738e+003, 4.517577e+000
3.275667e+003, 5.938896e+000
3.277595e+003, 4.914314e+000
3.279523e+003, 4.828348e+000
3.281452e+003, 5.240138e+000
3.283380e+003, 5.295021e+000
3.285309e+003, 4.431140e+000
3.287237e+003, 4.772731e+000
3.289166e+003, 4.659680e+000
3.291094e+003, 4.097698e+000
3.293023e+003, 4.844151e+000
3.294951e+003, 4.511602e+000
3.296880e+003, 4.283058e+000
3.298808e+003, 4.459528e+000
3.300737e+003, 4.803782e+000
3.302665e+003, 4.282229e+000
3.304594e+003, 4.250382e+000
3.306522e+003, 4.819212e+000
3.308450e+003, 5.483782e+000
3.310379e+003, 4.576113e+000
3.312307e+003, 5.621940e+000
3.314236e+003, 4.915078e+000
3.316164e+003, 3.540637e+000
3.318093e+003, 5.797108e+000
3.320021e+003, 4.869970e+000
3.321950e+003, 4.498578e+000
3.323878e+003, 4.481438e+000
3.325807e+003, 3.933356e+000
3.327735e+003, 4.356070e+000
3.329664e+003, 4.699486e+000
3.331592e+003, 3.969423e+000
3.333521e+003, 3.072225e+000
3.335449e+003, 4.996509e+000
3.337377e+003, 5.164751e+000
3.339306e+003, 4.422483e+000
3.341234e+003, 3.803673e+000
3.343163e+003, 3.974231e+000
3.345091e+003, 5.014622e+000
3.347020e+003, 5.540914e+000
3.348948e+003, 4.887152e+000
3.350877e+003, 3.865596e+000
3.352805e+003, 4.599599e+000
3.354734e+003, 4.356354e+000
3.356662e+003, 4.616903e+000
3.358591e+003, 5.178424e+000
3.360519e+003, 5.336028e+000
3.362448e+003, 4.900116e+000
3.364376e+003, 4.561033e+000
3.366304e+003, 3.738867e+000
3.368233e+003, 2.986302e+000
3.370161e+003, 3.820700e+000
3.372090e+003, 4.383986e+000
3.374018e+003, 4.458022e+000
3.375947e+003, 4.321231e+000
3.377875e+003, 4.267726e+000
3.379804e+003, 4.695325e+000
3.381732e+003, 3.163046e+000
3.383661e+003, 3.395169e+000
3.385589e+003, 4.914334e+000
3.387518e+003, 5.170158e+000
3.389446e+003, 5.151918e+000
3.391375e+003, 4.569794e+000
3.393303e+003, 4.142573e+000
3.395231e+003, 4.050677e+000
3.397160e+003, 3.740284e+000
3.399088e+003, 4.212999e+000
3.401017e+003, 4.107511e+000
3.402945e+003, 3.920577e+000
3.404874e+003, 4.150538e+000
3.406802e+003, 3.787858e+000
3.408731e+003, 4.425429e+000
3.410659e+003, 4.158377e+000
3.412588e+003, 3.886711e+000
3.414516e+003, 5.046556e+000
3.416445e+003, 4.417361e+000
3.418373e+003, 3.808529e+000
3.420302e+003, 3.438513e+000
3.422230e+003, 3.457149e+000
3.424158e+003, 4.213524e+000
3.426087e+003, 3.517322e+000
3.428015e+003, 3.449792e+000
3.429944e+003, 3.707177e+000
3.431872e+003, 3.773680e+000
3.433801e+003, 3.520417e+000
3.435729e+003, 3.872260e+000
3.437658e+003, 3.536928e+000
3.439586e+003, 4.088794e+000
3.441515e+003, 5.737624e+000
3.443443e+003, 5.022623e+000
3.445372e+003, 3.976546e+000
3.447300e+003, 3.522910e+000
3.449229e+003, 3.646634e+000
3.451157e+003, 4.006481e+000
3.453085e+003, 4.176606e+000
3.455014e+003, 3.302897e+000
3.456942e+003, 3.151061e+000
##END=



