##NAMES=Svabite
##RRUFFID=R050180
##IDEAL CHEMISTRY=Ca_5_(AsO_4_)_3_F
##LOCALITY=Ultevis, Sweden
##OWNER=RRUFF
##SOURCE=Marcus Origlieri
##DESCRIPTION=White prismatic hexagonal crystals associated with reddish brown andradite, R060326
##STATUS=The identification of this mineral is confirmed by single-crystal X-ray diffraction and chemical analysis
##URL=https://www.rruff.net/odr/rruff_sample/R050180
##MEASURED CHEMISTRY=Ca_5.00_(As_2.63_P_0.37_O_12_)(F_0.67_Cl_0.33_)
##DIFFRACTION SAMPLE DESCRIPTION=Single crystal, powder profile is calculated
##CELL PARAMETERS=a: 9.762 b: 9.762 c: 6.917 alpha: 90 beta: 90 gamma: 120 volume: 570.8 crystal system: triclinic
##FILETYPE=Raman RAW
##RAMAN WAVELENGTH=780

81.59546, 334.4765
83.52393, 426.2886
85.45239, 557.8964
87.38086, 721.2794
89.30933, 941.1393
91.23779, 1231.516
93.16626, 1577.729
95.09473, 1972.882
97.02319, 2416.061
98.95166, 2852.050
100.8801, 3274.708
102.8086, 3623.604
104.7371, 3722.482
106.6655, 3816.396
108.5940, 3873.681
110.5225, 3901.303
112.4509, 3911.840
114.3794, 3904.234
116.3079, 3880.093
118.2363, 3828.632
120.1648, 3757.792
122.0933, 3677.383
124.0217, 3565.627
125.9502, 3465.278
127.8787, 3293.946
129.8071, 3120.289
131.7356, 2942.361
133.6641, 2775.564
135.5925, 2632.948
137.5210, 2515.296
139.4495, 2418.502
141.3779, 2344.705
143.3064, 2285.513
145.2349, 2242.141
147.1633, 2211.622
149.0918, 2189.375
151.0203, 2174.982
152.9487, 2177.562
154.8772, 2212.896
156.8057, 2239.655
158.7341, 2231.597
160.6626, 2227.585
162.5911, 2265.631
164.5195, 2345.070
166.4480, 2393.818
168.3765, 2396.606
170.3049, 2396.031
172.2334, 2395.774
174.1619, 2396.566
176.0903, 2400.370
178.0188, 2406.098
179.9473, 2406.225
181.8757, 2397.679
183.8042, 2391.076
185.7327, 2391.010
187.6611, 2388.382
189.5896, 2372.277
191.5181, 2350.635
193.4465, 2344.973
195.3750, 2364.326
197.3035, 2379.145
199.2319, 2390.489
201.1604, 2394.579
203.0889, 2387.867
205.0173, 2374.590
206.9458, 2358.577
208.8743, 2339.163
210.8027, 2317.627
212.7312, 2293.516
214.6597, 2269.745
216.5881, 2239.108
218.5166, 2216.158
220.4451, 2214.413
222.3735, 2232.939
224.3020, 2257.082
226.2305, 2283.674
228.1589, 2323.472
230.0874, 2390.477
232.0159, 2456.300
233.9443, 2503.075
235.8728, 2536.738
237.8013, 2578.396
239.7297, 2634.323
241.6582, 2662.357
243.5867, 2646.811
245.5151, 2630.459
247.4436, 2631.984
249.3721, 2640.660
251.3005, 2647.340
253.2290, 2652.579
255.1575, 2659.742
257.0859, 2667.534
259.0144, 2682.520
260.9429, 2717.138
262.8713, 2745.762
264.7998, 2746.681
266.7283, 2734.094
268.6567, 2741.122
270.5852, 2767.701
272.5137, 2799.604
274.4421, 2843.490
276.3706, 2876.889
278.2991, 2879.195
280.2275, 2875.994
282.1560, 2892.451
284.0845, 2925.912
286.0129, 2952.505
287.9414, 2972.254
289.8699, 2981.179
291.7983, 2974.786
293.7268, 2964.288
295.6553, 2948.344
297.5837, 2934.233
299.5122, 2935.737
301.4407, 2937.041
303.3691, 2942.247
305.2976, 2964.619
307.2261, 2976.411
309.1545, 3008.123
311.0830, 3053.839
313.0115, 3108.372
314.9399, 3174.094
316.8684, 3260.406
318.7969, 3367.139
320.7253, 3486.582
322.6538, 3612.770
324.5823, 3763.851
326.5107, 3940.683
328.4392, 4150.240
330.3676, 4377.844
332.2961, 4645.910
334.2246, 5007.777
336.1530, 5456.897
338.0815, 5976.381
340.0100, 6585.133
341.9384, 7217.835
343.8669, 7899.804
345.7954, 8546.527
347.7238, 9173.577
349.6523, 9701.618
351.5808, 9949.555
353.5092, 9929.813
355.4377, 9797.981
357.3662, 9556.332
359.2946, 9249.811
361.2231, 8857.902
363.1516, 8444.299
365.0800, 8042.107
367.0085, 7655.140
368.9370, 7281.835
370.8654, 6921.810
372.7939, 6583.704
374.7224, 6265.021
376.6508, 5980.638
378.5793, 5740.635
380.5078, 5522.816
382.4362, 5307.943
384.3647, 5112.508
386.2932, 4958.961
388.2216, 4844.632
390.1501, 4767.213
392.0786, 4728.714
394.0070, 4728.892
395.9355, 4751.749
397.8640, 4826.139
399.7924, 5006.187
401.7209, 5215.282
403.6494, 5385.564
405.5779, 5506.234
407.5063, 5539.027
409.4348, 5471.302
411.3633, 5376.838
413.2917, 5253.322
415.2202, 5124.308
417.1487, 4968.799
419.0771, 4836.777
421.0056, 4765.549
422.9341, 4746.108
424.8625, 4769.775
426.7910, 4837.876
428.7195, 4947.765
430.6479, 5121.970
432.5764, 5296.644
434.5049, 5493.521
436.4333, 5652.358
438.3618, 5759.007
440.2903, 5798.589
442.2187, 5747.040
444.1472, 5622.459
446.0757, 5480.933
448.0041, 5319.974
449.9326, 5159.252
451.8611, 5000.717
453.7895, 4842.840
455.7180, 4678.312
457.6465, 4519.561
459.5749, 4379.588
461.5034, 4249.635
463.4319, 4116.617
465.3603, 3982.411
467.2888, 3854.647
469.2173, 3731.116
471.1457, 3614.318
473.0742, 3504.069
475.0027, 3403.878
476.9311, 3314.836
478.8596, 3235.373
480.7881, 3167.654
482.7165, 3107.352
484.6450, 3052.622
486.5735, 3004.180
488.5019, 2943.308
490.4304, 2861.548
492.3589, 2782.595
494.2873, 2702.187
496.2158, 2631.662
498.1443, 2577.543
500.0727, 2530.783
502.0012, 2486.225
503.9297, 2445.038
505.8581, 2409.622
507.7866, 2379.036
509.7151, 2342.439
511.6435, 2297.544
513.5720, 2253.042
515.5005, 2202.294
517.4290, 2164.019
519.3574, 2154.747
521.2859, 2146.189
523.2144, 2114.693
525.1428, 2076.575
527.0713, 2055.622
528.9998, 2049.871
530.9282, 2035.542
532.8567, 2005.335
534.7852, 1991.189
536.7136, 2003.458
538.6421, 2004.863
540.5706, 1978.330
542.4990, 1954.644
544.4275, 1954.318
546.3560, 1958.879
548.2844, 1950.233
550.2129, 1957.514
552.1414, 1961.954
554.0698, 1965.443
555.9983, 1980.351
557.9268, 1983.476
559.8552, 1999.190
561.7837, 2038.606
563.7122, 2066.731
565.6406, 2065.740
567.5691, 2059.494
569.4976, 2065.214
571.4260, 2068.659
573.3545, 2053.535
575.2830, 2025.239
577.2114, 1996.066
579.1398, 1966.651
581.0683, 1935.773
582.9968, 1902.834
584.9252, 1869.709
586.8537, 1835.061
588.7822, 1805.096
590.7106, 1779.193
592.6391, 1762.479
594.5676, 1766.343
596.4960, 1772.109
598.4245, 1758.310
600.3530, 1732.961
602.2814, 1716.617
604.2099, 1709.275
606.1384, 1702.313
608.0668, 1695.762
609.9953, 1689.123
611.9238, 1682.641
613.8522, 1674.570
615.7807, 1662.910
617.7092, 1652.265
619.6376, 1646.863
621.5661, 1639.636
623.4946, 1622.531
625.4230, 1602.599
627.3515, 1589.735
629.2800, 1582.578
631.2084, 1579.302
633.1369, 1579.598
635.0654, 1573.571
636.9938, 1559.101
638.9223, 1549.469
640.8508, 1548.288
642.7792, 1548.792
644.7077, 1558.048
646.6362, 1557.700
648.5646, 1528.057
650.4931, 1496.681
652.4216, 1491.867
654.3500, 1498.715
656.2785, 1491.530
658.2070, 1474.520
660.1354, 1459.857
662.0639, 1448.093
663.9924, 1441.720
665.9208, 1440.888
667.8493, 1442.068
669.7778, 1448.393
671.7062, 1449.710
673.6347, 1436.936
675.5632, 1429.658
677.4916, 1441.307
679.4201, 1449.191
681.3486, 1435.281
683.2770, 1416.561
685.2055, 1411.972
687.1340, 1412.994
689.0624, 1403.843
690.9909, 1387.622
692.9194, 1376.567
694.8478, 1371.460
696.7763, 1370.298
698.7048, 1374.045
700.6332, 1377.104
702.5617, 1382.747
704.4902, 1381.927
706.4186, 1366.401
708.3471, 1354.537
710.2756, 1354.584
712.2040, 1356.918
714.1325, 1354.585
716.0610, 1354.249
717.9894, 1364.822
719.9179, 1378.158
721.8464, 1383.134
723.7748, 1382.348
725.7033, 1381.553
727.6318, 1379.907
729.5602, 1377.877
731.4887, 1375.495
733.4172, 1378.631
735.3456, 1393.708
737.2741, 1400.553
739.2026, 1390.054
741.1310, 1385.689
743.0595, 1399.597
744.9880, 1410.679
746.9164, 1402.378
748.8449, 1396.858
750.7734, 1414.996
752.7018, 1437.113
754.6303, 1445.189
756.5588, 1446.132
758.4872, 1450.305
760.4157, 1456.370
762.3442, 1455.643
764.2726, 1447.670
766.2011, 1446.403
768.1296, 1454.224
770.0580, 1463.376
771.9865, 1475.849
773.9150, 1480.621
775.8434, 1469.497
777.7719, 1469.865
779.7004, 1488.670
781.6288, 1514.224
783.5573, 1545.709
785.4858, 1577.554
787.4142, 1603.719
789.3427, 1635.105
791.2712, 1669.538
793.1996, 1721.596
795.1281, 1792.313
797.0566, 1897.727
798.9850, 2036.196
800.9135, 2232.470
802.8420, 2507.122
804.7704, 2884.959
806.6989, 3444.239
808.6274, 4187.705
810.5558, 5151.984
812.4843, 6342.052
814.4128, 7732.932
816.3412, 9381.960
818.2697, 10800.51
820.1982, 11975.22
822.1266, 12767.19
824.0551, 13100.49
825.9836, 13233.46
827.9120, 13176.17
829.8405, 13069.75
831.7690, 12903.66
833.6974, 12801.02
835.6259, 12773.70
837.5544, 12890.88
839.4828, 13165.14
841.4113, 13616.08
843.3398, 14323.00
845.2682, 15156.44
847.1967, 16066.98
849.1252, 16948.14
851.0536, 17762.63
852.9821, 18374.87
854.9106, 18532.70
856.8391, 18233.69
858.7675, 17407.59
860.6960, 16110.36
862.6245, 14615.33
864.5529, 12947.16
866.4814, 11317.92
868.4099, 9738.181
870.3383, 8335.404
872.2668, 7120.709
874.1953, 6083.864
876.1237, 5230.388
878.0522, 4515.867
879.9807, 3939.953
881.9091, 3483.339
883.8376, 3167.839
885.7661, 2909.343
887.6945, 2702.261
889.6230, 2526.025
891.5515, 2391.730
893.4799, 2262.783
895.4084, 2123.594
897.3369, 1992.169
899.2653, 1878.230
901.1938, 1771.885
903.1223, 1664.994
905.0507, 1566.812
906.9792, 1487.630
908.9077, 1416.657
910.8361, 1342.911
912.7646, 1272.216
914.6931, 1206.948
916.6215, 1153.610
918.5500, 1126.417
920.4785, 1113.213
922.4069, 1093.865
924.3354, 1073.584
926.2639, 1059.661
928.1923, 1054.226
930.1208, 1061.192
932.0493, 1081.565
933.9777, 1114.913
935.9062, 1164.021
937.8347, 1238.797
939.7631, 1341.155
941.6916, 1493.515
943.6201, 1694.736
945.5485, 1883.247
947.4770, 2058.060
949.4055, 2201.601
951.3339, 2319.326
953.2624, 2358.649
955.1909, 2308.366
957.1193, 2214.842
959.0478, 2071.381
960.9763, 1907.800
962.9047, 1704.133
964.8332, 1527.549
966.7617, 1382.401
968.6901, 1258.710
970.6186, 1154.471
972.5471, 1075.151
974.4755, 1031.062
976.4040, 993.4387
978.3325, 956.4968
980.2609, 930.5479
982.1894, 915.0949
984.1179, 915.4305
986.0463, 942.4849
987.9748, 965.7064
989.9033, 977.3189
991.8317, 984.0831
993.7602, 984.5834
995.6887, 987.7272
997.6171, 1003.156
999.5456, 1007.545
1001.474, 981.8043
1003.403, 964.9188
1005.331, 978.4235
1007.259, 992.2910
1009.188, 990.6466
1011.116, 992.2342
1013.045, 1006.460
1014.973, 1024.237
1016.902, 1047.914
1018.830, 1062.334
1020.759, 1055.619
1022.687, 1044.945
1024.616, 1036.067
1026.544, 1030.720
1028.473, 1034.151
1030.401, 1034.343
1032.330, 1020.970
1034.258, 1008.597
1036.187, 1007.275
1038.115, 1005.906
1040.043, 995.2472
1041.972, 987.7082
1043.900, 993.2422
1045.829, 999.2171
1047.757, 998.0356
1049.686, 996.0699
1051.614, 994.1033
1053.543, 996.6390
1055.471, 1009.883
1057.400, 1022.486
1059.328, 1027.088
1061.257, 1031.425
1063.185, 1039.672
1065.114, 1048.986
1067.042, 1056.756
1068.970, 1065.928
1070.899, 1080.791
1072.827, 1094.137
1074.756, 1099.998
1076.684, 1106.897
1078.613, 1118.721
1080.541, 1132.159
1082.470, 1151.647
1084.398, 1163.872
1086.327, 1156.364
1088.255, 1150.896
1090.183, 1154.377
1092.112, 1164.119
1094.040, 1185.928
1095.969, 1204.209
1097.897, 1205.911
1099.826, 1214.167
1101.754, 1244.825
1103.683, 1270.411
1105.611, 1275.754
1107.540, 1286.106
1109.468, 1310.008
1111.397, 1335.561
1113.325, 1369.391
1115.254, 1389.421
1117.182, 1378.008
1119.110, 1379.193
1121.039, 1402.262
1122.967, 1431.543
1124.896, 1469.229
1126.824, 1503.479
1128.753, 1531.161
1130.681, 1559.430
1132.610, 1591.259
1134.538, 1618.874
1136.467, 1638.336
1138.395, 1661.592
1140.324, 1689.739
1142.252, 1725.157
1144.181, 1769.143
1146.109, 1807.788
1148.037, 1840.220
1149.966, 1874.240
1151.894, 1910.339
1153.823, 1948.170
1155.751, 1987.495
1157.680, 2027.829
1159.608, 2069.165
1161.537, 2108.696
1163.465, 2162.398
1165.394, 2206.796
1167.322, 2274.560
1169.251, 2336.636
1171.179, 2398.230
1173.108, 2470.410
1175.036, 2547.413
1176.964, 2618.293
1178.893, 2687.765
1180.821, 2761.352
1182.750, 2839.600
1184.678, 2923.183
1186.607, 3013.372
1188.535, 3111.634
1190.464, 3213.063
1192.392, 3312.203
1194.321, 3416.432
1196.249, 3531.481
1198.178, 3656.571
1200.106, 3789.941
1202.035, 3928.384
1203.963, 4072.996
1205.891, 4223.562
1207.820, 4377.611
1209.748, 4542.637
1211.677, 4717.792
1213.605, 4910.434
1215.534, 5125.569
1217.462, 5349.554
1219.391, 5580.849
1221.319, 5817.648
1223.248, 6055.647
1225.176, 6320.440
1227.105, 6616.860
1229.033, 6925.193
1230.962, 7240.517
1232.890, 7579.649
1234.818, 7944.786
1236.747, 8326.067
1238.675, 8725.156
1240.604, 9161.974
1242.532, 9619.999
1244.461, 10050.23
1246.389, 10465.19
1248.318, 10880.81
1250.246, 11286.81
1252.175, 11690.10
1254.103, 12067.75
1256.032, 12398.20
1257.960, 12681.05
1259.889, 12908.22
1261.817, 13109.25
1263.745, 13303.35
1265.674, 13459.72
1267.602, 13575.19
1269.531, 13643.81
1271.459, 13660.03
1273.388, 13649.45
1275.316, 13611.18
1277.245, 13566.45
1279.173, 13516.62
1281.102, 13448.12
1283.030, 13361.92
1284.959, 13259.21
1286.887, 13142.37
1288.816, 13024.49
1290.744, 12910.20
1292.672, 12800.90
1294.601, 12702.24
1296.529, 12636.74
1298.458, 12587.70
1300.386, 12545.84
1302.315, 12495.87
1304.243, 12398.50
1306.172, 12314.87
1308.100, 12307.49
1310.029, 12296.72
1311.957, 12228.98
1313.886, 12177.38
1315.814, 12170.67
1317.743, 12173.08
1319.671, 12180.13
1321.599, 12183.94
1323.528, 12185.35
1325.456, 12188.09
1327.385, 12196.48
1329.313, 12269.96
1331.242, 12329.35
1333.170, 12468.97
1335.099, 12551.12
1337.027, 12706.82
1338.956, 12904.76
1340.884, 13105.75
1342.813, 13346.39
1344.741, 13640.76
1346.670, 14000.42
1348.598, 14442.57
1350.526, 14942.00
1352.455, 15473.11
1354.383, 16098.42
1356.312, 16827.34
1358.240, 17661.67
1360.169, 18604.36
1362.097, 19629.91
1364.026, 20747.27
1365.954, 21900.66
1367.883, 23075.65
1369.811, 24262.50
1371.740, 25420.55
1373.668, 26498.38
1375.597, 27451.77
1377.525, 28263.93
1379.453, 28877.96
1381.382, 29233.94
1383.310, 29363.85
1385.239, 29293.58
1387.167, 29032.47
1389.096, 28530.29
1391.024, 27919.02
1392.953, 27230.21
1394.881, 26491.40
1396.810, 25691.78
1398.738, 24886.79
1400.667, 24088.83
1402.595, 23304.16
1404.524, 22534.76
1406.452, 21805.62
1408.380, 21128.23
1410.309, 20492.74
1412.237, 19920.54
1414.166, 19440.13
1416.094, 19005.52
1418.023, 18589.51
1419.951, 18250.99
1421.880, 18003.19
1423.808, 17822.53
1425.737, 17708.04
1427.665, 17623.02
1429.594, 17560.99
1431.522, 17532.06
1433.451, 17544.60
1435.379, 17586.13
1437.307, 17651.95
1439.236, 17770.06
1441.164, 17886.72
1443.093, 17951.18
1445.021, 18048.61
1446.950, 18218.38
1448.878, 18348.51
1450.807, 18416.60
1452.735, 18465.83
1454.664, 18498.95
1456.592, 18515.61
1458.521, 18501.35
1460.449, 18428.66
1462.378, 18336.66
1464.306, 18229.19
1466.234, 18105.21
1468.163, 17999.12
1470.091, 17866.95
1472.020, 17668.91
1473.948, 17490.88
1475.877, 17343.57
1477.805, 17201.86
1479.734, 17067.70
1481.662, 16954.86
1483.591, 16861.29
1485.519, 16788.79
1487.448, 16719.97
1489.376, 16650.80
1491.305, 16590.84
1493.233, 16522.30
1495.161, 16481.76
1497.090, 16486.30
1499.018, 16510.84
1500.947, 16491.14
1502.875, 16560.42
1504.804, 16508.08
1506.732, 16522.90
1508.661, 16570.32
1510.589, 16591.78
1512.518, 16617.17
1514.446, 16654.28
1516.375, 16703.52
1518.303, 16775.31
1520.232, 16823.16
1522.160, 16850.68
1524.089, 16841.15
1526.017, 16785.75
1527.945, 16748.90
1529.874, 16721.44
1531.802, 16667.54
1533.731, 16598.54
1535.659, 16524.30
1537.588, 16451.31
1539.516, 16389.16
1541.445, 16346.39
1543.373, 16281.18
1545.302, 16253.72
1547.230, 16176.06
1549.159, 16113.02
1551.087, 16069.40
1553.016, 16056.74
1554.944, 16044.77
1556.872, 16025.64
1558.801, 16011.06
1560.729, 15990.15
1562.658, 15990.87
1564.586, 16019.96
1566.515, 16066.67
1568.443, 16136.03
1570.372, 16216.30
1572.300, 16294.52
1574.229, 16347.40
1576.157, 16392.45
1578.086, 16462.70
1580.014, 16542.31
1581.943, 16625.08
1583.871, 16693.39
1585.799, 16753.09
1587.728, 16803.39
1589.656, 16842.49
1591.585, 16875.22
1593.513, 16893.10
1595.442, 16900.70
1597.370, 16898.70
1599.299, 16890.79
1601.227, 16865.14
1603.156, 16801.75
1605.084, 16733.87
1607.013, 16665.21
1608.941, 16565.90
1610.870, 16443.80
1612.798, 16336.20
1614.726, 16216.25
1616.655, 16031.70
1618.583, 15840.35
1620.512, 15685.17
1622.440, 15535.48
1624.369, 15371.38
1626.297, 15184.12
1628.226, 14975.89
1630.154, 14751.46
1632.083, 14546.15
1634.011, 14363.45
1635.940, 14182.74
1637.868, 14020.37
1639.797, 13838.07
1641.725, 13633.21
1643.653, 13442.11
1645.582, 13267.99
1647.510, 13108.25
1649.439, 12959.69
1651.367, 12833.68
1653.296, 12711.32
1655.224, 12608.56
1657.153, 12530.52
1659.081, 12450.72
1661.010, 12393.18
1662.938, 12345.73
1664.867, 12309.73
1666.795, 12296.65
1668.724, 12281.92
1670.652, 12268.53
1672.580, 12251.62
1674.509, 12290.18
1676.437, 12386.45
1678.366, 12439.44
1680.294, 12455.18
1682.223, 12490.06
1684.151, 12573.50
1686.080, 12672.19
1688.008, 12766.25
1689.937, 12880.54
1691.865, 13015.77
1693.794, 13163.76
1695.722, 13279.23
1697.651, 13406.32
1699.579, 13531.04
1701.507, 13633.03
1703.436, 13765.53
1705.364, 13866.00
1707.293, 13972.60
1709.221, 14072.33
1711.150, 14152.86
1713.078, 14223.69
1715.007, 14291.35
1716.935, 14361.23
1718.864, 14434.41
1720.792, 14495.41
1722.721, 14512.99
1724.649, 14519.64
1726.578, 14539.69
1728.506, 14539.80
1730.434, 14493.92
1732.363, 14425.38
1734.291, 14381.05
1736.220, 14352.16
1738.148, 14321.60
1740.077, 14244.13
1742.005, 14122.04
1743.934, 14002.53
1745.862, 13873.83
1747.791, 13712.00
1749.719, 13546.73
1751.648, 13404.23
1753.576, 13237.23
1755.505, 13031.68
1757.433, 12839.96
1759.361, 12665.39
1761.290, 12491.23
1763.218, 12317.47
1765.147, 12115.98
1767.075, 11908.40
1769.004, 11737.36
1770.932, 11550.04
1772.861, 11339.15
1774.789, 11146.98
1776.718, 10970.64
1778.646, 10801.35
1780.575, 10670.74
1782.503, 10501.98
1784.432, 10367.62
1786.360, 10239.36
1788.288, 10105.46
1790.217, 10000.17
1792.145, 9895.632
1794.074, 9806.151
1796.002, 9770.966
1797.931, 9722.195
1799.859, 9657.641
1801.788, 9614.589
1803.716, 9593.699
1805.645, 9593.570
1807.573, 9592.498
1809.502, 9585.335
1811.430, 9598.471
1813.359, 9627.665
1815.287, 9667.686
1817.215, 9677.524
1819.144, 9729.113
1821.072, 9713.586
1823.001, 9722.153
1824.929, 9744.969
1826.858, 9751.629
1828.786, 9744.182
1830.715, 9739.192
1832.643, 9735.430
1834.572, 9715.958
1836.500, 9686.248
1838.429, 9657.109
1840.357, 9605.416
1842.286, 9515.756
1844.214, 9409.656
1846.142, 9305.878
1848.071, 9207.621
1849.999, 9101.824
1851.928, 8975.453
1853.856, 8834.121
1855.785, 8686.319
1857.713, 8531.262
1859.642, 8369.296
1861.570, 8205.231
1863.499, 8044.023
1865.427, 7932.246
1867.356, 7820.385
1869.284, 7652.179
1871.213, 7509.216
1873.141, 7402.401
1875.069, 7273.462
1876.998, 7129.293
1878.926, 7007.060
1880.855, 6862.345
1882.783, 6734.635
1884.712, 6590.225
1886.640, 6475.518
1888.569, 6340.988
1890.497, 6210.356
1892.426, 6086.778
1894.354, 5953.440
1896.283, 5827.183
1898.211, 5712.724
1900.140, 5600.123
1902.068, 5471.119
1903.996, 5329.984
1905.925, 5196.002
1907.853, 5080.673
1909.782, 4982.169
1911.710, 4881.168
1913.639, 4754.188
1915.567, 4619.666
1917.496, 4505.701
1919.424, 4414.554
1921.353, 4326.339
1923.281, 4220.574
1925.210, 4095.733
1927.138, 3984.423
1929.067, 3900.994
1930.995, 3818.180
1932.923, 3722.787
1934.852, 3642.549
1936.780, 3580.720
1938.709, 3514.706
1940.637, 3440.268
1942.566, 3353.593
1944.494, 3284.531
1946.423, 3249.374
1948.351, 3199.683
1950.280, 3122.531
1952.208, 3058.699
1954.137, 2997.108
1956.065, 2933.094
1957.994, 2882.314
1959.922, 2823.508
1961.850, 2756.540
1963.779, 2715.547
1965.707, 2668.584
1967.636, 2598.391
1969.564, 2541.461
1971.493, 2484.127
1973.421, 2428.178
1975.350, 2392.500
1977.278, 2355.549
1979.207, 2310.030
1981.135, 2260.741
1983.064, 2199.651
1984.992, 2145.245
1986.921, 2102.253
1988.849, 2065.544
1990.777, 2027.129
1992.706, 1979.788
1994.634, 1939.770
1996.563, 1901.036
1998.491, 1860.415
2000.420, 1825.439
2002.348, 1786.881
2004.277, 1749.506
2006.205, 1717.113
2008.134, 1690.630
2010.062, 1657.248
2011.991, 1629.919
2013.919, 1614.972
2015.848, 1584.449
2017.776, 1544.327
2019.704, 1503.933
2021.633, 1471.449
2023.561, 1452.562
2025.490, 1451.257
2027.418, 1444.988
2029.347, 1414.038
2031.275, 1381.102
2033.204, 1356.746
2035.132, 1333.157
2037.061, 1309.074
2038.989, 1288.756
2040.918, 1279.831
2042.846, 1275.584
2044.775, 1266.061
2046.703, 1249.193
2048.632, 1214.544
2050.560, 1180.589
2052.489, 1168.628
2054.417, 1164.563
2056.345, 1150.911
2058.274, 1139.749
2060.202, 1109.772
2062.131, 1109.960
2064.059, 1092.120
2065.988, 1068.595
2067.916, 1064.160
2069.844, 1058.946
2071.773, 1031.285
2073.701, 1009.839
2075.630, 995.6153
2077.558, 973.4739
2079.487, 964.3757
2081.415, 962.6492
2083.344, 954.8591
2085.272, 949.1593
2087.201, 922.5760
2089.129, 899.3284
2091.058, 895.1697
2092.986, 894.5104
2094.915, 888.2311
2096.843, 878.7955
2098.771, 870.3452
2100.700, 855.7983
2102.628, 847.0421
2104.557, 835.6028
2106.485, 824.4681
2108.414, 813.5665
2110.342, 803.3632
2112.271, 803.3276
2114.199, 803.7072
2116.128, 797.9028
2118.056, 788.1244
2119.985, 776.8778
2121.913, 769.1688
2123.842, 757.0685
2125.770, 749.2510
2127.698, 748.0717
2129.627, 745.4217
2131.555, 745.7170
2133.484, 737.7197
2135.412, 716.6829
2137.341, 711.5458
2139.269, 706.3443
2141.198, 700.8258
2143.126, 699.0062
2145.055, 699.0418
2146.983, 697.0493
2148.912, 691.3985
2150.840, 682.1452
2152.769, 670.5519
2154.697, 665.9656
2156.625, 656.9108
2158.554, 652.3017
2160.482, 660.4441
2162.411, 656.7504
2164.339, 651.0413
2166.268, 641.1518
2168.196, 638.3844
2170.125, 625.0327
2172.053, 626.6740
2173.982, 618.1807
2175.910, 606.6797
2177.839, 600.6990
2179.767, 595.6211
2181.696, 591.5902
2183.624, 590.8011
2185.552, 587.2761
2187.481, 588.3282
2189.409, 584.0516
2191.338, 571.5506
2193.266, 561.7714
2195.195, 557.2680
2197.123, 555.4448
2199.052, 558.2180
2200.980, 553.2516
2202.909, 542.5321
2204.837, 543.5757
2206.766, 536.9053
2208.694, 537.3599
2210.623, 529.1186
2212.551, 524.6889
2214.479, 520.0038
2216.408, 513.6630
2218.336, 508.4677
2220.265, 507.4191
2222.193, 496.2332
2224.122, 505.3022
2226.050, 509.5813
2227.979, 506.5635
2229.907, 497.4732
2231.836, 491.8113
2233.764, 485.9879
2235.693, 487.5031
2237.621, 490.0411
2239.550, 484.5676
2241.478, 482.5038
2243.406, 487.6658
2245.335, 489.5240
2247.263, 484.9882
2249.192, 478.8228
2251.120, 473.4053
2253.049, 474.3652
2254.977, 475.8699
2256.906, 470.7974
2258.834, 463.5432
2260.763, 455.5711
2262.691, 452.5663
2264.620, 458.1338
2266.548, 457.7934
2268.477, 452.7812
2270.405, 445.1696
2272.333, 448.4445
2274.262, 442.2534
2276.190, 447.4691
2278.119, 438.8376
2280.047, 435.0750
2281.976, 438.1770
2283.904, 438.3416
2285.833, 428.4479
2287.761, 426.6422
2289.690, 429.7135
2291.618, 427.4619
2293.547, 428.4202
2295.475, 433.7053
2297.404, 439.7597
2299.332, 438.6951
2301.260, 428.1768
2303.189, 417.5222
2305.117, 410.9739
2307.046, 412.3954
2308.974, 406.6945
2310.903, 398.4085
2312.831, 409.3674
2314.760, 415.2879
2316.688, 410.8715
2318.617, 412.6996
2320.545, 413.7836
2322.474, 414.2007
2324.402, 407.1023
2326.331, 396.9831
2328.259, 409.8768
2330.188, 409.7574
2332.116, 392.8053
2334.044, 397.3484
2335.973, 398.0614
2337.901, 390.8414
2339.830, 392.0692
2341.758, 394.6786
2343.687, 397.5036
2345.615, 393.9706
2347.544, 384.3058
2349.472, 377.6469
2351.401, 375.1228
2353.329, 375.1404
2355.258, 388.1002
2357.186, 394.9496
2359.115, 383.5658
2361.043, 381.9933
2362.971, 383.2129
2364.900, 370.8016
2366.828, 368.3264
2368.757, 374.2205
2370.685, 367.5643
2372.614, 363.4091
2374.542, 369.6303
2376.471, 376.5415
2378.399, 378.7364
2380.328, 367.2950
2382.256, 364.0444
2384.185, 366.2914
2386.113, 361.8063
2388.042, 357.7002
2389.970, 355.5797
2391.898, 357.3594
2393.827, 358.9932
2395.755, 363.4988
2397.684, 361.1815
2399.612, 357.6354
2401.541, 365.4263
2403.469, 368.5821
2405.398, 364.0980
2407.326, 349.4695
2409.255, 342.5497
2411.183, 339.9214
2413.112, 350.7102
2415.040, 355.7101
2416.969, 350.2839
2418.897, 343.2905
2420.825, 339.3315
2422.754, 346.5154
2424.682, 350.5345
2426.611, 348.6230
2428.539, 341.4243
2430.468, 336.8896
2432.396, 334.8134
2434.325, 334.2892
2436.253, 336.6282
2438.182, 341.8394
2440.110, 334.5532
2442.039, 329.5736
2443.967, 334.2937
2445.896, 340.9143
2447.824, 338.8455
2449.752, 329.6774
2451.681, 325.0071
2453.609, 324.8131
2455.538, 320.2139
2457.466, 317.2594
2459.395, 316.0071
2461.323, 309.7798
2463.252, 304.4066
2465.180, 299.2276
2467.109, 306.6181
2469.037, 309.1049
2470.966, 305.6566
2472.894, 303.2896
2474.823, 296.0831
2476.751, 283.0708
2478.679, 280.9453
2480.608, 282.5378
2482.536, 282.3265
2484.465, 287.1600
2486.393, 291.4783
2488.322, 287.7633
2490.250, 286.1851
2492.179, 284.4830
2494.107, 276.2649
2496.036, 276.8210
2497.964, 282.0849
2499.893, 284.2992
2501.821, 278.1135
2503.750, 269.7985
2505.678, 280.8752
2507.606, 280.8352
2509.535, 269.5875
2511.463, 267.5026
2513.392, 268.2589
2515.320, 277.1668
2517.249, 278.8624
2519.177, 274.5787
2521.106, 272.6066
2523.034, 268.3334
2524.963, 265.2293
2526.891, 267.0191
2528.820, 261.1059
2530.748, 257.1664
2532.677, 261.6128
2534.605, 250.2003
2536.533, 239.0402
2538.462, 256.0170
2540.390, 260.8270
2542.319, 258.0938
2544.247, 254.4914
2546.176, 250.0006
2548.104, 245.6737
2550.033, 243.6537
2551.961, 241.4220
2553.890, 239.1152
2555.818, 248.4822
2557.747, 252.6310
2559.675, 246.8396
2561.604, 236.5206
2563.532, 236.2101
2565.460, 239.6642
2567.389, 230.1109
2569.317, 226.4554
2571.246, 232.2193
2573.174, 244.1106
2575.103, 239.2066
2577.031, 242.4115
2578.960, 231.9090
2580.888, 239.5656
2582.817, 232.0921
2584.745, 232.9709
2586.674, 234.7845
2588.602, 231.5957
2590.531, 226.4689
2592.459, 222.3529
2594.387, 225.0059
2596.316, 232.3646
2598.244, 231.0341
2600.173, 225.7440
2602.101, 219.9816
2604.030, 216.3089
2605.958, 217.2470
2607.887, 213.9026
2609.815, 208.2304
2611.744, 210.3276
2613.672, 204.5561
2615.601, 211.5261
2617.529, 215.0014
2619.458, 216.2892
2621.386, 205.6325
2623.314, 213.6911
2625.243, 203.4554
2627.171, 196.4053
2629.100, 200.5261
2631.028, 210.9373
2632.957, 213.8701
2634.885, 201.7283
2636.814, 196.0901
2638.742, 197.4033
2640.671, 201.2833
2642.599, 206.4370
2644.528, 205.5852
2646.456, 193.5647
2648.385, 199.1401
2650.313, 191.1093
2652.241, 204.9846
2654.170, 186.3309
2656.098, 181.8871
2658.027, 189.5786
2659.955, 191.8383
2661.884, 188.9311
2663.812, 182.9237
2665.741, 191.9567
2667.669, 188.7424
2669.598, 175.7027
2671.526, 184.9918
2673.455, 184.1652
2675.383, 171.2250
2677.312, 176.0274
2679.240, 174.5310
2681.168, 168.1300
2683.097, 171.2383
2685.025, 168.5008
2686.954, 167.5915
2688.882, 170.8268
2690.811, 170.3686
2692.739, 171.8471
2694.668, 170.4465
2696.596, 169.1807
2698.525, 166.1088
2700.453, 162.9516
2702.382, 160.1111
2704.310, 157.6017
2706.239, 159.2628
2708.167, 167.3391
2710.095, 171.9795
2712.024, 167.2666
2713.952, 164.8920
2715.881, 159.6506
2717.809, 148.7856
2719.738, 158.2176
2721.666, 164.1530
2723.595, 156.5264
2725.523, 162.3385
2727.452, 169.6137
2729.380, 169.1765
2731.309, 160.2904
2733.237, 151.9760
2735.166, 150.3183
2737.094, 148.5138
2739.022, 148.2165
2740.951, 150.3367
2742.879, 150.6152
2744.808, 148.1460
2746.736, 145.3664
2748.665, 146.5226
2750.593, 154.1180
2752.522, 150.3020
2754.450, 150.7479
2756.379, 158.2166
2758.307, 157.3163
2760.236, 153.0552
2762.164, 151.4551
2764.093, 152.2123
2766.021, 150.7470
2767.949, 146.7414
2769.878, 150.1071
2771.806, 148.3980
2773.735, 145.2046
2775.663, 146.8478
2777.592, 143.5438
2779.520, 143.3785
2781.449, 137.4329
2783.377, 132.5313
2785.306, 131.2628
2787.234, 132.0969
2789.163, 133.3717
2791.091, 130.7910
2793.020, 131.1051
2794.948, 132.0667
2796.876, 132.4315
2798.805, 134.9337
2800.733, 135.9596
2802.662, 135.2148
2804.590, 138.9198
2806.519, 135.4090
2808.447, 135.5001
2810.376, 133.6730
2812.304, 137.6902
2814.233, 128.1275
2816.161, 123.1047
2818.090, 119.7647
2820.018, 121.9566
2821.947, 127.5997
2823.875, 111.1189
2825.803, 115.8671
2827.732, 131.5246
2829.660, 118.7946
2831.589, 129.7826
2833.517, 135.9364
2835.446, 113.1037
2837.374, 110.8641
2839.303, 111.8567
2841.231, 103.6097
2843.160, 108.2833
2845.088, 115.6290
2847.017, 123.8265
2848.945, 119.6997
2850.874, 120.5719
2852.802, 119.7504
2854.730, 114.8651
2856.659, 108.5830
2858.587, 104.4947
2860.516, 101.0251
2862.444, 104.4061
2864.373, 99.36470
2866.301, 108.2222
2868.230, 116.6695
2870.158, 118.0788
2872.087, 111.5937
2874.015, 108.4883
2875.944, 113.8427
2877.872, 112.4406
2879.801, 107.1527
2881.729, 104.6632
2883.657, 104.6831
2885.586, 111.6343
2887.514, 113.4966
2889.443, 110.3276
2891.371, 108.2947
2893.300, 104.3298
2895.228, 103.1299
2897.157, 104.2230
2899.085, 98.52338
2901.014, 102.1526
2902.942, 102.1716
2904.871, 97.36787
2906.799, 89.84927
2908.728, 93.00710
2910.656, 96.20146
2912.584, 103.1017
2914.513, 103.2842
2916.441, 108.4632
2918.370, 116.8799
2920.298, 111.8031
2922.227, 112.1727
2924.155, 113.1385
2926.084, 104.4164
2928.012, 101.5626
2929.941, 103.7017
2931.869, 104.1969
2933.798, 109.1035
2935.726, 113.1197
2937.655, 106.7963
2939.583, 89.55162
2941.511, 83.61712
2943.440, 82.60114
2945.368, 83.55650
2947.297, 90.42719
2949.225, 99.32185
2951.154, 103.4721
2953.082, 101.3495
2955.011, 95.21557
2956.939, 91.33128
2958.868, 92.95237
2960.796, 93.44028
2962.725, 105.7202
2964.653, 110.5655
2966.582, 100.8686
2968.510, 99.63017
2970.438, 92.03708
2972.367, 86.02959
2974.295, 88.93997
2976.224, 94.85897
2978.152, 101.0159
2980.081, 90.38261
2982.009, 86.05663
2983.938, 86.97475
2985.866, 83.88464
2987.795, 86.38414
2989.723, 87.88199
2991.652, 88.08734
2993.580, 92.32373
2995.509, 84.23393
2997.437, 83.00778
2999.365, 76.89651
3001.294, 80.21617
3003.222, 82.44942
3005.151, 84.13362
3007.079, 81.60265
3009.008, 87.76385
3010.936, 87.86772
3012.865, 78.57272
3014.793, 74.84669
3016.722, 83.87760
3018.650, 88.70213
3020.579, 85.25276
3022.507, 84.87267
3024.436, 87.75867
3026.364, 88.84985
3028.292, 78.96696
3030.221, 77.93298
3032.149, 81.28542
3034.078, 82.06094
3036.006, 82.59261
3037.935, 83.92107
3039.863, 85.91460
3041.792, 88.30978
3043.720, 81.22250
3045.649, 73.09957
3047.577, 68.43397
3049.506, 65.65002
3051.434, 69.39125
3053.363, 67.01266
3055.291, 77.94785
3057.219, 87.59677
3059.148, 91.49918
3061.076, 89.73266
3063.005, 88.13850
3064.933, 70.02816
3066.862, 73.22600
3068.790, 71.09200
3070.719, 59.04899
3072.647, 70.99149
3074.576, 77.26950
3076.504, 75.52186
3078.433, 85.96166
3080.361, 94.29285
3082.290, 91.61082
3084.218, 76.78246
3086.146, 72.07668
3088.075, 70.35989
3090.003, 76.65276
3091.932, 78.07991
3093.860, 81.96085
3095.789, 88.81946
3097.717, 91.52802
3099.646, 94.85806
3101.574, 100.9974
3103.503, 101.2281
3105.431, 93.34489
3107.360, 79.11116
3109.288, 81.24700
3111.217, 85.81605
3113.145, 81.50713
3115.073, 91.31905
3117.002, 95.47943
3118.930, 91.73188
3120.859, 85.57745
3122.787, 85.20908
3124.716, 72.23720
3126.644, 69.47192
3128.573, 94.37732
3130.501, 88.52663
3132.430, 84.23137
3134.358, 85.49899
3136.287, 85.64702
3138.215, 84.32605
3140.144, 87.05710
3142.072, 88.24003
3144.000, 91.77171
3145.929, 92.70561
3147.857, 95.88654
3149.786, 96.99029
3151.714, 91.46655
3153.643, 91.84263
3155.571, 92.25338
3157.500, 93.13063
3159.428, 107.1609
3161.357, 93.80644
3163.285, 87.01787
3165.214, 99.57645
3167.142, 100.7699
3169.071, 91.25281
3170.999, 88.07716
3172.927, 96.91430
3174.856, 91.15459
3176.784, 96.75163
3178.713, 109.6353
3180.641, 120.2700
3182.570, 127.3276
3184.498, 116.7131
3186.427, 104.1635
3188.355, 103.1742
3190.284, 112.6924
3192.212, 126.4040
3194.141, 125.0790
3196.069, 103.9315
3197.998, 111.6176
3199.926, 109.9359
3201.854, 110.7816
3203.783, 125.9783
3205.711, 130.3074
3207.640, 128.9763
3209.568, 126.4999
3211.497, 125.4131
3213.425, 137.5556
3215.354, 140.8950
3217.282, 134.8293
3219.211, 127.2699
3221.139, 143.2332
3223.068, 157.3815
3224.996, 162.8465
3226.925, 159.7114
3228.853, 144.8918
3230.781, 159.5704
3232.710, 172.2769
3234.638, 173.5572
3236.567, 189.7376
3238.495, 181.2100
3240.424, 161.0507
3242.352, 149.5701
3244.281, 177.8841
3246.209, 171.9809
3248.138, 174.1337
3250.066, 185.7823
3251.995, 188.5099
3253.923, 171.6694
3255.852, 171.8218
3257.780, 182.6089
3259.708, 184.2860
3261.637, 202.1734
3263.565, 195.1230
3265.494, 197.1057
3267.422, 208.5095
3269.351, 235.0522
3271.279, 227.4987
3273.208, 232.2726
3275.136, 244.5341
3277.065, 221.7601
3278.993, 226.2845
3280.922, 241.0236
3282.850, 252.0779
3284.779, 257.9057
3286.707, 261.7406
3288.635, 266.3457
3290.564, 260.5677
3292.492, 272.1313
3294.421, 271.0615
3296.349, 277.6462
3298.278, 293.4092
3300.206, 313.1439
3302.135, 329.1582
3304.063, 328.6828
3305.992, 337.9431
3307.920, 364.5796
3309.849, 371.9199
3311.777, 393.3750
3313.706, 409.0420
3315.634, 422.0543
3317.563, 456.4263
3319.491, 478.1334
3321.419, 474.8047
3323.348, 473.1184
3325.276, 499.3728
3327.205, 529.3084
3329.133, 545.3985
3331.062, 551.7498
3332.990, 557.9092
3334.919, 575.1965
3336.847, 591.2956
3338.776, 604.8954
3340.704, 620.9004
3342.633, 646.1673
3344.561, 650.3498
3346.490, 651.0040
3348.418, 667.8246
3350.346, 699.9786
3352.275, 696.7150
3354.203, 682.1340
3356.132, 710.5530
3358.060, 754.4713
3359.989, 733.4405
3361.917, 718.8947
3363.846, 711.0754
3365.774, 701.8092
3367.703, 684.6161
3369.631, 661.8047
3371.560, 662.0101
3373.488, 634.9915
3375.417, 594.0555
3377.345, 590.7970
3379.273, 566.3484
3381.202, 553.5627
3383.130, 537.6554
3385.059, 508.9219
3386.987, 487.8663
3388.916, 478.3493
3390.844, 487.6212
3392.773, 492.5475
3394.701, 463.9180
3396.630, 445.3261
3398.558, 454.3953
3400.487, 448.5176
3402.415, 418.6381
3404.344, 401.9488
3406.272, 431.8197
3408.200, 424.7572
3410.129, 403.6004
3412.057, 407.7250
3413.986, 406.7080
3415.914, 405.4124
3417.843, 399.9822
3419.771, 391.7795
3421.700, 387.3900
3423.628, 384.4299
3425.557, 391.4954
3427.485, 406.5005
3429.414, 416.8979
3431.342, 400.3478
3433.271, 403.0126
3435.199, 397.8651
3437.127, 393.0155
3439.056, 398.0951
3440.984, 409.7052
3442.913, 409.3417
3444.841, 417.7656
3446.770, 424.6922
3448.698, 414.6784
3450.627, 426.0119
3452.555, 416.9524
3454.484, 410.6956
3456.412, 402.9124
3458.341, 394.8274
3460.269, 385.1626
3462.198, 381.8807
3464.126, 377.7227
3466.054, 377.8797
3467.983, 376.6093
3469.911, 370.2120
3471.840, 369.7557
3473.768, 378.3575
3475.697, 383.7776
3477.625, 360.5818
3479.554, 360.7999
3481.482, 338.8206
3483.411, 324.5327
3485.339, 326.7242
3487.268, 308.0327
3489.196, 289.1690
3491.125, 294.3527
3493.053, 294.1418
3494.981, 280.8780
3496.910, 288.0685
3498.838, 269.8423
3500.767, 272.7334
3502.695, 272.0417
3504.624, 253.4276
3506.552, 235.7752
3508.481, 229.2169
3510.409, 223.8606
3512.338, 221.7213
3514.266, 232.5813
3516.195, 225.4008
3518.123, 245.0955
3520.052, 245.2835
3521.980, 234.1501
3523.908, 225.1488
3525.837, 223.7708
3527.765, 227.5095
3529.694, 212.1741
3531.622, 196.2726
3533.551, 193.5451
3535.479, 205.0571
3537.408, 210.2175
3539.336, 211.6144
3541.265, 206.7618
3543.193, 200.2316
3545.122, 196.1292
3547.050, 180.8303
3548.979, 199.2401
3550.907, 181.7790
3552.835, 167.3980
3554.764, 186.3280
3556.692, 161.7354
3558.621, 185.6788
3560.549, 169.4400
3562.478, 159.3573
3564.406, 173.6868
3566.335, 162.1436
3568.263, 164.3784
3570.192, 162.3008
3572.120, 161.0758
3574.049, 158.9131
3575.977, 149.4526
3577.906, 138.0298
3579.834, 152.1014
3581.762, 146.9113
3583.691, 136.6359
3585.619, 139.6135
3587.548, 138.4899
3589.476, 156.1511
3591.405, 161.8821
3593.333, 147.2189
3595.262, 134.2713
3597.190, 145.7323
3599.119, 127.8924
3601.047, 112.3166
3602.976, 107.8067
3604.904, 105.8117
3606.833, 102.7808
3608.761, 114.5284
3610.689, 124.0424
3612.618, 115.2016
3614.546, 112.9776
3616.475, 122.3151
3618.403, 129.1941
3620.332, 118.0352
3622.260, 118.1308
3624.189, 100.5588
3626.117, 100.3501
3628.046, 91.18767
3629.974, 85.82877
3631.903, 82.74352
3633.831, 77.54063
3635.760, 87.82114
3637.688, 91.33186
3639.616, 74.59042
3641.545, 86.25063
3643.473, 70.89005
3645.402, 71.09336
3647.330, 68.87459
3649.259, 68.19595
3651.187, 81.14773
3653.116, 71.32444
3655.044, 75.45921
3656.973, 83.95449
3658.901, 73.09205
3660.830, 56.00141
3662.758, 61.25241
3664.687, 61.00927
3666.615, 75.15394
3668.543, 76.20949
3670.472, 68.97633
3672.400, 66.37885
3674.329, 72.91463
3676.257, 72.89894
3678.186, 59.69059
3680.114, 57.86065
3682.043, 52.00985
3683.971, 41.90894
3685.900, 47.75763
3687.828, 46.78139
3689.757, 46.91628
3691.685, 46.07344
3693.614, 49.71622
3695.542, 52.67072
3697.470, 45.60980
3699.399, 55.77742
3701.327, 42.93374
3703.256, 31.97571
3705.184, 36.90840
3707.113, 44.13763
3709.041, 35.23492
3710.970, 25.56904
3712.898, 34.16155
3714.827, 32.52640
3716.755, 50.98080
3718.684, 58.83960
3720.612, 27.42936
3722.541, 18.13388
3724.469, 38.28221
3726.397, 29.87609
3728.326, 40.05462
3730.254, 47.76558
3732.183, 33.01185
3734.111, 28.43418
3736.040, 40.34832
3737.968, 17.10829
3739.897, 30.46342
3741.825, 46.13906
3743.754, 40.71404
3745.682, 30.31526
3747.611, 21.28071
3749.539, 15.97648
3751.468, 22.37300
3753.396, 29.09748
3755.324, 25.00255
3757.253, 19.07785
3759.181, 34.16337
3761.110, 21.09274
3763.038, 45.29140
3764.967, 33.30299
3766.895, 22.62461
3768.824, 25.70749
3770.752, 19.01836
3772.681, 14.76756
3774.609, -11.55923
3776.538, 7.889681
3778.466, 7.849701
3780.395, 32.71329
3782.323, 19.97974
3784.251, 18.56411
3786.180, -5.710087
3788.108, 13.50988
3790.037, 9.713930
3791.965, 20.14150
3793.894, 27.03923
3795.822, 15.27124
3797.751, 12.13263
3799.679, 9.651008
3801.608, 24.10323
3803.536, 6.782975
3805.465, 8.951740
3807.393, 18.04159
3809.322, 12.19249
3811.250, 10.12134
3813.178, 15.23550
3815.107, 19.93721
3817.035, 10.32249
3818.964, 14.48343
3820.892, 20.68407
3822.821, 16.35487
3824.749, 14.26897
3826.678, 27.04355
3828.606, 18.70529
3830.535, 15.36265
3832.463, 24.63197
3834.392, 22.47723
3836.320, 8.018783
3838.249, 4.236020
3840.177, 13.55702
3842.105, 12.91639
3844.034, 13.45449
3845.962, 20.70826
3847.891, 24.85910
3849.819, 18.12440
3851.748, 10.33353
3853.676, 29.54205
3855.605, -3.914417
3857.533, 38.20156
3859.462, 14.88161
3861.390, -14.35444
3863.319, 9.349870
3865.247, 43.51727
3867.176, 20.86818
3869.104, 13.31361
3871.032, 2.457371
3872.961, -2.884191
3874.889, 8.051186
3876.818, 16.22535
3878.746, 12.64479
3880.675, 3.497390
3882.603, 2.460040
3884.532, 2.861357
3886.460, 15.13677
3888.389, 7.001034
3890.317, 16.76520
3892.246, 16.49042
3894.174, 16.41749
3896.103, 25.41718
3898.031, 18.75034
3899.959, 19.10755
3901.888, 7.999294
3903.816, 13.89513
3905.745, 11.59252
3907.673, 7.320916
3909.602, 6.021924
3911.530, 6.487123
3913.459, 10.99055
3915.387, 13.81181
3917.316, 10.16648
3919.244, 21.03538
3921.173, 27.82417
3923.101, 24.75999
3925.030, 16.70734
3926.958, 14.27695
3928.886, 20.19061
3930.815, 20.57871
3932.743, 19.65468
3934.672, 17.94580
3936.600, 25.17145
3938.529, 2.621024
3940.457, 3.840381
3942.386, 14.80557
3944.314, -2.257294
3946.243, -0.5149478
3948.171, 12.81066
3950.100, 21.52188
3952.028, 12.08838
3953.957, 12.25432
3955.885, 9.405633
3957.813, 11.36059
3959.742, 18.60819
3961.670, 19.71830
3963.599, 20.25500
3965.527, 20.19438
3967.456, 15.55650
3969.384, 14.31887
3971.313, 9.146599
3973.241, 3.963632
3975.170, 6.067389
3977.098, 7.723611
3979.027, 9.714101
3980.955, 7.337271
3982.884, 0.1122622
3984.812, -7.195337
3986.740, -15.15594
3988.669, -15.21895
3990.597, 6.906017
3992.526, -6.110397
3994.454, -4.480398
3996.383, 17.16230
3998.311, 8.138894
4000.240, -3.137449
4002.168, 5.202785
4004.097, -2.573313
4006.025, -4.062418
4007.954, 2.520500
4009.882, 12.80218
4011.811, 18.44171
4013.739, 15.19893
4015.667, 34.56870
4017.596, 10.19534
4019.524, -5.419932
4021.453, 2.630255
4023.381, 13.71309
4025.310, 2.674694
4027.238, 5.278306
4029.167, 20.06908
4031.095, 17.28418
4033.024, 12.66384
4034.952, 19.58490
4036.881, 3.976919
4038.809, 22.07218
4040.738, 16.59034
4042.666, 15.65866
4044.594, 6.191082
4046.523, -1.005472
4048.451, 11.75098
4050.380, 25.83742
4052.308, 9.638490
4054.237, -12.47416
4056.165, -18.62560
4058.094, 17.67467
4060.022, 5.003551
4061.951, 7.724739
4063.879, -7.215467
4065.808, -16.39142
4067.736, -11.16587
4069.665, 0.5487797
4071.593, 21.83130
4073.521, 0.1554873
4075.450, 20.48122
4077.378, 14.65904
4079.307, -0.5290515
4081.235, 18.03020
4083.164, -1.015047
4085.092, 0.4427390
4087.021, 6.362642
4088.949, -9.6299417E-02
4090.878, -1.817727
4092.806, 5.318540
4094.735, 8.374814
4096.663, 28.36441
4098.591, 18.74552
4100.520, 16.42811
4102.448, 6.426628
4104.377, -4.902711
4106.305, -11.88202
4108.234, -6.442951
4110.162, -5.624996
4112.091, -4.635516
4114.019, -3.305634
4115.948, 8.427046
4117.876, -7.205115
4119.805, -3.806847
4121.733, -13.46086
4123.662, 1.763415
4125.590, 7.549337
4127.519, 18.16571
4129.447, 16.17039
4131.375, -2.835058
4133.304, 9.289755
4135.232, 3.113622
4137.161, 3.366286
4139.089, 10.80245
4141.018, 20.54516
4142.946, 33.80807
4144.875, 29.07512
4146.803, 14.91685
4148.731, -8.686483
4150.660, -7.014623
4152.588, 8.989140
4154.517, 4.548228
4156.445, 11.71291
4158.374, 2.580456
4160.302, 4.206088
4162.231, -9.019634
4164.159, -2.961310
4166.088, 5.997846
4168.016, -6.772829
4169.945, -18.18987
4171.873, 3.623788
4173.802, 9.993397
4175.730, -8.260889
4177.659, 6.346930
4179.587, 6.071841
4181.516, -2.120506
4183.444, 2.167436
4185.373, -3.752474
4187.301, -12.54553
4189.229, -3.405517
4191.158, -7.047920
4193.086, -7.698567
4195.015, -0.2478274
4196.943, -3.552677
4198.872, -5.617835
4200.800, -2.247957
4202.729, -4.103723
4204.657, 4.670138
4206.585, -5.912511
4208.514, -2.402962
4210.442, -9.483694
4212.371, -15.81228
4214.299, -0.1814408
4216.228, 11.86406
4218.156, 9.223516
4220.085, 14.83556
4222.013, 5.500816
4223.942, 10.46888
4225.870, 22.23231
4227.799, -11.40385
4229.727, 5.879217
4231.656, 41.39972
4233.584, 13.23384
4235.513, -1.328636
4237.441, -13.46050
4239.370, 15.82121
4241.298, 12.47985
4243.227, 13.91484
4245.155, 17.15934
4247.083, -11.48826
4249.012, -16.61336
4250.940, 3.210747
4252.869, -7.988902
4254.797, 21.89164
4256.726, 27.20325
4258.654, 19.41829
4260.583, -1.348067
4262.511, 5.123768
4264.439, -21.79017
4266.368, 18.83439
4268.296, 1.057575
4270.225, -4.151470
4272.153, -8.845053
4274.082, 12.25648
4276.010, -1.632735
4277.939, -0.7554717
4279.867, 16.85643
4281.796, 3.763289
4283.724, -5.866670
4285.653, 9.913527
4287.581, 14.94032
4289.510, 0.4551416
4291.438, -8.839163
4293.367, 10.92551
4295.295, 13.64531
4297.224, 14.92785
4299.152, 25.29864
4301.081, 19.87124
4303.009, 9.565640
4304.938, 13.42852
4306.866, 8.286557
4308.794, 5.651216
4310.723, -4.401499
4312.651, 4.528934
4314.580, -9.566268
4316.508, 3.073085
4318.437, 1.909711
4320.365, -3.908228
4322.293, 11.59282
4324.222, -9.603950
4326.150, -8.577790
4328.079, -4.537711
4330.007, -11.13366
4331.936, -6.129202
4333.864, -2.603201
4335.793, -10.79733
4337.721, 11.83335
4339.650, 2.651513
4341.578, 11.95823
4343.507, 2.068933
4345.435, 8.355842
4347.364, 16.76952
4349.292, 23.61782
4351.221, 6.565000
4353.149, 8.371300
4355.078, 3.294111
4357.006, 25.68649
4358.935, 18.79063
4360.863, 3.830108
4362.792, 19.25929
4364.720, 7.658876
4366.648, 4.666414
4368.577, -6.511179
4370.505, -19.98963
4372.434, -2.933549
4374.362, 10.36126
4376.291, -0.8368603
4378.219, -6.495442
4380.147, -11.67670
4382.076, -0.3341266
##END=



