##NAMES=Svanbergite
##RRUFFID=R050549
##IDEAL CHEMISTRY=SrAl_3_(SO_4_)(PO_4_)(OH)_6_
##LOCALITY=Horrsjoberg, Varmland, Sweden
##OWNER=RRUFF
##SOURCE=University of Arizona Mineral Museum
##DESCRIPTION=Orange-brown crystals embedded in a matrix of pyrophyllite, quartz and kyanite
##STATUS=The identification of this mineral has been confirmed by X-ray diffraction and chemical analysis
##URL=https://www.rruff.net/odr/rruff_sample/R050549
##MEASURED CHEMISTRY=(Sr_0.85_Ca_0.15_)Al_3.00_[(P_0.56_S_0.44_)O_4_]_2_((OH)_5.88_(H_2_O)_0.12_) ; (OH) and H_2_O estimated by charge balance
##DIFFRACTION SAMPLE DESCRIPTION=Single crystal, powder profile is calculated
##CELL PARAMETERS=a: 6.988 b: 6.988 c: 16.605 alpha: 90 beta: 90 gamma: 120 volume: 702.3 crystal system: hexagonal
##FILETYPE=Raman RAW
##RAMAN WAVELENGTH=780

81.32811, 0.0000000E+00
83.25658, 189.1381
85.18504, 210.4062
87.11351, 235.8218
89.04198, 266.4814
90.97044, 299.9120
92.89891, 335.0506
94.82738, 348.7101
96.75584, 350.0770
98.68431, 348.4626
100.6128, 346.3591
102.5412, 344.7881
104.4697, 342.6330
106.3982, 338.8004
108.3266, 334.7489
110.2551, 332.5682
112.1836, 331.7757
114.1120, 330.8635
116.0405, 329.0938
117.9690, 327.3422
119.8974, 325.7215
121.8259, 323.9909
123.7544, 320.9948
125.6828, 316.9630
127.6113, 315.7527
129.5398, 318.5159
131.4682, 323.3791
133.3967, 330.2525
135.3252, 338.7128
137.2536, 348.8264
139.1821, 360.2337
141.1106, 371.1855
143.0390, 382.1947
144.9675, 391.4647
146.8960, 398.3410
148.8244, 403.6547
150.7529, 406.3864
152.6814, 407.8986
154.6098, 413.7934
156.5383, 425.1392
158.4668, 440.3422
160.3952, 458.3361
162.3237, 481.0033
164.2522, 510.3325
166.1806, 545.0997
168.1091, 583.0546
170.0376, 622.7980
171.9660, 669.3064
173.8945, 739.7291
175.8230, 797.2473
177.7514, 829.3607
179.6799, 835.1968
181.6084, 805.1181
183.5368, 727.0524
185.4653, 656.9003
187.3938, 591.6013
189.3223, 538.0150
191.2507, 500.8943
193.1792, 475.4090
195.1077, 458.3929
197.0361, 449.9135
198.9646, 447.3309
200.8931, 451.2831
202.8215, 457.7824
204.7500, 466.2668
206.6785, 476.9276
208.6069, 490.1757
210.5354, 505.5344
212.4639, 521.2870
214.3923, 537.1604
216.3208, 555.2792
218.2493, 575.0288
220.1777, 598.8645
222.1062, 627.9252
224.0347, 661.0579
225.9631, 698.3834
227.8916, 739.9532
229.8201, 778.8763
231.7485, 814.7348
233.6770, 848.8085
235.6055, 888.8762
237.5339, 919.6816
239.4624, 933.5384
241.3909, 930.7052
243.3193, 910.8618
245.2478, 874.6439
247.1763, 831.2990
249.1047, 777.6852
251.0332, 724.8359
252.9617, 673.8175
254.8901, 627.1464
256.8186, 587.9495
258.7471, 555.6585
260.6755, 527.6316
262.6040, 503.8163
264.5325, 484.3022
266.4609, 470.9549
268.3894, 459.5725
270.3179, 448.2728
272.2463, 437.9358
274.1748, 430.6166
276.1033, 425.8342
278.0317, 419.6503
279.9602, 411.9394
281.8887, 402.0079
283.8171, 387.7597
285.7456, 373.5331
287.6741, 361.6581
289.6025, 351.9469
291.5310, 344.0949
293.4595, 338.1487
295.3879, 333.3587
297.3164, 329.5829
299.2449, 327.0008
301.1733, 326.2417
303.1018, 326.1718
305.0303, 326.1689
306.9587, 326.1193
308.8872, 325.7243
310.8157, 324.6145
312.7441, 324.4168
314.6726, 325.5731
316.6011, 326.9635
318.5295, 327.8909
320.4580, 329.4520
322.3865, 332.7635
324.3149, 337.2068
326.2434, 340.7554
328.1719, 342.5523
330.1003, 346.8543
332.0288, 354.9922
333.9573, 362.7292
335.8857, 368.9120
337.8142, 374.0799
339.7427, 378.6054
341.6711, 382.4556
343.5996, 384.9858
345.5281, 385.3918
347.4565, 388.8571
349.3850, 396.1236
351.3135, 404.5681
353.2419, 412.9341
355.1704, 422.7376
357.0989, 435.6702
359.0273, 450.3941
360.9558, 464.6364
362.8843, 478.2873
364.8127, 489.8181
366.7412, 499.5878
368.6697, 505.7287
370.5981, 505.8434
372.5266, 504.5323
374.4551, 501.8761
376.3835, 500.2069
378.3120, 503.0111
380.2405, 510.0555
382.1689, 518.5790
384.0974, 528.6522
386.0259, 539.4900
387.9543, 551.5993
389.8828, 563.2433
391.8113, 576.2067
393.7397, 586.5469
395.6682, 593.0651
397.5967, 593.2614
399.5251, 581.8542
401.4536, 559.0219
403.3821, 529.3072
405.3105, 488.2308
407.2390, 451.1287
409.1675, 420.0674
411.0959, 394.5598
413.0244, 376.0606
414.9529, 361.9594
416.8813, 348.6533
418.8098, 336.4933
420.7383, 327.4565
422.6667, 322.2718
424.5952, 317.9382
426.5237, 313.5808
428.4521, 310.7350
430.3806, 309.7786
432.3091, 310.5100
434.2375, 313.5058
436.1660, 317.7549
438.0945, 321.4704
440.0229, 324.6342
441.9514, 329.7852
443.8799, 337.8542
445.8083, 346.6558
447.7368, 356.5641
449.6653, 366.5097
451.5938, 376.2290
453.5222, 385.7387
455.4507, 394.7144
457.3792, 403.6655
459.3076, 413.3681
461.2361, 423.6830
463.1646, 435.7025
465.0930, 449.2595
467.0215, 465.0142
468.9500, 484.7528
470.8784, 503.7142
472.8069, 519.9391
474.7354, 534.2750
476.6638, 548.9132
478.5923, 561.6110
480.5208, 568.3372
482.4492, 568.9918
484.3777, 561.2341
486.3062, 544.4610
488.2346, 523.6151
490.1631, 498.1298
492.0916, 471.7357
494.0200, 444.7351
495.9485, 418.5822
497.8770, 392.0312
499.8054, 368.2040
501.7339, 352.1724
503.6624, 343.4488
505.5908, 337.9291
507.5193, 335.5308
509.4478, 337.4731
511.3762, 344.6713
513.3047, 353.8996
515.2332, 364.7512
517.1616, 376.8032
519.0901, 391.2942
521.0186, 405.6680
522.9470, 421.6878
524.8755, 434.1245
526.8040, 430.6461
528.7324, 412.5569
530.6609, 384.0971
532.5894, 342.6874
534.5178, 306.9190
536.4463, 279.8296
538.3748, 259.9621
540.3032, 249.1671
542.2317, 242.8366
544.1602, 239.8104
546.0886, 238.6634
548.0171, 237.6739
549.9456, 237.2423
551.8740, 238.5625
553.8025, 241.6678
555.7310, 245.3067
557.6594, 249.6372
559.5879, 253.7932
561.5164, 257.1894
563.4448, 261.2219
565.3733, 265.9789
567.3018, 271.7806
569.2302, 279.2264
571.1587, 287.4533
573.0872, 295.1508
575.0156, 303.0108
576.9441, 313.0167
578.8726, 325.3198
580.8010, 337.8980
582.7295, 351.0871
584.6580, 363.7546
586.5864, 375.8016
588.5149, 387.4431
590.4434, 399.0205
592.3718, 409.7502
594.3003, 418.9654
596.2288, 427.3688
598.1572, 435.4943
600.0857, 443.3069
602.0142, 450.3489
603.9426, 456.8788
605.8711, 464.3246
607.7996, 472.4520
609.7280, 483.0769
611.6565, 496.7931
613.5850, 510.8748
615.5134, 526.5063
617.4419, 538.3073
619.3704, 544.4986
621.2988, 545.6959
623.2273, 540.7794
625.1558, 532.7638
627.0842, 524.4050
629.0127, 514.9957
630.9412, 503.0453
632.8696, 488.6739
634.7981, 472.4123
636.7266, 454.3109
638.6550, 436.1105
640.5835, 417.8577
642.5120, 400.1509
644.4404, 382.5561
646.3689, 366.9390
648.2974, 354.0549
650.2258, 342.9964
652.1543, 334.6978
654.0828, 326.6113
656.0112, 317.3276
657.9397, 306.5301
659.8682, 292.6560
661.7966, 277.1758
663.7251, 263.9704
665.6536, 252.7453
667.5820, 240.9711
669.5105, 228.2848
671.4390, 217.7417
673.3674, 210.0177
675.2959, 203.7588
677.2244, 199.0805
679.1528, 195.3069
681.0813, 192.5055
683.0098, 190.2737
684.9382, 188.6894
686.8667, 187.2829
688.7952, 185.2121
690.7236, 183.4648
692.6521, 183.5751
694.5806, 184.7322
696.5090, 185.1731
698.4375, 184.8978
700.3660, 184.0454
702.2944, 182.3831
704.2229, 181.2973
706.1514, 181.4415
708.0798, 180.8757
710.0083, 179.0741
711.9368, 177.5989
713.8652, 176.9542
715.7937, 176.2797
717.7222, 175.2239
719.6506, 174.0571
721.5791, 172.8640
723.5076, 171.7133
725.4360, 170.8399
727.3645, 169.9253
729.2930, 168.1522
731.2214, 167.7897
733.1499, 165.6180
735.0784, 166.4617
737.0068, 166.5321
738.9353, 165.7550
740.8638, 164.9485
742.7922, 164.0875
744.7207, 163.3402
746.6492, 162.6850
748.5776, 162.3103
750.5061, 162.4211
752.4346, 162.3545
754.3630, 161.7029
756.2915, 161.1721
758.2200, 161.0459
760.1484, 161.1049
762.0769, 161.4588
764.0054, 161.6971
765.9338, 161.2950
767.8623, 161.4309
769.7908, 160.7153
771.7192, 160.9326
773.6477, 160.5945
775.5762, 159.9160
777.5046, 159.5862
779.4331, 159.5598
781.3616, 159.6835
783.2900, 159.9293
785.2185, 159.7349
787.1470, 158.9635
789.0754, 158.4532
791.0039, 158.1781
792.9324, 158.5455
794.8608, 160.2317
796.7893, 161.5157
798.7178, 162.2779
800.6462, 162.4530
802.5747, 161.3306
804.5032, 160.5573
806.4316, 161.0544
808.3601, 161.9485
810.2886, 163.0587
812.2170, 163.9493
814.1455, 164.0599
816.0740, 163.8324
818.0024, 163.4076
819.9309, 163.1855
821.8594, 164.3581
823.7878, 163.9840
825.7163, 166.2407
827.6448, 164.8355
829.5732, 164.8183
831.5017, 166.2337
833.4302, 165.9672
835.3586, 163.6548
837.2871, 162.2296
839.2156, 161.7697
841.1440, 161.7719
843.0725, 162.3228
845.0010, 163.1455
846.9294, 164.7052
848.8579, 164.8898
850.7864, 162.6236
852.7148, 160.9044
854.6433, 160.7006
856.5718, 160.8872
858.5002, 161.2678
860.4287, 161.5371
862.3572, 160.9995
864.2856, 161.0577
866.2141, 163.1336
868.1426, 165.2739
870.0710, 166.0896
871.9995, 166.4441
873.9280, 166.7473
875.8564, 167.4010
877.7849, 169.0943
879.7134, 171.1690
881.6418, 172.4105
883.5703, 173.5323
885.4988, 176.2896
887.4272, 179.6778
889.3557, 181.2924
891.2842, 181.7787
893.2126, 182.9570
895.1411, 184.5714
897.0696, 186.0478
898.9980, 187.1844
900.9265, 186.7193
902.8550, 184.8050
904.7834, 183.1256
906.7119, 181.7562
908.6404, 180.6457
910.5688, 179.8696
912.4973, 178.0832
914.4258, 176.7937
916.3542, 175.2896
918.2827, 173.0318
920.2112, 172.2636
922.1396, 169.3235
924.0681, 168.1626
925.9966, 169.6393
927.9250, 171.8226
929.8535, 175.0088
931.7820, 178.1473
933.7104, 180.5788
935.6389, 183.9442
937.5674, 188.3740
939.4958, 193.9934
941.4243, 200.8368
943.3528, 208.8430
945.2813, 218.4672
947.2097, 228.6505
949.1382, 238.4991
951.0667, 249.5356
952.9951, 263.1595
954.9236, 276.6852
956.8521, 288.0432
958.7805, 300.5892
960.7090, 316.8151
962.6375, 333.3729
964.5659, 348.1890
966.4944, 363.0037
968.4229, 378.2532
970.3513, 395.1371
972.2798, 414.6065
974.2083, 435.1783
976.1367, 456.7916
978.0652, 477.7774
979.9937, 495.9589
981.9221, 514.4200
983.8506, 533.5446
985.7791, 556.6979
987.7075, 587.0018
989.6360, 623.2421
991.5645, 668.8790
993.4929, 714.5208
995.4214, 751.6539
997.3499, 780.6275
999.2783, 797.6668
1001.207, 810.5275
1003.135, 825.7698
1005.064, 846.9330
1006.992, 876.3418
1008.921, 916.1517
1010.849, 972.2153
1012.778, 1037.836
1014.706, 1107.517
1016.635, 1177.689
1018.563, 1252.222
1020.491, 1316.735
1022.420, 1362.676
1024.348, 1372.265
1026.277, 1312.132
1028.205, 1204.205
1030.134, 1063.580
1032.062, 911.0353
1033.991, 768.8528
1035.919, 643.8747
1037.848, 546.3785
1039.776, 470.8818
1041.705, 413.4025
1043.633, 370.0791
1045.562, 337.4913
1047.490, 313.3926
1049.418, 296.1735
1051.347, 283.7689
1053.275, 275.1192
1055.204, 268.8434
1057.132, 263.6259
1059.061, 260.0441
1060.989, 258.1168
1062.918, 258.0483
1064.846, 260.9883
1066.775, 264.8672
1068.703, 267.5044
1070.632, 270.6157
1072.560, 275.7329
1074.489, 282.0095
1076.417, 288.5839
1078.345, 295.5904
1080.274, 304.1589
1082.202, 312.4432
1084.131, 319.1308
1086.059, 324.3539
1087.988, 327.1733
1089.916, 329.7459
1091.845, 335.2569
1093.773, 338.6713
1095.702, 336.2337
1097.630, 332.3929
1099.559, 328.4450
1101.487, 324.2424
1103.416, 321.1662
1105.344, 316.6541
1107.272, 307.9621
1109.201, 299.8274
1111.129, 295.1718
1113.058, 289.9195
1114.986, 280.9065
1116.915, 273.6111
1118.843, 271.2527
1120.772, 268.3192
1122.700, 262.6635
1124.629, 258.0519
1126.557, 255.2863
1128.486, 252.9843
1130.414, 251.1870
1132.343, 249.3679
1134.271, 247.0798
1136.199, 245.8717
1138.128, 244.3939
1140.056, 243.1058
1141.985, 243.1338
1143.913, 241.5640
1145.842, 243.0459
1147.770, 243.6311
1149.699, 242.9454
1151.627, 242.6620
1153.556, 242.5659
1155.484, 243.0617
1157.413, 242.6719
1159.341, 242.6453
1161.270, 242.4848
1163.198, 241.8835
1165.126, 241.1970
1167.055, 240.1509
1168.983, 238.9634
1170.912, 237.1044
1172.840, 235.2431
1174.769, 232.6325
1176.697, 229.5210
1178.626, 226.1102
1180.554, 222.8665
1182.483, 220.8114
1184.411, 219.0025
1186.340, 215.9688
1188.268, 214.3600
1190.197, 211.4065
1192.125, 210.6240
1194.053, 209.0118
1195.982, 207.5434
1197.910, 207.4495
1199.839, 207.7497
1201.767, 207.8942
1203.696, 208.0953
1205.624, 208.2116
1207.553, 208.1329
1209.481, 208.2022
1211.410, 208.2803
1213.338, 208.2128
1215.267, 208.5550
1217.195, 209.3212
1219.124, 210.3346
1221.052, 211.5090
1222.980, 212.5302
1224.909, 213.4663
1226.837, 215.1139
1228.766, 217.5810
1230.694, 219.2523
1232.623, 219.8352
1234.551, 220.5603
1236.480, 221.5467
1238.408, 222.8500
1240.337, 223.9060
1242.265, 222.9815
1244.194, 221.6990
1246.122, 221.9555
1248.051, 222.8025
1249.979, 223.8597
1251.907, 224.7367
1253.836, 224.9820
1255.764, 225.7409
1257.693, 227.8291
1259.621, 229.2401
1261.550, 229.0757
1263.478, 229.0135
1265.407, 230.1401
1267.335, 229.9367
1269.264, 227.6180
1271.192, 225.3311
1273.121, 222.8076
1275.049, 220.9465
1276.978, 219.9941
1278.906, 218.6562
1280.834, 216.8366
1282.763, 214.2015
1284.691, 211.3351
1286.620, 210.0358
1288.548, 209.5475
1290.477, 208.7323
1292.405, 207.2188
1294.334, 204.4430
1296.262, 202.2626
1298.191, 201.7295
1300.119, 200.8964
1302.048, 199.5112
1303.976, 197.6911
1305.905, 194.6753
1307.833, 192.0160
1309.761, 190.5372
1311.690, 188.9268
1313.618, 186.6540
1315.547, 184.3862
1317.475, 182.7119
1319.404, 181.3331
1321.332, 179.9845
1323.261, 178.4128
1325.189, 176.7546
1327.118, 176.3527
1329.046, 176.3970
1330.975, 175.1646
1332.903, 173.5074
1334.832, 172.1546
1336.760, 171.4196
1338.688, 170.0266
1340.617, 168.6945
1342.545, 168.1582
1344.474, 166.0154
1346.402, 165.5630
1348.331, 164.7595
1350.259, 163.4000
1352.188, 162.1631
1354.116, 160.8886
1356.045, 158.0823
1357.973, 154.8844
1359.902, 153.4494
1361.830, 152.5633
1363.759, 152.2971
1365.687, 151.9502
1367.615, 150.0411
1369.544, 148.0540
1371.472, 146.8256
1373.401, 145.7396
1375.329, 144.4175
1377.258, 143.1569
1379.186, 142.4568
1381.115, 141.5620
1383.043, 140.1107
1384.972, 139.1024
1386.900, 138.5565
1388.829, 137.3385
1390.757, 135.9773
1392.686, 136.1211
1394.614, 134.9174
1396.542, 135.2636
1398.471, 133.6561
1400.399, 133.0016
1402.328, 132.5603
1404.256, 132.4014
1406.185, 132.1523
1408.113, 131.5547
1410.042, 130.8284
1411.970, 129.7311
1413.899, 129.0453
1415.827, 128.9632
1417.756, 128.5584
1419.684, 128.2532
1421.613, 127.6320
1423.541, 126.3828
1425.469, 125.6389
1427.398, 125.6371
1429.326, 126.3763
1431.255, 126.3925
1433.183, 124.9293
1435.112, 123.8643
1437.040, 123.4428
1438.969, 123.3287
1440.897, 123.6655
1442.826, 123.8402
1444.754, 123.5740
1446.683, 123.0936
1448.611, 122.4879
1450.540, 122.1105
1452.468, 122.0646
1454.396, 122.1316
1456.325, 121.8123
1458.253, 121.4129
1460.182, 120.5215
1462.110, 120.1609
1464.039, 119.3306
1465.967, 118.4153
1467.896, 118.1277
1469.824, 117.9864
1471.753, 118.1112
1473.681, 118.3727
1475.610, 117.3878
1477.538, 116.1265
1479.467, 115.5378
1481.395, 115.4942
1483.323, 115.8605
1485.252, 115.9301
1487.180, 115.8018
1489.109, 116.0458
1491.037, 116.4781
1492.966, 116.4987
1494.894, 116.0250
1496.823, 115.1928
1498.751, 114.7919
1500.680, 115.4356
1502.608, 116.0157
1504.537, 116.0849
1506.465, 115.9844
1508.394, 115.6553
1510.322, 115.2809
1512.250, 115.3615
1514.179, 115.1413
1516.107, 115.1462
1518.036, 114.4939
1519.964, 115.2442
1521.893, 115.4766
1523.821, 115.5987
1525.750, 114.9342
1527.678, 114.8268
1529.607, 116.6395
1531.535, 117.3624
1533.464, 116.4336
1535.392, 115.5785
1537.321, 114.9394
1539.249, 116.0726
1541.177, 117.8238
1543.106, 117.8781
1545.034, 117.8518
1546.963, 118.6072
1548.891, 118.8584
1550.820, 118.8411
1552.748, 119.8045
1554.677, 120.8962
1556.605, 121.5810
1558.534, 123.0104
1560.462, 125.2184
1562.391, 127.0542
1564.319, 128.4892
1566.248, 130.3861
1568.176, 132.4695
1570.104, 134.3964
1572.033, 136.6251
1573.961, 138.6302
1575.890, 140.6984
1577.818, 142.5813
1579.747, 143.8416
1581.675, 144.7484
1583.604, 146.4089
1585.532, 149.1338
1587.461, 150.8853
1589.389, 151.5337
1591.318, 151.9236
1593.246, 152.7277
1595.175, 152.8716
1597.103, 153.0397
1599.031, 153.1339
1600.960, 152.3918
1602.888, 152.2361
1604.817, 151.5749
1606.745, 149.6567
1608.674, 147.2327
1610.602, 145.1227
1612.531, 142.6214
1614.459, 140.4532
1616.388, 137.5678
1618.316, 136.0466
1620.245, 134.0016
1622.173, 131.8654
1624.102, 129.1759
1626.030, 126.9602
1627.958, 125.8158
1629.887, 125.0847
1631.815, 124.6164
1633.744, 123.8035
1635.672, 123.0685
1637.601, 123.6012
1639.529, 123.6776
1641.458, 122.4495
1643.386, 122.0910
1645.315, 121.8622
1647.243, 122.8040
1649.172, 125.1651
1651.100, 126.3174
1653.029, 126.9926
1654.957, 127.9369
1656.885, 129.4630
1658.814, 132.0618
1660.742, 134.8043
1662.671, 137.2237
1664.599, 139.7510
1666.528, 142.6577
1668.456, 145.7168
1670.385, 148.5503
1672.313, 151.5171
1674.242, 155.6785
1676.170, 160.4211
1678.099, 165.3651
1680.027, 170.4297
1681.956, 175.3520
1683.884, 179.1297
1685.813, 179.1568
1687.741, 178.8889
1689.669, 180.8823
1691.598, 183.0765
1693.526, 184.1528
1695.455, 184.8419
1697.383, 185.1028
1699.312, 184.5378
1701.240, 183.6922
1703.169, 182.8675
1705.097, 181.4837
1707.026, 179.3647
1708.954, 176.3786
1710.883, 173.7475
1712.811, 172.1057
1714.740, 169.7715
1716.668, 167.5284
1718.596, 165.5717
1720.525, 162.1229
1722.453, 158.2890
1724.382, 154.7990
1726.310, 152.0281
1728.239, 149.4246
1730.167, 145.6789
1732.096, 142.2479
1734.024, 139.3328
1735.953, 135.7307
1737.881, 132.5849
1739.810, 130.5687
1741.738, 128.9486
1743.667, 126.7386
1745.595, 124.2505
1747.523, 122.6458
1749.452, 121.3240
1751.380, 120.3055
1753.309, 118.8530
1755.237, 117.9536
1757.166, 116.3026
1759.094, 115.0743
1761.023, 113.7471
1762.951, 112.8104
1764.880, 111.7188
1766.808, 111.0033
1768.737, 110.1938
1770.665, 109.2843
1772.594, 108.8717
1774.522, 107.8535
1776.450, 107.2721
1778.379, 107.1271
1780.307, 106.6971
1782.236, 105.6173
1784.164, 104.2462
1786.093, 103.1114
1788.021, 102.2435
1789.950, 100.9915
1791.878, 100.5063
1793.807, 100.1236
1795.735, 99.50230
1797.664, 99.03210
1799.592, 98.27669
1801.521, 97.20055
1803.449, 96.00740
1805.377, 95.41624
1807.306, 95.20986
1809.234, 94.66589
1811.163, 93.96752
1813.091, 93.06259
1815.020, 91.06451
1816.948, 89.16786
1818.877, 89.87101
1820.805, 88.23369
1822.734, 89.50237
1824.662, 87.48804
1826.591, 87.56786
1828.519, 88.26267
1830.448, 88.00980
1832.376, 86.58478
1834.304, 85.01973
1836.233, 84.07133
1838.161, 83.70448
1840.090, 83.39273
1842.018, 82.67870
1843.947, 82.34636
1845.875, 81.81184
1847.804, 81.39653
1849.732, 80.82695
1851.661, 80.30242
1853.589, 79.86042
1855.518, 78.65062
1857.446, 78.39023
1859.375, 76.99500
1861.303, 75.82256
1863.231, 75.95477
1865.160, 75.53563
1867.088, 74.49510
1869.017, 74.07018
1870.945, 74.18336
1872.874, 73.91773
1874.802, 72.66027
1876.731, 71.79933
1878.659, 71.98631
1880.588, 71.97920
1882.516, 71.34679
1884.445, 70.61598
1886.373, 70.62384
1888.302, 70.02853
1890.230, 70.06712
1892.158, 69.34481
1894.087, 69.26639
1896.015, 68.92810
1897.944, 68.17985
1899.872, 67.62607
1901.801, 66.86784
1903.729, 66.38836
1905.658, 66.38757
1907.586, 65.81678
1909.515, 66.10838
1911.443, 65.26139
1913.372, 65.20329
1915.300, 65.09508
1917.229, 64.83932
1919.157, 64.72872
1921.085, 64.52917
1923.014, 64.77464
1924.942, 64.21509
1926.871, 63.19094
1928.799, 63.06505
1930.728, 63.98055
1932.656, 64.28865
1934.585, 63.35628
1936.513, 63.16165
1938.442, 63.39564
1940.370, 62.62994
1942.299, 61.85645
1944.227, 61.76541
1946.156, 61.68330
1948.084, 61.51659
1950.012, 61.22869
1951.941, 60.67679
1953.869, 60.45510
1955.798, 60.31899
1957.726, 60.02534
1959.655, 59.86726
1961.583, 60.23777
1963.512, 60.29137
1965.440, 59.56483
1967.369, 58.30203
1969.297, 57.70098
1971.226, 58.17220
1973.154, 58.15328
1975.083, 57.11998
1977.011, 57.19833
1978.939, 58.27100
1980.868, 58.14481
1982.796, 57.58574
1984.725, 57.47118
1986.653, 57.14125
1988.582, 56.70741
1990.510, 56.37380
1992.439, 56.24693
1994.367, 56.41265
1996.296, 55.99650
1998.224, 55.99603
2000.153, 55.99977
2002.081, 55.61475
2004.010, 55.89880
2005.938, 55.52389
2007.866, 55.15229
2009.795, 54.84142
2011.723, 54.64105
2013.652, 54.52993
2015.580, 54.21450
2017.509, 53.95838
2019.437, 53.84566
2021.366, 53.24678
2023.294, 53.15708
2025.223, 52.50509
2027.151, 52.67927
2029.080, 52.60352
2031.008, 52.29090
2032.937, 51.54006
2034.865, 51.96216
2036.793, 53.41501
2038.722, 53.68530
2040.650, 52.65474
2042.579, 51.77886
2044.507, 51.82619
2046.436, 51.99573
2048.364, 51.36620
2050.293, 50.86486
2052.221, 50.58577
2054.150, 50.47911
2056.078, 50.76617
2058.007, 50.69260
2059.935, 49.68086
2061.864, 48.92115
2063.792, 49.56152
2065.720, 49.60733
2067.649, 49.44356
2069.577, 49.89180
2071.506, 49.40240
2073.434, 49.48443
2075.363, 48.55353
2077.291, 48.06202
2079.220, 47.41169
2081.148, 47.44128
2083.077, 47.98621
2085.005, 48.44251
2086.934, 48.09936
2088.862, 47.10245
2090.791, 46.84357
2092.719, 47.26638
2094.647, 46.96434
2096.576, 46.65871
2098.504, 47.08215
2100.433, 47.20660
2102.361, 47.24245
2104.290, 47.65096
2106.218, 47.64521
2108.147, 47.15003
2110.075, 46.80633
2112.004, 46.93007
2113.932, 47.34592
2115.861, 47.08295
2117.789, 46.60870
2119.718, 46.17712
2121.646, 45.72692
2123.574, 46.19254
2125.503, 45.89594
2127.431, 45.73994
2129.360, 46.14874
2131.288, 45.91487
2133.217, 45.66941
2135.145, 45.43020
2137.074, 45.20012
2139.002, 45.29585
2140.931, 45.44907
2142.859, 44.92670
2144.788, 44.98193
2146.716, 45.29277
2148.645, 44.29646
2150.573, 43.66085
2152.501, 43.65953
2154.430, 43.90844
2156.358, 43.84862
2158.287, 43.78117
2160.215, 43.15030
2162.144, 43.42807
2164.072, 43.00254
2166.001, 42.63795
2167.929, 42.70209
2169.858, 43.27333
2171.786, 43.40017
2173.715, 42.79940
2175.643, 42.51097
2177.572, 42.26268
2179.500, 41.78775
2181.428, 41.69349
2183.357, 42.04507
2185.285, 42.15200
2187.214, 41.73384
2189.142, 41.75191
2191.071, 41.39220
2192.999, 41.82871
2194.928, 40.88159
2196.856, 40.88336
2198.785, 41.13273
2200.713, 41.36887
2202.642, 41.01406
2204.570, 40.76686
2206.499, 40.80909
2208.427, 40.46914
2210.355, 40.72178
2212.284, 40.20806
2214.212, 40.11845
2216.141, 40.33271
2218.069, 40.75849
2219.998, 40.67965
2221.926, 40.73054
2223.855, 40.70206
2225.783, 39.82852
2227.712, 39.19802
2229.640, 39.47300
2231.569, 39.99248
2233.497, 39.71526
2235.426, 39.17539
2237.354, 39.07148
2239.282, 39.24221
2241.211, 38.99325
2243.139, 38.70203
2245.068, 38.93822
2246.996, 38.86679
2248.925, 38.18926
2250.853, 38.53191
2252.782, 38.45123
2254.710, 37.82059
2256.639, 38.33792
2258.567, 38.18789
2260.496, 37.48521
2262.424, 37.50042
2264.353, 37.82433
2266.281, 38.21913
2268.209, 37.93183
2270.138, 38.09378
2272.066, 37.59639
2273.995, 37.78387
2275.923, 37.37325
2277.852, 36.94051
2279.780, 37.13088
2281.709, 37.19465
2283.637, 36.84332
2285.566, 36.35821
2287.494, 36.16896
2289.423, 36.32287
2291.351, 36.11214
2293.280, 35.97668
2295.208, 36.11533
2297.136, 35.82473
2299.065, 35.84330
2300.993, 36.18439
2302.922, 36.03959
2304.850, 35.62516
2306.779, 35.36040
2308.707, 35.80333
2310.636, 36.09345
2312.564, 35.76128
2314.493, 35.36769
2316.421, 35.46308
2318.350, 35.65936
2320.278, 35.80711
2322.207, 36.08901
2324.135, 35.96997
2326.063, 35.86043
2327.992, 35.54926
2329.920, 35.27921
2331.849, 34.89149
2333.777, 34.47091
2335.706, 34.21627
2337.634, 34.86172
2339.563, 35.38577
2341.491, 35.30136
2343.420, 34.85635
2345.348, 34.95031
2347.277, 34.79786
2349.205, 34.63306
2351.134, 35.23664
2353.062, 34.91403
2354.990, 35.52921
2356.919, 34.89713
2358.847, 34.72349
2360.776, 34.93652
2362.704, 34.87936
2364.633, 34.61156
2366.561, 34.21192
2368.490, 34.00841
2370.418, 33.82741
2372.347, 33.60466
2374.275, 33.61240
2376.204, 34.01401
2378.132, 34.06889
2380.061, 33.83126
2381.989, 33.81538
2383.917, 33.73746
2385.846, 33.36324
2387.774, 33.39861
2389.703, 33.29319
2391.631, 32.70872
2393.560, 33.22187
2395.488, 32.72401
2397.417, 32.85235
2399.345, 32.22653
2401.274, 32.13831
2403.202, 31.86670
2405.131, 31.46423
2407.059, 31.29758
2408.988, 30.54102
2410.916, 30.70976
2412.844, 30.03135
2414.773, 29.56960
2416.701, 29.47057
2418.630, 29.69125
2420.558, 29.56777
2422.487, 29.33608
2424.415, 29.49111
2426.344, 28.83147
2428.272, 28.26691
2430.201, 28.17368
2432.129, 27.98028
2434.058, 27.91579
2435.986, 28.14663
2437.915, 28.14583
2439.843, 27.61576
2441.771, 27.16594
2443.700, 26.74968
2445.628, 26.24330
2447.557, 26.19425
2449.485, 26.34594
2451.414, 26.12750
2453.342, 25.81179
2455.271, 25.74454
2457.199, 26.23063
2459.128, 26.53804
2461.056, 26.67988
2462.985, 25.54062
2464.913, 24.63388
2466.842, 24.57095
2468.770, 25.06224
2470.698, 24.85711
2472.627, 24.28689
2474.555, 23.79064
2476.484, 23.41819
2478.412, 23.32215
2480.341, 23.20505
2482.269, 23.12918
2484.198, 22.91120
2486.126, 23.23986
2488.055, 23.85655
2489.983, 23.72439
2491.912, 23.22267
2493.840, 22.72760
2495.769, 22.45572
2497.697, 22.16784
2499.625, 22.23356
2501.554, 22.31170
2503.482, 22.56091
2505.411, 22.70405
2507.339, 21.68358
2509.268, 21.10190
2511.196, 21.59586
2513.125, 21.98329
2515.053, 21.92333
2516.982, 21.87641
2518.910, 21.70182
2520.839, 21.41115
2522.767, 20.68159
2524.696, 21.04109
2526.624, 22.06559
2528.552, 22.17561
2530.481, 20.98104
2532.409, 20.35152
2534.338, 21.14035
2536.266, 21.63339
2538.195, 21.71195
2540.123, 20.96978
2542.052, 20.80748
2543.980, 20.63521
2545.909, 20.30149
2547.837, 20.47892
2549.766, 20.61589
2551.694, 20.38733
2553.623, 20.48238
2555.551, 20.60480
2557.479, 19.90938
2559.408, 19.78732
2561.336, 19.61609
2563.265, 19.90163
2565.193, 19.31678
2567.122, 19.34510
2569.050, 19.27886
2570.979, 18.99817
2572.907, 19.02850
2574.836, 18.70357
2576.764, 18.93393
2578.693, 19.06307
2580.621, 19.12252
2582.550, 19.05211
2584.478, 19.12188
2586.406, 18.74407
2588.335, 18.57778
2590.263, 18.42783
2592.192, 19.05230
2594.120, 19.33341
2596.049, 19.17283
2597.977, 18.79402
2599.906, 18.56377
2601.834, 18.27434
2603.763, 18.08563
2605.691, 18.17065
2607.620, 17.94006
2609.548, 17.42210
2611.477, 17.33337
2613.405, 17.68169
2615.333, 18.22574
2617.262, 18.16551
2619.190, 17.87015
2621.119, 18.71572
2623.047, 18.45417
2624.976, 17.31618
2626.904, 17.26021
2628.833, 17.24026
2630.761, 17.03478
2632.690, 16.98481
2634.618, 17.20455
2636.547, 17.22687
2638.475, 16.79148
2640.404, 16.26663
2642.332, 16.31952
2644.260, 16.40089
2646.189, 16.85644
2648.117, 16.75360
2650.046, 17.08694
2651.974, 16.73074
2653.903, 16.62458
2655.831, 16.45997
2657.760, 16.72087
2659.688, 16.78616
2661.617, 15.85480
2663.545, 15.88646
2665.474, 16.23340
2667.402, 15.61403
2669.331, 15.91475
2671.259, 16.29454
2673.188, 16.34088
2675.116, 16.44457
2677.044, 16.53667
2678.973, 16.25814
2680.901, 16.46238
2682.830, 16.11073
2684.758, 15.84998
2686.687, 16.13099
2688.615, 16.23019
2690.544, 15.57711
2692.472, 16.12278
2694.401, 16.49538
2696.329, 15.63699
2698.258, 15.00919
2700.186, 14.89878
2702.115, 15.53079
2704.043, 15.25679
2705.971, 15.00833
2707.900, 15.38430
2709.828, 15.09523
2711.757, 14.74638
2713.685, 14.63396
2715.614, 14.30838
2717.542, 14.18781
2719.471, 13.94797
2721.399, 14.06189
2723.328, 14.23340
2725.256, 14.44660
2727.185, 14.96302
2729.113, 15.00887
2731.042, 14.69396
2732.970, 14.75430
2734.898, 14.33930
2736.827, 14.26999
2738.755, 15.29229
2740.684, 15.19838
2742.612, 14.95732
2744.541, 14.96487
2746.469, 14.93563
2748.398, 14.67631
2750.326, 14.12368
2752.255, 14.11519
2754.183, 14.16937
2756.112, 14.21329
2758.040, 14.37897
2759.969, 13.87945
2761.897, 13.04330
2763.825, 12.91150
2765.754, 13.93358
2767.682, 15.03616
2769.611, 15.12823
2771.539, 14.31054
2773.468, 13.47699
2775.396, 13.39360
2777.325, 13.49242
2779.253, 13.52851
2781.182, 13.57130
2783.110, 13.58392
2785.039, 13.68105
2786.967, 13.56027
2788.896, 13.52013
2790.824, 13.49261
2792.752, 13.60115
2794.681, 13.59039
2796.609, 13.47262
2798.538, 13.56405
2800.466, 13.29480
2802.395, 13.00200
2804.323, 13.14174
2806.252, 13.02718
2808.180, 13.64455
2810.109, 13.41988
2812.037, 13.49834
2813.966, 14.27928
2815.894, 14.27970
2817.823, 13.92575
2819.751, 13.63243
2821.679, 13.29133
2823.608, 13.09638
2825.536, 13.14072
2827.465, 12.98371
2829.393, 13.01607
2831.322, 13.27457
2833.250, 12.80353
2835.179, 13.23744
2837.107, 13.77231
2839.036, 12.76368
2840.964, 12.47645
2842.893, 12.53326
2844.821, 12.30982
2846.750, 13.33580
2848.678, 13.70593
2850.606, 12.79040
2852.535, 12.25554
2854.463, 12.76750
2856.392, 13.62437
2858.320, 13.35994
2860.249, 12.86293
2862.177, 12.65090
2864.106, 13.08024
2866.034, 13.26653
2867.963, 13.10382
2869.891, 12.79458
2871.820, 12.70542
2873.748, 12.95659
2875.677, 13.50569
2877.605, 14.29358
2879.533, 13.62324
2881.462, 12.98352
2883.390, 13.18496
2885.319, 13.55974
2887.247, 13.51791
2889.176, 13.03761
2891.104, 12.86208
2893.033, 12.87944
2894.961, 12.98837
2896.890, 13.14822
2898.818, 13.17112
2900.747, 13.18003
2902.675, 13.35671
2904.604, 13.39334
2906.532, 13.37762
2908.460, 13.56332
2910.389, 13.69524
2912.317, 13.72931
2914.246, 13.92799
2916.174, 14.50142
2918.103, 14.65972
2920.031, 14.53856
2921.960, 14.43948
2923.888, 14.40622
2925.817, 14.30679
2927.745, 14.28833
2929.674, 14.23487
2931.602, 14.38675
2933.531, 14.50543
2935.459, 14.38721
2937.387, 14.04203
2939.316, 13.78841
2941.244, 13.86073
2943.173, 14.47398
2945.101, 14.64187
2947.030, 14.81483
2948.958, 15.06132
2950.887, 15.02125
2952.815, 14.79836
2954.744, 14.63601
2956.672, 14.73028
2958.601, 14.72519
2960.529, 14.77945
2962.458, 14.97943
2964.386, 15.06843
2966.314, 15.17992
2968.243, 15.52476
2970.171, 16.28650
2972.100, 15.69420
2974.028, 15.22643
2975.957, 15.61869
2977.885, 16.80326
2979.814, 16.76059
2981.742, 16.33477
2983.671, 16.67493
2985.599, 16.77608
2987.528, 17.27133
2989.456, 17.80853
2991.385, 16.90605
2993.313, 16.89866
2995.241, 17.31813
2997.170, 17.66880
2999.098, 17.14943
3001.027, 17.63725
3002.955, 18.44163
3004.884, 17.02112
3006.812, 17.55342
3008.741, 18.26312
3010.669, 18.10731
3012.598, 18.31770
3014.526, 19.32824
3016.455, 19.87405
3018.383, 18.95424
3020.312, 18.23244
3022.240, 18.65798
3024.168, 18.24130
3026.097, 17.96106
3028.025, 18.44282
3029.954, 19.47540
3031.882, 19.60342
3033.811, 19.41385
3035.739, 18.99781
3037.668, 19.16423
3039.596, 19.25418
3041.525, 20.16040
3043.453, 19.77588
3045.382, 20.16614
3047.310, 20.29293
3049.239, 19.93433
3051.167, 19.95287
3053.095, 20.62720
3055.024, 20.26062
3056.952, 20.32147
3058.881, 20.42522
3060.809, 19.67423
3062.738, 19.26551
3064.666, 19.64128
3066.595, 20.05887
3068.523, 18.70490
3070.452, 18.09091
3072.380, 18.16061
3074.309, 18.71771
3076.237, 19.65032
3078.166, 18.99066
3080.094, 18.57734
3082.022, 19.89074
3083.951, 19.64755
3085.879, 19.08966
3087.808, 18.75962
3089.736, 18.96032
3091.665, 18.43886
3093.593, 18.58498
3095.522, 19.35822
3097.450, 19.22432
3099.379, 18.94990
3101.307, 18.72030
3103.236, 18.72739
3105.164, 18.56971
3107.093, 18.45758
3109.021, 18.45916
3110.949, 18.32503
3112.878, 18.22277
3114.806, 18.34134
3116.735, 18.39226
3118.663, 18.31241
3120.592, 19.09064
3122.520, 18.83028
3124.449, 18.24862
3126.377, 18.56295
3128.306, 17.94127
3130.234, 17.47275
3132.163, 17.35262
3134.091, 17.15870
3136.020, 17.42809
3137.948, 17.19854
3139.876, 16.56915
3141.805, 17.49631
3143.733, 17.35412
3145.662, 16.75861
3147.590, 16.16085
3149.519, 15.58104
3151.447, 16.21378
3153.376, 17.21999
3155.304, 17.48458
3157.233, 17.93781
3159.161, 16.94632
3161.090, 17.97945
3163.018, 16.90853
3164.947, 15.90932
3166.875, 16.14710
3168.803, 16.13613
3170.732, 15.24867
3172.660, 15.03104
3174.589, 15.16070
3176.517, 15.29196
3178.446, 15.68962
3180.374, 16.43698
3182.303, 15.82061
3184.231, 15.74204
3186.160, 13.64938
3188.088, 14.49995
3190.017, 13.38968
3191.945, 12.50961
3193.874, 13.79457
3195.802, 12.68362
3197.730, 12.45951
3199.659, 12.51411
3201.587, 12.15658
3203.516, 11.10920
3205.444, 11.64339
3207.373, 12.73327
3209.301, 12.73165
3211.230, 11.76818
3213.158, 11.63016
3215.087, 11.77549
3217.015, 11.88525
3218.944, 11.73286
3220.872, 12.12699
3222.801, 11.55991
3224.729, 11.09335
3226.657, 11.07224
3228.586, 11.24809
3230.514, 11.47773
3232.443, 11.62638
3234.371, 11.42356
3236.300, 10.26428
3238.228, 10.85313
3240.157, 10.95193
3242.085, 10.63092
3244.014, 11.12413
3245.942, 10.94221
3247.871, 11.20109
3249.799, 11.10032
3251.728, 11.49949
3253.656, 11.37542
3255.584, 11.05789
3257.513, 10.22722
3259.441, 9.831949
3261.370, 10.08851
3263.298, 10.82837
3265.227, 11.73614
3267.155, 11.45818
3269.084, 11.40359
3271.012, 11.80283
3272.941, 12.34593
3274.869, 11.94380
3276.798, 12.20900
3278.726, 11.94381
3280.655, 11.04430
3282.583, 11.95210
3284.511, 11.64140
3286.440, 10.72980
3288.368, 9.956099
3290.297, 9.483343
3292.225, 9.698850
3294.154, 10.17140
3296.082, 10.23721
3298.011, 9.954455
3299.939, 10.01708
3301.868, 10.64915
3303.796, 9.583079
3305.725, 9.125647
3307.653, 8.824358
3309.582, 9.886750
3311.510, 10.59327
3313.438, 10.34871
3315.367, 9.770270
3317.295, 9.611011
3319.224, 10.14531
3321.152, 10.28402
3323.081, 10.16009
3325.009, 10.42593
3326.938, 10.07518
3328.866, 10.56870
3330.795, 10.92079
3332.723, 11.09666
3334.652, 9.745829
3336.580, 9.145766
3338.509, 9.501387
3340.437, 10.19570
3342.365, 10.93551
3344.294, 10.54291
3346.222, 9.843280
3348.151, 9.922197
3350.079, 10.47969
3352.008, 10.44646
3353.936, 9.901735
3355.865, 9.275107
3357.793, 9.287855
3359.722, 9.174000
3361.650, 9.366156
3363.579, 9.623065
3365.507, 9.672650
3367.436, 8.868112
3369.364, 9.064061
3371.292, 9.650972
3373.221, 9.514336
3375.149, 7.862296
3377.078, 8.607240
3379.006, 9.247689
3380.935, 9.950594
3382.863, 10.85558
3384.792, 10.91709
3386.720, 11.14399
3388.649, 10.63752
3390.577, 10.79067
3392.506, 9.733562
3394.434, 9.163932
3396.363, 10.12289
3398.291, 11.18764
3400.219, 11.38301
3402.148, 10.70124
3404.076, 11.89094
3406.005, 11.75708
3407.933, 10.91974
3409.862, 11.04898
3411.790, 11.15015
3413.719, 11.86427
3415.647, 11.92319
3417.576, 12.80875
3419.504, 13.42679
3421.433, 12.68184
3423.361, 13.27537
3425.290, 12.85696
3427.218, 11.46379
3429.146, 12.96486
3431.075, 13.58610
3433.003, 13.15333
3434.932, 12.61895
3436.860, 12.47945
3438.789, 11.78773
3440.717, 11.56370
3442.646, 11.89089
3444.574, 12.29861
3446.503, 12.18884
3448.431, 12.32519
3450.360, 12.37243
3452.288, 12.39702
3454.217, 12.21549
3456.145, 11.56988
3458.073, 11.43886
3460.002, 11.71019
3461.930, 10.76723
3463.859, 11.06832
3465.787, 10.71782
3467.716, 10.89203
3469.644, 10.43898
3471.573, 9.980410
3473.501, 9.974515
3475.430, 10.58855
3477.358, 10.46483
3479.287, 9.808649
3481.215, 9.263283
3483.144, 9.049322
3485.072, 8.893623
3487.000, 8.689589
3488.929, 8.859473
3490.857, 8.505005
3492.786, 8.867951
3494.714, 8.719985
3496.643, 7.801306
3498.571, 7.695564
3500.500, 5.649428
3502.428, 5.660048
3504.357, 4.296727
3506.285, 4.928306
3508.214, 5.265755
3510.142, 5.203101
3512.071, 4.741014
3513.999, 3.870527
3515.927, 4.646554
3517.856, 4.515360
3519.784, 5.369355
3521.713, 4.826282
3523.641, 4.866604
3525.570, 3.791090
3527.498, 4.087029
3529.427, 3.705545
3531.355, 2.711449
3533.284, 3.164818
3535.212, 3.043780
3537.141, 3.544547
3539.069, 3.127341
3540.998, 2.826879
3542.926, 3.537841
3544.854, 1.960949
3546.783, 2.488034
3548.711, 2.625597
3550.640, 2.572553
3552.568, 2.657947
3554.497, 2.679001
3556.425, 2.867358
3558.354, 2.475695
3560.282, 2.890929
3562.211, 2.309806
3564.139, 1.345986
3566.068, 1.276207
3567.996, 2.432170
3569.925, 2.655412
3571.853, 2.011862
3573.781, 1.610874
3575.710, 1.001374
3577.638, 0.8225364
3579.567, 1.415228
3581.495, 0.7230137
3583.424, 1.825459
3585.352, 2.297687
3587.281, 2.468040
3589.209, 1.776220
3591.138, 1.664625
3593.066, 1.975808
3594.995, 1.628371
3596.923, 1.451889
3598.852, 1.244309
3600.780, 1.211345
3602.708, 1.685118
3604.637, 2.256461
3606.565, 1.650632
3608.494, 1.938784
3610.422, 2.015217
3612.351, 1.677997
3614.279, 1.627856
3616.208, 2.240763
3618.136, 1.546332
3620.065, 0.8845540
3621.993, 1.233936
3623.922, 2.166513
3625.850, 2.664183
3627.779, 1.653404
3629.707, 4.0664639E-02
3631.635, 1.220401
3633.564, 1.448751
3635.492, 1.097179
3637.421, 1.271074
3639.349, 0.4473785
3641.278, 0.5696204
3643.206, 0.6736028
3645.135, 0.3704661
3647.063, 0.8909698
3648.992, 2.757679
3650.920, 2.474751
3652.849, 2.209417
3654.777, 1.163726
3656.706, 0.9447061
3658.634, 1.697149
3660.563, 2.224198
3662.491, 1.789452
3664.419, 1.431657
3666.348, 1.042566
3668.276, 1.131227
3670.205, 1.546323
3672.133, 1.652218
3674.062, 1.493218
3675.990, 1.724748
3677.919, 1.167816
3679.847, 1.857107
3681.776, 1.576254
3683.704, 1.699785
3685.633, 0.6081129
3687.561, 1.128066
3689.490, 0.8756083
3691.418, 1.073830
3693.346, 1.741376
3695.275, 1.703640
3697.203, 2.350248
3699.132, 2.132851
3701.060, 0.7146553
3702.989, 1.873101
3704.917, 1.241224
3706.846, 1.471262
3708.774, 1.474786
3710.703, 1.883989
3712.631, 0.9957924
3714.560, 0.4368378
3716.488, 0.6007005
3718.417, 0.5580378
3720.345, 0.5147150
3722.273, 0.1741624
3724.202, 0.7279332
3726.130, 0.2967618
3728.059, 0.4088224
3729.987, 1.282803
3731.916, 1.135704
3733.844, 1.061190
3735.773, -0.3774707
3737.701, -0.1636053
3739.630, 0.5070909
3741.558, 0.9197501
3743.487, 1.260010
3745.415, 1.299173
3747.344, 0.9430861
3749.272, 1.042674
3751.200, 0.9020834
3753.129, 0.7407571
3755.057, 0.5977460
3756.986, 0.6907935
3758.914, 0.4629329
3760.843, 0.7580127
3762.771, 0.8608164
3764.700, 0.4939124
3766.628, -0.3142148
3768.557, -0.8137093
3770.485, 0.8143293
3772.414, 0.1254356
3774.342, 0.6408215
3776.271, 0.1301930
3778.199, 0.2039351
3780.127, 1.253896
3782.056, 1.375451
3783.984, 0.6399371
3785.913, 1.750985
3787.841, 2.392910
3789.770, 1.780712
3791.698, 0.5681496
3793.627, 8.5392207E-02
3795.555, 1.069479
3797.484, -7.1140200E-02
3799.412, 0.4604288
3801.341, -0.1816536
3803.269, 8.6235672E-02
3805.198, 2.0468250E-02
3807.126, -0.3868886
3809.054, 0.9816893
3810.983, 0.4492770
3812.911, 0.6505649
3814.840, 0.1958288
3816.768, 0.2289085
3818.697, -1.094500
3820.625, 0.1191900
3822.554, 0.6094400
3824.482, 0.3016309
3826.411, 1.771637
3828.339, 1.051672
3830.268, 0.7494326
3832.196, 0.1425467
3834.125, -0.5290268
3836.053, 8.7500326E-02
3837.981, -0.3739582
3839.910, -9.0554990E-02
3841.838, 0.9944175
3843.767, 0.3736558
3845.695, -0.2419219
3847.624, 0.3631555
3849.552, 1.192991
3851.481, 0.7885514
3853.409, 2.375892
3855.338, 0.5044690
3857.266, -0.3577413
3859.195, -3.4810599E-02
3861.123, 0.1797624
3863.052, 0.3113182
3864.980, 0.8051137
3866.908, -0.1143373
3868.837, -0.2300351
3870.765, 1.036417
3872.694, -9.3108281E-02
3874.622, 0.2438307
3876.551, 1.317983
3878.479, 0.6491901
3880.408, 1.235182
3882.336, 0.8343980
3884.265, 0.9775468
3886.193, 0.5804814
3888.122, 0.6021001
3890.050, -0.4761699
3891.979, 0.2675034
3893.907, -0.3027649
3895.835, -1.180707
3897.764, -0.2037071
3899.692, 0.5551764
3901.621, 0.2712816
3903.549, 1.214224
3905.478, 0.8913077
3907.406, 1.006599
3909.335, 1.228169
3911.263, 1.094194
3913.192, 0.9077070
3915.120, 1.337093
3917.049, 0.3928500
3918.977, 0.8198287
3920.906, 0.4564688
3922.834, -0.1920823
3924.762, 0.7425411
3926.691, 2.179925
3928.619, -0.8634453
3930.548, 1.046206
3932.476, 0.5517291
3934.405, -0.8955790
3936.333, -0.7644216
3938.262, -0.3851345
3940.190, -0.3432422
3942.119, 7.1166962E-02
3944.047, 0.4642406
3945.976, 1.398936
3947.904, 1.674105
3949.833, 4.3276850E-02
3951.761, 0.4410400
3953.689, 0.8552888
3955.618, 1.518524
3957.546, 1.421692
3959.475, 1.123313
3961.403, 0.2926793
3963.332, 0.1409505
3965.260, -0.3567482
3967.189, -0.2930925
3969.117, -0.5359496
3971.046, 1.8225130E-02
3972.974, -0.6055416
3974.903, -0.6284095
3976.831, -0.2979795
3978.760, -1.091052
3980.688, -0.6569765
3982.616, -2.117745
3984.545, -0.9091051
3986.473, -1.221025
3988.402, -0.8145671
3990.330, 6.5683700E-02
3992.259, -0.1283747
3994.187, -0.3909720
3996.116, 0.3409119
3998.044, -0.1762162
3999.973, 0.1264460
4001.901, 0.6219937
4003.830, -0.3156896
4005.758, -0.2270110
4007.687, -0.2838969
4009.615, -5.4076280E-02
4011.543, 0.7371413
4013.472, 0.3716556
4015.400, 0.3847753
4017.329, -0.3334273
4019.257, -0.4497157
4021.186, -0.6035180
4023.114, -0.8682253
4025.043, -0.6403383
4026.971, -0.8601388
4028.900, -0.5243729
4030.828, -5.2221589E-02
4032.757, -0.4320584
4034.685, -0.8177152
4036.614, -8.8768743E-02
4038.542, 7.1394399E-02
4040.470, -3.8267352E-02
4042.399, -0.4341141
4044.327, -0.3263732
4046.256, -4.9402989E-02
4048.184, 6.9713190E-02
4050.113, 0.2228923
4052.041, 0.2394710
4053.970, -0.6264645
4055.898, -1.027015
4057.827, 2.6707361E-02
4059.755, 0.6939287
4061.684, -5.7950791E-02
4063.612, 0.7112439
4065.541, -0.5297541
4067.469, 0.5279539
4069.397, -0.3086052
4071.326, -1.422895
4073.254, -1.029489
4075.183, 0.8895465
4077.111, -0.9893244
4079.040, -0.2977760
4080.968, -0.7561080
4082.897, -1.515019
4084.825, -1.297333
4086.754, -0.6584232
4088.682, -0.4742734
4090.611, -0.6222597
4092.539, -0.3213893
4094.468, 0.4486372
4096.396, 1.3267910E-02
4098.324, -1.213268
4100.253, -0.6573393
4102.181, -1.605228
4104.110, -1.564044
4106.038, -0.7852685
4107.967, 0.3445409
4109.895, 3.8003139E-02
4111.824, -0.6125396
4113.752, -0.3117515
4115.681, -0.6721767
4117.609, -1.057847
4119.538, -1.573435
4121.466, -0.4121976
4123.395, -2.007374
4125.323, -0.2823610
4127.251, 0.1097723
4129.180, -9.3733892E-02
4131.108, -1.191851
4133.037, -1.380906
4134.965, -0.7654386
4136.894, -0.6205561
4138.822, 0.2572030
4140.750, 1.744582
4142.679, 1.314900
4144.607, -0.8187889
4146.536, -1.802286
4148.464, -0.1171391
4150.393, -0.1749144
4152.321, -0.9397831
4154.250, -0.5608813
4156.178, -0.3587311
4158.107, -0.3623806
4160.035, -0.1441696
4161.964, 0.3708229
4163.892, 0.6138048
4165.821, 0.7396355
4167.749, -0.3205911
4169.678, 1.003408
4171.606, -0.7983056
4173.535, -0.5804850
4175.463, -0.6471745
4177.392, 4.8353180E-02
4179.320, -0.8845499
4181.249, -0.5707619
4183.177, 0.6321262
4185.105, -8.6507522E-02
4187.034, -1.747280
4188.962, -1.470827
4190.891, 6.7572449E-03
4192.819, -0.5847369
4194.748, -2.6980260E-02
4196.676, -0.2064113
4198.604, -0.7949313
4200.533, -1.628792
4202.461, -0.5836428
4204.390, 0.5433029
4206.318, -9.8296657E-02
4208.247, 0.7153102
4210.175, 0.4460377
4212.104, -0.6754928
4214.032, -1.345394
4215.961, -0.6841148
4217.889, 0.8315564
4219.818, 0.5976053
4221.746, 0.6064949
4223.675, 0.6416227
4225.603, -1.022201
4227.532, -1.428439
4229.460, 6.1656509E-02
4231.389, -2.312952
4233.317, -1.5265250E-03
4235.246, 0.2243861
4237.174, -0.3831673
4239.103, -1.289568
4241.031, -0.4311306
4242.959, 0.5670097
4244.888, 0.2667045
4246.816, -0.5216747
4248.745, -1.353036
4250.673, -1.734625
4252.602, -0.7635788
4254.530, 0.2539610
4256.458, -0.5372507
4258.387, 2.1552119E-02
4260.315, 0.4920077
4262.244, -0.3949995
4264.172, 6.2818420E-03
4266.101, -0.8768595
4268.029, 0.4452546
4269.958, 0.2521185
4271.886, -1.011370
4273.815, -0.9269727
4275.743, 0.2655696
4277.672, 4.4245269E-02
4279.600, -0.4323692
4281.529, -0.2522662
4283.457, -0.3832446
4285.386, -0.2201712
4287.314, -0.3187117
4289.243, -1.695087
4291.171, -0.8383520
4293.100, -0.3816708
4295.028, -1.789073
4296.957, -0.4904879
4298.885, -0.7571553
4300.813, -1.957119
4302.742, -1.059181
4304.670, -0.8619732
4306.599, 0.6949049
4308.527, -0.1844335
4310.456, 1.310916
4312.384, -1.060488
4314.313, -0.4212893
4316.241, 0.3691182
4318.169, -1.181653
4320.098, -0.9532167
4322.026, -0.4429108
4323.955, -0.4616399
4325.883, -0.1753393
4327.812, 0.2094074
4329.740, -0.6438580
4331.669, -1.653337
4333.597, -1.323257
4335.526, -1.914569
4337.454, -0.5294925
4339.383, -0.2750676
4341.311, -1.629447
4343.240, -0.5029644
4345.168, -1.031833
4347.097, -0.6405214
4349.025, -0.9524124
4350.954, -0.8417036
4352.882, -1.149992
4354.811, -1.077672
4356.739, -1.260221
4358.667, -0.9018260
4360.596, -1.424521
4362.524, -1.236831
4364.453, -0.9324031
4366.381, -0.6083385
4368.310, -1.583507
4370.238, -0.9610537
4372.167, -1.964171
4374.095, -0.9225857
4376.023, -0.9170393
4377.952, -2.157450
##END=



