##NAMES=Symplesite
##RRUFFID=R120074
##IDEAL CHEMISTRY=Fe^2+^_3_(AsO_4_)_2_·8H_2_O
##LOCALITY=Saubachbruch, Muldenberg, Vogtland, Sachsen, Germany
##OWNER=RRUFF
##SOURCE=Bob Jenkins
##DESCRIPTION=Aggregate of black bladed crystals,  2-fold twin around [1 -1 0]
##STATUS=The identification of this mineral has been confirmed only by single crystal X-ray diffraction
##URL=https://www.rruff.net/odr/rruff_sample/R120074
##DIFFRACTION SAMPLE DESCRIPTION=Single crystal, powder profile is calculated
##CELL PARAMETERS=a: 7.788 b: 9.241 c: 4.754 alpha: 92.89 beta: 98.38 gamma: 106.36 volume: 323.2 crystal system: triclinic
##FILETYPE=Raman Processed
##RAMAN WAVELENGTH=780

176.6204, 60.72831
178.5488, 61.12762
180.4773, 61.45145
182.4058, 61.43584
184.3342, 61.23740
186.2627, 61.10917
188.1912, 61.07294
190.1196, 61.03895
192.0481, 61.01013
193.9766, 60.98063
195.9050, 60.87909
197.8335, 60.82695
199.7620, 60.99348
201.6904, 61.38566
203.6189, 61.63927
205.5474, 61.77962
207.4758, 61.73415
209.4043, 61.26728
211.3328, 60.84678
213.2612, 60.84998
215.1897, 61.14474
217.1182, 61.20289
219.0466, 60.97894
220.9751, 60.86137
222.9036, 61.00386
224.8320, 61.07901
226.7605, 60.88732
228.6890, 60.58648
230.6174, 60.35160
232.5459, 60.19197
234.4744, 60.22915
236.4028, 60.53680
238.3313, 60.83834
240.2598, 61.18089
242.1882, 61.35686
244.1167, 61.13641
246.0452, 60.64125
247.9736, 60.24219
249.9021, 59.92995
251.8306, 59.73652
253.7590, 59.73996
255.6875, 59.74202
257.6160, 59.75104
259.5444, 59.66697
261.4729, 59.28009
263.4014, 58.67510
265.3298, 58.24779
267.2583, 58.03618
269.1868, 57.95658
271.1152, 58.19008
273.0437, 58.32125
274.9722, 57.99590
276.9006, 57.50714
278.8291, 57.39589
280.7576, 57.62092
282.6860, 57.75753
284.6145, 57.76437
286.5430, 57.64126
288.4714, 57.28849
290.3999, 56.91432
292.3284, 56.66688
294.2568, 56.50345
296.1853, 56.35723
298.1138, 56.23494
300.0422, 56.03418
301.9707, 55.57277
303.8992, 55.26276
305.8276, 55.37440
307.7561, 55.50541
309.6846, 55.27488
311.6130, 54.81707
313.5415, 54.38863
315.4700, 53.97787
317.3984, 53.68938
319.3269, 53.54133
321.2554, 53.48441
323.1838, 53.63092
325.1123, 53.75175
327.0408, 53.65928
328.9692, 53.39510
330.8977, 53.05196
332.8262, 52.51212
334.7546, 52.23418
336.6831, 52.35455
338.6116, 52.53217
340.5400, 52.78820
342.4685, 52.95780
344.3970, 52.85413
346.3254, 52.57724
348.2539, 52.48687
350.1824, 52.69188
352.1108, 52.72131
354.0393, 52.46567
355.9678, 52.24537
357.8962, 52.14051
359.8247, 52.12053
361.7532, 52.21922
363.6816, 52.36554
365.6101, 52.36795
367.5386, 52.18865
369.4670, 52.12581
371.3955, 52.30415
373.3240, 52.25631
375.2524, 51.63919
377.1809, 51.05518
379.1094, 50.82782
381.0378, 50.84415
382.9663, 51.04982
384.8948, 51.43430
386.8232, 51.28206
388.7517, 50.43493
390.6802, 49.85329
392.6086, 49.85760
394.5371, 49.96037
396.4656, 50.00772
398.3940, 49.99323
400.3225, 49.88039
402.2510, 49.69662
404.1794, 49.55662
406.1079, 49.45797
408.0364, 49.41573
409.9648, 49.47818
411.8933, 49.47536
413.8218, 49.24910
415.7502, 49.05339
417.6787, 49.14085
419.6072, 49.30394
421.5356, 49.06248
423.4641, 48.52304
425.3926, 48.39353
427.3210, 48.80670
429.2495, 49.04460
431.1780, 48.71942
433.1064, 48.52279
435.0349, 48.88515
436.9634, 49.25229
438.8918, 49.00148
440.8203, 48.44858
442.7488, 48.35430
444.6772, 48.67063
446.6057, 48.80042
448.5342, 48.62801
450.4626, 48.41118
452.3911, 48.10311
454.3196, 47.88455
456.2480, 47.91512
458.1765, 47.99233
460.1050, 47.86562
462.0334, 47.65084
463.9619, 47.60847
465.8904, 47.74867
467.8188, 47.83412
469.7473, 47.85675
471.6758, 47.78666
473.6042, 47.53669
475.5327, 47.30150
477.4612, 47.13087
479.3896, 47.03484
481.3181, 47.07007
483.2466, 47.16919
485.1750, 47.20608
487.1035, 47.18084
489.0320, 47.06359
490.9604, 46.74731
492.8889, 46.51015
494.8174, 46.45692
496.7458, 46.34846
498.6743, 45.98947
500.6028, 45.66161
502.5313, 45.65486
504.4597, 45.77980
506.3882, 45.68982
508.3167, 45.38778
510.2451, 45.14021
512.1736, 44.99388
514.1021, 44.77813
516.0305, 44.41695
517.9590, 44.13562
519.8875, 44.03932
521.8159, 43.98323
523.7444, 43.91423
525.6729, 43.81192
527.6013, 43.64757
529.5298, 43.43214
531.4583, 43.22221
533.3867, 43.03720
535.3152, 42.64618
537.2437, 41.91463
539.1721, 41.53800
541.1006, 41.83039
543.0291, 42.11445
544.9575, 42.10122
546.8860, 41.95937
548.8145, 41.70228
550.7429, 41.43153
552.6714, 41.34301
554.5999, 41.38883
556.5283, 41.29222
558.4568, 41.05835
560.3853, 40.72929
562.3137, 40.24946
564.2422, 39.95531
566.1707, 40.03718
568.0991, 40.12684
570.0276, 40.09507
571.9561, 40.02056
573.8845, 39.95943
575.8130, 39.88361
577.7415, 39.76225
579.6699, 39.58834
581.5984, 39.30225
583.5269, 38.91931
585.4553, 38.70380
587.3838, 38.71366
589.3123, 38.71572
591.2407, 38.63750
593.1692, 38.59134
595.0977, 38.62795
597.0261, 38.67776
598.9546, 38.70223
600.8831, 38.72443
602.8115, 38.81460
604.7400, 38.89805
606.6685, 38.83262
608.5969, 38.63087
610.5254, 38.32665
612.4539, 37.89555
614.3823, 37.60168
616.3108, 37.54479
618.2393, 37.48436
620.1677, 37.43888
622.0962, 37.31723
624.0247, 36.98420
625.9531, 36.69228
627.8816, 36.64420
629.8101, 36.69438
631.7385, 36.71013
633.6670, 36.69136
635.5955, 36.61882
637.5239, 36.49974
639.4524, 36.43525
641.3809, 36.45058
643.3093, 36.43667
645.2378, 36.37964
647.1663, 36.31368
649.0947, 36.27692
651.0232, 36.17194
652.9517, 35.86994
654.8801, 35.62293
656.8086, 35.65077
658.7371, 35.72302
660.6655, 35.62087
662.5940, 35.44263
664.5225, 35.35896
666.4509, 35.35202
668.3794, 35.31353
670.3079, 35.23430
672.2363, 35.25172
674.1648, 35.43534
676.0933, 35.43163
678.0217, 35.15130
679.9502, 34.88042
681.8787, 34.64873
683.8071, 34.51191
685.7356, 34.55676
687.6641, 34.61352
689.5925, 34.60394
691.5210, 34.54585
693.4495, 34.40656
695.3779, 34.26065
697.3064, 34.31720
699.2349, 34.47550
701.1633, 34.24584
703.0918, 33.64779
705.0203, 33.43648
706.9487, 33.63620
708.8772, 33.80185
710.8057, 33.89236
712.7341, 33.93993
714.6626, 33.97514
716.5911, 33.90498
718.5195, 33.57784
720.4480, 33.31637
722.3765, 33.21952
724.3049, 33.24932
726.2334, 33.52554
728.1619, 33.77968
730.0903, 33.63115
732.0188, 33.32905
733.9473, 33.33252
735.8757, 33.53498
737.8042, 33.62499
739.7327, 33.61699
741.6611, 33.58118
743.5896, 33.52103
745.5181, 33.45739
747.4465, 33.38792
749.3750, 33.33362
751.3035, 33.28620
753.2319, 33.27796
755.1604, 33.28381
757.0889, 33.37408
759.0173, 33.65751
760.9458, 33.90207
762.8743, 34.01733
764.8027, 34.04167
766.7312, 33.93671
768.6597, 33.81713
770.5881, 33.84106
772.5166, 33.88952
774.4451, 33.79461
776.3735, 33.60466
778.3020, 33.37975
780.2305, 33.15270
782.1589, 33.13297
784.0874, 33.33433
786.0159, 33.39761
787.9443, 33.31243
789.8728, 33.10735
791.8013, 32.61369
793.7297, 32.35322
795.6582, 32.48588
797.5867, 32.53179
799.5151, 32.36122
801.4436, 32.23629
803.3721, 32.23250
805.3005, 32.27562
807.2290, 32.38962
809.1575, 32.44999
811.0859, 32.29408
813.0144, 32.16668
814.9429, 32.26623
816.8713, 32.45126
818.7998, 32.67901
820.7283, 32.83611
822.6567, 32.61913
824.5852, 32.27494
826.5137, 32.50001
828.4421, 33.06803
830.3706, 32.95315
832.2991, 32.25994
834.2275, 32.14135
836.1560, 32.61915
838.0845, 32.88802
840.0129, 32.94577
841.9414, 32.81940
843.8699, 32.48197
845.7983, 32.27483
847.7268, 32.27049
849.6553, 32.21693
851.5837, 32.05877
853.5122, 31.86137
855.4407, 31.56736
857.3691, 31.42264
859.2976, 31.70934
861.2261, 31.79535
863.1545, 31.25750
865.0830, 30.79377
867.0115, 30.73307
868.9399, 30.76986
870.8684, 30.76320
872.7969, 30.75054
874.7253, 30.81664
876.6538, 30.82869
878.5823, 30.55775
880.5107, 30.25952
882.4392, 30.31390
884.3677, 30.47977
886.2961, 30.42091
888.2246, 30.20460
890.1531, 29.85869
892.0815, 29.49594
894.0100, 29.40496
895.9385, 29.49486
897.8669, 29.53501
899.7954, 29.50285
901.7239, 29.28046
903.6523, 28.89949
905.5808, 28.69191
907.5093, 28.66761
909.4377, 28.54574
911.3662, 28.30850
913.2947, 28.03609
915.2231, 27.69924
917.1516, 27.47581
919.0801, 27.40909
921.0085, 27.35388
922.9370, 27.33772
924.8655, 27.27027
926.7939, 27.07900
928.7224, 26.98530
930.6509, 27.08576
932.5793, 27.10362
934.5078, 26.95828
936.4363, 26.83128
938.3647, 26.76783
940.2932, 26.69730
942.2217, 26.57621
944.1501, 26.50573
946.0786, 26.54200
948.0071, 26.58161
949.9355, 26.62442
951.8640, 26.57559
953.7925, 26.29691
955.7209, 26.11662
957.6494, 26.29102
959.5779, 26.42148
961.5063, 26.27444
963.4348, 26.07979
965.3633, 25.95023
967.2917, 25.82484
969.2202, 25.61524
971.1487, 25.46913
973.0771, 25.51310
975.0056, 25.60514
976.9341, 25.69424
978.8625, 25.73329
980.7910, 25.64602
982.7195, 25.53978
984.6479, 25.49556
986.5764, 25.48501
988.5049, 25.58118
990.4333, 25.58844
992.3618, 25.15407
994.2903, 24.70275
996.2188, 24.80019
998.1472, 25.00144
1000.076, 24.67434
1002.004, 24.31207
1003.933, 24.66089
1005.861, 25.14448
1007.790, 25.00170
1009.718, 24.63053
1011.646, 24.45192
1013.575, 24.42412
1015.503, 24.63512
1017.432, 24.83340
1019.360, 24.59718
1021.289, 24.22218
1023.217, 24.11387
1025.146, 24.10985
1027.074, 24.00645
1029.003, 23.85881
1030.931, 23.66350
1032.860, 23.53852
1034.788, 23.77090
1036.717, 24.05571
1038.645, 23.90474
1040.573, 23.63092
1042.502, 23.63828
1044.430, 23.77090
1046.359, 23.91229
1048.287, 23.98721
1050.216, 23.82736
1052.144, 23.61777
1054.073, 23.59906
1056.001, 23.65592
1057.930, 23.68612
1059.858, 23.67673
1061.787, 23.59166
1063.715, 23.47735
1065.644, 23.34514
1067.572, 23.25093
1069.500, 23.29025
1071.429, 23.36043
1073.357, 23.39741
1075.286, 23.36542
1077.214, 23.13321
1079.143, 22.92883
1081.071, 23.04116
1083.000, 23.18697
1084.928, 23.09986
1086.857, 22.97015
1088.785, 22.93471
1090.714, 22.93516
1092.642, 22.97905
1094.571, 22.97424
1096.499, 22.74569
1098.427, 22.59756
1100.356, 22.82271
1102.284, 23.03708
1104.213, 23.03914
1106.141, 22.95267
1108.070, 22.74635
1109.998, 22.60432
1111.927, 22.66828
1113.855, 22.71845
1115.784, 22.68793
1117.712, 22.60494
1119.641, 22.43239
1121.569, 22.29032
1123.498, 22.17957
1125.426, 22.17426
1127.354, 22.40927
1129.283, 22.48823
1131.211, 22.23182
1133.140, 22.05085
1135.068, 22.03329
1136.997, 22.05058
1138.925, 22.08238
1140.854, 22.16220
1142.782, 22.32455
1144.711, 22.40033
1146.639, 22.35552
1148.568, 22.34484
1150.496, 22.40399
1152.425, 22.24401
1154.353, 21.81690
1156.281, 21.77369
1158.210, 22.13931
1160.138, 22.27574
1162.067, 22.17599
1163.995, 22.01466
1165.924, 21.81866
1167.852, 21.75996
1169.781, 21.81289
1171.709, 21.85286
1173.638, 21.90132
1175.566, 22.08374
1177.495, 22.28849
1179.423, 22.21247
1181.352, 22.03965
1183.280, 22.08381
1185.208, 22.19270
1187.137, 22.22144
1189.065, 22.16330
1190.994, 21.85566
1192.922, 21.66262
1194.851, 22.01685
1196.779, 22.32335
1198.708, 22.19468
1200.636, 21.96559
1202.565, 21.72097
1204.493, 21.59327
1206.422, 21.66635
1208.350, 21.78627
1210.279, 21.94253
1212.207, 21.98378
1214.135, 21.83092
1216.064, 21.77974
1217.992, 21.91455
1219.921, 21.89228
1221.849, 21.65679
1223.778, 21.51368
1225.706, 21.48890
1227.635, 21.47711
1229.563, 21.47149
1231.492, 21.44007
1233.420, 21.40095
1235.349, 21.45654
1237.277, 21.58723
1239.206, 21.81389
1241.134, 22.01525
1243.063, 21.84808
1244.991, 21.60783
1246.919, 21.78973
1248.848, 22.02119
1250.776, 21.87297
1252.705, 21.67946
1254.633, 21.67872
1256.562, 21.73123
1258.490, 21.83134
1260.419, 21.85214
1262.347, 21.62565
1264.276, 21.53972
1266.204, 21.81430
1268.133, 21.92025
1270.061, 21.72415
1271.990, 21.66156
1273.918, 21.79476
1275.846, 21.77649
1277.775, 21.59479
1279.703, 21.59070
1281.632, 21.73552
1283.560, 21.77920
1285.489, 21.76559
1287.417, 21.85777
1289.346, 21.97860
1291.274, 22.00506
1293.203, 21.96156
1295.131, 21.80589
1297.060, 21.69332
1298.988, 21.82024
1300.917, 21.87954
1302.845, 21.59617
1304.773, 21.45935
1306.702, 21.71074
1308.630, 21.96574
1310.559, 22.16595
1312.487, 22.25143
1314.416, 22.21440
1316.344, 22.00749
1318.273, 21.59883
1320.201, 21.71765
1322.130, 22.24213
1324.058, 22.14283
1325.987, 21.68493
1327.915, 21.62032
1329.844, 21.76667
1331.772, 21.90724
1333.700, 22.00094
1335.629, 21.98096
1337.557, 21.93670
1339.486, 21.90697
1341.414, 21.90007
1343.343, 21.95387
1345.271, 21.92630
1347.200, 21.77140
1349.128, 21.57865
1351.057, 21.35107
1352.985, 21.47802
1354.914, 21.92426
1356.842, 21.94063
1358.771, 21.66648
1360.699, 21.83026
1362.627, 22.14743
1364.556, 22.01315
1366.484, 21.75646
1368.413, 21.73624
1370.341, 21.80213
1372.270, 21.88768
1374.198, 21.95399
1376.127, 22.02810
1378.055, 21.98700
1379.984, 21.71067
1381.912, 21.61038
1383.841, 21.73900
1385.769, 21.84920
1387.698, 21.92803
1389.626, 21.92331
1391.554, 21.87613
1393.483, 21.94509
1395.411, 22.03448
1397.340, 22.03178
1399.268, 21.93785
1401.197, 21.61904
1403.125, 21.43623
1405.054, 21.71074
1406.982, 21.86807
1408.911, 21.62224
1410.839, 21.60020
1412.768, 22.02534
1414.696, 22.02373
1416.625, 21.60744
1418.553, 21.48536
1420.481, 21.56317
1422.410, 21.53978
1424.338, 21.47055
1426.267, 21.42691
1428.195, 21.39711
1430.124, 21.35746
1432.052, 21.36811
1433.981, 21.49216
1435.909, 21.53707
1437.838, 21.44399
1439.766, 21.32713
1441.695, 21.19740
1443.623, 21.45548
1445.552, 21.96249
1447.480, 21.91521
1449.408, 21.61999
1451.337, 21.71082
1453.265, 21.84178
1455.194, 21.56240
1457.122, 21.37013
1459.051, 21.64442
1460.979, 21.72181
1462.908, 21.42388
1464.836, 21.16141
1466.765, 20.98619
1468.693, 21.00754
1470.622, 21.16427
1472.550, 21.16500
1474.479, 21.09577
1476.407, 21.15287
1478.335, 21.15820
1480.264, 20.83776
1482.192, 20.59379
1484.121, 20.66815
1486.049, 20.74708
1487.978, 20.76869
1489.906, 20.85677
1491.835, 21.01571
1493.763, 21.24843
1495.692, 21.46990
1497.620, 21.37298
1499.549, 21.16214
1501.477, 21.09369
1503.406, 21.00776
1505.334, 20.71814
1507.262, 20.54576
1509.191, 20.66353
1511.119, 20.73874
1513.048, 20.76142
1514.976, 20.64219
1516.905, 20.42580
1518.833, 20.38260
1520.762, 20.40708
1522.690, 20.30865
1524.619, 20.21848
1526.547, 20.23535
1528.476, 20.24710
1530.404, 20.20716
1532.333, 20.18687
1534.261, 20.19740
1536.189, 20.27338
1538.118, 20.37863
1540.046, 20.29517
1541.975, 20.11809
1543.903, 19.90259
1545.832, 19.82763
1547.760, 20.14499
1549.689, 20.31207
1551.617, 20.14431
1553.546, 20.02028
1555.474, 19.98826
1557.403, 19.84482
1559.331, 19.67558
1561.260, 19.89590
1563.188, 20.18291
1565.116, 20.10199
1567.045, 19.91789
1568.973, 19.76512
1570.902, 19.55291
1572.830, 19.21842
1574.759, 19.31697
1576.687, 19.78224
1578.616, 19.72497
1580.544, 19.40683
1582.473, 19.38348
1584.401, 19.44123
1586.330, 19.44385
1588.258, 19.37059
1590.187, 19.11607
1592.115, 19.04786
1594.043, 19.20145
1595.972, 19.12228
1597.900, 18.89213
1599.829, 18.81200
1601.757, 18.81049
1603.686, 18.86521
1605.614, 18.86637
1607.543, 18.71172
1609.471, 18.58952
1611.400, 18.50952
1613.328, 18.61383
1615.257, 18.82740
1617.185, 18.60254
1619.114, 18.25733
1621.042, 18.22346
1622.970, 18.25579
1624.899, 18.21753
1626.827, 18.27029
1628.756, 18.50567
1630.684, 18.43041
1632.613, 18.10084
1634.541, 17.86057
1636.470, 17.78024
1638.398, 18.18454
1640.327, 18.41244
1642.255, 18.05624
1644.184, 17.78214
1646.112, 17.72953
1648.041, 17.88251
1649.969, 18.12843
1651.897, 17.88886
1653.826, 17.49493
1655.754, 17.38679
1657.683, 17.33004
1659.611, 17.21723
1661.540, 17.15009
1663.468, 17.14419
1665.397, 17.10691
1667.325, 17.06262
1669.254, 17.16185
1671.182, 17.22480
1673.111, 16.96433
1675.039, 16.77878
1676.968, 16.86038
1678.896, 16.77894
1680.824, 16.52966
1682.753, 16.64312
1684.681, 16.91656
1686.610, 16.98023
1688.538, 16.87565
1690.467, 16.47948
1692.395, 16.25850
1694.324, 16.36238
1696.252, 16.39401
1698.181, 16.35607
1700.109, 16.33172
1702.038, 16.30297
1703.966, 16.24545
1705.895, 16.17813
1707.823, 16.12709
1709.751, 16.00998
1711.680, 15.81375
1713.608, 15.74454
1715.537, 15.77349
1717.465, 15.89020
1719.394, 15.98257
1721.322, 16.01009
1723.251, 15.88858
1725.179, 15.55398
1727.108, 15.32627
1729.036, 15.21259
1730.965, 15.24846
1732.893, 15.35588
1734.822, 15.54086
1736.750, 15.54468
1738.678, 15.24834
1740.607, 15.05508
1742.535, 15.00732
1744.464, 15.15931
1746.392, 15.33078
1748.321, 15.31765
1750.249, 15.07365
1752.178, 14.47706
1754.106, 14.32100
1756.035, 14.64089
1757.963, 14.69721
1759.892, 14.60945
1761.820, 14.58024
1763.749, 14.56600
1765.677, 14.57235
1767.605, 14.48587
1769.534, 14.30036
1771.462, 14.08707
1773.391, 13.91154
1775.319, 13.92595
1777.248, 13.96039
1779.176, 13.92340
1781.105, 13.80931
1783.033, 13.62247
1784.962, 13.78959
1786.890, 14.06729
1788.819, 13.97212
1790.747, 13.74490
1792.676, 13.40497
1794.604, 13.30983
1796.532, 13.51025
1798.461, 13.54124
1800.389, 13.48493
1802.318, 13.53693
1804.246, 13.54642
1806.175, 13.37726
1808.103, 13.31268
1810.032, 13.39059
1811.960, 13.26986
1813.889, 13.07686
1815.817, 13.05768
1817.746, 13.02464
1819.674, 12.87221
1821.603, 12.79992
1823.531, 12.81875
1825.459, 12.75059
1827.388, 12.62274
1829.316, 12.37919
1831.245, 12.30942
1833.173, 12.55235
1835.102, 12.62892
1837.030, 12.53365
1838.959, 12.45429
1840.887, 12.44323
1842.816, 12.71680
1844.744, 12.69468
1846.673, 12.23199
1848.601, 11.89025
1850.530, 11.70527
1852.458, 11.70513
1854.386, 11.73818
1856.315, 11.63204
1858.243, 11.74211
1860.172, 12.08231
1862.100, 11.97854
1864.029, 11.70856
1865.957, 11.81228
1867.886, 11.88650
1869.814, 11.71643
1871.743, 11.57735
1873.671, 11.48528
1875.600, 11.43041
1877.528, 11.40528
1879.457, 11.43748
1881.385, 11.42461
1883.313, 11.34022
1885.242, 11.24246
1887.170, 11.13749
1889.099, 11.00737
1891.027, 10.92799
1892.956, 10.97832
1894.884, 10.98058
1896.813, 10.93410
1898.741, 11.12337
1900.670, 11.26139
1902.598, 10.99642
1904.527, 10.76739
1906.455, 10.71337
1908.384, 10.70057
1910.312, 10.72221
1912.240, 10.84857
1914.169, 10.82777
1916.097, 10.45873
1918.026, 10.42467
1919.954, 10.71732
1921.883, 10.67421
1923.811, 10.51530
1925.740, 10.42424
1927.668, 10.41775
1929.597, 10.49378
1931.525, 10.23698
1933.454, 9.905894
1935.382, 10.08360
1937.311, 10.17523
1939.239, 9.954751
1941.167, 9.887606
1943.096, 9.945836
1945.024, 9.882482
1946.953, 9.820241
1948.881, 9.844863
1950.810, 9.918557
1952.738, 10.01285
1954.667, 9.946597
1956.595, 9.825207
1958.524, 9.718341
1960.452, 9.711374
1962.381, 9.815798
1964.309, 9.745817
1966.238, 9.568216
1968.166, 9.340307
1970.094, 9.193636
1972.023, 9.184480
1973.951, 9.278903
1975.880, 9.386910
1977.808, 9.240458
1979.737, 9.102373
1981.665, 9.141927
1983.594, 9.102539
1985.522, 9.006078
1987.451, 9.017650
1989.379, 9.034825
1991.308, 8.982793
1993.236, 8.957541
1995.165, 8.971082
1997.093, 9.094689
1999.021, 9.154207
2000.950, 8.994020
2002.878, 8.853114
2004.807, 8.771443
2006.735, 8.594503
2008.664, 8.459161
2010.592, 8.552847
2012.521, 8.599072
2014.449, 8.545787
2016.378, 8.549414
2018.306, 8.546988
2020.235, 8.399423
2022.163, 8.339052
2024.092, 8.405786
2026.020, 8.343618
2027.948, 8.256495
2029.877, 8.362168
2031.805, 8.390399
2033.734, 8.280707
2035.662, 8.029493
2037.591, 7.785774
2039.519, 7.806145
2041.448, 7.848123
2043.376, 7.845120
2045.305, 7.925747
2047.233, 8.024521
2049.162, 8.073979
2051.090, 7.986972
2053.019, 7.725177
2054.947, 7.480860
2056.875, 7.349817
2058.804, 7.554577
2060.732, 7.670716
2062.661, 7.533478
2064.589, 7.551694
2066.518, 7.600908
2068.446, 7.471918
2070.375, 7.362425
2072.303, 7.327949
2074.232, 7.429788
2076.160, 7.522024
2078.089, 7.382398
2080.017, 7.250141
2081.946, 7.188954
2083.874, 7.240375
2085.802, 7.310713
2087.731, 7.297064
2089.659, 7.221784
2091.588, 7.095261
2093.516, 7.076522
2095.445, 7.112666
2097.373, 7.166759
2099.302, 7.209081
2101.230, 7.220209
2103.159, 7.087980
2105.087, 6.938653
2107.016, 6.868889
2108.944, 6.819838
2110.873, 6.783148
2112.801, 6.746347
2114.729, 6.735426
2116.658, 6.780823
2118.586, 6.760069
2120.515, 6.680269
2122.443, 6.555766
2124.372, 6.495055
2126.300, 6.556417
2128.229, 6.525628
2130.157, 6.470190
2132.086, 6.562111
2134.014, 6.595775
2135.943, 6.515650
2137.871, 6.411984
2139.800, 6.330961
2141.728, 6.344390
2143.656, 6.342178
2145.585, 6.307453
2147.513, 6.224722
2149.442, 6.134930
2151.370, 6.031485
2153.299, 6.114840
2155.227, 6.312509
2157.156, 6.254675
2159.084, 6.200198
2161.013, 6.288150
2162.941, 6.161600
2164.870, 5.970108
2166.798, 6.076224
2168.727, 6.095445
2170.655, 5.923729
2172.583, 5.754569
2174.512, 5.680048
2176.440, 5.815106
2178.369, 5.962671
2180.297, 6.046457
2182.226, 5.771596
2184.154, 5.580774
2186.083, 5.705239
2188.011, 5.723847
2189.940, 5.646319
2191.868, 5.510642
2193.797, 5.459146
2195.725, 5.518678
2197.654, 5.666290
2199.582, 5.716757
2201.510, 5.330720
2203.439, 5.225634
2205.367, 5.380762
2207.296, 5.519175
2209.224, 5.557157
2211.153, 5.443308
2213.081, 5.279785
2215.010, 5.145877
2216.938, 5.150586
2218.867, 5.239258
2220.795, 5.375661
2222.724, 5.260325
2224.652, 5.072287
2226.581, 4.890066
2228.509, 4.849345
2230.438, 4.919792
2232.366, 5.084581
2234.294, 5.116257
2236.223, 4.935732
2238.151, 4.925162
2240.080, 4.951072
2242.008, 4.902324
2243.937, 4.867356
2245.865, 4.833405
2247.794, 4.669778
2249.722, 4.609001
2251.651, 4.728333
2253.579, 4.865088
2255.508, 4.913565
2257.436, 4.741172
2259.365, 4.644305
2261.293, 4.644526
2263.221, 4.732729
2265.150, 4.691058
2267.078, 4.463513
2269.007, 4.595685
2270.935, 4.772206
2272.864, 4.557897
2274.792, 4.556642
2276.721, 4.719488
2278.649, 4.726069
2280.578, 4.644491
2282.506, 4.505761
2284.435, 4.406710
2286.363, 4.350994
2288.292, 4.381918
2290.220, 4.304627
2292.148, 4.175380
2294.077, 4.159269
2296.005, 4.189538
2297.934, 4.244843
2299.862, 4.267729
2301.791, 4.256584
2303.719, 4.201416
2305.648, 4.134075
2307.576, 4.070611
2309.505, 4.027984
2311.433, 4.034130
2313.362, 4.082825
2315.290, 4.093159
2317.219, 4.018213
2319.147, 3.812235
2321.075, 3.848992
2323.004, 3.964764
2324.932, 3.955345
2326.861, 3.910629
2328.789, 3.851335
2330.718, 3.779023
2332.646, 3.745917
2334.575, 3.761729
2336.503, 3.706033
2338.432, 3.690571
2340.360, 3.809092
2342.289, 3.804268
2344.217, 3.728886
2346.146, 3.692836
2348.074, 3.676788
2350.002, 3.664845
2351.931, 3.593192
2353.859, 3.556434
2355.788, 3.583684
2357.716, 3.511153
2359.645, 3.431807
2361.573, 3.430936
2363.502, 3.465872
2365.430, 3.492814
2367.359, 3.407484
2369.287, 3.405377
2371.216, 3.494405
2373.144, 3.615647
2375.073, 3.687768
2377.001, 3.681377
2378.929, 3.535240
2380.858, 3.410239
2382.786, 3.444185
2384.715, 3.423677
2386.643, 3.374881
2388.572, 3.356143
2390.500, 3.256450
2392.429, 3.139549
2394.357, 3.351671
2396.286, 3.387370
2398.214, 3.150847
2400.143, 3.123295
2402.071, 3.174052
2404.000, 3.237860
2405.928, 3.185490
2407.856, 3.110797
2409.785, 3.100904
2411.713, 3.072052
2413.642, 3.036003
2415.570, 3.049232
2417.499, 2.988458
2419.427, 2.871446
2421.356, 2.779555
2423.284, 2.798096
2425.213, 2.912620
2427.141, 2.898089
2429.070, 2.911426
2430.998, 3.026869
2432.927, 2.928862
2434.855, 2.815780
2436.783, 2.892013
2438.712, 2.846274
2440.640, 2.767181
2442.569, 2.816879
2444.497, 2.741272
2446.426, 2.617485
2448.354, 2.662493
2450.283, 2.750079
2452.211, 2.834152
2454.140, 2.810576
2456.068, 2.808501
2457.997, 2.852334
2459.925, 2.641641
2461.854, 2.492074
2463.782, 2.560546
2465.710, 2.729150
2467.639, 2.800692
2469.567, 2.643100
2471.496, 2.579383
2473.424, 2.560715
2475.353, 2.519852
2477.281, 2.463485
2479.210, 2.432197
2481.138, 2.498376
2483.067, 2.576343
2484.995, 2.637140
2486.924, 2.653706
2488.852, 2.587264
2490.781, 2.463108
2492.709, 2.368929
2494.637, 2.339653
2496.566, 2.375944
2498.494, 2.474097
2500.423, 2.531815
2502.351, 2.523315
2504.280, 2.502861
2506.208, 2.466467
2508.137, 2.411273
2510.065, 2.316261
2511.994, 2.268639
2513.922, 2.352255
2515.851, 2.310676
2517.779, 2.282342
2519.708, 2.432568
2521.636, 2.418267
2523.564, 2.339617
2525.493, 2.307412
2527.421, 2.225751
2529.350, 2.170550
2531.278, 2.261072
2533.207, 2.209360
2535.135, 2.117440
2537.064, 2.203619
2538.992, 2.137561
2540.921, 2.007399
2542.849, 2.067427
2544.778, 2.117223
2546.706, 2.136712
2548.635, 2.156394
2550.563, 2.139856
2552.491, 2.121403
2554.420, 2.270481
2556.348, 2.257027
2558.277, 2.109528
2560.205, 2.141650
2562.134, 2.162027
2564.062, 2.127068
2565.991, 1.990576
2567.919, 2.034603
2569.848, 2.216344
2571.776, 2.114011
2573.705, 2.025531
2575.633, 2.012690
2577.562, 1.981814
2579.490, 2.000125
2581.418, 2.060966
2583.347, 2.035292
2585.275, 1.950755
2587.204, 1.843734
2589.132, 1.938355
2591.061, 2.079239
2592.989, 2.188771
2594.918, 1.913178
2596.846, 1.769490
2598.775, 1.873660
2600.703, 1.938295
2602.632, 1.922616
2604.560, 1.833325
2606.489, 1.803616
2608.417, 1.786614
2610.345, 1.783029
2612.274, 1.918112
2614.202, 1.962184
2616.131, 1.884250
2618.059, 1.909051
2619.988, 1.831183
2621.916, 1.659968
2623.845, 1.669947
2625.773, 1.752078
2627.702, 1.837938
2629.630, 1.749498
2631.559, 1.842021
2633.487, 2.036087
2635.416, 1.809692
2637.344, 1.680729
2639.272, 1.712396
2641.201, 1.829884
2643.129, 1.820623
2645.058, 1.741296
2646.986, 1.807845
2648.915, 1.835639
2650.843, 1.795690
2652.772, 1.630784
2654.700, 1.694008
2656.629, 1.832994
2658.557, 1.760348
2660.486, 1.647075
2662.414, 1.589854
2664.343, 1.692224
2666.271, 1.688719
2668.199, 1.641464
2670.128, 1.627539
2672.056, 1.742840
2673.985, 1.782400
2675.913, 1.598491
2677.842, 1.567465
2679.770, 1.604021
2681.699, 1.636567
2683.627, 1.586342
2685.556, 1.550008
2687.484, 1.568040
2689.413, 1.613668
2691.341, 1.586289
2693.270, 1.493969
2695.198, 1.562253
2697.126, 1.627298
2699.055, 1.628017
2700.983, 1.488134
2702.912, 1.441715
2704.840, 1.498124
2706.769, 1.611866
2708.697, 1.536588
2710.626, 1.400775
2712.554, 1.488428
2714.483, 1.491851
2716.411, 1.469261
2718.340, 1.524235
2720.268, 1.579880
2722.197, 1.601307
2724.125, 1.563601
2726.053, 1.423550
2727.982, 1.334967
2729.910, 1.375847
2731.839, 1.268764
2733.767, 1.210464
2735.696, 1.255664
2737.624, 1.314529
2739.553, 1.350565
2741.481, 1.356734
2743.410, 1.319193
2745.338, 1.359547
2747.267, 1.391199
2749.195, 1.223897
2751.124, 1.266703
2753.052, 1.365273
2754.980, 1.349883
2756.909, 1.339041
2758.837, 1.361368
2760.766, 1.418804
2762.694, 1.422448
2764.623, 1.366580
2766.551, 1.287909
2768.480, 1.376717
2770.408, 1.291502
2772.337, 1.104851
2774.265, 1.121318
2776.194, 1.248324
2778.122, 1.329758
2780.051, 1.120481
2781.979, 1.211349
2783.907, 1.327485
2785.836, 1.241910
2787.764, 1.061285
2789.693, 1.028548
2791.621, 1.195075
2793.550, 1.207531
2795.478, 1.217431
2797.407, 1.236298
2799.335, 1.203867
2801.264, 1.224264
2803.192, 1.255560
2805.121, 1.241580
2807.049, 1.176585
2808.978, 1.087720
2810.906, 1.003329
2812.834, 1.040094
2814.763, 1.092533
2816.691, 1.124129
2818.620, 1.154101
2820.548, 1.112426
2822.477, 1.061247
2824.405, 1.136276
2826.334, 1.184971
2828.262, 1.161445
2830.191, 1.039206
2832.119, 0.9965391
2834.048, 1.008863
2835.976, 1.054793
2837.905, 1.117743
2839.833, 1.093439
2841.761, 1.030300
2843.690, 1.050369
2845.618, 0.9591885
2847.547, 0.8721052
2849.475, 0.8934618
2851.404, 1.055212
2853.332, 1.086237
2855.261, 0.9596086
2857.189, 1.027747
2859.118, 1.091141
2861.046, 1.108814
2862.975, 1.076064
2864.903, 0.9346383
2866.832, 0.8981687
2868.760, 1.049430
2870.688, 1.014615
2872.617, 0.9520291
2874.545, 0.9223732
2876.474, 0.9579505
2878.402, 0.9490757
2880.331, 0.9061899
2882.259, 0.8518592
2884.188, 0.8446778
2886.116, 0.8900002
2888.045, 0.9536541
2889.973, 0.8755120
2891.902, 0.7716811
2893.830, 0.7497364
2895.759, 1.002319
2897.687, 0.9976956
2899.615, 0.8991119
2901.544, 0.8297920
2903.472, 0.8745964
2905.401, 0.7779785
2907.329, 0.6415529
2909.258, 0.8346492
2911.186, 0.8960207
2913.115, 0.8526731
2915.043, 0.7709087
2916.972, 0.7949392
2918.900, 0.7724596
2920.829, 0.6939518
2922.757, 0.6661159
2924.686, 0.6981427
2926.614, 0.7458946
2928.542, 0.7711098
2930.471, 0.7278672
2932.399, 0.7076380
2934.328, 0.7295702
2936.256, 0.7615851
2938.185, 0.7380993
2940.113, 0.7140532
2942.042, 0.7428116
2943.970, 0.6807150
2945.899, 0.6448514
2947.827, 0.6601077
2949.756, 0.6922541
2951.684, 0.6766668
2953.613, 0.6825772
2955.541, 0.7868057
2957.469, 0.7688285
2959.398, 0.6622851
2961.326, 0.5666957
2963.255, 0.7366049
2965.183, 0.6913100
2967.112, 0.5939862
2969.040, 0.6092128
2970.969, 0.6170646
2972.897, 0.6707875
2974.826, 0.7143317
2976.754, 0.6154101
2978.683, 0.5422937
2980.611, 0.5235560
2982.540, 0.5546619
2984.468, 0.5971804
2986.396, 0.5037588
2988.325, 0.4081033
2990.253, 0.5182222
2992.182, 0.5343257
2994.110, 0.4962745
2996.039, 0.4607149
2997.967, 0.5298946
2999.896, 0.5825374
3001.824, 0.5746478
3003.753, 0.4971223
3005.681, 0.6957665
3007.610, 0.7012649
3009.538, 0.5514138
3011.467, 0.5542702
3013.395, 0.6003807
3015.323, 0.6099026
3017.252, 0.5529191
3019.180, 0.4692534
3021.109, 0.5309727
3023.037, 0.6141734
3024.966, 0.5679870
3026.894, 0.5247710
3028.823, 0.5393696
3030.751, 0.5693799
3032.680, 0.4953222
3034.608, 0.4700297
3036.537, 0.4883508
3038.465, 0.5213447
3040.394, 0.4708986
3042.322, 0.4645242
3044.250, 0.4684170
3046.179, 0.4421957
3048.107, 0.4965384
3050.036, 0.4375748
3051.964, 0.3478670
3053.893, 0.4728169
3055.821, 0.4328010
3057.750, 0.3946062
3059.678, 0.4314658
3061.607, 0.5805570
3063.535, 0.4289598
3065.464, 0.2980038
3067.392, 0.4022197
3069.321, 0.3967071
3071.249, 0.4144788
3073.177, 0.4448466
3075.106, 0.4488425
3077.034, 0.4161299
3078.963, 0.4128333
3080.891, 0.4304453
3082.820, 0.4265481
3084.748, 0.4063350
3086.677, 0.3813995
3088.605, 0.3711970
3090.534, 0.4231516
3092.462, 0.3187990
3094.391, 0.2909921
3096.319, 0.4055714
3098.248, 0.2825064
3100.176, 0.2500154
3102.104, 0.2953089
3104.033, 0.3611225
3105.961, 0.3702658
3107.890, 0.3530031
3109.818, 0.3407311
3111.747, 0.3539172
3113.675, 0.3427629
3115.604, 0.3229228
3117.532, 0.3185778
3119.461, 0.3605517
3121.389, 0.3522681
3123.318, 0.3571188
3125.246, 0.3563615
3127.175, 0.2696538
3129.103, 0.2783047
3131.031, 0.3771629
3132.960, 0.4915198
3134.888, 0.4838052
3136.817, 0.3922237
3138.745, 0.2754993
3140.674, 0.2196343
3142.602, 0.3816766
3144.531, 0.5514007
3146.459, 0.5053761
3148.388, 0.2897001
3150.316, 0.3418959
3152.245, 0.3813588
3154.173, 0.3880981
3156.102, 0.3715803
3158.030, 0.3344291
3159.958, 0.3227442
3161.887, 0.3377341
3163.815, 0.3669443
3165.744, 0.3839237
3167.672, 0.3587923
3169.601, 0.3442411
3171.529, 0.3514922
3173.458, 0.2857915
3175.386, 0.3020882
3177.315, 0.2936192
3179.243, 0.2278125
3181.172, 0.3043242
3183.100, 0.3316674
3185.029, 0.3193679
3186.957, 0.2929336
3188.885, 0.2648783
3190.814, 0.3195034
3192.742, 0.3295394
3194.671, 0.2422383
3196.599, 0.1217309
3198.528, 0.1660309
3200.456, 0.2611670
3202.385, 0.3184012
3204.313, 0.2853563
3206.242, 0.2687957
3208.170, 0.2352354
3210.099, 0.2139643
3212.027, 0.3357693
3213.956, 0.2474363
3215.884, 0.2064800
3217.813, 0.2333142
3219.741, 0.1491096
3221.669, 0.2280008
3223.598, 0.2660317
3225.526, 0.2416035
3227.455, 0.2200349
3229.383, 0.2375703
3231.312, 0.2731881
3233.240, 0.2871294
3235.169, 0.2423512
3237.097, 0.1540465
3239.026, 0.1280205
3240.954, 0.1612869
3242.883, 0.2242446
3244.811, 0.2506418
3246.740, 0.1797073
3248.668, 0.1158215
3250.596, 0.1362639
3252.525, 0.2753845
3254.453, 0.2076429
3256.382, 0.2032419
3258.310, 0.3017426
3260.239, 0.2238737
3262.167, 0.2176769
3264.096, 0.2244701
3266.024, 0.2458708
3267.953, 0.3282312
3269.881, 0.2468083
3271.810, 0.2284439
3273.738, 0.2257751
3275.667, 0.1473375
3277.595, 0.2903180
3279.523, 0.2886496
3281.452, 0.2243546
3283.380, 0.1976400
3285.309, 0.1748951
3287.237, 0.2772236
3289.166, 0.3678777
3291.094, 0.3569961
3293.023, 0.2127095
3294.951, 0.2632884
3296.880, 0.2042625
3298.808, 0.1436658
3300.737, 0.2720158
3302.665, 0.2183054
3304.594, 0.2178179
3306.522, 0.2454247
3308.450, 0.2384258
3310.379, 0.1205550
3312.307, 0.1292807
3314.236, 0.1866221
3316.164, 0.2455811
3318.093, 0.2986504
3320.021, 0.1962584
3321.950, 0.1750893
3323.878, 0.2319876
3325.807, 0.2912008
3327.735, 0.2453535
3329.664, 0.2804191
3331.592, 0.2433810
3333.521, 0.1356995
3335.449, 0.1555119
3337.377, 0.1825801
3339.306, 0.2000982
3341.234, 0.2236859
3343.163, 0.2682919
3345.091, 0.3188007
3347.020, 0.2418446
3348.948, 0.2016000
3350.877, 0.2349171
3352.805, 0.2105022
3354.734, 0.1413630
3356.662, 0.1815667
3358.591, 0.2321898
3360.519, 0.1858328
3362.448, 0.1910909
3364.376, 0.1564600
3366.304, 0.1401719
3368.233, 0.1610682
3370.161, 0.1976091
3372.090, 0.1149102
3374.018, 0.1293737
3375.947, 0.1873925
3377.875, 0.2048787
3379.804, 0.1977155
3381.732, 0.1558975
3383.661, 0.1349055
3385.589, 0.1134712
3387.518, 3.9247040E-02
3389.446, 5.2550159E-02
3391.375, 0.1931288
3393.303, 0.2896357
3395.231, 0.2819449
3397.160, 0.2622581
3399.088, 9.8016933E-02
3401.017, 9.4796948E-02
3402.945, 0.1645380
3404.874, 0.1890063
3406.802, 0.2890096
3408.731, 0.2345027
3410.659, 0.2517692
3412.588, 0.3122241
3414.516, 0.2701758
3416.445, 1.8310459E-02
3418.373, 9.0055421E-02
3420.302, 0.1843817
3422.230, 0.1838284
3424.158, 0.2035222
3426.087, 0.1617763
3428.015, 7.5018927E-02
3429.944, 9.2397593E-02
3431.872, 0.2090488
3433.801, 0.2006036
3435.729, 0.2018993
3437.658, 0.1979400
3439.586, 0.1367345
3441.515, 6.2055148E-02
3443.443, 0.2016187
3445.372, 0.1926571
3447.300, 0.1725825
3449.229, 0.1254177
3451.157, 2.3627590E-02
3453.085, -3.6272831E-02
3455.014, 0.1967262
3456.942, 0.3044236
##END=



