##NAMES=Synchysite-(Y)
##RRUFFID=R060984
##IDEAL CHEMISTRY=CaY(CO_3_)_2_F
##LOCALITY=Scrub Oaks mine, near Dover, Morris County, New Jersey, USA
##OWNER=RRUFF
##SOURCE=Michael Scott
##DESCRIPTION=Brownish-red earthy blebs associated with quartz and magnetite
##STATUS=The identification of this mineral is not yet confirmed
##URL=https://www.rruff.net/odr/rruff_sample/R060984
##FILETYPE=Raman RAW
##RAMAN WAVELENGTH=785

148.4934, 3044.240
150.4219, 3412.759
152.3503, 3692.834
154.2788, 3826.418
156.2073, 3904.717
158.1357, 3990.373
160.0642, 4088.155
161.9927, 4219.962
163.9211, 4398.515
165.8496, 4586.745
167.7781, 4815.447
169.7065, 5014.125
171.6350, 5133.289
173.5635, 5199.670
175.4919, 5255.271
177.4204, 5300.172
179.3489, 5337.813
181.2773, 5355.617
183.2058, 5383.363
185.1343, 5431.046
187.0627, 5490.481
188.9912, 5553.521
190.9197, 5620.587
192.8481, 5695.519
194.7766, 5782.539
196.7051, 5870.267
198.6335, 5970.121
200.5620, 6056.998
202.4905, 6110.749
204.4189, 6144.685
206.3474, 6173.959
208.2759, 6195.800
210.2043, 6240.944
212.1328, 6321.246
214.0613, 6411.832
215.9897, 6509.648
217.9182, 6614.740
219.8467, 6732.394
221.7751, 6856.858
223.7036, 6972.927
225.6321, 7088.689
227.5605, 7169.545
229.4890, 7186.640
231.4175, 7204.848
233.3459, 7240.137
235.2744, 7296.130
237.2029, 7384.793
239.1313, 7501.767
241.0598, 7593.312
242.9883, 7649.151
244.9167, 7690.530
246.8452, 7720.600
248.7737, 7735.125
250.7021, 7722.952
252.6306, 7698.120
254.5591, 7674.336
256.4875, 7650.433
258.4160, 7647.776
260.3445, 7703.695
262.2729, 7725.511
264.2014, 7684.492
266.1299, 7627.003
268.0583, 7576.120
269.9868, 7529.377
271.9153, 7485.227
273.8438, 7445.707
275.7722, 7395.115
277.7007, 7321.109
279.6292, 7254.639
281.5576, 7196.484
283.4861, 7150.475
285.4146, 7124.348
287.3430, 7109.907
289.2715, 7101.990
291.2000, 7110.082
293.1284, 7067.221
295.0569, 6930.149
296.9854, 6810.564
298.9138, 6728.227
300.8423, 6660.949
302.7708, 6598.986
304.6992, 6542.115
306.6277, 6492.932
308.5562, 6453.479
310.4846, 6404.085
312.4131, 6341.011
314.3416, 6275.183
316.2700, 6206.019
318.1985, 6136.239
320.1270, 6062.119
322.0554, 5991.299
323.9839, 5934.184
325.9124, 5890.500
327.8408, 5849.178
329.7693, 5818.238
331.6978, 5772.658
333.6262, 5705.825
335.5547, 5632.437
337.4832, 5552.980
339.4116, 5475.219
341.3401, 5408.071
343.2686, 5349.260
345.1970, 5287.408
347.1255, 5222.250
349.0540, 5154.765
350.9824, 5075.847
352.9109, 5011.397
354.8394, 4982.373
356.7678, 4953.245
358.6963, 4897.570
360.6248, 4827.176
362.5532, 4760.440
364.4817, 4696.485
366.4102, 4649.347
368.3386, 4628.394
370.2671, 4598.957
372.1956, 4549.206
374.1240, 4502.998
376.0525, 4479.049
377.9810, 4457.720
379.9094, 4419.792
381.8379, 4369.862
383.7664, 4325.237
385.6948, 4285.801
387.6233, 4254.198
389.5518, 4231.772
391.4802, 4214.541
393.4087, 4205.832
395.3372, 4195.993
397.2656, 4175.190
399.1941, 4152.983
401.1226, 4139.706
403.0510, 4134.984
404.9795, 4140.747
406.9080, 4164.788
408.8364, 4164.498
410.7649, 4128.456
412.6934, 4091.846
414.6218, 4066.229
416.5503, 4043.358
418.4788, 4018.830
420.4072, 3993.894
422.3357, 3967.226
424.2642, 3940.179
426.1926, 3927.018
428.1211, 3929.219
430.0496, 3936.971
431.9780, 3953.236
433.9065, 3965.549
435.8350, 3966.974
437.7634, 3967.486
439.6919, 3968.758
441.6204, 3975.208
443.5488, 3999.730
445.4773, 4036.115
447.4058, 4043.001
449.3342, 4013.956
451.2627, 4011.342
453.1912, 4049.197
455.1196, 4075.884
457.0481, 4073.222
458.9766, 4061.861
460.9050, 4045.529
462.8335, 4031.543
464.7620, 4032.940
466.6904, 4041.140
468.6189, 4028.626
470.5474, 3994.353
472.4758, 3973.474
474.4043, 3968.078
476.3328, 3966.557
478.2612, 3971.729
480.1897, 3968.927
482.1182, 3945.027
484.0466, 3917.946
485.9751, 3896.568
487.9036, 3878.662
489.8320, 3862.729
491.7605, 3848.026
493.6890, 3829.614
495.6174, 3807.759
497.5459, 3786.448
499.4744, 3766.647
501.4028, 3745.554
503.3313, 3721.319
505.2598, 3697.663
507.1882, 3673.464
509.1167, 3652.692
511.0452, 3640.454
512.9736, 3631.830
514.9021, 3620.348
516.8306, 3605.474
518.7590, 3583.842
520.6875, 3555.584
522.6160, 3529.754
524.5444, 3509.194
526.4729, 3483.020
528.4014, 3441.177
530.3298, 3406.811
532.2583, 3393.983
534.1868, 3384.068
536.1152, 3361.497
538.0437, 3336.485
539.9722, 3325.633
541.9006, 3324.517
543.8291, 3315.542
545.7576, 3299.527
547.6860, 3289.428
549.6145, 3288.171
551.5430, 3279.036
553.4714, 3257.053
555.3999, 3230.872
557.3284, 3191.770
559.2568, 3164.073
561.1853, 3170.512
563.1138, 3182.555
565.0422, 3171.493
566.9707, 3147.226
568.8992, 3127.265
570.8276, 3111.536
572.7561, 3102.858
574.6846, 3101.061
576.6130, 3083.504
578.5415, 3040.437
580.4700, 3015.111
582.3984, 3029.310
584.3269, 3040.280
586.2554, 3038.375
588.1838, 3027.701
590.1123, 3002.412
592.0408, 2976.532
593.9692, 2965.709
595.8977, 2962.795
597.8262, 2954.319
599.7546, 2942.500
601.6831, 2935.650
603.6116, 2933.728
605.5400, 2929.468
607.4685, 2922.314
609.3970, 2913.084
611.3254, 2901.328
613.2539, 2888.684
615.1824, 2875.979
617.1108, 2861.529
619.0393, 2847.263
620.9678, 2827.825
622.8962, 2794.774
624.8247, 2757.929
626.7532, 2730.919
628.6816, 2708.874
630.6101, 2678.739
632.5386, 2643.952
634.4670, 2622.329
636.3955, 2614.795
638.3240, 2599.638
640.2524, 2574.770
642.1809, 2542.238
644.1094, 2489.780
646.0378, 2451.790
647.9663, 2443.916
649.8948, 2437.258
651.8232, 2423.746
653.7517, 2405.002
655.6802, 2377.212
657.6086, 2348.938
659.5371, 2331.083
661.4656, 2317.695
663.3940, 2298.565
665.3225, 2276.048
667.2510, 2256.865
669.1794, 2241.121
671.1079, 2227.648
673.0364, 2217.129
674.9648, 2204.457
676.8933, 2189.096
678.8218, 2171.923
680.7502, 2147.307
682.6787, 2130.041
684.6072, 2129.517
686.5356, 2126.826
688.4641, 2113.747
690.3926, 2097.593
692.3210, 2082.645
694.2495, 2067.147
696.1780, 2044.619
698.1064, 2024.396
700.0349, 2023.045
701.9634, 2031.090
703.8918, 2024.779
705.8203, 2007.521
707.7488, 2003.461
709.6772, 2014.294
711.6057, 2012.124
713.5342, 1992.109
715.4626, 1972.605
717.3911, 1948.265
719.3196, 1935.711
721.2480, 1942.333
723.1765, 1949.619
725.1050, 1961.725
727.0334, 1963.218
728.9619, 1939.958
730.8904, 1916.788
732.8188, 1904.412
734.7473, 1899.601
736.6758, 1905.251
738.6042, 1912.087
740.5327, 1911.071
742.4612, 1905.335
744.3896, 1897.344
746.3181, 1889.250
748.2466, 1887.129
750.1750, 1890.517
752.1035, 1897.645
754.0320, 1909.224
755.9604, 1908.336
757.8889, 1889.216
759.8174, 1882.617
761.7458, 1895.979
763.6743, 1904.081
765.6028, 1907.234
767.5313, 1903.460
769.4597, 1886.817
771.3882, 1875.834
773.3167, 1878.592
775.2451, 1880.092
777.1736, 1872.063
779.1021, 1867.447
781.0305, 1876.710
782.9590, 1885.268
784.8875, 1879.905
786.8159, 1874.796
788.7444, 1883.656
790.6729, 1894.842
792.6013, 1895.879
794.5298, 1892.578
796.4583, 1891.942
798.3867, 1894.001
800.3152, 1902.141
802.2437, 1912.357
804.1721, 1907.297
806.1006, 1889.987
808.0291, 1884.333
809.9575, 1890.236
811.8860, 1901.355
813.8145, 1920.148
815.7429, 1920.827
817.6714, 1899.201
819.5999, 1887.305
821.5283, 1887.789
823.4568, 1891.380
825.3853, 1898.294
827.3137, 1903.655
829.2422, 1905.538
831.1707, 1909.853
833.0991, 1919.362
835.0276, 1926.871
836.9561, 1930.821
838.8845, 1930.259
840.8130, 1917.240
842.7415, 1915.215
844.6699, 1943.342
846.5984, 1970.435
848.5269, 1978.339
850.4553, 1983.714
852.3838, 1998.644
854.3123, 2010.211
856.2407, 2004.141
858.1692, 1997.253
860.0977, 2006.642
862.0261, 2019.802
863.9546, 2023.234
865.8831, 2023.337
867.8115, 2026.459
869.7400, 2033.086
871.6685, 2045.879
873.5969, 2061.449
875.5254, 2072.927
877.4539, 2082.005
879.3823, 2092.436
881.3108, 2103.972
883.2393, 2116.825
885.1677, 2130.132
887.0962, 2142.575
889.0247, 2152.768
890.9531, 2148.117
892.8816, 2132.682
894.8101, 2139.709
896.7385, 2166.429
898.6670, 2183.277
900.5955, 2190.520
902.5239, 2199.249
904.4524, 2209.928
906.3809, 2223.448
908.3093, 2239.535
910.2378, 2248.151
912.1663, 2248.231
914.0947, 2256.682
916.0232, 2275.630
917.9517, 2285.402
919.8801, 2282.386
921.8086, 2292.935
923.7371, 2322.717
925.6655, 2344.320
927.5940, 2353.394
929.5225, 2359.668
931.4509, 2363.963
933.3794, 2367.998
935.3079, 2368.589
937.2363, 2386.697
939.1648, 2434.343
941.0933, 2467.336
943.0217, 2474.249
944.9502, 2478.123
946.8787, 2482.050
948.8071, 2483.193
950.7356, 2470.591
952.6641, 2482.128
954.5925, 2544.370
956.5210, 2584.960
958.4495, 2572.989
960.3779, 2577.446
962.3064, 2627.085
964.2349, 2661.744
966.1633, 2661.336
968.0918, 2663.739
970.0203, 2671.916
971.9487, 2689.093
973.8772, 2719.180
975.8057, 2752.394
977.7341, 2787.767
979.6626, 2824.711
981.5911, 2867.437
983.5195, 2904.139
985.4480, 2927.462
987.3765, 2953.682
989.3049, 2987.459
991.2334, 3021.515
993.1619, 3049.011
995.0903, 3086.435
997.0188, 3149.100
998.9473, 3199.904
1000.876, 3219.272
1002.804, 3249.050
1004.733, 3304.128
1006.661, 3356.210
1008.590, 3396.651
1010.518, 3441.599
1012.447, 3496.596
1014.375, 3551.183
1016.303, 3603.199
1018.232, 3656.196
1020.160, 3709.445
1022.089, 3765.218
1024.017, 3825.163
1025.946, 3884.268
1027.874, 3933.505
1029.803, 3998.570
1031.731, 4090.137
1033.660, 4181.163
1035.588, 4275.856
1037.517, 4359.452
1039.445, 4419.650
1041.374, 4491.927
1043.302, 4580.968
1045.230, 4670.179
1047.159, 4754.331
1049.087, 4851.824
1051.016, 4963.421
1052.944, 5089.389
1054.873, 5239.395
1056.801, 5363.928
1058.730, 5452.556
1060.658, 5572.747
1062.587, 5725.912
1064.515, 5902.459
1066.444, 6103.311
1068.372, 6310.583
1070.301, 6523.873
1072.229, 6732.432
1074.157, 6938.340
1076.086, 7185.520
1078.014, 7470.163
1079.943, 7754.365
1081.871, 8046.777
1083.800, 8385.980
1085.728, 8770.597
1087.657, 9193.478
1089.585, 9658.082
1091.514, 10167.27
1093.442, 10731.26
1095.371, 11371.62
1097.299, 12081.49
1099.228, 12836.36
1101.156, 13665.58
1103.084, 14603.08
1105.013, 15643.39
1106.941, 16773.69
1108.870, 18012.38
1110.798, 19388.57
1112.727, 20859.67
1114.655, 22404.97
1116.584, 24010.13
1118.512, 25679.04
1120.441, 27385.29
1122.369, 29123.33
1124.298, 30891.25
1126.226, 32710.14
1128.155, 34526.74
1130.083, 36349.01
1132.011, 38100.09
1133.940, 39773.13
1135.868, 41322.25
1137.797, 42742.01
1139.725, 44012.22
1141.654, 45129.01
1143.582, 46072.16
1145.511, 46846.27
1147.439, 47321.00
1149.368, 47482.11
1151.296, 47377.25
1153.225, 47020.10
1155.153, 46570.12
1157.082, 46060.49
1159.010, 45662.11
1160.938, 45420.31
1162.867, 45458.91
1164.795, 45858.80
1166.724, 46798.36
1168.652, 48310.30
1170.581, 50587.43
1172.509, 53349.21
1174.438, 56441.30
1176.366, 59489.71
1178.295, 62325.73
1180.223, 64619.15
1182.152, 66220.27
1184.080, 67005.16
1186.009, 66763.73
1187.937, 65905.56
1189.865, 64467.61
1191.794, 62661.68
1193.722, 60437.99
1195.651, 58103.88
1197.579, 55677.25
1199.508, 53288.74
1201.436, 50943.96
1203.365, 48722.18
1205.293, 46629.24
1207.222, 44725.88
1209.150, 43009.44
1211.079, 41409.05
1213.007, 39918.72
1214.936, 38518.33
1216.864, 37232.64
1218.792, 36158.48
1220.721, 35232.83
1222.649, 34363.16
1224.578, 33564.93
1226.506, 32851.64
1228.435, 32231.20
1230.363, 31746.51
1232.292, 31303.41
1234.220, 30828.89
1236.149, 30405.35
1238.077, 30080.12
1240.006, 29791.38
1241.934, 29506.08
1243.863, 29291.93
1245.791, 29162.00
1247.719, 29078.29
1249.648, 29042.86
1251.576, 29012.03
1253.505, 28984.72
1255.433, 28970.06
1257.362, 28969.41
1259.290, 28991.26
1261.219, 29025.25
1263.147, 29029.52
1265.076, 29046.67
1267.004, 29149.66
1268.933, 29267.17
1270.861, 29361.53
1272.790, 29407.47
1274.718, 29391.89
1276.646, 29323.54
1278.575, 29235.20
1280.503, 29041.43
1282.432, 28683.06
1284.360, 28313.15
1286.289, 27937.91
1288.217, 27576.29
1290.146, 27233.40
1292.074, 26760.77
1294.003, 26180.87
1295.931, 25653.71
1297.860, 25151.21
1299.788, 24611.53
1301.717, 24048.50
1303.645, 23445.11
1305.573, 22876.15
1307.502, 22409.51
1309.430, 21967.42
1311.359, 21512.18
1313.287, 21073.92
1315.216, 20659.75
1317.144, 20276.04
1319.073, 19925.68
1321.001, 19608.72
1322.930, 19325.61
1324.858, 19088.06
1326.787, 18888.45
1328.715, 18682.96
1330.644, 18473.83
1332.572, 18258.23
1334.500, 18050.79
1336.429, 17876.43
1338.357, 17707.03
1340.286, 17521.96
1342.214, 17343.53
1344.143, 17179.47
1346.071, 17033.45
1348.000, 16912.70
1349.928, 16765.22
1351.857, 16581.84
1353.785, 16434.04
1355.714, 16318.46
1357.642, 16208.19
1359.571, 16090.50
1361.499, 15915.52
1363.427, 15735.54
1365.356, 15618.69
1367.284, 15529.10
1369.213, 15456.83
1371.141, 15379.79
1373.070, 15288.97
1374.998, 15196.88
1376.927, 15103.38
1378.855, 15023.09
1380.784, 14956.26
1382.712, 14901.55
1384.641, 14852.60
1386.569, 14783.33
1388.498, 14706.99
1390.426, 14643.26
1392.354, 14590.39
1394.283, 14555.55
1396.211, 14517.42
1398.140, 14447.57
1400.068, 14416.93
1401.997, 14451.54
1403.925, 14449.60
1405.854, 14401.77
1407.782, 14360.37
1409.711, 14340.03
1411.639, 14411.03
1413.568, 14513.29
1415.496, 14522.21
1417.425, 14529.29
1419.353, 14626.20
1421.281, 14743.10
1423.210, 14845.70
1425.138, 14960.49
1427.067, 15094.31
1428.995, 15223.66
1430.924, 15348.33
1432.852, 15501.42
1434.781, 15674.29
1436.709, 15809.37
1438.638, 15966.64
1440.566, 16261.39
1442.495, 16567.95
1444.423, 16785.69
1446.352, 17002.72
1448.280, 17241.41
1450.208, 17504.48
1452.137, 17787.08
1454.065, 18161.26
1455.994, 18606.63
1457.922, 18933.04
1459.851, 19241.96
1461.779, 19740.03
1463.708, 20299.32
1465.636, 20812.83
1467.565, 21340.46
1469.493, 21902.90
1471.422, 22494.79
1473.350, 23105.74
1475.279, 23798.04
1477.207, 24565.66
1479.135, 25289.12
1481.064, 25986.11
1482.992, 26674.94
1484.921, 27392.44
1486.849, 28202.62
1488.778, 28985.44
1490.706, 29706.15
1492.635, 30331.29
1494.563, 30837.72
1496.492, 31301.98
1498.420, 31714.44
1500.349, 31974.71
1502.277, 32119.58
1504.206, 32204.63
1506.134, 32228.96
1508.063, 32193.88
1509.991, 32087.16
1511.919, 31875.93
1513.848, 31705.85
1515.776, 31607.71
1517.705, 31428.93
1519.633, 31193.33
1521.562, 30966.22
1523.490, 30787.94
1525.419, 30768.21
1527.347, 30724.22
1529.276, 30542.93
1531.204, 30402.98
1533.133, 30348.77
1535.061, 30335.02
1536.990, 30346.20
1538.918, 30248.40
1540.846, 30105.77
1542.775, 30075.55
1544.703, 30021.31
1546.632, 29831.97
1548.560, 29609.68
1550.489, 29377.30
1552.417, 29142.64
1554.346, 28904.31
1556.274, 28630.24
1558.203, 28328.42
1560.131, 28023.62
1562.060, 27697.71
1563.988, 27316.29
1565.917, 26945.35
1567.845, 26610.90
1569.773, 26263.06
1571.702, 25898.80
1573.630, 25587.21
1575.559, 25301.60
1577.487, 24928.09
1579.416, 24576.28
1581.344, 24395.64
1583.273, 24207.99
1585.201, 23949.80
1587.130, 23689.29
1589.058, 23437.53
1590.987, 23209.46
1592.915, 23009.59
1594.844, 22855.28
1596.772, 22709.20
1598.700, 22513.26
1600.629, 22356.06
1602.557, 22294.72
1604.486, 22135.89
1606.414, 21872.85
1608.343, 21640.35
1610.271, 21421.91
1612.200, 21173.49
1614.128, 20919.64
1616.057, 20669.84
1617.985, 20440.90
1619.914, 20237.70
1621.842, 20053.30
1623.771, 19882.72
1625.699, 19685.95
1627.627, 19497.90
1629.556, 19359.80
1631.484, 19265.83
1633.413, 19248.91
1635.341, 19191.96
1637.270, 19071.89
1639.198, 18994.61
1641.127, 18948.50
1643.055, 18910.46
1644.984, 18847.86
1646.912, 18730.24
1648.841, 18582.28
1650.769, 18417.09
1652.698, 18210.41
1654.626, 17962.99
1656.554, 17680.76
1658.483, 17360.35
1660.411, 16984.64
1662.340, 16593.78
1664.268, 16207.61
1666.197, 15818.68
1668.125, 15432.83
1670.054, 14959.20
1671.982, 14446.82
1673.911, 14048.66
1675.839, 13672.27
1677.768, 13257.56
1679.696, 12822.24
1681.625, 12358.16
1683.553, 11967.83
1685.481, 11635.49
1687.410, 11270.48
1689.338, 10910.69
1691.267, 10598.17
1693.195, 10301.42
1695.124, 10010.80
1697.052, 9736.554
1698.981, 9479.354
1700.909, 9236.588
1702.838, 9006.101
1704.766, 8788.345
1706.695, 8575.768
1708.623, 8363.325
1710.552, 8168.931
1712.480, 7992.643
1714.408, 7796.777
1716.337, 7600.746
1718.265, 7434.970
1720.194, 7289.893
1722.122, 7165.175
1724.051, 7036.140
1725.979, 6901.301
1727.908, 6781.799
1729.836, 6676.134
1731.765, 6595.172
1733.693, 6499.959
1735.622, 6364.406
1737.550, 6249.632
1739.479, 6160.688
1741.407, 6067.824
1743.335, 5972.330
1745.264, 5876.694
1747.192, 5782.241
1749.121, 5687.869
1751.049, 5601.945
1752.978, 5523.708
1754.906, 5434.879
1756.835, 5353.672
1758.763, 5322.449
1760.692, 5279.374
1762.620, 5191.674
1764.549, 5120.283
1766.477, 5064.713
1768.406, 4986.921
1770.334, 4905.213
1772.262, 4841.764
1774.191, 4780.989
1776.119, 4716.469
1778.048, 4660.121
1779.976, 4608.813
1781.905, 4544.467
1783.833, 4483.005
1785.762, 4435.367
1787.690, 4405.563
1789.619, 4398.766
1791.547, 4373.413
1793.476, 4333.317
1795.404, 4290.021
1797.333, 4240.192
1799.261, 4166.920
1801.189, 4127.433
1803.118, 4128.742
1805.046, 4073.296
1806.975, 3999.817
1808.903, 3963.430
1810.832, 3940.444
1812.760, 3925.985
1814.689, 3906.783
1816.617, 3880.313
1818.546, 3828.599
1820.474, 3774.493
1822.403, 3742.082
1824.331, 3692.211
1826.260, 3605.404
1828.188, 3591.513
1830.116, 3608.230
1832.045, 3557.219
1833.973, 3487.295
1835.902, 3415.138
1837.830, 3355.252
1839.759, 3306.885
1841.687, 3250.221
1843.616, 3195.578
1845.544, 3154.625
1847.473, 3115.122
1849.401, 3073.942
1851.330, 3050.803
1853.258, 3033.699
1855.187, 2988.999
1857.115, 2941.659
1859.043, 2903.679
1860.972, 2867.255
1862.900, 2831.624
1864.829, 2794.941
1866.757, 2767.202
1868.686, 2770.105
1870.614, 2745.314
1872.543, 2685.191
1874.471, 2659.651
1876.400, 2652.910
1878.328, 2639.173
1880.257, 2618.046
1882.185, 2587.620
1884.114, 2565.496
1886.042, 2549.102
1887.970, 2524.743
1889.899, 2495.539
1891.827, 2462.468
1893.756, 2429.538
1895.684, 2395.550
1897.613, 2370.495
1899.541, 2345.478
1901.470, 2312.167
1903.398, 2267.543
1905.327, 2211.287
1907.255, 2176.233
1909.184, 2144.550
1911.112, 2076.931
1913.041, 2029.828
1914.969, 2026.054
1916.897, 1989.054
1918.826, 1933.945
1920.754, 1890.303
1922.683, 1854.588
1924.611, 1830.588
1926.540, 1808.230
1928.468, 1784.377
1930.397, 1745.422
1932.325, 1704.579
1934.254, 1672.175
1936.182, 1642.173
1938.111, 1612.629
1940.039, 1589.834
1941.968, 1571.750
1943.896, 1553.176
1945.824, 1532.420
1947.753, 1511.174
1949.681, 1494.320
1951.610, 1481.579
1953.538, 1467.273
1955.467, 1437.415
1957.395, 1392.880
1959.324, 1388.397
1961.252, 1391.118
1963.181, 1362.651
1965.109, 1337.965
1967.038, 1323.040
1968.966, 1314.066
1970.895, 1305.832
1972.823, 1288.651
1974.751, 1269.283
1976.680, 1246.647
1978.608, 1238.682
1980.537, 1237.396
1982.465, 1215.542
1984.394, 1194.849
1986.322, 1185.141
1988.251, 1173.247
1990.179, 1161.529
1992.108, 1149.168
1994.036, 1133.828
1995.965, 1116.911
1997.893, 1123.959
1999.822, 1135.364
2001.750, 1118.167
2003.678, 1097.775
2005.607, 1078.629
2007.535, 1069.532
2009.464, 1063.800
2011.392, 1058.266
2013.321, 1046.859
2015.249, 1026.103
2017.178, 1013.589
2019.106, 1006.497
2021.035, 1003.761
2022.963, 997.9638
2024.892, 985.7227
2026.820, 984.9218
2028.749, 986.8212
2030.677, 967.2455
2032.605, 960.9716
2034.534, 967.6438
2036.462, 946.7007
2038.391, 928.2914
2040.319, 940.3698
2042.248, 938.4548
2044.176, 922.9846
2046.105, 921.9894
2048.033, 915.7363
2049.962, 883.0326
2051.890, 868.6505
2053.819, 867.3885
2055.747, 878.0930
2057.676, 886.5917
2059.604, 878.1644
2061.532, 865.3422
2063.461, 851.3132
2065.389, 848.7113
2067.318, 845.6021
2069.246, 837.4405
2071.175, 834.1082
2073.103, 833.9007
2075.032, 837.8678
2076.960, 838.6478
2078.889, 840.9705
2080.817, 832.2452
2082.746, 819.7021
2084.674, 825.7416
2086.603, 809.1660
2088.531, 761.2967
2090.459, 763.0897
2092.388, 777.9855
2094.316, 774.6290
2096.245, 779.7892
2098.173, 792.5632
2100.102, 786.6614
2102.030, 780.9980
2103.959, 790.4222
2105.887, 786.1318
2107.816, 774.8296
2109.744, 770.9937
2111.673, 771.1488
2113.601, 775.2659
2115.530, 771.1904
2117.458, 765.7552
2119.386, 766.4849
2121.315, 762.9503
2123.243, 759.3361
2125.172, 757.7615
2127.100, 752.7522
2129.029, 746.4301
2130.957, 754.2087
2132.886, 766.6583
2134.814, 772.9192
2136.743, 767.2682
2138.671, 751.9952
2140.600, 760.9858
2142.528, 771.7716
2144.457, 765.3687
2146.385, 766.6068
2148.313, 770.3659
2150.242, 762.1182
2152.170, 755.9796
2154.099, 758.0165
2156.027, 779.2966
2157.956, 796.8853
2159.884, 768.5128
2161.813, 759.7093
2163.741, 773.4249
2165.670, 774.7139
2167.598, 773.0367
2169.527, 771.8984
2171.455, 778.8844
2173.384, 784.4365
2175.312, 780.6561
2177.240, 778.9692
2179.169, 777.7628
2181.097, 775.1915
2183.026, 774.8168
2184.954, 788.1843
2186.883, 797.2328
2188.811, 798.5173
2190.740, 789.3555
2192.668, 778.7723
2194.597, 772.2344
2196.525, 776.5540
2198.454, 781.4596
2200.382, 778.2703
2202.311, 776.8852
2204.239, 781.2585
2206.167, 787.1840
2208.096, 787.7631
2210.024, 781.7104
2211.953, 786.7166
2213.881, 795.2015
2215.810, 799.8487
2217.738, 789.6238
2219.667, 773.9788
2221.595, 780.9804
2223.524, 794.4821
2225.452, 807.2461
2227.381, 808.6957
2229.309, 803.4449
2231.238, 791.7992
2233.166, 786.5612
2235.094, 783.8522
2237.023, 764.5206
2238.951, 760.7661
2240.880, 774.9186
2242.808, 767.0216
2244.737, 758.2332
2246.665, 764.1276
2248.594, 766.0541
2250.522, 762.7263
2252.451, 753.7117
2254.379, 747.5336
2256.308, 745.7523
2258.236, 752.2196
2260.165, 756.0771
2262.093, 752.2230
2264.021, 752.6969
2265.950, 754.5267
2267.878, 755.3245
2269.807, 748.9147
2271.735, 740.8823
2273.664, 751.8135
2275.592, 757.1017
2277.521, 750.4620
2279.449, 743.6851
2281.378, 740.8606
2283.306, 749.0616
2285.235, 748.5952
2287.163, 743.6433
2289.092, 744.6267
2291.020, 738.4840
2292.948, 725.9749
2294.877, 719.5238
2296.805, 723.3547
2298.734, 741.2279
2300.662, 731.9597
2302.591, 716.1157
2304.519, 706.2621
2306.448, 700.4529
2308.376, 699.2416
2310.305, 697.6757
2312.233, 702.1106
2314.162, 711.3415
2316.090, 710.4655
2318.019, 704.4271
2319.947, 693.9722
2321.875, 688.2645
2323.804, 680.7310
2325.732, 669.6575
2327.661, 670.0851
2329.589, 670.5484
2331.518, 655.3447
2333.446, 657.8738
2335.375, 673.0870
2337.303, 654.9056
2339.232, 645.0140
2341.160, 652.0944
2343.089, 655.8154
2345.017, 652.8409
2346.946, 642.2500
2348.874, 635.1636
2350.802, 628.2146
2352.731, 623.7840
2354.659, 632.2878
2356.588, 637.7915
2358.516, 623.5933
2360.445, 613.7510
2362.373, 611.0630
2364.302, 622.2178
2366.230, 624.5757
2368.159, 615.3174
2370.087, 607.2628
2372.016, 601.7114
2373.944, 600.0779
2375.873, 596.9946
2377.801, 596.0055
2379.729, 602.5009
2381.658, 601.2114
2383.586, 601.7778
2385.515, 611.1047
2387.443, 613.9053
2389.372, 610.4855
2391.300, 599.9510
2393.229, 593.8524
2395.157, 600.3842
2397.086, 604.2592
2399.014, 604.9890
2400.943, 610.6235
2402.871, 621.1340
2404.800, 623.2748
2406.728, 607.8602
2408.656, 611.6543
2410.585, 620.7901
2412.513, 614.3762
2414.442, 624.4286
2416.370, 639.4697
2418.299, 633.0245
2420.227, 633.7295
2422.156, 636.8828
2424.084, 638.3621
2426.013, 650.6879
2427.941, 654.2619
2429.870, 655.5984
2431.798, 662.8069
2433.727, 673.9352
2435.655, 683.4399
2437.583, 693.0410
2439.512, 699.4643
2441.440, 713.6378
2443.369, 727.8214
2445.297, 745.5621
2447.226, 755.0121
2449.154, 753.1693
2451.083, 758.9343
2453.011, 789.7410
2454.940, 816.7361
2456.868, 825.6057
2458.797, 832.2833
2460.725, 839.2852
2462.654, 859.3081
2464.582, 889.2691
2466.510, 911.5717
2468.439, 911.3017
2470.367, 921.1403
2472.296, 939.6492
2474.224, 962.0988
2476.153, 985.9797
2478.081, 997.8120
2480.010, 995.8229
2481.938, 1007.173
2483.867, 1021.839
2485.795, 1034.019
2487.724, 1026.928
2489.652, 1021.862
2491.581, 1026.134
2493.509, 1028.160
2495.438, 1033.120
2497.366, 1021.262
2499.294, 1011.931
2501.223, 1005.963
2503.151, 999.8711
2505.080, 975.2114
2507.008, 942.6307
2508.937, 930.3091
2510.865, 909.7396
2512.794, 878.2570
2514.722, 872.9637
2516.651, 861.4629
2518.579, 838.3909
2520.508, 820.4534
2522.436, 798.4672
2524.365, 773.4038
2526.293, 757.6958
2528.221, 745.3265
2530.150, 734.0556
2532.078, 730.1502
2534.007, 722.2859
2535.935, 707.9688
2537.864, 684.7675
2539.792, 665.1489
2541.721, 660.7291
2543.649, 656.8688
2545.578, 647.1490
2547.506, 631.4428
2549.435, 617.1939
2551.363, 622.7753
2553.292, 618.6663
2555.220, 600.6680
2557.148, 593.9604
2559.077, 588.9651
2561.005, 581.9578
2562.934, 576.4931
2564.862, 579.3417
2566.791, 575.7355
2568.719, 557.1434
2570.648, 548.5515
2572.576, 556.2052
2574.505, 554.9413
2576.433, 547.0284
2578.362, 541.2063
2580.290, 537.6068
2582.219, 529.0119
2584.147, 524.1194
2586.075, 528.1768
2588.004, 529.1245
2589.932, 521.6562
2591.861, 509.6415
2593.789, 507.1479
2595.718, 511.2719
2597.646, 512.2902
2599.575, 504.7701
2601.503, 493.5213
2603.432, 495.6985
2605.360, 496.6879
2607.289, 489.7595
2609.217, 489.6185
2611.146, 491.9990
2613.074, 481.4873
2615.002, 478.3739
2616.931, 479.6702
2618.859, 476.2529
2620.788, 458.0508
2622.716, 457.5422
2624.645, 467.2261
2626.573, 459.9395
2628.502, 457.7581
2630.430, 451.4502
2632.359, 450.1336
2634.287, 448.7239
2636.216, 441.1768
2638.144, 439.8664
2640.073, 445.1882
2642.001, 450.0822
2643.929, 447.7308
2645.858, 442.0867
2647.786, 438.5823
2649.715, 435.7687
2651.643, 428.0319
2653.572, 424.8697
2655.500, 426.7940
2657.429, 417.8304
2659.357, 412.5651
2661.286, 413.6724
2663.214, 410.5621
2665.143, 410.4269
2667.071, 413.7710
2669.000, 405.5952
2670.928, 402.1545
2672.856, 404.2497
2674.785, 403.9129
2676.713, 399.1299
2678.642, 395.9041
2680.570, 395.7794
2682.499, 393.9473
2684.427, 391.9104
2686.356, 392.7282
2688.284, 386.7841
2690.213, 380.4579
2692.141, 379.5567
2694.070, 371.9764
2695.998, 372.1078
2697.927, 383.1801
2699.855, 385.8007
2701.783, 373.9421
2703.712, 355.5643
2705.640, 350.7154
2707.569, 350.0366
2709.497, 350.9379
2711.426, 358.8451
2713.354, 357.5653
2715.283, 352.0457
2717.211, 348.6331
2719.140, 346.6528
2721.068, 344.0130
2722.997, 339.7367
2724.925, 339.7277
2726.854, 337.9352
2728.782, 333.3548
2730.710, 329.9875
2732.639, 325.1753
2734.567, 319.5839
2736.496, 314.8568
2738.424, 312.6746
2740.353, 311.3713
2742.281, 309.2873
2744.210, 307.1201
2746.138, 303.3553
2748.067, 297.5922
2749.995, 296.3683
2751.924, 299.7401
2753.852, 304.4093
2755.781, 295.1335
2757.709, 296.8952
2759.637, 303.6005
2761.566, 295.8723
2763.494, 291.8311
2765.423, 291.2554
2767.351, 291.6478
2769.280, 284.5407
2771.208, 279.6005
2773.137, 280.5741
2775.065, 276.6252
2776.994, 273.2751
2778.922, 272.4452
2780.851, 278.8225
2782.779, 279.6408
2784.708, 275.7919
2786.636, 269.7766
2788.564, 263.0263
2790.493, 265.0266
2792.421, 275.6456
2794.350, 262.6993
2796.278, 257.1426
2798.207, 263.3537
2800.135, 256.0842
2802.064, 251.3290
2803.992, 250.7861
2805.921, 253.5494
2807.849, 257.0618
2809.778, 258.2943
2811.706, 256.0300
2813.635, 247.2742
2815.563, 241.5812
2817.491, 239.8878
2819.420, 236.8334
2821.348, 238.8627
2823.277, 241.3282
2825.205, 242.9961
2827.134, 232.0046
2829.062, 229.0241
2830.991, 233.9744
2832.919, 228.2390
2834.848, 227.0631
2836.776, 227.3665
2838.705, 220.1101
2840.633, 215.9795
2842.562, 218.9115
2844.490, 219.8052
2846.418, 226.7079
2848.347, 227.1311
2850.275, 222.5495
2852.204, 218.2997
2854.132, 219.4887
2856.061, 218.9384
2857.989, 209.5663
2859.918, 216.7699
2861.846, 221.5287
2863.775, 219.6704
2865.703, 212.7413
2867.632, 208.3429
2869.560, 210.6549
2871.489, 206.1084
2873.417, 200.8146
2875.345, 199.3272
2877.274, 202.0632
2879.202, 210.2657
2881.131, 213.8255
2883.059, 203.3174
2884.988, 192.3700
2886.916, 196.6575
2888.845, 207.8477
2890.773, 206.0335
2892.702, 198.2212
2894.630, 199.9509
2896.559, 194.7256
2898.487, 189.6494
2900.416, 191.5371
2902.344, 192.5327
2904.272, 193.2929
2906.201, 190.5387
2908.129, 184.9116
2910.058, 182.2330
2911.986, 195.3260
2913.915, 191.9265
2915.843, 176.7683
2917.772, 178.6808
2919.700, 179.6664
2921.629, 180.1744
2923.557, 174.9914
2925.486, 172.6651
2927.414, 183.9865
2929.343, 192.0369
2931.271, 187.2446
2933.199, 183.4226
2935.128, 185.1765
2937.056, 185.6758
2938.985, 182.4818
2940.913, 177.2117
2942.842, 171.8344
2944.770, 175.4127
2946.699, 175.9165
2948.627, 171.8627
2950.556, 174.2730
2952.484, 173.2283
2954.413, 167.0769
2956.341, 168.7534
2958.270, 173.4229
2960.198, 179.3109
2962.126, 183.8394
2964.055, 174.0124
2965.983, 169.8013
2967.912, 174.8574
2969.840, 175.9625
2971.769, 173.3319
2973.697, 165.0849
2975.626, 166.0330
2977.554, 169.8427
2979.483, 170.0708
2981.411, 163.1957
2983.340, 171.4683
2985.268, 181.9198
2987.197, 174.3344
2989.125, 174.2101
2991.053, 170.0742
2992.982, 170.8048
2994.910, 163.0617
2996.839, 165.9617
2998.767, 170.8852
3000.696, 159.4619
3002.624, 174.8489
3004.553, 181.3923
3006.481, 171.1146
3008.410, 165.4949
3010.338, 170.2129
3012.267, 173.5519
3014.195, 172.5778
3016.124, 171.0629
3018.052, 167.8254
3019.980, 170.7880
3021.909, 179.5149
3023.837, 185.4617
3025.766, 175.0002
3027.694, 172.9776
3029.623, 189.4217
3031.551, 178.0851
3033.480, 169.5553
3035.408, 175.9516
3037.337, 180.2009
3039.265, 175.5398
3041.194, 176.1587
3043.122, 177.1239
3045.051, 176.0583
3046.979, 181.7064
3048.907, 183.4933
3050.836, 176.1802
3052.764, 177.3728
3054.693, 183.0283
3056.621, 186.1801
3058.550, 184.7937
3060.478, 186.7809
3062.407, 191.4081
3064.335, 198.6989
3066.264, 202.5631
3068.192, 197.7921
3070.121, 199.5291
3072.049, 202.8592
3073.978, 194.2969
3075.906, 196.3052
3077.834, 205.9870
3079.763, 211.5125
3081.691, 204.8163
3083.620, 209.6625
3085.548, 214.9694
3087.477, 214.5584
3089.405, 214.3852
3091.334, 218.2054
3093.262, 219.9528
3095.191, 221.3511
3097.119, 218.3560
3099.048, 227.6432
3100.976, 230.8428
3102.905, 226.0659
3104.833, 226.5288
3106.761, 222.5389
3108.690, 226.2327
3110.618, 249.5020
3112.547, 246.8278
3114.475, 244.3980
3116.404, 247.3721
3118.332, 249.4326
3120.261, 251.1394
3122.189, 262.2471
3124.118, 273.1587
3126.046, 269.7440
3127.975, 290.1082
3129.903, 298.9126
3131.832, 298.6359
3133.760, 295.4441
3135.688, 300.4983
3137.617, 304.5115
3139.545, 309.0092
3141.474, 318.0568
3143.402, 316.9915
3145.331, 326.2200
3147.259, 337.4733
3149.188, 339.3654
3151.116, 356.4965
3153.045, 357.2285
3154.973, 352.0068
3156.902, 353.9596
3158.830, 365.6203
3160.759, 386.8776
3162.687, 401.0060
3164.615, 397.7450
3166.544, 396.7224
3168.472, 405.3179
3170.401, 416.7100
3172.329, 428.1821
3174.258, 454.3333
3176.186, 477.1497
3178.115, 495.1460
3180.043, 510.1091
3181.972, 532.0308
3183.900, 558.4351
3185.829, 586.7231
3187.757, 611.1924
3189.686, 619.1368
3191.614, 656.1749
3193.542, 679.9131
3195.471, 687.8497
3197.399, 709.5696
3199.328, 739.9738
3201.256, 750.9184
3203.185, 745.9753
3205.113, 744.1870
3207.042, 754.0638
3208.970, 747.5558
3210.899, 730.8225
3212.827, 719.6021
3214.756, 735.0563
3216.684, 740.8962
3218.613, 743.9427
3220.541, 747.8633
3222.469, 735.0478
3224.398, 726.4116
3226.326, 728.2132
3228.255, 742.2922
3230.183, 773.6224
3232.112, 796.2300
3234.040, 813.4773
3235.969, 829.6874
3237.897, 845.5862
3239.826, 887.7901
3241.754, 898.3638
3243.683, 903.9954
3245.611, 938.4406
3247.540, 949.6340
3249.468, 949.6352
3251.396, 959.8907
3253.325, 993.5695
3255.253, 1034.518
3257.182, 1079.448
3259.110, 1122.249
3261.039, 1154.934
3262.967, 1167.997
3264.896, 1265.540
3266.824, 1320.675
3268.753, 1362.402
3270.681, 1427.719
3272.610, 1429.750
3274.538, 1436.715
3276.467, 1405.786
3278.395, 1337.936
3280.323, 1299.075
3282.252, 1237.603
3284.180, 1155.466
3286.109, 1081.964
3288.037, 1053.937
3289.966, 1024.114
3291.894, 1015.799
3293.823, 1018.674
3295.751, 1020.411
3297.680, 1016.255
3299.608, 1035.460
3301.537, 1039.970
3303.465, 1043.193
3305.394, 1079.640
3307.322, 1087.701
3309.250, 1100.071
3311.179, 1090.479
3313.107, 1059.766
3315.036, 1074.938
3316.964, 1065.489
3318.893, 1040.742
3320.821, 1011.136
3322.750, 985.4135
3324.678, 929.7888
3326.607, 890.5541
3328.535, 859.1783
3330.464, 833.8440
3332.392, 810.4399
3334.321, 804.6252
3336.249, 779.1855
3338.177, 747.5267
3340.106, 728.8591
3342.034, 697.3336
3343.963, 673.4329
3345.891, 644.9645
3347.820, 620.6443
3349.748, 628.3727
3351.677, 604.2299
3353.605, 590.9620
3355.534, 588.2205
3357.462, 582.3116
3359.391, 546.4135
3361.319, 524.7716
3363.248, 512.2252
3365.176, 504.0602
3367.104, 497.0008
3369.033, 462.9270
3370.961, 468.7380
3372.890, 468.6374
3374.818, 448.9979
3376.747, 429.3557
3378.675, 422.3610
3380.604, 403.9833
3382.532, 393.9489
3384.461, 391.5037
3386.389, 370.9825
3388.318, 353.5485
3390.246, 336.9672
3392.175, 325.4946
3394.103, 317.3412
3396.031, 302.1734
3397.960, 301.7470
3399.888, 291.7296
3401.817, 271.8272
3403.745, 254.3826
3405.674, 259.3061
3407.602, 246.0188
3409.531, 225.3377
3411.459, 214.0989
3413.388, 218.2422
3415.316, 214.6335
3417.245, 209.5370
3419.173, 203.7987
3421.102, 196.6883
3423.030, 187.9378
3424.958, 181.7360
3426.887, 165.1841
3428.815, 159.9770
3430.744, 161.8544
3432.672, 157.5923
3434.601, 147.5990
3436.529, 145.9356
3438.458, 144.7224
3440.386, 141.5333
3442.315, 138.5237
3444.243, 141.5272
3446.172, 143.9128
3448.100, 136.9918
3450.029, 129.6680
3451.957, 131.5399
3453.885, 135.0776
3455.814, 125.4811
3457.742, 115.6145
3459.671, 116.2962
3461.599, 126.3384
3463.528, 116.7029
3465.456, 108.5827
3467.385, 101.0627
3469.313, 103.1656
3471.242, 112.4653
3473.170, 98.64459
3475.099, 104.6410
3477.027, 104.8962
3478.956, 104.4368
3480.884, 104.6248
3482.813, 93.35533
3484.741, 87.59300
3486.669, 89.35642
3488.598, 86.22008
3490.526, 82.50868
3492.455, 91.31196
3494.383, 83.23121
3496.312, 84.62439
3498.240, 81.25104
3500.169, 80.42523
3502.097, 90.41342
3504.026, 80.48214
3505.954, 85.59634
3507.883, 78.57986
3509.811, 74.72556
3511.740, 81.32076
3513.668, 74.65243
3515.596, 82.57918
3517.525, 83.05863
3519.453, 70.94151
3521.382, 63.45491
3523.310, 76.83217
3525.239, 66.44720
3527.167, 69.24823
3529.096, 75.03824
3531.024, 72.25351
3532.953, 62.71788
3534.881, 69.70908
3536.810, 69.61092
3538.738, 66.31285
3540.667, 61.72870
3542.595, 58.43536
3544.523, 58.67947
3546.452, 55.72615
3548.380, 52.81920
3550.309, 51.54160
3552.237, 55.38740
3554.166, 61.52390
3556.094, 55.06627
3558.023, 63.15665
3559.951, 64.54372
3561.880, 53.71981
3563.808, 44.23503
3565.737, 49.79021
3567.665, 56.08226
3569.594, 65.09594
3571.522, 56.71366
3573.450, 51.71364
3575.379, 53.00299
3577.307, 43.35273
3579.236, 49.52818
3581.164, 55.23241
3583.093, 56.75039
3585.021, 53.07901
3586.950, 48.89007
3588.878, 52.79857
3590.807, 53.78279
3592.735, 52.20451
3594.664, 45.61618
3596.592, 41.99798
3598.521, 44.70179
3600.449, 41.87013
3602.377, 43.08979
3604.306, 43.18710
3606.234, 41.88577
3608.163, 43.40207
3610.091, 47.22840
3612.020, 40.99614
3613.948, 46.91096
3615.877, 47.75747
3617.805, 49.30086
3619.734, 49.09769
3621.662, 43.36540
3623.591, 39.09574
3625.519, 40.10135
3627.448, 42.21031
3629.376, 45.26048
3631.304, 42.39111
3633.233, 34.22255
3635.161, 43.93016
3637.090, 51.95857
3639.018, 52.95034
3640.947, 40.20040
3642.875, 32.89270
3644.804, 36.52600
3646.732, 25.98591
3648.661, 22.99249
3650.589, 38.27324
3652.518, 41.19318
3654.446, 35.38546
3656.375, 32.95143
3658.303, 34.75508
3660.231, 25.62385
3662.160, 25.89388
3664.088, 25.25085
3666.017, 32.10606
3667.945, 38.71746
3669.874, 31.77572
3671.802, 26.55052
3673.731, 25.94983
3675.659, 32.43018
3677.588, 33.41557
3679.516, 34.21867
3681.445, 34.18998
3683.373, 16.88421
3685.302, 26.95609
3687.230, 33.21621
3689.158, 35.21739
3691.087, 35.44705
3693.015, 39.44339
3694.944, 46.95456
3696.872, 30.56728
3698.801, 26.79741
3700.729, 22.11183
3702.658, 20.57445
3704.586, 26.13513
3706.515, 31.14434
3708.443, 21.55612
3710.372, 29.67144
3712.300, 19.46802
3714.229, 31.10264
3716.157, 31.32407
3718.085, 26.49653
3720.014, 31.58018
3721.942, 18.85526
3723.871, 34.83135
3725.799, 32.16964
3727.728, 31.97158
3729.656, 26.25426
3731.585, 21.24515
3733.513, 27.14594
3735.442, 26.01860
3737.370, 28.42712
3739.299, 11.56188
3741.227, 15.38644
3743.156, 30.31947
3745.084, 32.98068
3747.012, 20.78594
3748.941, 21.37686
3750.869, 22.88808
3752.798, 29.91603
3754.726, 37.00711
3756.655, 31.93424
3758.583, 22.49872
3760.512, 20.50873
3762.440, 21.32728
3764.369, 26.77193
3766.297, 29.43170
3768.226, 24.58317
3770.154, 26.44478
3772.083, 25.80324
3774.011, 20.02364
3775.939, 30.22966
3777.868, 29.35983
3779.796, 32.86026
3781.725, 27.59670
3783.653, 24.95314
3785.582, 25.75924
3787.510, 25.84303
3789.439, 24.95835
3791.367, 27.19994
3793.296, 22.32511
3795.224, 24.68082
3797.153, 18.05143
3799.081, 13.90674
3801.010, 18.09996
3802.938, 23.64323
3804.866, 23.82967
3806.795, 24.17910
3808.723, 18.93437
3810.652, 25.53330
3812.580, 29.39620
3814.509, 29.59434
3816.437, 26.52007
3818.366, 20.70175
3820.294, 20.47018
3822.223, 19.98529
3824.151, 23.70838
3826.080, 28.87445
3828.008, 22.88271
3829.937, 22.17298
3831.865, 25.81992
3833.793, 23.67793
3835.722, 32.13560
3837.650, 33.81768
3839.579, 24.32808
3841.507, 28.17733
3843.436, 21.60994
3845.364, 25.92656
3847.293, 39.10216
3849.221, 35.76270
3851.150, 19.33337
3853.078, 26.13961
3855.007, 24.59560
3856.935, 26.45530
3858.864, 24.17601
3860.792, 18.97663
3862.720, 19.83286
3864.649, 24.21008
3866.577, 21.90674
3868.506, 29.77530
3870.434, 27.17471
3872.363, 16.55091
3874.291, 23.75661
3876.220, 25.58813
3878.148, 23.39415
3880.077, 25.31460
3882.005, 29.31647
3883.934, 32.98833
3885.862, 26.70632
3887.791, 17.05115
3889.719, 19.61008
3891.647, 29.70473
3893.576, 19.89609
3895.504, 14.15498
3897.433, 26.08510
3899.361, 32.27355
3901.290, 21.44179
3903.218, 28.88453
3905.147, 16.07159
3907.075, 34.01735
3909.004, 25.38550
3910.932, 31.77589
3912.861, 39.56192
3914.789, 32.96733
3916.718, 27.56062
3918.646, 17.68059
3920.574, 20.57477
3922.503, 22.67564
3924.431, 30.92478
3926.360, 35.22702
3928.288, 32.65332
3930.217, 29.08548
3932.145, 25.68749
3934.074, 22.97644
3936.002, 28.20225
3937.931, 42.09921
3939.859, 25.98416
3941.788, 36.43036
3943.716, 29.87523
3945.645, 41.48909
3947.573, 33.11210
3949.501, 29.90016
3951.430, 37.41564
3953.358, 31.85829
3955.287, 27.88507
3957.215, 19.31083
3959.144, 35.79494
3961.072, 31.43344
3963.001, 26.71481
3964.929, 23.25533
3966.858, 16.68532
3968.786, 14.95036
3970.715, 23.29095
3972.643, 28.61053
3974.572, 20.27573
3976.500, 28.56169
3978.428, 27.80712
3980.357, 30.33561
3982.285, 30.41039
3984.214, 26.67738
3986.142, 18.88717
3988.071, 21.45007
3989.999, 28.04315
3991.928, 26.52692
3993.856, 21.85855
3995.785, 22.08884
3997.713, 14.58238
3999.642, 12.13038
4001.570, 20.05758
4003.499, 29.82318
4005.427, 18.00858
4007.355, 14.74162
4009.284, 25.98452
4011.212, 21.09629
4013.141, 18.19081
4015.069, 27.52261
4016.998, 11.83156
4018.926, 23.84402
4020.855, 13.44486
4022.783, 20.50043
4024.712, 31.93849
4026.640, 37.62683
4028.569, 25.73882
4030.497, 14.19256
4032.426, 17.55519
4034.354, 25.24005
4036.282, 31.60022
4038.211, 30.43663
4040.139, 11.35746
4042.068, 21.11131
4043.996, 31.15682
4045.925, 27.15790
4047.853, 20.68627
4049.782, 24.43753
4051.710, 25.84752
4053.639, 18.00552
4055.567, 21.84780
4057.496, 26.24806
4059.424, 24.52961
4061.353, 25.35599
4063.281, 25.11458
4065.209, 22.51022
4067.138, 36.35976
4069.066, 14.10556
4070.995, 31.12009
4072.923, 28.27586
4074.852, 20.31874
4076.780, 21.51071
4078.709, 23.29655
4080.637, 35.44452
4082.566, 34.95986
4084.494, 23.22574
4086.423, 18.99551
4088.351, 23.69240
4090.280, 29.04699
4092.208, 22.54396
4094.136, 29.87735
4096.065, 27.91286
4097.993, 24.69851
4099.922, 28.36013
4101.851, 28.53823
4103.779, 24.36796
4105.707, 25.35110
4107.636, 27.34148
4109.564, 15.25298
4111.493, 15.54970
4113.421, 20.26822
4115.350, 13.55908
4117.278, 17.38431
4119.207, 26.28155
4121.135, 16.04447
4123.063, 25.91408
4124.992, 22.01066
4126.920, 30.97241
4128.849, 16.10002
4130.777, 10.95367
4132.706, 29.65526
4134.634, 34.86326
4136.563, 16.51531
4138.491, 4.661033
4140.420, 6.747818
4142.348, 22.28974
4144.276, 25.39561
4146.205, 15.85881
4148.134, 19.09566
4150.062, 27.65555
4151.990, 31.13345
4153.919, 24.17610
4155.848, 27.98161
4157.776, 16.35502
4159.704, 28.54391
4161.633, 18.91047
4163.562, 20.91395
4165.490, 36.50730
4167.418, 27.50623
4169.347, 16.08329
4171.275, 21.42875
4173.204, 15.76709
4175.132, 22.17129
4177.061, 26.42932
4178.989, 19.70836
4180.917, 19.44726
4182.846, 19.16013
4184.774, 19.11145
4186.703, 33.46806
4188.631, 32.83369
4190.560, 13.68620
4192.488, 14.80266
4194.417, 27.16859
4196.345, 36.14653
4198.273, 11.98605
4200.202, 25.85698
4202.131, 23.88593
4204.059, 15.20605
4205.987, 22.16483
4207.916, 26.81797
4209.845, 32.36243
4211.773, 15.49162
4213.701, 23.61294
4215.630, 26.26070
4217.559, 20.74092
4219.487, 29.59043
4221.415, 30.32753
4223.344, 23.10128
4225.272, 15.10037
4227.201, 9.722496
4229.129, 20.20203
4231.058, 19.62531
4232.986, 24.01445
4234.915, 30.55159
4236.843, 33.36331
4238.771, 15.29220
4240.700, 34.50760
4242.628, 20.15413
4244.557, 24.70582
4246.485, 28.19496
4248.414, 28.43372
4250.342, 11.33754
4252.271, 28.51467
4254.199, 22.29935
4256.128, 28.43261
4258.056, 14.15213
4259.984, 17.26539
4261.913, 25.26274
4263.842, 18.41223
4265.770, 16.76111
4267.698, 20.05120
4269.627, 14.60120
4271.556, 9.662802
4273.484, 13.63509
4275.412, 19.96048
4277.341, 22.33914
4279.270, 22.51349
4281.198, 22.72694
4283.126, 17.57935
4285.055, 14.07388
4286.983, 17.06938
4288.912, 14.63982
4290.840, 22.70242
4292.769, 30.67514
4294.697, 14.77411
4296.625, 18.93194
4298.554, 29.87000
4300.482, 22.61326
4302.411, 35.53738
4304.339, 21.24037
4306.268, 22.56437
4308.196, 28.60553
4310.125, 23.04091
4312.053, 16.92840
4313.981, 22.19881
4315.910, 19.62818
4317.839, 24.99128
4319.767, 31.14890
4321.695, 10.64409
4323.624, 18.65512
4325.553, 16.65994
4327.481, 22.51864
4329.409, 15.78676
##END=



