##NAMES=Szaibelyite
##RRUFFID=R060372
##IDEAL CHEMISTRY=MgBO_2_(OH)
##LOCALITY=Blind Mountain, Pioche, Lincoln County, Nevada, USA
##OWNER=RRUFF
##SOURCE=Michael Scott
##DESCRIPTION=White silky fibers in radial mats
##STATUS=The identification of this mineral is not yet confirmed
##URL=https://www.rruff.net/odr/rruff_sample/R060372
##FILETYPE=Raman Processed
##RAMAN WAVELENGTH=532

95.17188, 110.1589
97.10034, 113.1237
99.02881, 116.8316
100.9573, 123.9711
102.8857, 131.4567
104.8142, 138.4249
106.7427, 145.1009
108.6711, 151.8963
110.5996, 159.3057
112.5281, 167.3619
114.4565, 174.4644
116.3850, 181.1570
118.3135, 186.9863
120.2419, 191.4318
122.1704, 194.3229
124.0989, 197.0847
126.0273, 199.3790
127.9558, 201.1371
129.8843, 204.7013
131.8127, 210.8808
133.7412, 218.3790
135.6697, 226.1165
137.5981, 235.1666
139.5266, 242.6988
141.4551, 247.1751
143.3835, 248.0629
145.3120, 249.2886
147.2405, 251.4031
149.1689, 254.1474
151.0974, 257.2229
153.0259, 260.6365
154.9543, 264.4449
156.8828, 269.0048
158.8113, 274.4212
160.7397, 279.3481
162.6682, 283.0674
164.5967, 285.8954
166.5251, 289.0688
168.4536, 292.7135
170.3821, 296.4868
172.3105, 300.2445
174.2390, 304.0529
176.1675, 307.6596
178.0959, 311.3311
180.0244, 314.8694
181.9529, 317.5714
183.8813, 319.0511
185.8098, 319.9597
187.7383, 320.7577
189.6667, 321.4787
191.5952, 322.1539
193.5237, 322.7781
195.4521, 323.4069
197.3806, 324.1538
199.3091, 324.3750
201.2375, 325.0895
203.1660, 327.4637
205.0945, 332.6470
207.0229, 337.5736
208.9514, 342.0552
210.8799, 346.2185
212.8083, 347.7881
214.7368, 344.9767
216.6653, 340.3940
218.5938, 336.9010
220.5222, 334.6835
222.4507, 333.0349
224.3792, 331.6803
226.3076, 330.6270
228.2361, 329.9838
230.1646, 329.6823
232.0930, 329.8339
234.0215, 330.4863
235.9500, 331.8947
237.8784, 333.4367
239.8069, 334.8285
241.7354, 335.9352
243.6638, 337.4538
245.5923, 339.5191
247.5208, 341.9622
249.4492, 344.5967
251.3777, 347.9840
253.3062, 350.9588
255.2346, 353.2565
257.1631, 354.8507
259.0916, 355.8638
261.0200, 355.8309
262.9485, 355.3543
264.8770, 355.1326
266.8054, 355.4205
268.7339, 355.7286
270.6624, 355.7751
272.5908, 355.5772
274.5193, 355.8253
276.4478, 356.8405
278.3762, 358.2591
280.3047, 359.7064
282.2332, 360.7286
284.1616, 362.2492
286.0901, 364.8447
288.0186, 368.4182
289.9470, 371.7135
291.8755, 375.2578
293.8040, 378.2628
295.7324, 379.5211
297.6609, 378.4626
299.5894, 377.2302
301.5178, 376.4390
303.4463, 376.0755
305.3748, 375.9050
307.3032, 375.9265
309.2317, 376.0921
311.1602, 376.1624
313.0886, 375.6506
315.0171, 376.2828
316.9456, 378.8350
318.8740, 383.2624
320.8025, 387.4258
322.7310, 392.5455
324.6594, 396.5203
326.5879, 397.8943
328.5164, 396.0875
330.4448, 393.5721
332.3733, 390.3236
334.3018, 386.6620
336.2302, 384.2124
338.1587, 383.4741
340.0872, 383.4589
342.0156, 383.8516
343.9441, 385.0112
345.8726, 385.6092
347.8010, 385.1361
349.7295, 384.1086
351.6580, 383.6723
353.5864, 384.1037
355.5149, 384.6447
357.4434, 384.7918
359.3718, 384.0695
361.3003, 384.3345
363.2288, 386.4272
365.1572, 389.0562
367.0857, 390.6844
369.0142, 390.9538
370.9426, 390.9872
372.8711, 391.0684
374.7996, 391.2114
376.7280, 391.6533
378.6565, 392.5841
380.5850, 393.7069
382.5134, 394.7914
384.4419, 395.7711
386.3704, 396.9644
388.2988, 398.5857
390.2273, 400.5194
392.1558, 402.2092
394.0842, 403.3250
396.0127, 404.5497
397.9412, 406.2500
399.8696, 408.5450
401.7981, 410.5493
403.7266, 412.1986
405.6550, 413.4445
407.5835, 414.2206
409.5120, 414.4684
411.4404, 414.3542
413.3689, 413.8199
415.2974, 412.8393
417.2258, 412.1885
419.1543, 411.9195
421.0828, 411.9862
423.0112, 412.4937
424.9397, 413.5678
426.8682, 414.5764
428.7966, 415.3711
430.7251, 416.0081
432.6536, 416.5999
434.5820, 416.7275
436.5105, 417.1844
438.4390, 418.4849
440.3674, 420.5377
442.2959, 422.4289
444.2244, 423.4915
446.1528, 424.4860
448.0813, 426.1526
450.0098, 428.5004
451.9382, 431.3202
453.8667, 435.7632
455.7952, 440.8112
457.7236, 443.5709
459.6521, 441.4130
461.5806, 438.8820
463.5090, 437.6668
465.4375, 438.1099
467.3660, 438.9850
469.2944, 440.2290
471.2229, 441.9442
473.1514, 444.1894
475.0798, 447.1999
477.0083, 450.2480
478.9368, 453.1046
480.8652, 455.6961
482.7937, 458.1915
484.7222, 460.5577
486.6506, 462.7914
488.5791, 465.1279
490.5076, 468.1229
492.4360, 469.9370
494.3645, 470.2047
496.2930, 469.6529
498.2214, 469.1025
500.1499, 468.4953
502.0784, 468.0317
504.0068, 467.5967
505.9353, 467.1661
507.8638, 467.0760
509.7922, 467.1752
511.7207, 467.5467
513.6492, 468.3490
515.5776, 469.5662
517.5061, 470.8633
519.4346, 472.2799
521.3630, 473.8216
523.2915, 475.5290
525.2200, 478.1704
527.1484, 480.0417
529.0769, 480.6187
531.0054, 480.2630
532.9338, 479.7288
534.8623, 478.6629
536.7908, 477.8102
538.7192, 477.4394
540.6477, 477.6165
542.5762, 477.8820
544.5046, 478.2696
546.4331, 478.7451
548.3616, 479.3981
550.2900, 480.4367
552.2185, 481.0590
554.1470, 480.7935
556.0754, 480.1865
558.0039, 480.2430
559.9324, 480.9875
561.8608, 482.1423
563.7893, 483.7385
565.7178, 485.6427
567.6462, 487.5073
569.5747, 489.5150
571.5032, 491.1811
573.4316, 492.0980
575.3601, 492.1404
577.2886, 492.5694
579.2170, 493.8971
581.1455, 495.5216
583.0740, 496.9190
585.0024, 497.7684
586.9309, 499.2976
588.8594, 502.1064
590.7878, 505.6111
592.7163, 508.5545
594.6448, 510.4309
596.5732, 512.5925
598.5017, 515.4246
600.4302, 518.8148
602.3586, 522.4976
604.2871, 526.3642
606.2156, 530.5280
608.1440, 535.1978
610.0725, 540.4078
612.0010, 545.6014
613.9294, 551.7582
615.8579, 557.1912
617.7864, 560.5942
619.7148, 560.5617
621.6433, 561.2051
623.5718, 563.8288
625.5002, 566.7722
627.4287, 567.5931
629.3572, 565.5631
631.2856, 563.2373
633.2141, 561.2886
635.1426, 559.5698
637.0710, 557.7202
638.9995, 555.3494
640.9280, 553.2592
642.8564, 551.8683
644.7849, 551.0831
646.7134, 550.2313
648.6418, 549.1691
650.5703, 548.2110
652.4988, 547.4475
654.4272, 546.8098
656.3557, 546.6805
658.2842, 547.6208
660.2126, 548.6498
662.1411, 548.9359
664.0696, 548.4387
665.9980, 547.9703
667.9265, 547.5509
669.8550, 547.3727
671.7834, 547.6625
673.7119, 548.6731
675.6404, 549.8895
677.5688, 551.3370
679.4973, 552.9192
681.4258, 554.5032
683.3542, 556.2394
685.2827, 557.4723
687.2112, 557.6747
689.1396, 557.0730
691.0681, 557.0900
692.9966, 558.4246
694.9250, 559.6857
696.8535, 560.3179
698.7820, 560.5182
700.7104, 561.0865
702.6389, 562.5417
704.5674, 563.9244
706.4958, 564.6782
708.4243, 564.5325
710.3528, 564.7073
712.2813, 565.3165
714.2097, 566.0346
716.1382, 566.6075
718.0667, 567.0258
719.9951, 567.6121
721.9236, 568.8624
723.8521, 570.1100
725.7805, 570.8251
727.7090, 570.1431
729.6375, 570.4553
731.5659, 571.7624
733.4944, 574.1251
735.4229, 578.0052
737.3513, 584.0886
739.2798, 588.8818
741.2083, 591.1630
743.1367, 591.6951
745.0652, 591.4200
746.9937, 588.7502
748.9221, 587.0526
750.8506, 587.1353
752.7791, 588.2742
754.7075, 588.9727
756.6360, 588.9129
758.5645, 589.2426
760.4929, 590.5798
762.4214, 592.6840
764.3499, 594.7142
766.2783, 596.5974
768.2068, 598.4980
770.1353, 600.3909
772.0637, 602.2218
773.9922, 603.9601
775.9207, 605.4508
777.8491, 606.8828
779.7776, 608.4246
781.7061, 610.0411
783.6345, 611.2754
785.5630, 611.3289
787.4915, 612.0204
789.4199, 614.0866
791.3484, 617.4806
793.2769, 621.3240
795.2053, 625.7750
797.1338, 630.4233
799.0623, 635.4753
800.9907, 640.9351
802.9192, 644.8118
804.8477, 645.8853
806.7761, 646.6564
808.7046, 647.7686
810.6331, 649.3500
812.5615, 651.9338
814.4900, 655.2931
816.4185, 660.1287
818.3469, 666.2286
820.2754, 673.5424
822.2039, 683.7848
824.1323, 697.2098
826.0608, 713.2130
827.9893, 733.7624
829.9177, 758.9391
831.8462, 778.2478
833.7747, 795.0892
835.7031, 801.6957
837.6316, 790.9787
839.5601, 764.2310
841.4885, 740.1808
843.4170, 720.3552
845.3455, 703.7419
847.2739, 690.6027
849.2024, 681.1741
851.1309, 672.6635
853.0593, 664.1804
854.9878, 657.3875
856.9163, 653.8536
858.8447, 652.9918
860.7732, 651.6732
862.7017, 648.7490
864.6301, 646.3345
866.5586, 645.3069
868.4871, 645.7180
870.4155, 646.5632
872.3440, 648.0593
874.2725, 649.7333
876.2009, 651.5821
878.1294, 653.4590
880.0579, 654.8264
881.9863, 655.1578
883.9148, 655.5388
885.8433, 656.4779
887.7717, 657.8636
889.7002, 658.8118
891.6287, 659.0617
893.5571, 659.2330
895.4856, 659.3254
897.4141, 659.5328
899.3425, 660.3458
901.2710, 662.1866
903.1995, 663.9822
905.1279, 665.3028
907.0564, 666.3079
908.9849, 667.4166
910.9133, 668.4943
912.8418, 669.7094
914.7703, 671.1589
916.6987, 672.6422
918.6272, 673.8596
920.5557, 674.8796
922.4841, 675.4608
924.4126, 675.0286
926.3411, 674.4088
928.2695, 674.6329
930.1980, 675.9143
932.1265, 677.8412
934.0549, 680.9730
935.9834, 684.3813
937.9119, 687.0303
939.8403, 688.8481
941.7688, 690.0305
943.6973, 689.9150
945.6257, 689.5397
947.5542, 689.6135
949.4827, 690.1277
951.4111, 690.9318
953.3396, 692.1442
955.2681, 693.5416
957.1965, 695.1281
959.1250, 697.0129
961.0535, 698.4634
962.9819, 699.0150
964.9104, 699.6130
966.8389, 700.8090
968.7673, 702.4454
970.6958, 703.8288
972.6243, 704.4473
974.5527, 705.5299
976.4812, 707.8980
978.4097, 711.1914
980.3381, 713.7647
982.2666, 715.3828
984.1951, 716.6055
986.1235, 717.5457
988.0520, 718.1641
989.9805, 718.2640
991.9089, 717.5859
993.8374, 717.1871
995.7659, 717.2449
997.6943, 717.7238
999.6228, 718.6918
1001.551, 720.3310
1003.480, 721.6324
1005.408, 722.3602
1007.337, 722.8089
1009.265, 723.0774
1011.194, 723.0822
1013.122, 723.6290
1015.051, 725.3859
1016.979, 727.1914
1018.907, 728.2955
1020.836, 728.9675
1022.764, 730.2564
1024.693, 732.7078
1026.621, 735.0790
1028.550, 736.7493
1030.478, 737.9188
1032.407, 739.3624
1034.335, 740.9943
1036.264, 742.7863
1038.192, 744.9426
1040.121, 747.0682
1042.049, 748.5025
1043.978, 749.0971
1045.906, 749.9037
1047.834, 751.6563
1049.763, 753.3190
1051.691, 754.1089
1053.620, 753.9885
1055.548, 754.0923
1057.477, 754.9828
1059.405, 755.8431
1061.334, 756.2167
1063.262, 756.2414
1065.191, 756.9325
1067.119, 758.6219
1069.048, 760.4211
1070.976, 761.7502
1072.905, 762.9957
1074.833, 764.9078
1076.761, 767.6542
1078.690, 770.0297
1080.618, 771.6939
1082.547, 772.7878
1084.475, 773.3558
1086.404, 773.2350
1088.332, 773.3757
1090.261, 773.7922
1092.189, 774.6437
1094.118, 776.3217
1096.046, 778.7004
1097.975, 780.4449
1099.903, 781.0854
1101.832, 781.7830
1103.760, 782.9101
1105.688, 784.3549
1107.617, 786.0299
1109.545, 788.0800
1111.474, 789.9161
1113.402, 791.2668
1115.331, 792.4805
1117.259, 793.8152
1119.188, 795.2763
1121.116, 796.6061
1123.045, 797.7903
1124.973, 798.7757
1126.902, 799.4241
1128.830, 799.9023
1130.759, 800.7932
1132.687, 802.5211
1134.615, 803.9319
1136.544, 804.1602
1138.472, 804.1772
1140.401, 805.1456
1142.329, 807.2897
1144.258, 809.3835
1146.186, 811.0109
1148.115, 812.5917
1150.043, 814.3304
1151.972, 816.1989
1153.900, 818.0406
1155.829, 819.9017
1157.757, 821.7081
1159.686, 823.3782
1161.614, 825.0636
1163.542, 827.0652
1165.471, 829.5309
1167.399, 831.8187
1169.328, 833.6425
1171.256, 835.4123
1173.185, 837.2424
1175.113, 839.1229
1177.042, 841.8816
1178.970, 846.6996
1180.899, 851.0984
1182.827, 854.2694
1184.756, 856.4675
1186.684, 858.2774
1188.613, 859.4806
1190.541, 860.4456
1192.469, 861.6241
1194.398, 862.1554
1196.326, 861.0994
1198.255, 858.7570
1200.183, 856.7269
1202.112, 855.1182
1204.040, 854.3520
1205.969, 855.0114
1207.897, 856.5709
1209.826, 857.9302
1211.754, 858.9803
1213.683, 859.8295
1215.611, 859.5652
1217.540, 859.6461
1219.468, 861.5423
1221.396, 865.2596
1223.325, 867.4166
1225.253, 866.9533
1227.182, 866.5087
1229.110, 866.7934
1231.039, 867.6803
1232.967, 868.9721
1234.896, 870.7520
1236.824, 872.7154
1238.753, 875.0829
1240.681, 877.3712
1242.610, 878.9354
1244.538, 879.9745
1246.467, 882.3245
1248.395, 887.1017
1250.323, 891.2571
1252.252, 893.3430
1254.180, 894.9018
1256.109, 897.8164
1258.037, 902.5834
1259.966, 906.4203
1261.894, 908.8901
1263.823, 910.9503
1265.751, 913.1887
1267.680, 915.3185
1269.608, 916.5010
1271.537, 916.4445
1273.465, 917.1194
1275.394, 920.0335
1277.322, 922.9801
1279.250, 924.2612
1281.179, 924.1084
1283.107, 924.5453
1285.036, 925.8809
1286.964, 927.3021
1288.893, 928.6483
1290.821, 929.7429
1292.750, 930.3995
1294.678, 930.5190
1296.607, 930.3927
1298.535, 929.6055
1300.464, 929.1988
1302.392, 929.7512
1304.321, 931.0325
1306.249, 932.4798
1308.177, 934.1938
1310.106, 935.5316
1312.034, 935.8583
1313.963, 936.1180
1315.891, 937.3281
1317.820, 939.0469
1319.748, 939.5159
1321.677, 938.1149
1323.605, 937.3151
1325.534, 938.2386
1327.462, 939.9849
1329.391, 941.7542
1331.319, 943.4225
1333.248, 945.8251
1335.176, 949.4011
1337.104, 952.7592
1339.033, 955.4503
1340.961, 957.5479
1342.890, 959.2872
1344.818, 960.7988
1346.747, 961.4231
1348.675, 960.9193
1350.604, 960.1827
1352.532, 959.4778
1354.461, 959.0760
1356.389, 959.4454
1358.318, 960.7715
1360.246, 962.1562
1362.175, 963.1265
1364.103, 964.4160
1366.031, 966.6090
1367.960, 969.2538
1369.888, 971.2861
1371.817, 972.2867
1373.745, 973.9034
1375.674, 977.5442
1377.602, 980.9023
1379.531, 982.2719
1381.459, 982.0254
1383.388, 982.8840
1385.316, 985.7698
1387.245, 988.1215
1389.173, 989.3241
1391.102, 990.1017
1393.030, 990.8310
1394.958, 991.5523
1396.887, 992.7610
1398.815, 994.9404
1400.744, 997.0060
1402.672, 998.8158
1404.601, 1000.472
1406.529, 1001.840
1408.458, 1002.943
1410.386, 1004.558
1412.315, 1007.037
1414.243, 1009.028
1416.172, 1009.826
1418.100, 1010.187
1420.029, 1010.875
1421.957, 1011.909
1423.885, 1012.844
1425.814, 1013.738
1427.742, 1014.679
1429.671, 1015.544
1431.599, 1016.618
1433.528, 1017.962
1435.456, 1019.525
1437.385, 1021.920
1439.313, 1025.591
1441.242, 1029.136
1443.170, 1032.190
1445.099, 1034.924
1447.027, 1037.448
1448.956, 1039.763
1450.884, 1042.020
1452.813, 1044.097
1454.741, 1046.319
1456.669, 1049.150
1458.598, 1051.822
1460.526, 1053.590
1462.455, 1054.441
1464.383, 1055.075
1466.312, 1055.214
1468.240, 1055.496
1470.169, 1056.787
1472.097, 1057.714
1474.026, 1056.697
1475.954, 1054.375
1477.883, 1053.661
1479.811, 1055.144
1481.740, 1057.117
1483.668, 1059.170
1485.596, 1061.551
1487.525, 1064.592
1489.453, 1067.817
1491.382, 1069.997
1493.310, 1070.580
1495.239, 1071.462
1497.167, 1073.215
1499.096, 1075.195
1501.024, 1077.506
1502.953, 1079.894
1504.881, 1081.491
1506.810, 1082.272
1508.738, 1083.244
1510.667, 1084.747
1512.595, 1086.327
1514.523, 1087.869
1516.452, 1089.213
1518.380, 1089.996
1520.309, 1089.904
1522.237, 1090.224
1524.166, 1091.334
1526.094, 1092.407
1528.023, 1093.272
1529.951, 1094.082
1531.880, 1095.042
1533.808, 1096.229
1535.737, 1097.402
1537.665, 1098.168
1539.594, 1099.521
1541.522, 1102.075
1543.450, 1104.806
1545.379, 1106.581
1547.307, 1107.532
1549.236, 1109.321
1551.164, 1112.922
1553.093, 1115.243
1555.021, 1115.535
1556.950, 1115.036
1558.878, 1113.785
1560.807, 1112.479
1562.735, 1112.957
1564.664, 1115.547
1566.592, 1117.735
1568.521, 1118.795
1570.449, 1119.818
1572.377, 1121.255
1574.306, 1122.665
1576.234, 1123.419
1578.163, 1123.585
1580.091, 1124.008
1582.020, 1125.159
1583.948, 1125.887
1585.877, 1125.621
1587.805, 1125.305
1589.734, 1125.513
1591.662, 1126.265
1593.591, 1127.690
1595.519, 1129.856
1597.448, 1131.767
1599.376, 1133.051
1601.304, 1134.027
1603.233, 1134.426
1605.161, 1134.777
1607.090, 1135.880
1609.018, 1137.765
1610.947, 1139.987
1612.875, 1142.917
1614.804, 1145.409
1616.732, 1146.682
1618.661, 1147.736
1620.589, 1149.140
1622.518, 1150.830
1624.446, 1152.769
1626.375, 1155.005
1628.303, 1157.022
1630.231, 1159.040
1632.160, 1160.478
1634.088, 1160.472
1636.017, 1160.277
1637.945, 1161.661
1639.874, 1164.560
1641.802, 1166.870
1643.731, 1167.884
1645.659, 1169.363
1647.588, 1172.332
1649.516, 1175.154
1651.445, 1177.177
1653.373, 1178.409
1655.302, 1178.521
1657.230, 1177.260
1659.158, 1177.143
1661.087, 1179.022
1663.015, 1181.146
1664.944, 1183.359
1666.872, 1185.161
1668.801, 1185.902
1670.729, 1185.716
1672.658, 1185.774
1674.586, 1186.043
1676.515, 1186.957
1678.443, 1188.975
1680.372, 1191.476
1682.300, 1194.241
1684.229, 1197.394
1686.157, 1201.338
1688.085, 1206.018
1690.014, 1209.285
1691.942, 1210.254
1693.871, 1211.167
1695.799, 1211.893
1697.728, 1212.982
1699.656, 1215.319
1701.585, 1217.970
1703.513, 1219.250
1705.442, 1219.109
1707.370, 1219.297
1709.299, 1220.236
1711.227, 1221.130
1713.156, 1221.613
1715.084, 1222.333
1717.012, 1223.932
1718.941, 1225.881
1720.869, 1226.905
1722.798, 1226.710
1724.726, 1227.332
1726.655, 1229.438
1728.583, 1231.192
1730.512, 1231.833
1732.440, 1232.484
1734.369, 1234.069
1736.297, 1236.134
1738.226, 1237.554
1740.154, 1238.230
1742.083, 1238.855
1744.011, 1239.151
1745.939, 1239.853
1747.868, 1241.775
1749.796, 1243.488
1751.725, 1244.076
1753.653, 1244.021
1755.582, 1244.230
1757.510, 1244.763
1759.439, 1245.748
1761.367, 1247.473
1763.296, 1248.865
1765.224, 1248.912
1767.153, 1249.017
1769.081, 1249.826
1771.010, 1251.126
1772.938, 1253.105
1774.866, 1255.783
1776.795, 1256.479
1778.723, 1254.182
1780.652, 1252.887
1782.580, 1254.286
1784.509, 1256.261
1786.437, 1257.743
1788.366, 1259.031
1790.294, 1260.363
1792.223, 1261.733
1794.151, 1263.815
1796.080, 1267.047
1798.008, 1268.872
1799.937, 1267.286
1801.865, 1266.396
1803.793, 1269.210
1805.722, 1272.983
1807.650, 1274.963
1809.579, 1275.547
1811.507, 1276.213
1813.436, 1277.083
1815.364, 1277.676
1817.293, 1277.607
1819.221, 1278.082
1821.150, 1280.048
1823.078, 1282.434
1825.007, 1284.327
1826.935, 1285.988
1828.864, 1288.073
1830.792, 1290.522
1832.720, 1292.372
1834.649, 1292.691
1836.577, 1293.930
1838.506, 1297.825
1840.434, 1301.315
1842.363, 1302.283
1844.291, 1302.176
1846.220, 1303.371
1848.148, 1305.717
1850.077, 1306.377
1852.005, 1304.523
1853.934, 1303.436
1855.862, 1303.932
1857.791, 1304.600
1859.719, 1304.743
1861.647, 1305.400
1863.576, 1307.888
1865.504, 1311.500
1867.433, 1314.038
1869.361, 1314.959
1871.290, 1317.245
1873.218, 1321.957
1875.147, 1325.611
1877.075, 1327.677
1879.004, 1328.532
1880.932, 1327.502
1882.861, 1326.164
1884.789, 1326.600
1886.718, 1328.537
1888.646, 1329.622
1890.574, 1329.630
1892.503, 1330.796
1894.431, 1334.014
1896.360, 1336.607
1898.288, 1337.431
1900.217, 1337.642
1902.145, 1337.618
1904.074, 1337.555
1906.002, 1337.643
1907.931, 1337.991
1909.859, 1339.191
1911.788, 1341.544
1913.716, 1342.700
1915.645, 1341.208
1917.573, 1340.942
1919.501, 1344.574
1921.430, 1348.321
1923.358, 1349.193
1925.287, 1348.902
1927.215, 1350.401
1929.144, 1353.383
1931.072, 1354.733
1933.001, 1353.911
1934.929, 1353.691
1936.858, 1354.838
1938.786, 1355.953
1940.715, 1356.345
1942.643, 1357.012
1944.572, 1358.888
1946.500, 1361.206
1948.428, 1362.694
1950.357, 1363.425
1952.285, 1364.651
1954.214, 1366.590
1956.142, 1368.040
1958.071, 1368.362
1959.999, 1368.981
1961.928, 1371.063
1963.856, 1372.426
1965.785, 1371.490
1967.713, 1369.804
1969.642, 1369.097
1971.570, 1369.357
1973.499, 1370.567
1975.427, 1372.871
1977.355, 1373.649
1979.284, 1371.615
1981.212, 1371.311
1983.141, 1374.641
1985.069, 1378.446
1986.998, 1381.565
1988.926, 1383.823
1990.855, 1384.776
1992.783, 1384.775
1994.712, 1384.721
1996.640, 1384.694
1998.569, 1384.617
2000.497, 1385.091
2002.426, 1384.833
2004.354, 1383.080
2006.282, 1381.964
2008.211, 1381.992
2010.139, 1382.787
2012.068, 1384.160
2013.996, 1386.001
2015.925, 1388.425
2017.853, 1391.254
2019.782, 1393.704
2021.710, 1395.878
2023.639, 1396.543
2025.567, 1394.860
2027.496, 1394.346
2029.424, 1396.407
2031.353, 1398.432
2033.281, 1398.839
2035.209, 1399.028
2037.138, 1399.960
2039.066, 1401.458
2040.995, 1403.666
2042.923, 1406.355
2044.852, 1407.605
2046.780, 1406.980
2048.709, 1407.140
2050.637, 1409.252
2052.566, 1410.387
2054.494, 1409.497
2056.423, 1408.533
2058.351, 1408.326
2060.280, 1408.457
2062.208, 1408.365
2064.136, 1408.601
2066.065, 1410.572
2067.993, 1413.898
2069.922, 1415.113
2071.850, 1413.829
2073.779, 1414.177
2075.707, 1417.042
2077.636, 1419.215
2079.564, 1419.985
2081.493, 1419.734
2083.421, 1418.317
2085.350, 1416.509
2087.278, 1414.345
2089.207, 1412.692
2091.135, 1413.265
2093.063, 1415.465
2094.992, 1416.389
2096.920, 1415.727
2098.849, 1415.183
2100.777, 1414.189
2102.706, 1414.206
2104.634, 1416.531
2106.563, 1417.994
2108.491, 1416.569
2110.420, 1415.874
2112.348, 1418.785
2114.277, 1422.387
2116.205, 1424.061
2118.134, 1424.257
2120.062, 1423.112
2121.990, 1421.057
2123.919, 1421.292
2125.847, 1424.271
2127.776, 1426.117
2129.704, 1425.531
2131.633, 1425.669
2133.561, 1428.236
2135.490, 1429.650
2137.418, 1427.329
2139.347, 1425.045
2141.275, 1425.860
2143.204, 1427.683
2145.132, 1428.279
2147.061, 1428.125
2148.989, 1428.401
2150.917, 1429.067
2152.846, 1428.275
2154.774, 1425.620
2156.703, 1424.995
2158.631, 1427.239
2160.560, 1429.160
2162.488, 1429.583
2164.417, 1429.805
2166.345, 1430.846
2168.274, 1431.341
2170.202, 1430.385
2172.131, 1429.014
2174.059, 1428.135
2175.988, 1427.912
2177.916, 1428.648
2179.844, 1430.230
2181.773, 1431.362
2183.701, 1431.836
2185.630, 1433.136
2187.558, 1435.485
2189.487, 1437.084
2191.415, 1437.164
2193.344, 1437.342
2195.272, 1438.661
2197.201, 1439.609
2199.129, 1439.576
2201.058, 1439.010
2202.986, 1437.672
2204.915, 1436.627
2206.843, 1437.842
2208.771, 1440.480
2210.700, 1441.740
2212.628, 1441.662
2214.557, 1441.779
2216.485, 1441.957
2218.414, 1442.964
2220.342, 1444.924
2222.271, 1446.584
2224.199, 1447.620
2226.128, 1448.214
2228.056, 1449.071
2229.985, 1448.877
2231.913, 1445.923
2233.842, 1443.311
2235.770, 1443.801
2237.698, 1445.827
2239.627, 1447.915
2241.555, 1449.622
2243.484, 1449.319
2245.412, 1447.322
2247.341, 1447.233
2249.269, 1449.049
2251.198, 1449.193
2253.126, 1447.043
2255.055, 1446.051
2256.983, 1447.230
2258.912, 1448.650
2260.840, 1449.982
2262.769, 1451.322
2264.697, 1452.786
2266.625, 1454.059
2268.554, 1455.114
2270.482, 1455.726
2272.411, 1455.055
2274.339, 1454.297
2276.268, 1455.623
2278.196, 1458.000
2280.125, 1458.752
2282.053, 1458.246
2283.982, 1458.681
2285.910, 1460.257
2287.839, 1461.000
2289.767, 1460.212
2291.696, 1460.374
2293.624, 1461.669
2295.552, 1463.600
2297.481, 1466.933
2299.409, 1469.350
2301.338, 1470.020
2303.266, 1469.928
2305.195, 1468.834
2307.123, 1468.030
2309.052, 1468.923
2310.980, 1470.142
2312.909, 1470.013
2314.837, 1469.301
2316.766, 1469.246
2318.694, 1469.796
2320.623, 1471.046
2322.551, 1472.993
2324.479, 1473.463
2326.408, 1472.339
2328.336, 1473.242
2330.265, 1476.863
2332.193, 1478.092
2334.122, 1475.061
2336.050, 1473.525
2337.979, 1475.941
2339.907, 1477.709
2341.836, 1476.926
2343.764, 1476.371
2345.693, 1477.303
2347.621, 1478.675
2349.550, 1480.098
2351.478, 1481.470
2353.406, 1482.497
2355.335, 1483.484
2357.263, 1485.032
2359.192, 1486.558
2361.120, 1487.044
2363.049, 1486.683
2364.977, 1486.351
2366.906, 1485.984
2368.834, 1484.262
2370.763, 1480.854
2372.691, 1478.782
2374.620, 1478.305
2376.548, 1478.421
2378.477, 1479.230
2380.405, 1480.454
2382.333, 1482.562
2384.262, 1483.697
2386.190, 1482.056
2388.119, 1481.260
2390.047, 1482.467
2391.976, 1484.349
2393.904, 1487.116
2395.833, 1489.311
2397.761, 1489.320
2399.690, 1489.183
2401.618, 1490.317
2403.547, 1492.312
2405.475, 1495.649
2407.404, 1498.877
2409.332, 1499.437
2411.260, 1498.195
2413.189, 1497.170
2415.117, 1496.502
2417.046, 1496.446
2418.974, 1497.141
2420.903, 1498.729
2422.831, 1501.228
2424.760, 1504.037
2426.688, 1507.100
2428.617, 1508.551
2430.545, 1507.425
2432.474, 1506.538
2434.402, 1506.255
2436.331, 1506.150
2438.259, 1506.417
2440.188, 1507.001
2442.116, 1508.262
2444.044, 1509.803
2445.973, 1512.071
2447.901, 1513.640
2449.830, 1511.578
2451.758, 1511.104
2453.687, 1517.492
2455.615, 1523.614
2457.544, 1523.520
2459.472, 1520.792
2461.401, 1518.437
2463.329, 1516.386
2465.258, 1514.705
2467.186, 1513.480
2469.115, 1512.843
2471.043, 1512.703
2472.971, 1512.436
2474.900, 1512.284
2476.828, 1513.464
2478.757, 1515.661
2480.685, 1517.169
2482.614, 1517.925
2484.542, 1518.890
2486.471, 1520.114
2488.399, 1521.444
2490.328, 1523.046
2492.256, 1523.419
2494.185, 1521.572
2496.113, 1521.404
2498.042, 1524.178
2499.970, 1525.841
2501.898, 1525.579
2503.827, 1525.619
2505.755, 1527.079
2507.684, 1526.492
2509.612, 1521.583
2511.541, 1517.873
2513.469, 1517.967
2515.398, 1518.765
2517.326, 1519.086
2519.255, 1520.104
2521.183, 1523.294
2523.112, 1525.500
2525.040, 1523.897
2526.969, 1522.338
2528.897, 1523.876
2530.825, 1525.831
2532.754, 1526.628
2534.682, 1526.751
2536.611, 1526.137
2538.539, 1525.681
2540.468, 1526.149
2542.396, 1527.310
2544.325, 1529.002
2546.253, 1530.925
2548.182, 1533.074
2550.110, 1534.962
2552.039, 1535.682
2553.967, 1535.586
2555.896, 1534.928
2557.824, 1534.264
2559.752, 1535.964
2561.681, 1539.059
2563.609, 1539.672
2565.538, 1538.339
2567.466, 1538.689
2569.395, 1540.538
2571.323, 1540.568
2573.252, 1538.759
2575.180, 1539.889
2577.109, 1544.045
2579.037, 1545.059
2580.966, 1542.724
2582.894, 1541.905
2584.823, 1542.987
2586.751, 1544.906
2588.679, 1548.543
2590.608, 1549.699
2592.536, 1547.691
2594.465, 1546.165
2596.393, 1545.307
2598.322, 1545.526
2600.250, 1547.210
2602.179, 1548.173
2604.107, 1547.916
2606.036, 1547.025
2607.964, 1544.031
2609.893, 1543.861
2611.821, 1548.338
2613.750, 1551.373
2615.678, 1551.609
2617.606, 1551.138
2619.535, 1549.677
2621.463, 1549.181
2623.392, 1550.818
2625.320, 1551.962
2627.249, 1551.661
2629.177, 1551.640
2631.106, 1552.416
2633.034, 1553.364
2634.963, 1554.896
2636.891, 1555.681
2638.820, 1555.236
2640.748, 1554.200
2642.677, 1551.632
2644.605, 1550.166
2646.533, 1550.639
2648.462, 1551.874
2650.390, 1554.318
2652.319, 1555.711
2654.247, 1555.461
2656.176, 1553.603
2658.104, 1548.461
2660.033, 1544.686
2661.961, 1544.956
2663.890, 1545.917
2665.818, 1545.811
2667.747, 1546.065
2669.675, 1547.653
2671.604, 1549.094
2673.532, 1549.260
2675.460, 1549.392
2677.389, 1550.427
2679.317, 1551.264
2681.246, 1551.605
2683.174, 1551.352
2685.103, 1549.975
2687.031, 1548.763
2688.960, 1548.452
2690.888, 1548.711
2692.817, 1549.650
2694.745, 1550.887
2696.674, 1551.793
2698.602, 1553.493
2700.531, 1557.364
2702.459, 1560.781
2704.387, 1561.887
2706.316, 1561.997
2708.244, 1561.202
2710.173, 1560.532
2712.101, 1561.402
2714.030, 1561.724
2715.958, 1559.819
2717.887, 1558.145
2719.815, 1557.275
2721.744, 1558.247
2723.672, 1563.606
2725.601, 1567.500
2727.529, 1565.675
2729.458, 1563.307
2731.386, 1562.776
2733.314, 1562.931
2735.243, 1563.748
2737.171, 1564.426
2739.100, 1564.965
2741.028, 1564.792
2742.957, 1562.553
2744.885, 1561.417
2746.814, 1564.269
2748.742, 1566.538
2750.671, 1565.827
2752.599, 1565.142
2754.528, 1564.769
2756.456, 1565.840
2758.385, 1569.745
2760.313, 1573.068
2762.241, 1574.283
2764.170, 1574.676
2766.098, 1573.827
2768.027, 1573.595
2769.955, 1575.148
2771.884, 1575.778
2773.812, 1574.404
2775.741, 1572.830
2777.669, 1571.384
2779.598, 1570.508
2781.526, 1570.723
2783.455, 1570.559
2785.383, 1569.518
2787.312, 1568.824
2789.240, 1569.189
2791.168, 1568.539
2793.097, 1565.605
2795.025, 1564.284
2796.954, 1565.187
2798.882, 1566.013
2800.811, 1566.623
2802.739, 1566.717
2804.668, 1566.311
2806.596, 1565.510
2808.525, 1564.027
2810.453, 1565.090
2812.382, 1569.025
2814.310, 1570.277
2816.239, 1567.910
2818.167, 1566.197
2820.095, 1565.159
2822.024, 1565.492
2823.952, 1567.029
2825.881, 1567.223
2827.809, 1566.091
2829.738, 1565.584
2831.666, 1565.520
2833.595, 1565.265
2835.523, 1564.778
2837.452, 1563.721
2839.380, 1562.462
2841.309, 1561.827
2843.237, 1561.784
2845.166, 1562.179
2847.094, 1562.638
2849.022, 1561.686
2850.951, 1560.351
2852.879, 1560.116
2854.808, 1560.688
2856.736, 1561.917
2858.665, 1563.605
2860.593, 1566.638
2862.522, 1568.942
2864.450, 1568.017
2866.379, 1566.271
2868.307, 1565.045
2870.236, 1564.470
2872.164, 1565.419
2874.093, 1565.995
2876.021, 1564.977
2877.949, 1563.867
2879.878, 1563.426
2881.806, 1563.102
2883.735, 1561.459
2885.663, 1561.992
2887.592, 1566.891
2889.520, 1569.958
2891.449, 1569.005
2893.377, 1568.332
2895.306, 1569.558
2897.234, 1570.063
2899.163, 1569.488
2901.091, 1569.677
2903.020, 1570.896
2904.948, 1571.741
2906.876, 1571.951
2908.805, 1571.380
2910.733, 1569.732
2912.662, 1570.709
2914.590, 1573.708
2916.519, 1572.607
2918.447, 1568.498
2920.376, 1567.185
2922.304, 1568.274
2924.233, 1571.197
2926.161, 1574.460
2928.090, 1573.740
2930.018, 1571.370
2931.947, 1570.273
2933.875, 1570.209
2935.803, 1572.268
2937.732, 1573.657
2939.660, 1570.502
2941.589, 1567.664
2943.517, 1569.962
2945.446, 1571.976
2947.374, 1569.573
2949.303, 1567.638
2951.231, 1568.239
2953.160, 1568.846
2955.088, 1568.303
2957.017, 1568.283
2958.945, 1569.962
2960.874, 1570.536
2962.802, 1569.304
2964.730, 1569.977
2966.659, 1573.544
2968.587, 1574.505
2970.516, 1571.872
2972.444, 1571.148
2974.373, 1572.023
2976.301, 1570.942
2978.230, 1568.516
2980.158, 1568.730
2982.087, 1570.342
2984.015, 1568.640
2985.944, 1565.615
2987.872, 1565.367
2989.801, 1566.053
2991.729, 1565.489
2993.657, 1564.665
2995.586, 1564.772
2997.514, 1564.822
2999.443, 1563.755
3001.371, 1563.067
3003.300, 1563.978
3005.228, 1564.382
3007.157, 1563.252
3009.085, 1562.123
3011.014, 1561.286
3012.942, 1560.787
3014.871, 1560.891
3016.799, 1561.280
3018.728, 1562.098
3020.656, 1562.237
3022.584, 1561.623
3024.513, 1560.738
3026.441, 1559.646
3028.370, 1559.119
3030.298, 1559.063
3032.227, 1559.849
3034.155, 1560.547
3036.084, 1559.058
3038.012, 1557.208
3039.941, 1557.514
3041.869, 1558.116
3043.798, 1557.424
3045.726, 1556.691
3047.655, 1556.916
3049.583, 1556.865
3051.511, 1556.390
3053.440, 1554.988
3055.368, 1552.237
3057.297, 1550.196
3059.225, 1549.375
3061.154, 1549.382
3063.082, 1550.271
3065.011, 1550.880
3066.939, 1551.118
3068.868, 1550.696
3070.796, 1549.899
3072.725, 1550.519
3074.653, 1551.567
3076.582, 1550.586
3078.510, 1549.203
3080.438, 1549.927
3082.367, 1550.634
3084.295, 1548.972
3086.224, 1547.578
3088.152, 1548.337
3090.081, 1548.376
3092.009, 1545.405
3093.938, 1543.638
3095.866, 1543.886
3097.795, 1544.071
3099.723, 1544.071
3101.652, 1543.075
3103.580, 1541.085
3105.509, 1540.947
3107.437, 1542.177
3109.365, 1542.126
3111.294, 1541.616
3113.222, 1542.367
3115.151, 1543.940
3117.079, 1546.567
3119.008, 1548.691
3120.936, 1548.338
3122.865, 1548.323
3124.793, 1551.232
3126.722, 1552.540
3128.650, 1550.032
3130.579, 1549.592
3132.507, 1553.623
3134.436, 1556.032
3136.364, 1556.626
3138.292, 1554.756
3140.221, 1551.221
3142.149, 1551.528
3144.078, 1553.974
3146.006, 1553.175
3147.935, 1550.956
3149.863, 1549.857
3151.792, 1549.374
3153.720, 1549.047
3155.649, 1549.534
3157.577, 1553.010
3159.506, 1553.752
3161.434, 1548.491
3163.363, 1544.814
3165.291, 1544.248
3167.219, 1545.322
3169.148, 1547.977
3171.076, 1549.982
3173.005, 1551.221
3174.933, 1550.790
3176.862, 1549.717
3178.790, 1550.934
3180.719, 1552.486
3182.647, 1551.339
3184.576, 1550.259
3186.504, 1551.964
3188.433, 1553.505
3190.361, 1554.354
3192.290, 1554.090
3194.218, 1552.134
3196.146, 1550.296
3198.075, 1548.550
3200.003, 1548.766
3201.932, 1550.600
3203.860, 1550.650
3205.789, 1549.370
3207.717, 1547.428
3209.646, 1546.094
3211.574, 1547.440
3213.503, 1549.302
3215.431, 1550.316
3217.360, 1550.276
3219.288, 1548.400
3221.217, 1546.870
3223.145, 1546.162
3225.073, 1546.463
3227.002, 1547.956
3228.930, 1546.350
3230.859, 1542.339
3232.787, 1540.234
3234.716, 1539.473
3236.644, 1538.760
3238.573, 1538.353
3240.501, 1538.675
3242.430, 1538.875
3244.358, 1537.652
3246.287, 1537.490
3248.215, 1539.949
3250.144, 1539.868
3252.072, 1535.144
3254.000, 1532.214
3255.929, 1530.958
3257.857, 1529.745
3259.786, 1528.440
3261.714, 1526.436
3263.643, 1524.390
3265.571, 1523.134
3267.500, 1522.316
3269.428, 1521.575
3271.357, 1521.365
3273.285, 1521.558
3275.214, 1523.118
3277.142, 1526.591
3279.071, 1528.136
3280.999, 1527.509
3282.927, 1525.610
3284.856, 1522.930
3286.784, 1520.568
3288.713, 1518.803
3290.641, 1518.664
3292.570, 1518.536
3294.498, 1517.448
3296.427, 1516.297
3298.355, 1514.639
3300.284, 1514.919
3302.212, 1517.421
3304.141, 1517.849
3306.069, 1516.108
3307.998, 1516.185
3309.926, 1516.997
3311.854, 1516.339
3313.783, 1514.762
3315.711, 1512.230
3317.640, 1510.318
3319.568, 1510.361
3321.497, 1509.943
3323.425, 1507.584
3325.354, 1507.516
3327.282, 1509.870
3329.211, 1511.760
3331.139, 1512.602
3333.068, 1510.505
3334.996, 1507.230
3336.925, 1504.660
3338.853, 1503.691
3340.781, 1506.125
3342.710, 1508.196
3344.638, 1508.739
3346.567, 1508.205
3348.495, 1506.391
3350.424, 1507.415
3352.352, 1510.563
3354.281, 1509.409
3356.209, 1506.092
3358.138, 1503.552
3360.066, 1501.982
3361.995, 1502.294
3363.923, 1502.603
3365.852, 1502.532
3367.780, 1501.982
3369.708, 1501.004
3371.637, 1499.869
3373.565, 1498.756
3375.494, 1497.796
3377.422, 1497.673
3379.351, 1500.830
3381.279, 1503.932
3383.208, 1503.422
3385.136, 1503.333
3387.065, 1505.999
3388.993, 1507.088
3390.922, 1506.080
3392.850, 1506.111
3394.779, 1506.964
3396.707, 1505.566
3398.635, 1503.162
3400.564, 1501.639
3402.492, 1500.447
3404.421, 1499.443
3406.349, 1498.272
3408.278, 1496.257
3410.206, 1497.210
3412.135, 1502.195
3414.063, 1503.043
3415.992, 1500.763
3417.920, 1498.388
3419.849, 1496.758
3421.777, 1498.323
3423.706, 1499.120
3425.634, 1495.677
3427.563, 1494.225
3429.491, 1496.551
3431.419, 1498.435
3433.348, 1499.610
3435.276, 1500.726
3437.205, 1501.102
3439.133, 1498.078
3441.062, 1494.891
3442.990, 1493.903
3444.919, 1494.610
3446.847, 1498.059
3448.776, 1497.875
3450.704, 1492.660
3452.633, 1492.512
3454.561, 1495.980
3456.490, 1497.184
3458.418, 1496.343
3460.346, 1492.449
3462.275, 1488.750
3464.203, 1487.033
3466.132, 1485.203
3468.060, 1482.011
3469.989, 1482.498
3471.917, 1485.649
3473.846, 1485.057
3475.774, 1483.031
3477.703, 1483.170
3479.631, 1483.823
3481.560, 1484.518
3483.488, 1484.491
3485.417, 1483.486
3487.345, 1482.592
3489.273, 1481.848
3491.202, 1480.735
3493.130, 1479.697
3495.059, 1480.185
3496.987, 1480.430
3498.916, 1479.164
3500.844, 1477.547
3502.773, 1475.907
3504.701, 1474.373
3506.630, 1473.124
3508.558, 1474.143
3510.487, 1476.182
3512.415, 1476.539
3514.344, 1476.628
3516.272, 1477.410
3518.200, 1478.872
3520.129, 1481.553
3522.057, 1480.969
3523.986, 1477.102
3525.914, 1478.858
3527.843, 1483.010
3529.771, 1483.588
3531.700, 1483.650
3533.628, 1484.895
3535.557, 1487.615
3537.485, 1491.639
3539.414, 1501.157
3541.342, 1515.774
3543.271, 1528.528
3545.199, 1540.357
3547.127, 1546.791
3549.056, 1562.811
3550.984, 1595.791
3552.913, 1639.498
3554.841, 1698.474
3556.770, 1749.970
3558.698, 1787.588
3560.627, 1781.685
3562.555, 1754.176
3564.484, 1725.019
3566.412, 1699.281
3568.341, 1682.443
3570.269, 1661.842
3572.198, 1636.459
3574.126, 1604.723
3576.054, 1570.861
3577.983, 1544.635
3579.911, 1525.019
3581.840, 1512.549
3583.768, 1501.388
3585.697, 1488.776
3587.625, 1480.599
3589.554, 1476.575
3591.482, 1471.669
3593.411, 1466.637
3595.339, 1462.698
3597.268, 1459.883
3599.196, 1458.138
3601.125, 1458.376
3603.053, 1460.754
3604.981, 1459.549
3606.910, 1455.587
3608.838, 1451.660
3610.767, 1448.541
3612.695, 1447.363
3614.624, 1446.664
3616.552, 1446.090
3618.481, 1445.842
3620.409, 1445.851
3622.338, 1445.087
3624.266, 1444.924
3626.195, 1448.701
3628.123, 1451.965
3630.052, 1451.887
3631.980, 1451.413
3633.908, 1450.785
3635.837, 1449.766
3637.765, 1448.148
3639.694, 1444.503
3641.622, 1441.452
3643.551, 1441.970
3645.479, 1442.303
3647.408, 1441.987
3649.336, 1441.307
3651.265, 1440.545
3653.193, 1440.279
3655.122, 1440.464
3657.050, 1440.872
3658.979, 1441.516
3660.907, 1442.328
3662.835, 1442.738
3664.764, 1442.638
3666.692, 1441.203
3668.621, 1439.560
3670.549, 1439.073
3672.478, 1439.469
3674.406, 1441.518
3676.335, 1440.202
3678.263, 1435.118
3680.192, 1435.343
3682.120, 1437.941
3684.049, 1437.775
3685.977, 1437.346
3687.906, 1437.827
3689.834, 1438.666
3691.762, 1439.701
3693.691, 1439.600
3695.619, 1439.110
3697.548, 1440.697
3699.476, 1441.483
3701.405, 1439.386
3703.333, 1436.385
3705.262, 1432.770
3707.190, 1430.424
3709.119, 1429.049
3711.047, 1427.467
3712.976, 1426.734
3714.904, 1428.495
3716.833, 1429.051
3718.761, 1427.795
3720.689, 1426.120
3722.618, 1424.803
3724.546, 1426.769
3726.475, 1428.641
3728.403, 1427.574
3730.332, 1427.790
3732.260, 1429.816
3734.189, 1428.222
3736.117, 1425.200
3738.046, 1426.593
3739.974, 1428.898
3741.903, 1430.814
3743.831, 1430.873
3745.760, 1428.968
3747.688, 1425.351
3749.616, 1421.674
3751.545, 1421.547
3753.473, 1422.333
3755.402, 1422.613
3757.330, 1423.762
3759.259, 1425.636
3761.187, 1424.486
3763.116, 1422.298
3765.044, 1422.748
3766.973, 1423.268
3768.901, 1422.450
3770.830, 1421.741
3772.758, 1421.231
3774.687, 1421.358
3776.615, 1421.205
3778.543, 1418.772
3780.472, 1417.372
3782.400, 1419.493
3784.329, 1417.572
3786.257, 1412.958
3788.186, 1413.483
3790.114, 1415.180
3792.043, 1414.764
3793.971, 1412.903
3795.900, 1408.984
3797.828, 1408.460
3799.757, 1410.193
3801.685, 1412.228
3803.614, 1412.122
3805.542, 1407.620
3807.470, 1403.976
3809.399, 1402.167
3811.327, 1400.358
3813.256, 1398.857
3815.184, 1398.757
3817.113, 1397.974
3819.041, 1395.233
3820.970, 1393.898
3822.898, 1393.915
3824.827, 1392.803
3826.755, 1391.826
3828.684, 1392.910
3830.612, 1393.403
3832.541, 1392.575
3834.469, 1392.682
3836.397, 1392.911
3838.326, 1389.302
3840.254, 1386.720
3842.183, 1389.557
3844.111, 1389.780
3846.040, 1386.308
3847.968, 1384.704
3849.897, 1385.110
3851.825, 1388.893
3853.754, 1391.513
3855.682, 1391.559
3857.611, 1389.915
3859.539, 1387.398
3861.468, 1386.990
3863.396, 1386.629
3865.324, 1384.694
3867.253, 1381.913
3869.181, 1378.678
3871.110, 1381.100
3873.038, 1384.972
3874.967, 1383.319
3876.895, 1380.483
3878.824, 1377.681
3880.752, 1375.673
3882.681, 1374.232
3884.609, 1371.839
3886.538, 1370.495
3888.466, 1372.078
3890.395, 1373.206
3892.323, 1373.333
3894.251, 1372.535
3896.180, 1371.844
3898.108, 1373.176
3900.037, 1374.192
3901.965, 1374.141
3903.894, 1373.846
3905.822, 1373.258
3907.751, 1371.455
3909.679, 1370.234
3911.608, 1370.746
3913.536, 1371.880
3915.465, 1373.216
3917.393, 1372.014
3919.322, 1369.984
3921.250, 1368.625
3923.178, 1368.131
3925.107, 1368.555
3927.035, 1367.551
3928.964, 1366.382
3930.892, 1368.297
3932.821, 1369.210
3934.749, 1365.788
3936.678, 1367.871
3938.606, 1373.028
3940.535, 1371.879
3942.463, 1369.161
3944.392, 1367.387
3946.320, 1367.656
3948.249, 1369.637
3950.177, 1369.629
3952.105, 1368.381
3954.034, 1365.161
3955.962, 1364.562
3957.891, 1367.903
3959.819, 1368.884
3961.748, 1367.850
3963.676, 1364.606
3965.605, 1362.154
3967.533, 1361.469
3969.462, 1361.702
3971.390, 1362.249
3973.319, 1361.436
3975.247, 1360.697
3977.176, 1360.659
3979.104, 1360.894
3981.032, 1360.765
3982.961, 1357.179
3984.889, 1354.189
3986.818, 1355.283
3988.746, 1355.621
3990.675, 1355.043
3992.603, 1355.512
3994.532, 1355.617
3996.460, 1353.638
3998.389, 1352.186
4000.317, 1351.639
4002.246, 1349.033
4004.174, 1346.208
4006.103, 1346.095
4008.031, 1345.365
4009.959, 1343.443
4011.888, 1341.519
4013.816, 1340.563
4015.745, 1342.050
4017.673, 1344.215
4019.602, 1346.517
4021.530, 1346.854
4023.459, 1344.820
4025.387, 1337.222
4027.316, 1331.820
4029.244, 1332.788
4031.173, 1334.024
4033.101, 1334.988
4035.030, 1333.833
4036.958, 1332.973
4038.886, 1333.508
4040.815, 1331.457
4042.743, 1328.216
4044.672, 1329.770
4046.600, 1330.320
4048.529, 1327.258
4050.457, 1323.593
4052.386, 1320.296
4054.314, 1319.403
4056.243, 1319.598
4058.171, 1320.855
4060.100, 1319.822
4062.028, 1317.312
4063.957, 1317.493
4065.885, 1317.666
4067.813, 1316.590
4069.742, 1313.728
4071.670, 1310.060
4073.599, 1309.004
4075.527, 1308.650
4077.456, 1308.128
4079.384, 1306.911
4081.313, 1305.212
4083.241, 1302.719
4085.170, 1302.206
4087.098, 1306.206
4089.027, 1308.975
4090.955, 1310.262
4092.884, 1311.084
4094.812, 1310.851
4096.740, 1308.856
4098.669, 1306.242
4100.598, 1303.477
4102.526, 1301.938
4104.454, 1300.711
4106.383, 1299.542
4108.312, 1298.305
4110.240, 1296.964
4112.168, 1294.655
4114.097, 1293.600
4116.025, 1294.918
4117.954, 1295.113
4119.882, 1294.709
4121.811, 1295.336
4123.739, 1296.676
4125.667, 1298.921
4127.596, 1299.010
4129.524, 1297.804
4131.453, 1296.972
4133.381, 1296.255
4135.310, 1295.452
4137.238, 1296.629
4139.167, 1298.023
4141.095, 1296.784
4143.023, 1295.244
4144.952, 1294.054
4146.881, 1293.545
4148.809, 1293.673
4150.737, 1295.515
4152.666, 1293.730
4154.595, 1288.369
4156.523, 1288.772
4158.451, 1290.961
4160.380, 1291.400
4162.309, 1292.227
4164.237, 1293.485
4166.165, 1291.808
4168.094, 1289.688
4170.022, 1288.369
4171.951, 1289.542
4173.879, 1292.160
4175.808, 1291.226
4177.736, 1290.778
4179.665, 1294.140
4181.593, 1291.899
4183.521, 1287.154
4185.450, 1287.922
4187.378, 1288.209
4189.307, 1285.520
4191.235, 1284.330
4193.164, 1283.508
4195.092, 1281.616
4197.021, 1279.483
4198.949, 1277.561
4200.878, 1277.799
4202.806, 1278.124
4204.734, 1276.455
4206.663, 1273.447
4208.592, 1270.396
4210.520, 1274.470
4212.448, 1277.300
4214.377, 1273.931
4216.306, 1273.280
4218.234, 1273.813
4220.162, 1268.718
4222.091, 1265.459
4224.020, 1266.263
4225.948, 1264.192
4227.876, 1262.028
4229.805, 1265.120
4231.733, 1265.814
4233.662, 1263.178
4235.590, 1259.928
4237.519, 1257.694
##END=



