##NAMES=Szaibelyite
##RRUFFID=R060289
##IDEAL CHEMISTRY=MgBO_2_(OH)
##LOCALITY=Franklin, Sussex County, New Jersey, USA
##OWNER=RRUFF
##SOURCE=Herb Obodda
##DESCRIPTION=Pink massive, associated with rhodochrosite
##STATUS=The identification of this mineral has been confirmed by X-ray diffraction and chemical analysis
##URL=https://www.rruff.net/odr/rruff_sample/R060289
##MEASURED CHEMISTRY=(Mg_0.66_Mn^2+^_0.34_)BO_2_(OH) ; = gray phase: B and OH assumed by stoichiometry  light rim: (Mn^2+^_0.70_Ca_0.18_Mg_0.12_)CO_3_ is rhodochrosite  CO_2_ estimated by difference
##DIFFRACTION SAMPLE DESCRIPTION=Powder
##CELL PARAMETERS=a: 3.1746 b: 10.5971 c: 12.6798 alpha: 90 beta: 96.09 gamma: 90 volume: 424.16 crystal system: monoclinic
##FILETYPE=Raman RAW
##RAMAN WAVELENGTH=532

87.31934, 18.12839
89.24780, 19.05406
91.17627, 19.92762
93.10474, 21.15795
95.03320, 22.85987
96.96167, 24.98537
98.89014, 27.47754
100.8186, 30.48358
102.7471, 33.71648
104.6755, 36.90356
106.6040, 39.88601
108.5325, 43.14977
110.4609, 46.88461
112.3894, 51.20959
114.3179, 55.42290
116.2463, 59.13624
118.1748, 62.82601
120.1033, 67.09350
122.0317, 72.99477
123.9602, 78.61465
125.8887, 81.47548
127.8171, 80.58525
129.7456, 79.78068
131.6741, 79.17262
133.6025, 78.81473
135.5310, 79.14179
137.4595, 80.81313
139.3879, 82.38646
141.3164, 83.14423
143.2449, 82.78455
145.1733, 82.55107
147.1018, 82.69962
149.0303, 83.19323
150.9587, 83.57500
152.8872, 83.75644
154.8157, 83.87402
156.7441, 84.03407
158.6726, 84.30373
160.6011, 84.55199
162.5295, 84.89516
164.4580, 85.30211
166.3865, 85.32722
168.3149, 84.23524
170.2434, 82.91211
172.1719, 82.55132
174.1003, 83.92702
176.0288, 85.24918
177.9573, 85.87206
179.8857, 85.70607
181.8142, 85.70588
183.7427, 85.78521
185.6711, 86.10468
187.5996, 86.98605
189.5281, 88.77202
191.4565, 90.64769
193.3850, 92.27216
195.3135, 93.43222
197.2419, 94.70473
199.1704, 96.52202
201.0989, 98.42313
203.0273, 99.53951
204.9558, 99.15690
206.8843, 98.52364
208.8127, 98.21656
210.7412, 98.40510
212.6697, 98.60909
214.5981, 98.90858
216.5266, 99.20869
218.4551, 99.22694
220.3835, 98.67541
222.3120, 98.01582
224.2405, 97.44337
226.1689, 96.89980
228.0974, 96.57829
230.0259, 96.62642
231.9543, 96.98146
233.8828, 97.29491
235.8113, 97.59021
237.7397, 97.84654
239.6682, 97.99867
241.5967, 97.95678
243.5251, 98.14246
245.4536, 98.68555
247.3821, 99.55898
249.3105, 100.4666
251.2390, 101.5099
253.1675, 102.4919
255.0959, 103.2784
257.0244, 103.7008
258.9529, 104.2755
260.8813, 105.1090
262.8098, 106.1926
264.7383, 107.3805
266.6667, 109.2158
268.5952, 110.6617
270.5237, 111.0962
272.4521, 108.8832
274.3806, 107.9234
276.3091, 109.3358
278.2375, 112.3474
280.1660, 114.6125
282.0945, 115.5422
284.0229, 115.9800
285.9514, 116.3202
287.8799, 116.4473
289.8083, 116.6299
291.7368, 117.1461
293.6653, 117.7144
295.5938, 117.7414
297.5222, 116.4332
299.4507, 115.1130
301.3792, 114.3675
303.3076, 114.3459
305.2361, 114.3227
307.1646, 114.3833
309.0930, 114.3965
311.0215, 114.0034
312.9500, 112.5871
314.8784, 111.3450
316.8069, 110.9415
318.7354, 111.4092
320.6638, 111.5127
322.5923, 110.5478
324.5208, 109.1657
326.4492, 108.3244
328.3777, 108.4085
330.3062, 108.5893
332.2346, 108.6087
334.1631, 108.4823
336.0915, 108.5250
338.0200, 108.9803
339.9485, 109.5417
341.8769, 109.8815
343.8054, 109.9290
345.7339, 109.8969
347.6623, 109.7523
349.5908, 109.5160
351.5193, 109.4334
353.4477, 109.6253
355.3762, 109.8935
357.3047, 110.0650
359.2331, 110.0658
361.1616, 110.2454
363.0901, 110.7902
365.0185, 111.6185
366.9470, 112.4273
368.8755, 113.5065
370.8039, 114.3534
372.7324, 114.5904
374.6609, 114.2209
376.5893, 113.8319
378.5178, 113.3479
380.4463, 112.9378
382.3747, 112.9357
384.3032, 113.6502
386.2317, 114.4033
388.1601, 115.2199
390.0886, 116.0748
392.0171, 116.3324
393.9455, 115.2721
395.8740, 113.9483
397.8025, 113.2531
399.7309, 113.3432
401.6594, 113.6608
403.5879, 114.3854
405.5163, 115.3263
407.4448, 115.7983
409.3733, 115.1018
411.3017, 114.4767
413.2302, 114.6414
415.1587, 115.7247
417.0871, 116.5447
419.0156, 116.6509
420.9441, 116.4251
422.8725, 116.3528
424.8010, 116.4714
426.7295, 116.6858
428.6579, 117.0530
430.5864, 117.5279
432.5149, 117.8712
434.4433, 117.9856
436.3718, 117.9943
438.3003, 117.9625
440.2287, 117.6111
442.1572, 117.6329
444.0857, 118.2395
446.0141, 119.2410
447.9426, 120.3038
449.8711, 121.8220
451.7995, 122.8592
453.7280, 122.9007
455.6565, 121.6492
457.5849, 120.8873
459.5134, 120.5367
461.4419, 120.7670
463.3703, 121.7472
465.2988, 124.0716
467.2273, 125.8299
469.1557, 126.5060
471.0842, 126.3395
473.0127, 126.2213
474.9411, 126.0370
476.8696, 126.0339
478.7981, 126.2797
480.7265, 126.7605
482.6550, 127.5222
484.5835, 129.1853
486.5119, 130.7724
488.4404, 131.0975
490.3689, 129.7722
492.2973, 128.7935
494.2258, 129.1715
496.1543, 130.3839
498.0827, 130.8022
500.0112, 129.6207
501.9397, 128.4354
503.8681, 127.8572
505.7966, 127.8249
507.7251, 127.6666
509.6535, 127.1327
511.5820, 126.5176
513.5105, 126.0219
515.4390, 125.7650
517.3674, 125.4822
519.2959, 124.9882
521.2244, 124.5117
523.1528, 124.5099
525.0813, 125.7018
527.0098, 126.2723
528.9382, 125.2459
530.8667, 122.4617
532.7952, 120.7550
534.7236, 120.9340
536.6521, 121.5258
538.5806, 121.7143
540.5090, 121.4792
542.4375, 121.0840
544.3660, 120.1400
546.2944, 119.2055
548.2229, 119.2158
550.1514, 120.7112
552.0798, 122.0850
554.0083, 122.8403
555.9368, 123.1349
557.8652, 123.3639
559.7937, 123.4126
561.7222, 123.5020
563.6506, 123.6450
565.5791, 123.8364
567.5076, 124.3649
569.4360, 125.6972
571.3645, 127.0787
573.2930, 127.9709
575.2214, 128.1600
577.1499, 128.3504
579.0784, 128.5473
581.0068, 128.8097
582.9352, 129.2314
584.8637, 129.7722
586.7922, 130.4939
588.7206, 131.5216
590.6491, 132.7948
592.5776, 133.8896
594.5060, 134.7011
596.4345, 135.4437
598.3630, 136.2177
600.2914, 137.0256
602.2199, 137.6982
604.1484, 137.8498
606.0768, 138.1567
608.0053, 139.0973
609.9338, 141.0623
611.8622, 142.9458
613.7907, 144.9720
615.7192, 146.7856
617.6476, 147.9023
619.5761, 148.2198
621.5046, 148.2217
623.4330, 147.7814
625.3615, 147.1050
627.2900, 146.9469
629.2184, 147.7971
631.1469, 148.6255
633.0754, 149.3229
635.0038, 149.8029
636.9323, 149.6194
638.8608, 148.0368
640.7892, 146.4703
642.7177, 145.6943
644.6462, 146.1251
646.5746, 146.1054
648.5031, 145.3842
650.4316, 144.4117
652.3600, 143.4953
654.2885, 142.6055
656.2170, 141.9340
658.1454, 141.7048
660.0739, 141.6541
662.0024, 141.4665
663.9308, 141.0279
665.8593, 140.5961
667.7878, 140.1965
669.7162, 139.8130
671.6447, 139.4208
673.5732, 139.0323
675.5016, 138.5873
677.4301, 137.8658
679.3586, 136.9319
681.2870, 136.6411
683.2155, 137.4358
685.1440, 138.3250
687.0724, 138.9473
689.0009, 139.3470
690.9294, 139.7148
692.8578, 140.2488
694.7863, 140.5980
696.7148, 140.4645
698.6432, 139.5275
700.5717, 139.2193
702.5002, 140.2848
704.4286, 141.4291
706.3571, 141.5785
708.2856, 140.6342
710.2141, 139.7830
712.1425, 139.3634
714.0710, 139.1215
715.9995, 138.8246
717.9279, 138.2962
719.8564, 138.0168
721.7849, 138.1837
723.7133, 138.5610
725.6418, 138.8293
727.5703, 138.9570
729.4987, 139.0014
731.4272, 138.8571
733.3557, 138.6260
735.2841, 138.5655
737.2126, 138.9420
739.1411, 139.1452
741.0695, 138.7384
742.9980, 138.1125
744.9265, 138.1823
746.8549, 139.4788
748.7834, 140.7018
750.7119, 141.4581
752.6403, 141.7898
754.5688, 141.9748
756.4973, 142.0360
758.4257, 141.9576
760.3542, 141.4476
762.2827, 140.7054
764.2111, 140.5617
766.1396, 141.1115
768.0681, 142.2904
769.9965, 144.2002
771.9250, 146.9201
773.8535, 149.4578
775.7819, 151.0096
777.7104, 153.1473
779.6389, 157.2404
781.5673, 162.9556
783.4958, 167.7979
785.4243, 171.3783
787.3527, 173.9572
789.2812, 175.5694
791.2097, 175.9962
793.1381, 176.2634
795.0666, 176.0511
796.9951, 175.9455
798.9235, 176.0673
800.8520, 176.4111
802.7805, 177.9237
804.7089, 180.8331
806.6374, 185.0232
808.5659, 190.5905
810.4943, 198.1218
812.4228, 205.2373
814.3513, 210.8868
816.2797, 216.9070
818.2082, 224.7377
820.1367, 234.3132
822.0651, 244.3350
823.9936, 256.4226
825.9221, 267.1413
827.8505, 275.1281
829.7790, 281.2375
831.7075, 280.9586
833.6359, 271.9492
835.5644, 259.2145
837.4929, 245.5127
839.4213, 230.7579
841.3498, 216.1007
843.2783, 200.0962
845.2067, 185.8156
847.1352, 175.2308
849.0637, 168.7704
850.9921, 163.5955
852.9206, 159.8459
854.8491, 156.9032
856.7775, 154.4457
858.7060, 152.4755
860.6345, 151.1243
862.5629, 150.7610
864.4914, 150.7068
866.4199, 150.5675
868.3483, 150.3387
870.2768, 150.1893
872.2053, 150.3217
874.1337, 150.4052
876.0622, 150.2931
877.9907, 149.9745
879.9191, 149.5533
881.8476, 148.6647
883.7761, 148.0095
885.7045, 148.2357
887.6330, 149.1598
889.5615, 149.4238
891.4899, 148.0491
893.4184, 146.8698
895.3469, 146.7547
897.2753, 147.7281
899.2038, 148.4457
901.1323, 149.0758
903.0607, 149.3329
904.9892, 148.6540
906.9177, 147.4239
908.8461, 147.0558
910.7746, 148.3510
912.7031, 149.3161
914.6315, 148.8117
916.5600, 147.2478
918.4885, 146.7436
920.4169, 148.4508
922.3454, 149.8376
924.2739, 150.2964
926.2023, 150.1196
928.1308, 150.0120
930.0593, 150.0076
931.9877, 150.0363
933.9162, 149.9914
935.8447, 149.9982
937.7731, 150.2756
939.7016, 151.0242
941.6301, 151.6916
943.5585, 152.0398
945.4870, 152.3536
947.4155, 153.1944
949.3439, 154.8874
951.2724, 155.7426
953.2009, 154.3692
955.1293, 152.8194
957.0578, 152.8813
958.9863, 154.8818
960.9147, 156.3325
962.8432, 156.2537
964.7717, 156.0491
966.7001, 156.6350
968.6286, 158.2073
970.5571, 159.2717
972.4855, 159.1909
974.4140, 159.2034
976.3425, 160.3549
978.2709, 162.2279
980.1994, 162.9550
982.1279, 161.3913
984.0563, 160.1823
985.9848, 160.6629
987.9133, 162.3535
989.8417, 163.1683
991.7702, 162.1023
993.6987, 161.4477
995.6271, 161.9043
997.5556, 162.9152
999.4841, 163.4476
1001.413, 163.3624
1003.341, 163.3909
1005.269, 163.8429
1007.198, 164.4246
1009.126, 164.8546
1011.055, 165.0713
1012.983, 165.2394
1014.912, 164.9907
1016.840, 164.9675
1018.769, 165.7533
1020.697, 167.5012
1022.626, 168.8101
1024.554, 169.3913
1026.483, 169.8759
1028.411, 170.8382
1030.340, 172.0108
1032.268, 172.2867
1034.197, 170.7117
1036.125, 169.7256
1038.053, 170.2808
1039.982, 171.8471
1041.910, 173.2190
1043.839, 174.4069
1045.767, 175.3791
1047.696, 176.0509
1049.624, 176.5660
1051.553, 177.1060
1053.481, 177.7030
1055.410, 178.1461
1057.338, 178.2563
1059.267, 178.3371
1061.195, 178.5194
1063.124, 178.7898
1065.052, 179.2469
1066.980, 180.0943
1068.909, 180.8769
1070.837, 181.2549
1072.766, 181.4109
1074.694, 182.1540
1076.623, 183.9400
1078.551, 185.3890
1080.480, 186.0904
1082.408, 186.3056
1084.337, 186.3025
1086.265, 186.0305
1088.193, 185.8792
1090.122, 185.8784
1092.050, 186.0881
1093.979, 186.6724
1095.907, 187.7346
1097.836, 188.3541
1099.764, 187.9520
1101.693, 187.7870
1103.621, 188.5451
1105.550, 189.8898
1107.478, 190.7266
1109.407, 190.8426
1111.335, 191.0125
1113.264, 191.4747
1115.192, 192.1320
1117.120, 192.9356
1119.049, 193.9570
1120.977, 194.8214
1122.906, 195.3901
1124.834, 195.8819
1126.763, 196.1520
1128.691, 196.2025
1130.620, 197.2641
1132.548, 200.4408
1134.477, 203.1586
1136.405, 204.5113
1138.334, 204.9957
1140.262, 205.4599
1142.191, 205.8127
1144.119, 206.5659
1146.047, 208.3088
1147.976, 210.1397
1149.904, 211.4472
1151.833, 212.2070
1153.761, 212.6932
1155.690, 212.0621
1157.618, 212.1318
1159.547, 214.0336
1161.475, 217.1449
1163.404, 219.2448
1165.332, 219.6133
1167.261, 220.5334
1169.189, 223.1388
1171.118, 225.9374
1173.046, 227.2651
1174.974, 227.1560
1176.903, 227.8067
1178.831, 230.0754
1180.760, 232.5154
1182.688, 234.7795
1184.617, 236.7787
1186.545, 238.0239
1188.474, 237.6596
1190.402, 237.8839
1192.331, 239.6490
1194.259, 241.6416
1196.188, 242.3259
1198.116, 241.3610
1200.045, 240.8137
1201.973, 240.9392
1203.901, 241.2399
1205.830, 241.9630
1207.758, 242.6431
1209.687, 241.9539
1211.615, 239.1807
1213.544, 237.1624
1215.472, 237.0499
1217.401, 237.8270
1219.329, 238.8847
1221.258, 240.3573
1223.186, 241.4588
1225.115, 241.9418
1227.043, 242.3587
1228.972, 242.7732
1230.900, 243.2557
1232.828, 243.9768
1234.757, 244.8457
1236.685, 246.0781
1238.614, 247.8072
1240.542, 249.7863
1242.471, 251.9190
1244.399, 254.1676
1246.328, 256.3599
1248.256, 258.5224
1250.185, 260.5824
1252.113, 262.5814
1254.042, 264.4756
1255.970, 266.1797
1257.899, 267.6721
1259.827, 269.0361
1261.755, 269.6626
1263.684, 270.7292
1265.612, 273.3756
1267.541, 277.1057
1269.469, 279.1929
1271.398, 278.5801
1273.326, 278.3398
1275.255, 279.3941
1277.183, 280.7531
1279.112, 281.6025
1281.040, 282.0043
1282.969, 281.9905
1284.897, 281.2570
1286.826, 280.7014
1288.754, 280.9141
1290.682, 281.4549
1292.611, 281.5770
1294.539, 281.0839
1296.468, 280.9835
1298.396, 281.6609
1300.325, 282.4792
1302.253, 283.2681
1304.182, 283.9645
1306.110, 284.3275
1308.039, 284.1482
1309.967, 283.8815
1311.896, 282.9247
1313.824, 282.3845
1315.753, 283.5909
1317.681, 286.4018
1319.609, 288.2309
1321.538, 288.6630
1323.466, 288.8044
1325.395, 288.6869
1327.323, 288.6759
1329.252, 289.3442
1331.180, 290.7179
1333.109, 291.4648
1335.037, 290.6515
1336.966, 290.4029
1338.894, 291.8547
1340.823, 294.2948
1342.751, 296.4100
1344.680, 298.1317
1346.608, 299.6408
1348.536, 300.8336
1350.465, 301.8943
1352.393, 303.1205
1354.322, 304.2903
1356.250, 304.4669
1358.179, 302.3209
1360.107, 301.8983
1362.036, 305.3626
1363.964, 309.0172
1365.893, 309.9700
1367.821, 308.9211
1369.750, 309.0248
1371.678, 310.4993
1373.607, 312.6069
1375.535, 315.8599
1377.464, 319.0057
1379.392, 320.9445
1381.320, 321.8755
1383.249, 323.1563
1385.177, 325.3032
1387.106, 326.8832
1389.034, 326.6951
1390.963, 326.3949
1392.891, 327.5437
1394.820, 330.3062
1396.748, 332.7639
1398.677, 334.7913
1400.605, 336.6155
1402.534, 338.2139
1404.462, 339.6279
1406.391, 340.6996
1408.319, 341.2610
1410.247, 342.8608
1412.176, 346.5710
1414.104, 349.8701
1416.033, 351.9175
1417.961, 353.4156
1419.890, 355.3235
1421.818, 357.6639
1423.747, 359.3534
1425.675, 359.6006
1427.604, 360.4742
1429.532, 363.3136
1431.461, 366.8491
1433.389, 369.4610
1435.318, 371.1812
1437.246, 373.7638
1439.174, 378.1364
1441.103, 381.8533
1443.031, 383.1744
1444.960, 383.7932
1446.888, 385.8139
1448.817, 389.3448
1450.745, 391.7369
1452.674, 391.9519
1454.602, 392.4822
1456.531, 394.6189
1458.459, 397.0820
1460.388, 398.3776
1462.316, 398.3483
1464.245, 398.6337
1466.173, 398.2862
1468.101, 399.4564
1470.030, 404.0479
1471.958, 409.1505
1473.887, 411.5863
1475.815, 411.2315
1477.744, 411.6094
1479.672, 413.1285
1481.601, 414.8030
1483.529, 416.8820
1485.458, 418.8333
1487.386, 419.9737
1489.315, 420.4807
1491.243, 421.6195
1493.172, 423.6635
1495.100, 425.4941
1497.028, 426.3821
1498.957, 427.2475
1500.885, 429.0268
1502.814, 431.2674
1504.742, 432.7152
1506.671, 433.2917
1508.599, 433.4810
1510.528, 433.4220
1512.456, 433.0786
1514.385, 432.2432
1516.313, 431.1938
1518.242, 430.5190
1520.170, 430.2620
1522.099, 430.0356
1524.027, 429.6731
1525.955, 429.3915
1527.884, 429.3507
1529.812, 429.3795
1531.741, 429.1415
1533.669, 428.5459
1535.598, 428.4147
1537.526, 429.4872
1539.455, 430.0719
1541.383, 429.9476
1543.312, 429.0158
1545.240, 426.7248
1547.169, 422.9984
1549.097, 420.4940
1551.026, 419.9727
1552.954, 419.5146
1554.882, 418.7761
1556.811, 418.1684
1558.739, 418.4059
1560.668, 419.0880
1562.596, 418.4907
1564.525, 416.1036
1566.453, 413.4947
1568.382, 410.5026
1570.310, 407.5751
1572.239, 404.5057
1574.167, 401.8191
1576.096, 400.6365
1578.024, 401.2962
1579.953, 401.2367
1581.881, 400.3574
1583.809, 398.7510
1585.738, 395.6935
1587.666, 392.4263
1589.595, 390.2891
1591.523, 389.0860
1593.452, 387.4369
1595.380, 385.1157
1597.309, 383.0917
1599.237, 382.0306
1601.166, 380.8745
1603.094, 378.8964
1605.023, 376.5186
1606.951, 374.6480
1608.880, 373.3437
1610.808, 371.3521
1612.736, 368.0340
1614.665, 364.9141
1616.593, 362.8098
1618.522, 360.9463
1620.450, 358.4995
1622.379, 355.6297
1624.307, 353.0558
1626.236, 350.8110
1628.164, 348.8364
1630.093, 347.0455
1632.021, 345.6328
1633.950, 345.2648
1635.878, 345.1042
1637.807, 343.8012
1639.735, 341.3729
1641.663, 338.7421
1643.592, 335.6396
1645.520, 333.2531
1647.449, 332.4377
1649.377, 332.0600
1651.306, 331.2883
1653.234, 330.2417
1655.163, 329.3675
1657.091, 328.7323
1659.020, 327.7798
1660.948, 326.3892
1662.877, 324.7141
1664.805, 322.4857
1666.734, 320.2790
1668.662, 318.6882
1670.590, 317.7025
1672.519, 317.1860
1674.447, 317.4636
1676.376, 317.0602
1678.304, 314.7178
1680.233, 312.7401
1682.161, 312.6093
1684.090, 313.3894
1686.018, 313.6657
1687.947, 313.4310
1689.875, 312.7131
1691.804, 311.1749
1693.732, 310.0635
1695.661, 310.0847
1697.589, 310.3226
1699.517, 310.1459
1701.446, 309.7941
1703.374, 310.0281
1705.303, 310.9353
1707.231, 310.8489
1709.160, 308.9388
1711.088, 307.3788
1713.017, 306.8981
1714.945, 307.0157
1716.874, 307.7547
1718.802, 308.8085
1720.731, 309.1117
1722.659, 308.5296
1724.588, 308.5168
1726.516, 309.6054
1728.444, 310.5598
1730.373, 310.7704
1732.301, 310.8029
1734.230, 311.2751
1736.158, 311.8904
1738.087, 311.4664
1740.015, 309.7706
1741.944, 309.2901
1743.872, 311.0115
1745.801, 312.7023
1747.729, 313.7036
1749.658, 314.1708
1751.586, 313.7237
1753.515, 312.9051
1755.443, 313.5706
1757.371, 315.9478
1759.300, 317.1508
1761.228, 316.2407
1763.157, 315.3303
1765.085, 315.0534
1767.014, 315.2120
1768.942, 315.8742
1770.871, 316.7877
1772.799, 317.3509
1774.728, 317.5429
1776.656, 317.8987
1778.585, 318.5287
1780.513, 319.2762
1782.442, 320.1591
1784.370, 321.1081
1786.298, 321.9292
1788.227, 322.8437
1790.155, 324.6148
1792.084, 327.1336
1794.012, 327.9163
1795.941, 325.7659
1797.869, 324.6734
1799.798, 326.5722
1801.726, 328.7697
1803.655, 329.9080
1805.583, 330.4338
1807.512, 330.8423
1809.440, 331.1993
1811.369, 331.8300
1813.297, 332.7745
1815.225, 333.9213
1817.154, 335.3047
1819.082, 336.7547
1821.011, 338.5547
1822.939, 340.0445
1824.868, 340.2907
1826.796, 339.6208
1828.725, 339.3808
1830.653, 339.4970
1832.582, 340.4525
1834.510, 343.3978
1836.439, 345.6070
1838.367, 346.1299
1840.296, 346.1033
1842.224, 345.6661
1844.152, 345.4568
1846.081, 347.1458
1848.009, 351.0115
1849.938, 353.4185
1851.866, 353.1237
1853.795, 353.3178
1855.723, 354.1793
1857.652, 355.4692
1859.580, 357.9020
1861.509, 360.0286
1863.437, 359.8260
1865.366, 357.9152
1867.294, 357.4067
1869.223, 358.6685
1871.151, 359.8382
1873.079, 360.6393
1875.008, 361.7791
1876.936, 363.6938
1878.865, 365.7090
1880.793, 367.4147
1882.722, 368.9913
1884.650, 371.0143
1886.579, 373.2642
1888.507, 373.6812
1890.436, 371.5471
1892.364, 371.3596
1894.293, 374.8893
1896.221, 378.3731
1898.150, 380.9619
1900.078, 382.3851
1902.006, 381.6688
1903.935, 380.0433
1905.863, 379.1930
1907.792, 379.2271
1909.720, 381.4681
1911.649, 386.8866
1913.577, 390.7828
1915.506, 391.3981
1917.434, 391.6185
1919.363, 392.4308
1921.291, 393.3511
1923.220, 393.7944
1925.148, 394.1230
1927.077, 395.1552
1929.005, 396.9312
1930.933, 399.0831
1932.862, 402.0898
1934.790, 404.6109
1936.719, 406.7417
1938.647, 408.1175
1940.576, 408.0187
1942.504, 407.6595
1944.433, 408.2863
1946.361, 409.2984
1948.290, 409.0027
1950.218, 407.2504
1952.147, 407.6599
1954.075, 411.0135
1956.004, 414.0722
1957.932, 416.7477
1959.860, 418.4256
1961.789, 417.7085
1963.717, 417.1672
1965.646, 418.6198
1967.574, 421.2591
1969.503, 424.4797
1971.431, 427.9003
1973.360, 428.8593
1975.288, 426.7607
1977.217, 426.3477
1979.145, 428.9524
1981.074, 431.8814
1983.002, 434.8010
1984.931, 437.1750
1986.859, 438.2935
1988.787, 439.0183
1990.716, 440.7544
1992.644, 443.0756
1994.573, 443.8271
1996.501, 442.3537
1998.430, 442.6837
2000.358, 446.1322
2002.287, 449.2931
2004.215, 452.0451
2006.144, 454.2507
2008.072, 455.2841
2010.001, 456.2067
2011.929, 457.9811
2013.858, 460.1412
2015.786, 461.6017
2017.714, 462.5233
2019.643, 464.8697
2021.571, 469.1404
2023.500, 471.3073
2025.428, 470.0739
2027.357, 468.8508
2029.285, 468.1296
2031.214, 468.5047
2033.142, 470.9880
2035.071, 474.0942
2036.999, 476.2648
2038.928, 477.8843
2040.856, 479.9901
2042.785, 482.5997
2044.713, 484.8319
2046.641, 486.4350
2048.570, 488.3458
2050.499, 491.2747
2052.427, 493.6052
2054.355, 493.9852
2056.284, 494.9342
2058.212, 498.4974
2060.141, 502.6109
2062.069, 504.8742
2063.998, 505.8549
2065.926, 507.2108
2067.854, 508.8890
2069.783, 510.6893
2071.711, 512.7124
2073.640, 514.1866
2075.568, 514.8661
2077.497, 515.5077
2079.425, 516.3496
2081.354, 517.3461
2083.282, 517.7143
2085.211, 518.9272
2087.139, 523.4091
2089.068, 529.3622
2090.996, 532.8184
2092.925, 533.8486
2094.853, 534.5799
2096.781, 534.5299
2098.710, 535.6450
2100.638, 538.7389
2102.567, 541.5020
2104.495, 543.5716
2106.424, 545.3212
2108.352, 546.2919
2110.281, 547.6085
2112.209, 551.2363
2114.138, 554.7269
2116.066, 553.4365
2117.995, 549.5274
2119.923, 550.3031
2121.852, 555.8345
2123.780, 559.9234
2125.708, 562.1364
2127.637, 563.4825
2129.565, 562.6377
2131.494, 563.2875
2133.422, 567.8754
2135.351, 571.9401
2137.279, 572.6154
2139.208, 572.6039
2141.136, 574.0637
2143.065, 576.4592
2144.993, 579.1710
2146.922, 582.0132
2148.850, 584.1855
2150.779, 585.6863
2152.707, 587.0858
2154.635, 588.4551
2156.564, 589.7110
2158.492, 590.2533
2160.421, 592.0746
2162.349, 597.7813
2164.278, 602.3185
2166.206, 601.4053
2168.135, 600.3016
2170.063, 604.6335
2171.992, 610.7837
2173.920, 612.5502
2175.849, 611.1166
2177.777, 611.5053
2179.706, 613.7154
2181.634, 617.7616
2183.563, 624.2039
2185.491, 628.0674
2187.419, 627.6418
2189.348, 627.8631
2191.276, 630.1852
2193.205, 633.1110
2195.133, 636.5453
2197.062, 639.8615
2198.990, 642.3896
2200.919, 644.9769
2202.847, 649.6282
2204.776, 654.5966
2206.704, 655.0454
2208.633, 651.7336
2210.561, 652.0946
2212.490, 656.2507
2214.418, 659.3786
2216.346, 660.8827
2218.275, 663.1119
2220.203, 666.6691
2222.132, 670.5450
2224.060, 675.6174
2225.989, 679.3627
2227.917, 680.0255
2229.846, 679.9281
2231.774, 679.5369
2233.703, 679.9935
2235.631, 683.0094
2237.560, 687.4850
2239.488, 691.3772
2241.417, 694.8237
2243.345, 698.7996
2245.273, 703.3046
2247.202, 705.8459
2249.130, 705.9813
2251.059, 707.7963
2252.987, 712.1637
2254.916, 717.0214
2256.844, 723.1664
2258.773, 727.4841
2260.701, 727.4982
2262.630, 727.3696
2264.558, 729.1268
2266.487, 731.6454
2268.415, 734.0936
2270.344, 736.9561
2272.272, 741.4208
2274.200, 746.5632
2276.129, 749.3580
2278.057, 750.7707
2279.986, 755.8653
2281.914, 764.5545
2283.843, 769.6946
2285.771, 769.7511
2287.700, 770.7086
2289.628, 773.6575
2291.557, 776.5958
2293.485, 778.7845
2295.414, 782.1879
2297.342, 788.8839
2299.271, 794.5857
2301.199, 797.1122
2303.127, 798.5012
2305.056, 798.5763
2306.984, 799.3769
2308.913, 803.9585
2310.841, 809.9748
2312.770, 813.2735
2314.698, 815.1271
2316.627, 820.3099
2318.555, 828.4808
2320.484, 831.3617
2322.412, 827.8228
2324.341, 829.2225
2326.269, 836.5989
2328.198, 843.4702
2330.126, 849.0013
2332.054, 853.9576
2333.983, 858.9948
2335.911, 862.4171
2337.840, 862.2967
2339.768, 862.6969
2341.697, 864.4487
2343.625, 868.3966
2345.554, 877.8724
2347.482, 886.9110
2349.411, 888.9845
2351.339, 888.6932
2353.268, 891.5005
2355.196, 896.2440
2357.125, 900.7599
2359.053, 905.2487
2360.981, 911.1392
2362.910, 918.2023
2364.838, 923.5189
2366.767, 927.0245
2368.695, 929.4363
2370.624, 930.5795
2372.552, 931.8442
2374.481, 932.9958
2376.409, 936.1663
2378.338, 942.3317
2380.266, 948.9230
2382.195, 955.5734
2384.123, 961.6826
2386.052, 966.5009
2387.980, 971.1704
2389.908, 976.6855
2391.837, 981.5687
2393.765, 983.9048
2395.694, 986.2077
2397.622, 991.3080
2399.551, 997.4740
2401.479, 1002.404
2403.408, 1006.968
2405.336, 1013.202
2407.265, 1020.048
2409.193, 1023.598
2411.122, 1024.500
2413.050, 1029.053
2414.979, 1037.510
2416.907, 1044.752
2418.835, 1050.713
2420.764, 1056.478
2422.692, 1062.314
2424.621, 1066.427
2426.549, 1067.777
2428.478, 1070.896
2430.406, 1077.992
2432.335, 1084.380
2434.263, 1088.767
2436.192, 1092.985
2438.120, 1096.836
2440.049, 1101.541
2441.977, 1108.260
2443.906, 1114.751
2445.834, 1119.557
2447.762, 1124.129
2449.691, 1129.667
2451.619, 1135.282
2453.548, 1140.219
2455.476, 1144.741
2457.405, 1148.328
2459.333, 1152.231
2461.262, 1159.660
2463.190, 1168.462
2465.119, 1173.314
2467.047, 1175.417
2468.976, 1177.459
2470.904, 1179.997
2472.833, 1186.249
2474.761, 1196.244
2476.689, 1205.040
2478.618, 1212.704
2480.546, 1218.654
2482.475, 1222.552
2484.403, 1227.583
2486.332, 1233.954
2488.260, 1241.395
2490.189, 1250.472
2492.117, 1257.960
2494.046, 1262.899
2495.974, 1266.670
2497.903, 1267.139
2499.831, 1270.440
2501.760, 1279.496
2503.688, 1287.727
2505.616, 1292.178
2507.545, 1297.796
2509.473, 1308.566
2511.402, 1318.432
2513.330, 1323.609
2515.259, 1328.070
2517.187, 1333.926
2519.116, 1340.067
2521.044, 1345.536
2522.973, 1351.165
2524.901, 1357.916
2526.830, 1364.987
2528.758, 1372.285
2530.687, 1378.892
2532.615, 1382.166
2534.543, 1385.043
2536.472, 1393.316
2538.400, 1403.913
2540.329, 1409.882
2542.257, 1413.572
2544.186, 1421.101
2546.114, 1431.285
2548.043, 1440.711
2549.971, 1449.548
2551.900, 1458.984
2553.828, 1468.737
2555.757, 1475.232
2557.685, 1478.625
2559.614, 1482.626
2561.542, 1487.370
2563.470, 1495.014
2565.399, 1505.678
2567.327, 1515.637
2569.256, 1524.301
2571.184, 1533.860
2573.113, 1545.482
2575.041, 1552.220
2576.970, 1552.606
2578.898, 1556.640
2580.827, 1566.116
2582.755, 1575.587
2584.684, 1585.215
2586.612, 1592.427
2588.541, 1593.470
2590.469, 1598.586
2592.397, 1609.905
2594.326, 1621.064
2596.254, 1631.184
2598.183, 1640.327
2600.111, 1648.472
2602.040, 1655.963
2603.968, 1662.394
2605.897, 1669.423
2607.825, 1677.063
2609.754, 1686.013
2611.682, 1697.097
2613.611, 1707.386
2615.539, 1714.797
2617.468, 1722.778
2619.396, 1734.202
2621.324, 1744.723
2623.253, 1752.201
2625.181, 1759.575
2627.110, 1768.674
2629.038, 1777.461
2630.967, 1784.469
2632.895, 1791.345
2634.824, 1798.672
2636.752, 1806.059
2638.681, 1813.220
2640.609, 1820.514
2642.538, 1828.854
2644.466, 1837.071
2646.395, 1843.491
2648.323, 1851.160
2650.251, 1864.695
2652.180, 1876.953
2654.108, 1880.373
2656.037, 1882.948
2657.965, 1891.065
2659.894, 1900.950
2661.822, 1909.116
2663.751, 1918.162
2665.679, 1931.804
2667.608, 1945.272
2669.536, 1952.134
2671.465, 1959.275
2673.393, 1975.765
2675.322, 1992.953
2677.250, 2002.435
2679.178, 2008.521
2681.107, 2013.282
2683.035, 2018.607
2684.964, 2027.119
2686.892, 2036.496
2688.821, 2045.140
2690.749, 2052.755
2692.678, 2056.755
2694.606, 2062.357
2696.535, 2074.658
2698.463, 2090.703
2700.392, 2110.611
2702.320, 2128.822
2704.249, 2136.114
2706.177, 2141.325
2708.105, 2154.521
2710.034, 2169.963
2711.962, 2181.972
2713.891, 2193.726
2715.819, 2211.023
2717.748, 2227.168
2719.676, 2232.818
2721.605, 2236.160
2723.533, 2245.480
2725.462, 2256.571
2727.390, 2266.310
2729.319, 2275.389
2731.247, 2284.104
2733.176, 2293.124
2735.104, 2301.294
2737.032, 2312.010
2738.961, 2331.777
2740.889, 2351.096
2742.818, 2360.319
2744.746, 2368.161
2746.675, 2382.771
2748.603, 2397.941
2750.532, 2408.915
2752.460, 2418.478
2754.389, 2426.877
2756.317, 2437.348
2758.246, 2454.684
2760.174, 2471.521
2762.103, 2483.129
2764.031, 2491.945
2765.959, 2495.442
2767.888, 2502.035
2769.816, 2518.458
2771.745, 2535.448
2773.673, 2548.288
2775.602, 2559.834
2777.530, 2571.325
2779.459, 2582.733
2781.387, 2593.059
2783.316, 2605.578
2785.244, 2623.033
2787.173, 2640.150
2789.101, 2654.105
2791.030, 2667.581
2792.958, 2682.717
2794.886, 2694.245
2796.815, 2698.083
2798.743, 2705.564
2800.672, 2723.755
2802.600, 2739.857
2804.529, 2747.667
2806.457, 2759.386
2808.386, 2778.723
2810.314, 2795.821
2812.243, 2808.493
2814.171, 2819.112
2816.100, 2825.748
2818.028, 2836.160
2819.957, 2852.772
2821.885, 2867.936
2823.813, 2881.013
2825.742, 2895.252
2827.670, 2911.399
2829.599, 2925.806
2831.527, 2936.933
2833.456, 2950.502
2835.384, 2966.603
2837.313, 2981.162
2839.241, 2993.974
2841.170, 3005.009
2843.098, 3014.427
2845.027, 3026.192
2846.955, 3040.226
2848.884, 3051.622
2850.812, 3061.947
2852.740, 3080.339
2854.669, 3103.864
2856.597, 3121.139
2858.526, 3133.591
2860.454, 3143.095
2862.383, 3152.704
2864.311, 3172.100
2866.240, 3195.303
2868.168, 3212.573
2870.097, 3227.061
2872.025, 3244.815
2873.954, 3261.374
2875.882, 3267.932
2877.811, 3274.383
2879.739, 3290.430
2881.667, 3309.479
2883.596, 3327.684
2885.524, 3344.616
2887.453, 3358.279
2889.381, 3372.822
2891.310, 3392.956
2893.238, 3409.618
2895.167, 3412.529
2897.095, 3421.232
2899.024, 3448.452
2900.952, 3471.178
2902.881, 3482.965
2904.809, 3494.799
2906.738, 3507.798
2908.666, 3525.921
2910.594, 3552.968
2912.523, 3574.166
2914.451, 3587.447
2916.380, 3602.067
2918.308, 3619.274
2920.237, 3634.687
2922.165, 3647.809
2924.094, 3662.431
2926.022, 3678.780
2927.951, 3699.680
2929.879, 3723.988
2931.808, 3745.450
2933.736, 3763.855
2935.665, 3777.450
2937.593, 3788.211
2939.521, 3800.372
2941.450, 3814.311
2943.378, 3832.191
2945.307, 3850.932
2947.235, 3866.541
2949.164, 3880.998
2951.092, 3895.361
2953.021, 3910.591
2954.949, 3926.412
2956.878, 3944.509
2958.806, 3968.372
2960.735, 3990.350
2962.663, 4006.410
2964.592, 4023.289
2966.520, 4045.448
2968.448, 4064.054
2970.377, 4074.057
2972.305, 4086.192
2974.234, 4100.682
2976.162, 4121.130
2978.091, 4149.452
2980.019, 4171.792
2981.948, 4187.032
2983.876, 4203.721
2985.805, 4221.716
2987.733, 4237.183
2989.662, 4251.163
2991.590, 4267.511
2993.519, 4286.333
2995.447, 4310.956
2997.375, 4336.265
2999.304, 4352.479
3001.232, 4365.835
3003.161, 4380.794
3005.089, 4399.559
3007.018, 4428.035
3008.946, 4455.235
3010.875, 4473.105
3012.803, 4491.462
3014.732, 4518.273
3016.660, 4539.734
3018.589, 4549.474
3020.517, 4561.235
3022.446, 4577.438
3024.374, 4595.752
3026.302, 4616.397
3028.231, 4638.927
3030.159, 4663.787
3032.088, 4685.498
3034.016, 4704.408
3035.945, 4722.488
3037.873, 4740.978
3039.802, 4768.486
3041.730, 4798.925
3043.659, 4818.333
3045.587, 4831.319
3047.516, 4838.325
3049.444, 4849.761
3051.373, 4884.409
3053.301, 4916.387
3055.229, 4923.991
3057.158, 4936.229
3059.086, 4971.708
3061.015, 5002.970
3062.943, 5019.030
3064.872, 5039.160
3066.800, 5066.336
3068.729, 5096.597
3070.657, 5134.138
3072.586, 5151.086
3074.514, 5149.583
3076.443, 5167.966
3078.371, 5201.446
3080.300, 5221.681
3082.228, 5233.879
3084.156, 5249.563
3086.085, 5266.884
3088.013, 5284.914
3089.942, 5301.035
3091.870, 5306.286
3093.799, 5318.597
3095.727, 5354.736
3097.656, 5390.010
3099.584, 5416.525
3101.513, 5439.186
3103.441, 5454.632
3105.370, 5475.753
3107.298, 5503.348
3109.227, 5530.392
3111.155, 5555.788
3113.083, 5577.596
3115.012, 5596.293
3116.940, 5615.117
3118.869, 5634.503
3120.797, 5656.367
3122.726, 5678.071
3124.654, 5692.970
3126.583, 5709.254
3128.511, 5735.236
3130.440, 5761.806
3132.368, 5782.235
3134.297, 5804.431
3136.225, 5832.884
3138.154, 5857.858
3140.082, 5877.862
3142.010, 5897.320
3143.939, 5916.896
3145.867, 5940.091
3147.796, 5966.499
3149.724, 5988.660
3151.653, 6009.392
3153.581, 6039.498
3155.510, 6071.757
3157.438, 6091.853
3159.367, 6111.565
3161.295, 6145.044
3163.224, 6176.878
3165.152, 6197.405
3167.081, 6216.427
3169.009, 6235.540
3170.938, 6257.563
3172.866, 6283.347
3174.794, 6310.048
3176.723, 6337.339
3178.651, 6362.887
3180.580, 6387.438
3182.508, 6414.364
3184.437, 6443.726
3186.365, 6478.806
3188.294, 6512.173
3190.222, 6532.371
3192.151, 6550.487
3194.079, 6573.573
3196.008, 6598.324
3197.936, 6624.827
3199.865, 6649.202
3201.793, 6670.006
3203.721, 6689.913
3205.650, 6707.937
3207.578, 6734.510
3209.507, 6768.013
3211.435, 6799.302
3213.364, 6828.221
3215.292, 6854.870
3217.221, 6879.039
3219.149, 6898.909
3221.078, 6918.504
3223.006, 6937.724
3224.935, 6961.764
3226.863, 6992.545
3228.792, 7025.279
3230.720, 7060.073
3232.648, 7091.024
3234.577, 7117.850
3236.505, 7139.998
3238.434, 7159.714
3240.362, 7188.133
3242.291, 7219.606
3244.219, 7242.906
3246.148, 7263.005
3248.076, 7282.470
3250.005, 7304.509
3251.933, 7332.323
3253.862, 7360.280
3255.790, 7386.990
3257.719, 7413.194
3259.647, 7438.201
3261.575, 7466.884
3263.504, 7499.178
3265.432, 7535.506
3267.361, 7572.038
3269.289, 7598.010
3271.218, 7621.004
3273.146, 7651.962
3275.075, 7681.672
3277.003, 7703.561
3278.932, 7725.570
3280.860, 7747.286
3282.789, 7778.896
3284.717, 7821.980
3286.646, 7862.700
3288.574, 7899.032
3290.502, 7922.241
3292.431, 7937.043
3294.359, 7954.854
3296.288, 7974.104
3298.216, 7988.207
3300.145, 8012.494
3302.073, 8060.934
3304.002, 8103.497
3305.930, 8122.935
3307.859, 8148.425
3309.787, 8180.763
3311.716, 8213.711
3313.644, 8245.452
3315.573, 8267.523
3317.501, 8286.481
3319.429, 8316.688
3321.358, 8348.483
3323.286, 8372.282
3325.215, 8397.047
3327.143, 8425.672
3329.072, 8456.920
3331.000, 8490.592
3332.929, 8525.548
3334.857, 8561.861
3336.786, 8590.428
3338.714, 8615.139
3340.643, 8646.653
3342.571, 8679.574
3344.500, 8702.527
3346.428, 8730.687
3348.356, 8783.268
3350.285, 8818.229
3352.213, 8814.108
3354.142, 8824.027
3356.070, 8851.263
3357.999, 8883.294
3359.927, 8917.926
3361.856, 8948.930
3363.784, 8977.705
3365.713, 9004.812
3367.641, 9032.588
3369.570, 9059.528
3371.498, 9095.600
3373.427, 9147.813
3375.355, 9185.826
3377.283, 9201.478
3379.212, 9238.100
3381.140, 9288.040
3383.069, 9321.430
3384.997, 9349.339
3386.926, 9392.914
3388.854, 9431.057
3390.783, 9447.286
3392.711, 9465.470
3394.640, 9494.111
3396.568, 9531.972
3398.497, 9579.321
3400.425, 9607.076
3402.354, 9621.236
3404.282, 9636.665
3406.210, 9660.127
3408.139, 9703.934
3410.067, 9748.699
3411.996, 9784.057
3413.924, 9812.647
3415.853, 9832.786
3417.781, 9865.912
3419.710, 9913.584
3421.638, 9961.023
3423.567, 10003.18
3425.495, 10022.74
3427.424, 10039.85
3429.352, 10079.44
3431.281, 10115.49
3433.209, 10134.34
3435.137, 10162.86
3437.066, 10208.99
3438.994, 10240.94
3440.923, 10262.38
3442.851, 10291.06
3444.780, 10325.25
3446.708, 10363.88
3448.637, 10404.12
3450.565, 10447.72
3452.494, 10484.61
3454.422, 10511.46
3456.351, 10535.30
3458.279, 10557.17
3460.208, 10586.59
3462.136, 10621.17
3464.064, 10658.09
3465.993, 10693.64
3467.921, 10721.58
3469.850, 10753.92
3471.778, 10794.76
3473.707, 10840.63
3475.635, 10893.27
3477.564, 10922.54
3479.492, 10937.52
3481.421, 10974.81
3483.349, 11012.60
3485.278, 11016.40
3487.206, 11031.56
3489.135, 11082.49
3491.063, 11124.58
3492.991, 11145.25
3494.920, 11182.13
3496.848, 11231.02
3498.777, 11277.02
3500.705, 11319.91
3502.634, 11358.20
3504.562, 11394.19
3506.491, 11423.68
3508.419, 11465.56
3510.348, 11525.78
3512.276, 11553.47
3514.205, 11558.34
3516.133, 11594.95
3518.062, 11645.01
3519.990, 11685.91
3521.918, 11724.37
3523.847, 11761.03
3525.775, 11801.95
3527.704, 11848.36
3529.632, 11887.41
3531.561, 11922.35
3533.489, 11971.98
3535.418, 12025.25
3537.346, 12065.24
3539.275, 12110.45
3541.203, 12172.69
3543.132, 12229.70
3545.060, 12277.71
3546.989, 12329.59
3548.917, 12382.87
3550.845, 12422.17
3552.774, 12459.82
3554.702, 12508.24
3556.631, 12559.39
3558.559, 12612.85
3560.488, 12655.21
3562.416, 12684.22
3564.345, 12711.46
3566.273, 12738.04
3568.202, 12767.56
3570.130, 12795.43
3572.059, 12819.44
3573.987, 12832.06
3575.916, 12821.48
3577.844, 12839.37
3579.772, 12881.29
3581.701, 12874.23
3583.629, 12854.33
3585.558, 12882.55
3587.486, 12916.39
3589.415, 12931.54
3591.343, 12952.24
3593.272, 12983.03
3595.200, 13020.72
3597.129, 13061.30
3599.057, 13086.90
3600.986, 13114.61
3602.914, 13166.88
3604.843, 13214.82
3606.771, 13243.64
3608.699, 13266.95
3610.628, 13287.15
3612.556, 13329.28
3614.485, 13380.03
3616.413, 13412.87
3618.342, 13445.89
3620.270, 13491.22
3622.199, 13535.10
3624.127, 13574.79
3626.056, 13597.34
3627.984, 13609.27
3629.913, 13634.38
3631.841, 13667.06
3633.770, 13709.99
3635.698, 13742.08
3637.626, 13751.38
3639.555, 13785.55
3641.483, 13841.11
3643.412, 13857.54
3645.340, 13865.59
3647.269, 13912.93
3649.197, 13962.65
3651.126, 13987.40
3653.054, 14032.15
3654.983, 14096.41
3656.911, 14135.66
3658.840, 14160.88
3660.768, 14201.15
3662.697, 14239.81
3664.625, 14267.79
3666.553, 14289.98
3668.482, 14307.16
3670.410, 14329.60
3672.339, 14360.40
3674.267, 14420.19
3676.196, 14479.47
3678.124, 14514.56
3680.053, 14545.15
3681.981, 14576.00
3683.910, 14609.56
3685.838, 14645.96
3687.767, 14685.16
3689.695, 14726.05
3691.624, 14769.19
3693.552, 14807.95
3695.480, 14840.45
3697.409, 14872.55
3699.337, 14903.83
3701.266, 14914.27
3703.194, 14934.42
3705.123, 15008.80
3707.051, 15074.70
3708.980, 15109.90
3710.908, 15139.15
3712.837, 15164.92
3714.765, 15194.61
3716.694, 15224.74
3718.622, 15248.53
3720.551, 15277.53
3722.479, 15317.19
3724.407, 15354.59
3726.336, 15389.83
3728.264, 15434.22
3730.193, 15479.30
3732.121, 15519.28
3734.050, 15549.23
3735.978, 15563.55
3737.907, 15585.33
3739.835, 15616.31
3741.764, 15656.72
3743.692, 15705.56
3745.621, 15771.11
3747.549, 15823.49
3749.478, 15853.28
3751.406, 15861.39
3753.334, 15859.58
3755.263, 15913.75
3757.191, 15978.18
3759.120, 16004.29
3761.048, 16029.68
3762.977, 16066.32
3764.905, 16099.13
3766.834, 16130.32
3768.762, 16169.77
3770.691, 16207.96
3772.619, 16234.13
3774.548, 16258.77
3776.476, 16280.88
3778.405, 16329.39
3780.333, 16390.92
3782.261, 16426.48
3784.190, 16458.77
3786.118, 16504.74
3788.047, 16549.33
3789.975, 16590.65
3791.904, 16602.15
3793.832, 16605.21
3795.761, 16645.34
3797.689, 16691.04
3799.618, 16726.99
3801.546, 16765.83
3803.475, 16808.07
3805.403, 16845.46
3807.332, 16884.77
3809.260, 16945.61
3811.188, 16992.06
3813.117, 17006.85
3815.045, 17040.36
3816.974, 17084.86
3818.902, 17077.54
3820.831, 17077.18
3822.759, 17147.86
3824.688, 17210.20
3826.616, 17241.82
3828.545, 17285.86
3830.473, 17333.18
3832.402, 17366.06
3834.330, 17392.68
3836.259, 17418.04
3838.187, 17440.84
3840.115, 17462.07
3842.044, 17479.36
3843.972, 17507.04
3845.901, 17577.88
3847.829, 17627.72
3849.758, 17636.19
3851.686, 17661.72
3853.615, 17702.07
3855.543, 17742.13
3857.472, 17780.73
3859.400, 17814.10
3861.329, 17849.97
3863.257, 17889.03
3865.186, 17923.08
3867.114, 17958.26
3869.042, 18011.58
3870.971, 18051.51
3872.899, 18056.29
3874.828, 18091.92
3876.756, 18150.18
3878.685, 18181.03
3880.613, 18209.45
3882.542, 18258.29
3884.470, 18293.32
3886.399, 18311.89
3888.327, 18322.67
3890.256, 18337.25
3892.184, 18392.68
3894.113, 18435.75
3896.041, 18437.39
3897.969, 18468.28
3899.898, 18519.58
3901.826, 18565.87
3903.755, 18603.63
3905.683, 18621.88
3907.612, 18650.78
3909.540, 18695.37
3911.469, 18745.75
3913.397, 18789.74
3915.326, 18812.52
3917.254, 18835.03
3919.183, 18865.06
3921.111, 18896.67
3923.040, 18924.96
3924.968, 18953.78
3926.896, 18985.79
3928.825, 19029.95
3930.753, 19051.17
3932.682, 19056.38
3934.610, 19083.29
3936.539, 19125.91
3938.467, 19168.55
3940.396, 19212.07
3942.324, 19256.07
3944.253, 19300.56
3946.181, 19331.00
3948.110, 19331.84
3950.038, 19352.96
3951.967, 19409.82
3953.895, 19474.01
3955.823, 19521.55
3957.752, 19521.84
3959.680, 19529.02
3961.609, 19555.93
3963.537, 19584.30
3965.466, 19615.71
3967.394, 19663.54
3969.323, 19715.48
3971.251, 19758.76
3973.180, 19783.99
3975.108, 19802.72
3977.037, 19822.52
3978.965, 19848.87
3980.894, 19888.82
3982.822, 19917.47
3984.750, 19938.46
3986.679, 19994.60
3988.607, 20050.72
3990.536, 20068.85
3992.464, 20094.51
3994.393, 20112.27
3996.321, 20133.26
3998.250, 20175.28
4000.178, 20213.19
4002.107, 20252.99
4004.035, 20299.08
4005.964, 20305.54
4007.892, 20309.46
4009.821, 20354.54
4011.749, 20399.38
4013.677, 20443.86
4015.606, 20470.56
4017.534, 20486.31
4019.463, 20538.68
4021.391, 20582.61
4023.320, 20585.23
4025.248, 20615.93
4027.177, 20663.77
4029.105, 20696.48
4031.034, 20740.14
4032.962, 20787.33
4034.891, 20822.55
4036.819, 20867.36
4038.748, 20892.83
4040.676, 20898.28
4042.604, 20922.20
4044.533, 20961.31
4046.461, 20986.92
4048.390, 21007.27
4050.318, 21031.12
4052.247, 21046.96
4054.175, 21076.04
4056.104, 21117.42
4058.032, 21142.50
4059.961, 21171.35
4061.889, 21220.60
4063.818, 21259.65
4065.746, 21282.42
4067.675, 21300.34
4069.603, 21314.05
4071.531, 21325.95
4073.460, 21326.93
4075.388, 21328.24
4077.317, 21367.13
4079.245, 21407.43
4081.174, 21425.99
4083.102, 21445.55
4085.031, 21468.52
4086.959, 21509.60
4088.888, 21549.36
4090.816, 21570.21
4092.745, 21603.98
4094.673, 21646.57
4096.602, 21657.53
4098.530, 21664.14
4100.458, 21681.06
4102.387, 21700.35
4104.315, 21718.43
4106.244, 21754.58
4108.172, 21797.90
4110.101, 21830.45
4112.029, 21868.14
4113.958, 21912.67
4115.886, 21907.90
4117.814, 21909.75
4119.743, 21983.19
4121.671, 22019.77
4123.600, 22019.51
4125.528, 22039.93
4127.457, 22060.74
4129.385, 22059.06
4131.314, 22083.67
4133.242, 22131.90
4135.171, 22154.10
4137.099, 22177.21
4139.028, 22218.24
4140.956, 22275.34
4142.885, 22338.83
4144.813, 22367.52
4146.742, 22385.60
4148.670, 22413.76
4150.599, 22414.85
4152.527, 22391.82
4154.456, 22396.85
4156.384, 22410.72
4158.313, 22426.79
4160.241, 22441.99
4162.169, 22454.14
4164.098, 22470.05
4166.026, 22509.11
4167.955, 22602.87
4169.883, 22661.07
4171.812, 22678.35
4173.740, 22699.66
4175.668, 22723.45
4177.597, 22750.09
4179.525, 22764.99
4181.454, 22771.60
4183.382, 22782.99
4185.311, 22787.56
4187.239, 22773.56
4189.168, 22781.12
4191.096, 22808.76
4193.025, 22850.61
4194.953, 22889.06
4196.882, 22905.98
4198.810, 22935.03
4200.739, 22972.78
4202.667, 23007.98
4204.596, 23026.20
4206.524, 23019.62
4208.453, 23013.74
4210.381, 23012.22
4212.310, 23023.34
4214.238, 23046.61
4216.167, 23073.28
4218.095, 23121.54
4220.023, 23177.74
4221.952, 23208.29
4223.880, 23230.50
4225.809, 23248.26
4227.737, 23252.63
4229.666, 23250.90
4231.594, 23249.37
4233.522, 23264.35
4235.451, 23296.18
4237.379, 23305.32
4239.308, 23314.38
4241.236, 23349.20
4243.165, 23370.79
4245.093, 23375.63
4247.022, 23374.99
4248.950, 23392.83
4250.879, 23451.23
4252.807, 23501.70
4254.736, 23536.84
4256.664, 23540.05
4258.593, 23545.12
4260.521, 23570.58
4262.450, 23576.75
4264.378, 23573.44
4266.307, 23586.98
4268.235, 23601.21
4270.164, 23611.62
4272.092, 23608.39
4274.021, 23617.04
4275.949, 23687.69
4277.877, 23727.91
4279.806, 23721.89
4281.734, 23721.12
4283.663, 23725.67
4285.591, 23734.35
4287.520, 23766.56
4289.448, 23813.39
4291.376, 23808.11
4293.305, 23816.74
4295.233, 23876.92
4297.162, 23890.58
4299.090, 23880.32
4301.019, 23907.84
4302.947, 23935.79
4304.876, 23954.18
4306.804, 23987.22
4308.733, 24015.58
4310.661, 24013.04
4312.590, 24009.63
4314.518, 24012.44
4316.447, 24029.89
4318.375, 24064.89
4320.304, 24125.12
4322.232, 24144.08
4324.161, 24140.82
4326.089, 24189.63
4328.018, 24220.25
4329.946, 24212.14
4331.875, 24224.72
4333.803, 24249.70
4335.731, 24282.49
4337.660, 24293.44
4339.588, 24286.59
4341.517, 24303.62
4343.445, 24334.71
4345.374, 24375.09
4347.302, 24394.21
4349.230, 24398.15
4351.159, 24410.76
4353.087, 24419.76
4355.016, 24425.15
4356.944, 24430.92
4358.873, 24440.42
4360.801, 24447.14
4362.730, 24476.43
4364.658, 24516.17
4366.587, 24501.07
4368.515, 24492.13
4370.444, 24541.19
4372.372, 24553.13
4374.301, 24546.78
4376.229, 24541.06
4378.158, 24557.58
4380.086, 24597.69
4382.015, 24642.24
4383.943, 24675.35
4385.872, 24682.14
4387.800, 24689.80
4389.729, 24694.61
4391.657, 24675.53
4393.585, 24662.20
4395.514, 24663.08
4397.442, 24670.17
4399.371, 24682.67
4401.299, 24706.46
4403.228, 24703.93
4405.156, 24685.32
4407.084, 24680.47
4409.013, 24710.75
4410.941, 24781.00
4412.870, 24777.27
4414.798, 24746.75
4416.727, 24739.93
4418.655, 24760.02
4420.584, 24796.23
4422.512, 24795.58
4424.441, 24803.05
4426.369, 24848.95
4428.298, 24838.36
4430.226, 24824.14
4432.155, 24885.92
4434.083, 24930.24
4436.012, 24946.47
4437.940, 24937.05
4439.869, 24928.91
4441.797, 24933.62
4443.726, 24911.71
4445.654, 24894.47
4447.583, 24924.08
4449.511, 24966.42
4451.439, 25007.96
4453.368, 25009.78
4455.296, 25014.94
4457.225, 25040.79
4459.153, 25036.36
4461.082, 25024.84
4463.010, 25035.14
4464.938, 25042.62
4466.867, 25048.77
4468.795, 25085.33
4470.724, 25087.39
4472.652, 25026.73
4474.581, 25022.41
4476.509, 25046.79
4478.438, 25081.93
4480.366, 25101.60
4482.295, 25108.68
4484.223, 25110.24
4486.152, 25119.71
4488.080, 25136.79
4490.009, 25132.53
4491.937, 25130.95
4493.866, 25164.56
4495.794, 25138.24
4497.723, 25089.11
4499.651, 25086.76
4501.580, 25098.49
4503.508, 25118.56
4505.437, 25146.06
4507.365, 25179.14
4509.293, 25216.58
4511.222, 25220.17
4513.150, 25212.96
4515.079, 25221.26
4517.007, 25227.79
4518.936, 25227.43
4520.864, 25208.29
4522.792, 25204.73
4524.721, 25228.96
4526.649, 25215.55
4528.578, 25194.61
4530.506, 25175.73
4532.435, 25209.13
4534.363, 25254.49
4536.292, 25242.38
4538.220, 25247.75
4540.149, 25271.50
4542.077, 25257.68
4544.006, 25242.60
4545.934, 25239.92
4547.863, 25244.18
4549.791, 25243.93
4551.720, 25221.75
4553.648, 25210.44
4555.577, 25213.42
4557.505, 25249.27
4559.434, 25258.21
4561.362, 25238.93
4563.291, 25243.63
4565.219, 25243.25
4567.147, 25228.99
4569.076, 25235.97
4571.004, 25265.36
4572.933, 25325.28
4574.861, 25376.73
4576.790, 25395.40
4578.718, 25312.91
4580.646, 25274.58
4582.575, 25290.20
4584.503, 25291.18
4586.432, 25299.54
4588.360, 25319.47
4590.289, 25293.88
4592.217, 25263.83
4594.146, 25260.03
4596.074, 25253.30
4598.003, 25247.37
4599.931, 25262.03
4601.860, 25243.11
4603.788, 25207.83
4605.717, 25231.04
4607.645, 25243.09
4609.574, 25229.96
4611.502, 25226.85
4613.431, 25245.27
4615.359, 25293.15
4617.288, 25297.45
4619.216, 25280.92
4621.145, 25268.27
4623.073, 25251.31
4625.001, 25238.56
4626.930, 25248.33
4628.858, 25247.79
4630.787, 25235.63
4632.715, 25212.08
4634.644, 25230.78
4636.572, 25299.07
4638.500, 25255.56
4640.429, 25212.71
4642.357, 25234.49
4644.286, 25238.11
4646.214, 25237.41
4648.143, 25248.53
4650.071, 25248.89
4652.000, 25239.34
4653.928, 25222.43
4655.857, 25214.12
4657.785, 25207.20
4659.714, 25145.56
4661.642, 25149.38
4663.571, 25224.25
4665.499, 25188.75
4667.428, 25160.15
4669.356, 25185.18
4671.285, 25212.47
4673.213, 25225.97
4675.142, 25206.28
4677.070, 25230.86
4678.999, 25242.33
4680.927, 25162.29
4682.855, 25171.45
4684.784, 25219.38
4686.712, 25181.06
4688.641, 25151.10
4690.569, 25141.37
4692.498, 25142.51
4694.426, 25150.40
4696.354, 25159.46
4698.283, 25147.47
4700.211, 25116.76
4702.140, 25072.57
4704.068, 25046.84
4705.997, 25021.22
4707.925, 24979.41
4709.854, 24961.36
4711.782, 24967.44
4713.711, 25002.88
4715.639, 24982.81
4717.568, 24939.53
4719.496, 24915.46
4721.425, 24933.76
4723.353, 24966.67
4725.282, 24950.62
4727.210, 24940.36
4729.139, 24936.93
4731.067, 24926.88
4732.996, 24889.97
4734.924, 24836.49
4736.853, 24841.83
4738.781, 24860.69
4740.709, 24878.53
4742.638, 24878.75
4744.566, 24861.72
4746.495, 24830.87
4748.423, 24866.02
4750.352, 24884.89
4752.280, 24821.69
4754.208, 24811.57
4756.137, 24821.31
4758.065, 24827.13
4759.994, 24798.83
4761.922, 24768.39
4763.851, 24779.66
4765.779, 24790.91
4767.708, 24794.10
4769.636, 24775.03
4771.565, 24766.44
4773.493, 24757.92
4775.422, 24720.98
4777.350, 24697.43
4779.279, 24687.37
4781.207, 24678.43
4783.136, 24666.04
4785.064, 24650.61
4786.993, 24623.15
4788.921, 24612.22
4790.850, 24621.34
4792.778, 24664.64
4794.707, 24657.08
4796.635, 24590.44
4798.563, 24566.71
4800.492, 24552.47
4802.420, 24537.67
4804.349, 24512.91
4806.277, 24506.89
4808.206, 24526.80
4810.134, 24490.97
4812.063, 24465.63
4813.991, 24480.07
4815.919, 24479.40
4817.848, 24478.71
4819.776, 24488.76
4821.705, 24466.60
4823.633, 24442.83
4825.562, 24438.18
4827.490, 24392.69
4829.419, 24357.11
4831.347, 24373.09
4833.276, 24363.37
4835.204, 24362.00
4837.133, 24403.37
4839.061, 24388.50
4840.990, 24347.28
4842.918, 24304.55
4844.847, 24308.70
4846.775, 24310.50
4848.704, 24258.86
4850.632, 24225.32
4852.561, 24219.21
4854.489, 24257.63
4856.417, 24225.55
4858.346, 24180.33
4860.274, 24194.12
4862.203, 24165.75
4864.131, 24136.47
4866.060, 24170.52
4867.988, 24161.13
4869.917, 24120.63
4871.845, 24067.79
4873.773, 24010.32
4875.702, 23980.50
4877.630, 24020.59
4879.559, 24058.68
4881.487, 24064.78
4883.416, 23988.71
4885.344, 23967.85
4887.273, 23986.07
4889.201, 24028.40
4891.130, 23993.44
4893.058, 23928.93
4894.987, 23887.17
4896.915, 23896.40
4898.844, 23901.84
4900.772, 23839.85
4902.701, 23802.84
4904.629, 23789.24
4906.558, 23801.01
4908.486, 23759.14
4910.415, 23717.61
4912.343, 23731.64
4914.271, 23724.90
4916.200, 23692.74
4918.128, 23624.99
4920.057, 23633.74
4921.985, 23645.60
4923.914, 23598.53
4925.842, 23601.67
4927.771, 23617.88
4929.699, 23615.89
4931.627, 23600.46
4933.556, 23571.09
4935.484, 23528.50
4937.413, 23520.60
4939.341, 23502.94
4941.270, 23451.89
4943.198, 23423.42
4945.127, 23413.00
4947.055, 23416.60
4948.984, 23425.96
4950.912, 23410.87
4952.841, 23367.89
4954.769, 23362.77
4956.698, 23347.71
4958.626, 23307.83
4960.555, 23275.70
4962.483, 23250.15
4964.412, 23228.21
4966.340, 23196.15
4968.269, 23169.29
4970.197, 23150.40
4972.125, 23138.68
4974.054, 23125.11
4975.982, 23101.54
4977.911, 23041.22
4979.839, 23016.47
4981.768, 23012.75
4983.696, 22979.39
4985.625, 22966.98
4987.553, 22960.13
4989.481, 22926.10
4991.410, 22898.77
4993.338, 22880.36
4995.267, 22876.25
4997.195, 22842.73
4999.124, 22794.01
5001.052, 22742.39
5002.981, 22716.91
5004.909, 22706.77
5006.838, 22702.66
5008.766, 22666.52
5010.695, 22623.36
5012.623, 22585.68
5014.552, 22610.46
5016.480, 22598.21
5018.409, 22537.80
5020.337, 22543.05
5022.266, 22531.06
5024.194, 22495.04
5026.123, 22484.67
5028.051, 22484.66
5029.979, 22481.69
5031.908, 22455.79
5033.836, 22416.53
5035.765, 22376.33
5037.693, 22363.19
5039.622, 22312.21
5041.550, 22258.86
5043.479, 22239.36
5045.407, 22231.74
5047.335, 22221.54
5049.264, 22198.06
5051.192, 22190.63
5053.121, 22169.21
5055.049, 22123.30
5056.978, 22099.94
5058.906, 22074.61
5060.835, 22045.93
5062.763, 22027.53
5064.692, 22036.93
5066.620, 22050.37
5068.549, 21995.98
5070.477, 21956.39
5072.406, 21931.03
5074.334, 21908.03
5076.263, 21868.81
5078.191, 21822.90
5080.120, 21775.96
5082.048, 21765.71
5083.977, 21755.17
5085.905, 21726.10
5087.833, 21709.06
5089.762, 21700.46
5091.690, 21695.50
5093.619, 21683.68
5095.547, 21664.46
5097.476, 21634.82
5099.404, 21584.72
5101.333, 21540.51
5103.261, 21507.38
5105.189, 21486.35
5107.118, 21490.75
5109.046, 21491.07
5110.975, 21458.95
5112.903, 21451.97
5114.832, 21428.16
5116.760, 21377.32
5118.689, 21347.54
5120.617, 21352.64
5122.546, 21370.95
5124.474, 21313.85
5126.403, 21256.59
5128.331, 21233.37
5130.260, 21286.29
5132.188, 21276.79
5134.117, 21236.26
5136.045, 21202.88
5137.974, 21165.79
5139.902, 21143.22
5141.831, 21140.94
5143.759, 21112.16
5145.688, 21065.98
5147.616, 21014.86
5149.544, 20971.25
5151.473, 20986.89
5153.401, 21016.61
5155.330, 20989.95
5157.258, 20940.36
5159.187, 20897.61
5161.115, 20880.63
5163.043, 20856.06
5164.972, 20824.76
5166.900, 20793.09
5168.829, 20786.23
5170.757, 20796.94
5172.686, 20800.57
5174.614, 20747.04
5176.543, 20717.12
5178.471, 20698.87
5180.400, 20672.98
5182.328, 20659.92
5184.257, 20639.78
5186.185, 20603.87
5188.114, 20543.05
5190.042, 20514.49
5191.971, 20508.59
5193.899, 20466.04
5195.828, 20446.15
5197.756, 20434.71
5199.685, 20408.86
5201.613, 20386.94
5203.542, 20359.11
5205.470, 20322.96
5207.398, 20331.18
5209.327, 20292.58
5211.255, 20222.62
5213.184, 20214.68
5215.112, 20193.81
5217.041, 20165.30
5218.969, 20138.72
5220.897, 20130.76
5222.826, 20111.73
5224.754, 20071.71
5226.683, 20041.91
5228.611, 19989.23
5230.540, 19935.61
5232.468, 19951.56
5234.397, 19912.89
5236.325, 19868.73
5238.254, 19867.41
5240.182, 19831.53
5242.111, 19800.97
5244.039, 19783.03
5245.968, 19733.46
5247.896, 19712.67
5249.825, 19707.70
5251.753, 19686.81
5253.682, 19641.94
5255.610, 19612.92
5257.539, 19615.81
5259.467, 19565.45
5261.396, 19539.46
5263.324, 19531.16
5265.252, 19471.28
5267.181, 19413.75
5269.109, 19377.19
5271.038, 19376.14
5272.966, 19338.00
5274.895, 19298.28
5276.823, 19269.14
5278.751, 19246.00
5280.680, 19232.98
5282.608, 19211.72
5284.537, 19148.88
5286.465, 19127.29
5288.394, 19107.79
5290.322, 19072.63
5292.251, 19049.42
5294.179, 19025.08
5296.108, 18996.31
5298.036, 18960.83
5299.965, 18954.29
5301.893, 18934.84
5303.822, 18877.75
5305.750, 18842.69
5307.679, 18829.89
5309.607, 18821.61
5311.536, 18780.70
5313.464, 18760.76
5315.393, 18741.57
5317.321, 18705.59
5319.250, 18665.95
5321.178, 18641.70
5323.106, 18628.46
5325.035, 18606.26
5326.963, 18549.16
5328.892, 18488.28
5330.820, 18449.33
5332.749, 18424.67
5334.677, 18374.57
5336.605, 18313.05
5338.534, 18310.59
5340.462, 18292.57
5342.391, 18265.99
5344.319, 18241.26
5346.248, 18199.71
5348.176, 18162.98
5350.105, 18132.40
5352.033, 18093.56
5353.962, 18080.70
5355.890, 18064.84
5357.819, 18023.15
5359.747, 18010.07
5361.676, 17951.25
5363.604, 17879.11
5365.533, 17903.73
5367.461, 17839.63
5369.390, 17781.39
5371.318, 17787.28
5373.247, 17746.68
5375.175, 17716.54
5377.104, 17696.96
5379.032, 17665.67
5380.960, 17641.52
5382.889, 17603.00
5384.817, 17550.67
5386.746, 17548.80
5388.674, 17516.67
5390.603, 17471.24
5392.531, 17448.68
5394.459, 17406.34
5396.388, 17361.43
5398.316, 17323.25
5400.245, 17298.81
5402.173, 17274.94
5404.102, 17229.29
5406.030, 17152.60
5407.959, 17123.09
5409.887, 17096.34
5411.816, 17067.46
5413.744, 17050.55
5415.673, 17062.47
5417.601, 17040.93
5419.530, 16965.76
5421.458, 16939.56
5423.387, 16899.51
5425.315, 16862.13
5427.244, 16857.19
5429.172, 16817.28
5431.101, 16787.41
5433.029, 16772.63
5434.958, 16738.90
5436.886, 16704.07
5438.814, 16666.76
5440.743, 16627.22
5442.671, 16612.17
5444.600, 16561.90
5446.528, 16496.73
5448.457, 16458.47
5450.385, 16444.74
5452.313, 16423.05
5454.242, 16386.31
5456.170, 16355.11
5458.099, 16304.45
5460.027, 16257.50
5461.956, 16229.55
5463.884, 16170.94
5465.813, 16145.97
5467.741, 16136.02
5469.670, 16101.40
5471.598, 16077.43
5473.527, 16049.66
5475.455, 16017.25
5477.384, 16003.59
5479.312, 15932.43
5481.241, 15883.60
5483.169, 15891.52
5485.098, 15838.05
5487.026, 15798.30
5488.955, 15765.46
5490.883, 15721.70
5492.812, 15667.36
5494.740, 15676.88
5496.668, 15698.25
5498.597, 15604.15
5500.525, 15571.87
5502.454, 15550.62
5504.382, 15518.80
5506.311, 15508.79
5508.239, 15460.16
5510.167, 15406.47
5512.096, 15370.96
5514.024, 15319.96
5515.953, 15297.49
5517.881, 15281.56
5519.810, 15243.20
5521.738, 15182.95
5523.667, 15154.61
5525.595, 15147.32
5527.524, 15122.08
5529.452, 15074.80
5531.381, 15029.11
5533.309, 14987.43
5535.238, 14931.04
5537.166, 14892.36
5539.095, 14884.87
5541.023, 14894.08
5542.952, 14836.04
5544.880, 14793.13
5546.809, 14770.58
5548.737, 14758.80
5550.666, 14702.47
5552.594, 14680.67
5554.522, 14667.69
5556.451, 14621.98
5558.379, 14604.33
5560.308, 14574.67
5562.236, 14532.65
5564.165, 14491.60
5566.093, 14447.11
5568.021, 14425.04
5569.950, 14413.89
5571.878, 14376.82
5573.807, 14363.23
5575.735, 14332.42
5577.664, 14281.29
5579.592, 14247.38
5581.521, 14217.04
5583.449, 14182.45
5585.378, 14142.36
5587.306, 14105.70
5589.235, 14069.43
5591.163, 14037.56
5593.092, 14007.89
5595.020, 13950.38
5596.949, 13936.57
5598.877, 13915.39
5600.806, 13855.90
5602.734, 13849.91
5604.663, 13819.65
5606.591, 13773.52
5608.520, 13729.71
5610.448, 13691.35
5612.376, 13657.92
5614.305, 13611.88
5616.233, 13545.31
5618.162, 13528.69
5620.090, 13494.85
5622.019, 13451.61
5623.947, 13420.41
5625.875, 13419.45
5627.804, 13383.15
5629.732, 13334.13
5631.661, 13311.45
5633.589, 13293.71
5635.518, 13259.93
5637.446, 13224.04
5639.375, 13206.09
5641.303, 13171.82
5643.232, 13163.97
5645.160, 13145.83
5647.089, 13071.95
5649.017, 13018.65
5650.946, 12989.12
5652.874, 12970.57
5654.803, 12948.79
5656.731, 12898.08
5658.660, 12864.85
5660.588, 12836.78
5662.517, 12787.21
5664.445, 12747.54
5666.374, 12743.09
5668.302, 12732.96
5670.230, 12672.61
5672.159, 12642.90
5674.087, 12614.45
5676.016, 12590.65
5677.944, 12578.33
5679.873, 12560.70
5681.801, 12506.85
5683.729, 12449.32
5685.658, 12417.59
5687.586, 12381.28
5689.515, 12336.59
5691.443, 12306.79
5693.372, 12304.33
5695.300, 12291.28
5697.229, 12245.15
5699.157, 12196.16
5701.086, 12163.97
5703.014, 12133.61
5704.943, 12100.61
5706.871, 12071.19
5708.800, 12044.76
5710.728, 12003.51
5712.657, 11976.88
5714.585, 11945.92
5716.514, 11909.67
5718.442, 11898.21
5720.371, 11863.45
5722.299, 11819.06
5724.228, 11776.93
5726.156, 11747.34
5728.084, 11718.68
5730.013, 11702.81
5731.941, 11682.30
5733.870, 11624.12
5735.798, 11595.27
5737.727, 11576.88
5739.655, 11540.56
5741.583, 11472.62
5743.512, 11491.46
5745.440, 11456.02
5747.369, 11402.67
5749.297, 11377.12
5751.226, 11345.12
5753.154, 11314.13
5755.083, 11292.32
5757.011, 11273.86
5758.940, 11211.34
5760.868, 11206.41
5762.797, 11176.10
5764.725, 11114.73
5766.654, 11106.71
5768.582, 11059.26
5770.511, 11046.64
5772.439, 11048.65
5774.368, 11005.53
5776.296, 10964.55
5778.225, 10912.95
5780.153, 10877.19
5782.082, 10875.62
5784.010, 10863.30
5785.938, 10822.65
5787.867, 10778.15
5789.795, 10742.58
5791.724, 10697.29
5793.652, 10724.85
5795.581, 10714.32
5797.509, 10648.66
5799.438, 10584.68
5801.366, 10539.97
5803.294, 10515.26
5805.223, 10507.57
5807.151, 10510.59
5809.080, 10478.72
5811.008, 10438.11
5812.937, 10393.42
5814.865, 10346.99
5816.794, 10301.96
5818.722, 10275.59
5820.651, 10252.37
5822.579, 10233.40
5824.508, 10230.45
5826.436, 10173.00
5828.365, 10145.16
5830.293, 10121.98
5832.222, 10071.50
5834.150, 10069.06
5836.079, 10031.04
5838.007, 10004.78
5839.936, 10004.48
5841.864, 9979.677
5843.792, 9951.526
5845.721, 9917.298
5847.649, 9874.456
5849.578, 9821.751
5851.506, 9830.490
5853.435, 9786.878
5855.363, 9756.939
5857.292, 9770.312
5859.220, 9711.263
5861.148, 9710.603
5863.077, 9680.429
5865.005, 9627.235
5866.934, 9613.188
5868.862, 9580.941
5870.791, 9544.646
5872.719, 9520.616
5874.648, 9513.952
5876.576, 9509.989
5878.505, 9496.507
5880.433, 9466.999
5882.362, 9424.933
5884.290, 9379.277
5886.219, 9347.326
5888.147, 9329.737
5890.076, 9302.651
5892.004, 9261.885
5893.933, 9256.232
5895.861, 9240.893
5897.790, 9199.698
5899.718, 9152.420
5901.646, 9130.295
5903.575, 9116.661
5905.503, 9099.484
5907.432, 9065.229
5909.360, 9018.378
5911.289, 8992.448
5913.217, 8953.511
5915.146, 8933.946
5917.074, 8920.905
5919.002, 8890.706
5920.931, 8858.411
5922.859, 8833.170
5924.788, 8813.612
5926.716, 8789.553
5928.645, 8745.796
5930.573, 8733.030
5932.502, 8718.220
5934.430, 8689.740
5936.359, 8652.301
5938.287, 8630.744
5940.216, 8577.030
5942.144, 8552.306
5944.073, 8544.342
5946.001, 8516.014
5947.930, 8493.707
5949.858, 8459.107
5951.787, 8444.579
5953.715, 8441.778
5955.644, 8406.016
5957.572, 8382.131
5959.500, 8349.320
5961.429, 8313.076
5963.357, 8284.148
5965.286, 8276.646
5967.214, 8226.021
5969.143, 8199.857
5971.071, 8193.797
5973.000, 8179.923
5974.928, 8146.979
5976.856, 8113.144
5978.785, 8090.734
5980.713, 8073.858
5982.642, 8049.563
5984.570, 8013.892
5986.499, 7975.381
5988.427, 7947.757
5990.356, 7929.665
5992.284, 7905.441
5994.213, 7892.942
5996.141, 7853.901
5998.070, 7827.390
5999.998, 7825.300
6001.927, 7808.980
6003.855, 7770.161
6005.784, 7730.896
6007.712, 7703.821
6009.641, 7687.781
6011.569, 7665.550
6013.498, 7644.294
6015.426, 7607.741
6017.354, 7572.447
6019.283, 7554.126
6021.211, 7540.267
6023.140, 7499.004
6025.068, 7486.872
6026.997, 7482.450
6028.925, 7456.108
6030.854, 7451.412
6032.782, 7412.822
6034.710, 7381.443
6036.639, 7356.957
6038.567, 7325.171
6040.496, 7302.923
6042.424, 7280.202
6044.353, 7252.049
6046.281, 7222.209
6048.210, 7199.142
6050.138, 7204.251
6052.067, 7165.260
6053.995, 7125.552
6055.924, 7099.681
6057.852, 7080.521
6059.781, 7060.536
6061.709, 7043.154
6063.638, 7023.849
6065.566, 7000.927
6067.495, 6975.028
6069.423, 6945.466
6071.352, 6926.705
6073.280, 6895.542
6075.208, 6860.689
6077.137, 6837.069
6079.065, 6818.970
6080.994, 6831.170
6082.922, 6805.841
6084.851, 6773.087
6086.779, 6761.733
6088.708, 6720.199
6090.636, 6684.499
6092.564, 6670.163
6094.493, 6651.248
6096.421, 6619.513
6098.350, 6610.844
6100.278, 6570.738
6102.207, 6551.634
6104.135, 6541.054
6106.064, 6526.357
6107.992, 6514.874
6109.921, 6480.702
6111.849, 6438.993
6113.778, 6424.679
6115.706, 6426.548
6117.635, 6403.496
6119.563, 6364.902
6121.492, 6363.532
6123.420, 6338.374
6125.349, 6297.616
6127.277, 6279.540
6129.206, 6256.940
6131.134, 6218.212
6133.063, 6205.315
6134.991, 6192.570
6136.919, 6159.547
6138.848, 6150.548
6140.776, 6133.036
6142.705, 6109.813
6144.633, 6082.445
6146.562, 6061.921
6148.490, 6064.440
6150.418, 6030.374
6152.347, 5991.586
6154.275, 5973.175
6156.204, 5957.700
6158.132, 5922.879
6160.061, 5933.349
6161.989, 5898.864
6163.918, 5883.009
6165.846, 5880.336
6167.775, 5857.171
6169.703, 5792.062
6171.632, 5804.429
6173.560, 5794.171
6175.489, 5775.995
6177.417, 5752.072
6179.346, 5704.333
6181.274, 5716.610
6183.203, 5687.294
6185.131, 5651.313
6187.060, 5628.339
6188.988, 5616.438
6190.917, 5605.621
6192.845, 5575.729
6194.773, 5559.918
6196.702, 5546.838
6198.630, 5522.424
6200.559, 5487.029
6202.487, 5467.890
6204.416, 5463.645
6206.344, 5446.261
6208.272, 5425.662
6210.201, 5411.071
6212.129, 5383.152
6214.058, 5365.480
6215.986, 5358.611
6217.915, 5337.851
6219.843, 5303.509
6221.772, 5278.018
6223.700, 5295.757
6225.629, 5246.922
6227.557, 5236.847
6229.486, 5228.532
6231.414, 5198.424
6233.343, 5191.767
6235.271, 5168.358
6237.200, 5124.099
6239.128, 5114.390
6241.057, 5116.871
6242.985, 5098.238
6244.914, 5077.330
6246.842, 5055.052
6248.771, 5041.586
6250.699, 5029.448
6252.627, 5010.565
6254.556, 4983.190
6256.484, 4957.873
6258.413, 4938.608
6260.341, 4918.310
6262.270, 4894.773
6264.198, 4876.788
6266.126, 4874.073
6268.055, 4865.243
6269.983, 4835.656
6271.912, 4819.731
6273.840, 4811.060
6275.769, 4799.102
6277.697, 4782.748
6279.626, 4744.531
6281.554, 4731.194
6283.483, 4717.829
6285.411, 4692.271
6287.340, 4670.909
6289.268, 4677.581
6291.197, 4650.657
6293.125, 4638.248
6295.054, 4604.313
6296.982, 4582.650
6298.911, 4585.914
6300.839, 4573.710
6302.768, 4534.532
6304.696, 4528.107
6306.625, 4507.866
6308.553, 4488.108
6310.481, 4481.432
6312.410, 4468.821
6314.338, 4448.331
6316.267, 4428.879
6318.195, 4411.368
6320.124, 4393.522
6322.052, 4376.957
6323.980, 4365.169
6325.909, 4341.773
6327.837, 4339.710
6329.766, 4314.841
6331.694, 4294.589
6333.623, 4287.202
6335.551, 4271.225
6337.480, 4262.693
6339.408, 4266.260
6341.337, 4246.883
6343.265, 4213.831
6345.194, 4193.206
6347.122, 4191.646
6349.051, 4160.237
6350.979, 4136.390
6352.908, 4115.209
6354.836, 4103.445
6356.765, 4095.944
6358.693, 4084.908
6360.622, 4070.831
6362.550, 4047.007
6364.479, 4025.179
6366.407, 4012.073
6368.335, 4002.515
6370.264, 3996.853
6372.192, 3996.989
6374.121, 3966.314
6376.049, 3958.950
6377.978, 3954.774
6379.906, 3924.312
6381.834, 3894.845
6383.763, 3897.736
6385.691, 3883.748
6387.620, 3848.546
6389.548, 3828.236
6391.477, 3821.380
6393.405, 3815.541
6395.334, 3804.782
6397.262, 3791.308
6399.191, 3762.464
6401.119, 3735.621
6403.048, 3744.834
6404.976, 3736.932
6406.905, 3707.972
6408.833, 3692.262
6410.762, 3692.927
6412.690, 3657.650
6414.619, 3649.785
6416.547, 3644.653
6418.476, 3622.564
6420.404, 3604.568
6422.333, 3617.176
6424.261, 3596.438
6426.189, 3605.357
6428.118, 3575.739
6430.046, 3562.192
6431.975, 3550.358
6433.903, 3520.661
6435.832, 3509.543
6437.760, 3502.505
6439.688, 3501.940
6441.617, 3473.475
6443.545, 3447.885
6445.474, 3444.028
6447.402, 3448.743
6449.331, 3435.407
6451.259, 3414.905
6453.188, 3384.458
6455.116, 3387.294
6457.045, 3383.981
6458.973, 3359.691
6460.902, 3338.280
6462.830, 3340.380
6464.759, 3326.963
6466.687, 3298.907
6468.616, 3310.245
6470.544, 3302.219
6472.473, 3279.317
6474.401, 3275.195
6476.330, 3241.744
6478.258, 3231.729
6480.187, 3223.928
6482.115, 3216.736
6484.043, 3207.470
6485.972, 3195.415
6487.900, 3180.907
6489.829, 3162.238
6491.757, 3135.240
6493.686, 3123.817
6495.614, 3110.333
6497.542, 3113.526
6499.471, 3102.080
6501.399, 3066.222
6503.328, 3061.015
6505.256, 3065.337
6507.185, 3061.718
6509.113, 3048.217
6511.042, 3029.475
6512.970, 3011.898
6514.899, 2997.374
6516.827, 2984.799
6518.756, 2979.593
6520.684, 2963.118
6522.613, 2963.588
6524.541, 2946.374
6526.470, 2934.161
6528.398, 2930.436
6530.327, 2919.340
6532.255, 2909.056
6534.184, 2885.065
6536.112, 2869.484
6538.041, 2862.906
6539.969, 2858.972
6541.897, 2848.631
6543.826, 2834.313
6545.754, 2825.392
6547.683, 2807.356
6549.611, 2803.843
6551.540, 2809.353
6553.468, 2788.313
6555.396, 2777.097
6557.325, 2768.813
6559.253, 2744.208
6561.182, 2732.627
6563.110, 2731.365
6565.039, 2717.422
6566.967, 2725.625
6568.896, 2706.839
6570.824, 2682.189
6572.753, 2672.146
6574.681, 2667.155
6576.610, 2661.495
6578.538, 2664.648
6580.467, 2646.181
6582.395, 2625.200
6584.324, 2617.000
6586.252, 2609.958
6588.181, 2593.486
6590.109, 2579.282
6592.038, 2591.825
6593.966, 2580.868
6595.895, 2563.366
6597.823, 2555.166
6599.751, 2542.524
6601.680, 2525.065
6603.608, 2511.842
6605.537, 2510.341
6607.465, 2520.433
6609.394, 2483.374
6611.322, 2482.008
6613.250, 2477.210
6615.179, 2477.459
6617.107, 2465.865
6619.036, 2451.411
6620.964, 2448.625
6622.893, 2437.800
6624.821, 2420.774
6626.750, 2412.147
##END=



