##NAMES=Talc
##RRUFFID=R050058
##IDEAL CHEMISTRY=Mg_3_Si_4_O_10_(OH)_2_
##LOCALITY=Murphy, North Carolina, USA
##OWNER=RRUFF
##SOURCE=Rock Currier
##DESCRIPTION=Fine-grained massive fragment
##STATUS=The identification of this mineral has been confirmed by X-ray diffraction and chemical analysis
##URL=https://www.rruff.net/odr/rruff_sample/R050058
##MEASURED CHEMISTRY=(Mg_.994_Fe_.006_)_3_(Si_.996_Al_.004_)_4_O_10_(OH)_2_
##DIFFRACTION SAMPLE DESCRIPTION=Powder
##CELL PARAMETERS=a: 4.774 b: 8.8749 c: 19.246 alpha: 90 beta: 103.77 gamma: 90 volume: 792.1 crystal system: monoclinic
##FILETYPE=Raman RAW
##RAMAN WAVELENGTH=532

181.6360, 4638.065
183.5645, 4700.426
185.4929, 4758.034
187.4214, 4823.649
189.3499, 4901.186
191.2783, 4987.196
193.2068, 5072.753
195.1353, 5166.473
197.0637, 5251.677
198.9922, 5322.286
200.9207, 5398.013
202.8491, 5427.130
204.7776, 5372.764
206.7061, 5258.173
208.6345, 5157.404
210.5630, 5065.918
212.4915, 4996.300
214.4199, 4968.182
216.3484, 4997.606
218.2769, 5027.994
220.2053, 5041.657
222.1338, 5038.661
224.0623, 5043.480
225.9907, 5059.863
227.9192, 5082.439
229.8477, 5106.430
231.7761, 5133.984
233.7046, 5158.640
235.6331, 5178.012
237.5615, 5190.237
239.4900, 5203.777
241.4185, 5219.082
243.3469, 5235.456
245.2754, 5251.835
247.2039, 5266.963
249.1323, 5283.969
251.0608, 5304.675
252.9893, 5331.618
254.9177, 5354.886
256.8462, 5377.515
258.7747, 5395.174
260.7031, 5402.659
262.6316, 5381.290
264.5601, 5368.465
266.4885, 5379.798
268.4170, 5422.602
270.3455, 5461.465
272.2739, 5492.333
274.2024, 5517.502
276.1309, 5540.200
278.0593, 5560.472
279.9878, 5578.159
281.9163, 5588.889
283.8447, 5590.646
285.7732, 5603.676
287.7017, 5647.713
289.6301, 5704.405
291.5586, 5739.879
293.4871, 5732.930
295.4155, 5724.180
297.3440, 5731.948
299.2725, 5757.016
301.2009, 5772.965
303.1294, 5761.664
305.0579, 5738.939
306.9863, 5736.126
308.9148, 5771.501
310.8433, 5807.681
312.7717, 5833.621
314.7002, 5850.431
316.6287, 5857.100
318.5571, 5836.645
320.4856, 5808.666
322.4141, 5812.101
324.3425, 5870.056
326.2710, 5927.046
328.1995, 5961.119
330.1279, 5970.729
332.0564, 5984.949
333.9849, 6014.826
335.9133, 6048.743
337.8418, 6068.431
339.7703, 6066.439
341.6987, 6064.540
343.6272, 6069.039
345.5557, 6079.480
347.4841, 6097.229
349.4126, 6127.337
351.3411, 6161.686
353.2695, 6189.300
355.1980, 6203.253
357.1265, 6226.115
359.0549, 6269.743
360.9834, 6336.677
362.9119, 6390.417
364.8403, 6430.472
366.7688, 6459.554
368.6973, 6480.585
370.6257, 6495.942
372.5542, 6498.234
374.4827, 6481.471
376.4111, 6447.825
378.3396, 6417.410
380.2681, 6382.064
382.1965, 6355.438
384.1250, 6350.258
386.0535, 6371.618
387.9819, 6384.260
389.9104, 6371.896
391.8389, 6344.625
393.7673, 6332.792
395.6958, 6345.969
397.6243, 6362.982
399.5527, 6374.908
401.4812, 6381.005
403.4097, 6392.764
405.3381, 6417.768
407.2666, 6447.454
409.1951, 6469.554
411.1235, 6483.391
413.0520, 6492.308
414.9805, 6490.150
416.9089, 6478.766
418.8374, 6484.080
420.7659, 6524.483
422.6943, 6572.304
424.6228, 6606.542
426.5513, 6625.476
428.4797, 6638.393
430.4082, 6643.132
432.3367, 6642.621
434.2651, 6645.131
436.1936, 6655.139
438.1221, 6664.701
440.0505, 6668.087
441.9790, 6663.426
443.9075, 6666.647
445.8359, 6689.641
447.7644, 6719.209
449.6929, 6738.990
451.6213, 6732.844
453.5498, 6732.711
455.4783, 6749.928
457.4067, 6782.104
459.3352, 6803.755
461.2637, 6802.447
463.1921, 6798.102
465.1206, 6804.508
467.0491, 6836.873
468.9775, 6856.557
470.9060, 6848.056
472.8345, 6826.281
474.7629, 6825.238
476.6914, 6860.574
478.6199, 6895.242
480.5483, 6913.942
482.4768, 6910.705
484.4053, 6913.075
486.3337, 6924.931
488.2622, 6939.791
490.1907, 6952.496
492.1191, 6963.952
494.0476, 6970.850
495.9761, 6967.312
497.9045, 6956.902
499.8330, 6957.838
501.7615, 6980.452
503.6899, 7003.651
505.6184, 7015.468
507.5469, 7016.467
509.4753, 7024.374
511.4038, 7048.117
513.3323, 7077.663
515.2607, 7104.410
517.1892, 7133.994
519.1177, 7153.919
521.0461, 7153.793
522.9746, 7142.234
524.9031, 7141.279
526.8315, 7163.436
528.7600, 7185.000
530.6885, 7194.917
532.6169, 7187.292
534.5454, 7186.661
536.4739, 7197.190
538.4023, 7212.558
540.3308, 7228.786
542.2593, 7250.182
544.1877, 7260.427
546.1162, 7243.629
548.0447, 7210.383
549.9731, 7205.155
551.9016, 7253.184
553.8301, 7300.382
555.7585, 7322.096
557.6870, 7321.172
559.6155, 7330.388
561.5439, 7373.201
563.4724, 7416.427
565.4009, 7435.078
567.3293, 7411.942
569.2578, 7395.349
571.1863, 7385.078
573.1147, 7385.636
575.0432, 7404.796
576.9717, 7462.319
578.9001, 7509.321
580.8286, 7526.028
582.7571, 7512.140
584.6855, 7509.638
586.6140, 7524.123
588.5425, 7544.707
590.4709, 7571.284
592.3994, 7606.632
594.3279, 7623.017
596.2563, 7594.747
598.1848, 7555.524
600.1133, 7542.973
602.0417, 7572.532
603.9702, 7602.357
605.8987, 7628.304
607.8271, 7650.007
609.7556, 7666.391
611.6841, 7673.912
613.6125, 7680.198
615.5410, 7686.677
617.4695, 7693.256
619.3979, 7703.400
621.3264, 7714.609
623.2549, 7731.251
625.1833, 7759.098
627.1118, 7800.174
629.0403, 7833.231
630.9688, 7847.707
632.8972, 7855.688
634.8257, 7870.384
636.7542, 7902.374
638.6826, 7924.546
640.6111, 7918.725
642.5396, 7903.191
644.4680, 7912.051
646.3965, 7965.208
648.3250, 8015.764
650.2534, 8042.975
652.1819, 8047.353
654.1104, 8071.161
656.0388, 8129.460
657.9673, 8191.856
659.8958, 8242.833
661.8242, 8283.078
663.7527, 8324.308
665.6812, 8357.337
667.6096, 8399.396
669.5381, 8463.756
671.4666, 8571.442
673.3950, 8670.230
675.3235, 8772.677
677.2520, 8859.588
679.1804, 8911.285
681.1089, 8923.673
683.0374, 8910.664
684.9658, 8870.705
686.8943, 8809.712
688.8228, 8744.595
690.7512, 8668.372
692.6797, 8595.640
694.6082, 8528.474
696.5366, 8467.799
698.4651, 8416.170
700.3936, 8372.913
702.3220, 8341.264
704.2505, 8323.483
706.1790, 8322.558
708.1074, 8322.343
710.0359, 8322.427
711.9644, 8323.418
713.8928, 8324.516
715.8213, 8325.070
717.7498, 8331.855
719.6782, 8353.941
721.6067, 8378.229
723.5352, 8392.549
725.4636, 8382.858
727.3921, 8388.624
729.3206, 8431.621
731.2490, 8484.313
733.1775, 8502.011
735.1060, 8470.746
737.0344, 8447.936
738.9629, 8460.302
740.8914, 8491.890
742.8198, 8511.637
744.7483, 8501.006
746.6768, 8500.075
748.6052, 8522.422
750.5337, 8562.073
752.4622, 8592.111
754.3906, 8607.963
756.3191, 8621.434
758.2476, 8638.421
760.1760, 8657.846
762.1045, 8672.378
764.0330, 8678.382
765.9614, 8682.136
767.8899, 8681.843
769.8184, 8676.989
771.7468, 8685.697
773.6753, 8724.896
775.6038, 8762.123
777.5322, 8775.331
779.4607, 8764.878
781.3892, 8767.201
783.3176, 8810.295
785.2461, 8849.757
787.1746, 8856.268
789.1030, 8810.387
791.0315, 8789.785
792.9600, 8812.635
794.8884, 8848.523
796.8169, 8873.935
798.7454, 8887.569
800.6738, 8905.651
802.6023, 8939.431
804.5308, 8974.199
806.4592, 8998.793
808.3877, 9010.711
810.3162, 9015.190
812.2446, 8999.859
814.1731, 8983.749
816.1016, 8990.584
818.0300, 9025.393
819.9585, 9054.053
821.8870, 9062.296
823.8154, 9062.563
825.7439, 9066.963
827.6724, 9078.604
829.6008, 9089.318
831.5293, 9093.751
833.4578, 9098.714
835.3862, 9115.144
837.3147, 9145.590
839.2432, 9176.750
841.1716, 9212.368
843.1001, 9243.890
845.0286, 9257.827
846.9570, 9240.113
848.8855, 9233.432
850.8140, 9251.023
852.7424, 9280.985
854.6709, 9304.763
856.5994, 9324.005
858.5278, 9334.884
860.4563, 9329.032
862.3848, 9317.109
864.3132, 9310.965
866.2417, 9307.577
868.1702, 9319.292
870.0986, 9362.913
872.0271, 9417.706
873.9556, 9451.303
875.8840, 9442.673
877.8125, 9441.490
879.7410, 9452.167
881.6694, 9472.111
883.5979, 9500.560
885.5264, 9543.609
887.4548, 9573.351
889.3833, 9568.279
891.3118, 9551.210
893.2402, 9549.909
895.1687, 9577.271
897.0972, 9599.903
899.0256, 9609.347
900.9541, 9615.361
902.8826, 9632.352
904.8110, 9662.946
906.7395, 9691.505
908.6680, 9715.184
910.5964, 9734.729
912.5249, 9751.805
914.4534, 9768.137
916.3818, 9775.789
918.3103, 9759.289
920.2388, 9743.021
922.1672, 9753.535
924.0957, 9809.433
926.0242, 9844.496
927.9526, 9833.729
929.8811, 9816.235
931.8096, 9828.169
933.7380, 9871.498
935.6665, 9900.748
937.5950, 9889.749
939.5234, 9876.266
941.4519, 9884.122
943.3804, 9921.681
945.3088, 9951.274
947.2373, 9970.389
949.1658, 9984.668
951.0942, 9991.988
953.0227, 9993.312
954.9512, 10010.99
956.8796, 10068.15
958.8081, 10115.53
960.7366, 10120.44
962.6650, 10088.24
964.5935, 10072.92
966.5220, 10092.63
968.4504, 10114.41
970.3789, 10124.98
972.3074, 10127.68
974.2358, 10145.51
976.1643, 10192.12
978.0928, 10234.57
980.0212, 10260.11
981.9497, 10275.65
983.8782, 10297.03
985.8066, 10331.85
987.7351, 10354.76
989.6636, 10344.22
991.5920, 10321.84
993.5205, 10322.67
995.4490, 10370.11
997.3774, 10405.44
999.3059, 10418.09
1001.234, 10420.67
1003.163, 10424.15
1005.091, 10425.50
1007.020, 10442.66
1008.948, 10494.13
1010.877, 10550.16
1012.805, 10587.59
1014.734, 10604.82
1016.662, 10629.77
1018.591, 10690.67
1020.519, 10737.22
1022.448, 10737.15
1024.376, 10687.45
1026.304, 10659.85
1028.233, 10656.33
1030.161, 10669.90
1032.090, 10716.56
1034.018, 10779.36
1035.947, 10804.84
1037.875, 10770.83
1039.804, 10743.96
1041.732, 10750.72
1043.661, 10778.77
1045.589, 10809.97
1047.518, 10848.81
1049.446, 10881.49
1051.375, 10901.29
1053.303, 10917.43
1055.231, 10941.05
1057.160, 10976.99
1059.088, 11003.42
1061.017, 11022.60
1062.945, 11028.98
1064.874, 11008.33
1066.802, 10965.72
1068.731, 10943.77
1070.659, 10953.23
1072.588, 10977.63
1074.516, 11018.62
1076.445, 11071.09
1078.373, 11105.02
1080.302, 11097.15
1082.230, 11098.50
1084.158, 11123.71
1086.087, 11160.97
1088.015, 11189.44
1089.944, 11209.66
1091.872, 11222.03
1093.801, 11219.42
1095.729, 11213.94
1097.658, 11210.09
1099.586, 11207.26
1101.515, 11227.28
1103.443, 11300.64
1105.372, 11367.77
1107.300, 11398.78
1109.229, 11395.31
1111.157, 11393.22
1113.085, 11390.15
1115.014, 11391.28
1116.942, 11397.44
1118.871, 11408.69
1120.799, 11424.73
1122.728, 11443.92
1124.656, 11471.80
1126.585, 11534.14
1128.513, 11587.62
1130.442, 11587.20
1132.370, 11530.88
1134.299, 11500.61
1136.227, 11520.86
1138.156, 11556.74
1140.084, 11601.96
1142.012, 11653.61
1143.941, 11685.69
1145.869, 11676.02
1147.798, 11674.52
1149.726, 11700.60
1151.655, 11735.93
1153.583, 11744.71
1155.512, 11716.02
1157.440, 11710.52
1159.369, 11763.01
1161.297, 11821.30
1163.226, 11844.93
1165.154, 11838.80
1167.083, 11847.64
1169.011, 11885.02
1170.939, 11924.93
1172.868, 11958.68
1174.796, 11987.58
1176.725, 12015.94
1178.653, 12052.01
1180.582, 12073.50
1182.510, 12063.79
1184.439, 12049.17
1186.367, 12056.70
1188.296, 12090.63
1190.224, 12115.89
1192.153, 12124.71
1194.081, 12132.08
1196.010, 12148.20
1197.938, 12167.51
1199.866, 12173.18
1201.795, 12154.56
1203.723, 12150.63
1205.652, 12187.01
1207.580, 12234.92
1209.509, 12268.23
1211.437, 12283.09
1213.366, 12300.72
1215.294, 12326.83
1217.223, 12351.08
1219.151, 12366.71
1221.080, 12376.30
1223.008, 12392.18
1224.937, 12417.67
1226.865, 12443.43
1228.793, 12475.10
1230.722, 12502.05
1232.650, 12503.77
1234.579, 12480.29
1236.507, 12485.85
1238.436, 12545.68
1240.364, 12611.23
1242.293, 12666.59
1244.221, 12709.03
1246.150, 12725.86
1248.078, 12702.68
1250.007, 12688.46
1251.935, 12691.69
1253.864, 12708.38
1255.792, 12741.68
1257.720, 12798.54
1259.649, 12830.19
1261.577, 12810.96
1263.506, 12799.28
1265.434, 12821.09
1267.363, 12861.83
1269.291, 12888.54
1271.220, 12897.67
1273.148, 12907.82
1275.077, 12918.69
1277.005, 12934.36
1278.934, 12963.12
1280.862, 13000.51
1282.791, 13024.85
1284.719, 13027.85
1286.647, 13032.20
1288.576, 13039.49
1290.504, 13055.93
1292.433, 13094.63
1294.361, 13163.63
1296.290, 13213.73
1298.218, 13224.52
1300.147, 13233.17
1302.075, 13256.37
1304.004, 13288.47
1305.932, 13311.00
1307.861, 13319.60
1309.789, 13324.85
1311.718, 13315.46
1313.646, 13312.34
1315.574, 13336.36
1317.503, 13385.51
1319.431, 13426.59
1321.360, 13463.46
1323.288, 13484.14
1325.217, 13456.63
1327.145, 13427.93
1329.074, 13459.42
1331.002, 13553.02
1332.931, 13619.54
1334.859, 13635.67
1336.788, 13637.17
1338.716, 13629.61
1340.645, 13621.22
1342.573, 13632.78
1344.501, 13672.30
1346.430, 13707.52
1348.358, 13737.83
1350.287, 13759.20
1352.215, 13763.53
1354.144, 13754.51
1356.072, 13757.24
1358.001, 13782.82
1359.929, 13804.78
1361.858, 13810.40
1363.786, 13820.06
1365.715, 13860.59
1367.643, 13931.38
1369.572, 13967.36
1371.500, 13941.47
1373.428, 13925.57
1375.357, 13945.91
1377.285, 13982.60
1379.214, 14014.26
1381.142, 14041.14
1383.071, 14071.20
1384.999, 14110.94
1386.928, 14144.48
1388.856, 14163.21
1390.785, 14172.31
1392.713, 14176.14
1394.642, 14173.64
1396.570, 14175.99
1398.499, 14183.28
1400.427, 14198.09
1402.355, 14222.63
1404.284, 14254.80
1406.212, 14291.82
1408.141, 14339.58
1410.069, 14374.95
1411.998, 14390.00
1413.926, 14399.58
1415.855, 14402.04
1417.783, 14404.25
1419.712, 14427.92
1421.640, 14504.35
1423.569, 14549.62
1425.497, 14529.96
1427.426, 14513.00
1429.354, 14545.13
1431.282, 14611.55
1433.211, 14658.40
1435.139, 14688.43
1437.068, 14694.47
1438.996, 14635.06
1440.925, 14589.72
1442.853, 14625.49
1444.782, 14714.81
1446.710, 14770.82
1448.639, 14783.93
1450.567, 14796.05
1452.496, 14813.18
1454.424, 14836.36
1456.353, 14872.10
1458.281, 14914.06
1460.209, 14942.95
1462.138, 14954.70
1464.066, 14966.78
1465.995, 14980.79
1467.923, 14999.35
1469.852, 15026.36
1471.780, 15059.28
1473.709, 15088.06
1475.637, 15113.07
1477.566, 15132.51
1479.494, 15135.70
1481.423, 15143.76
1483.351, 15177.92
1485.280, 15226.38
1487.208, 15243.06
1489.136, 15206.38
1491.065, 15187.85
1492.993, 15200.88
1494.922, 15223.50
1496.850, 15240.29
1498.779, 15259.08
1500.707, 15304.50
1502.636, 15414.28
1504.564, 15474.14
1506.493, 15449.98
1508.421, 15416.49
1510.350, 15390.48
1512.278, 15381.34
1514.207, 15414.07
1516.135, 15508.51
1518.063, 15576.85
1519.992, 15603.23
1521.920, 15621.00
1523.849, 15636.91
1525.777, 15653.43
1527.706, 15676.31
1529.634, 15706.50
1531.563, 15727.75
1533.491, 15730.64
1535.420, 15738.13
1537.348, 15764.45
1539.277, 15794.01
1541.205, 15805.90
1543.134, 15803.56
1545.062, 15815.59
1546.990, 15851.01
1548.919, 15881.90
1550.847, 15897.22
1552.776, 15907.46
1554.704, 15916.87
1556.633, 15927.67
1558.561, 15948.78
1560.490, 15983.24
1562.418, 16016.06
1564.347, 16041.77
1566.275, 16067.40
1568.204, 16098.15
1570.132, 16131.31
1572.061, 16162.22
1573.989, 16191.00
1575.917, 16216.37
1577.846, 16238.54
1579.774, 16256.73
1581.703, 16265.68
1583.631, 16273.46
1585.560, 16290.72
1587.488, 16316.97
1589.417, 16340.79
1591.345, 16360.59
1593.274, 16379.46
1595.202, 16398.99
1597.131, 16417.34
1599.059, 16425.93
1600.988, 16430.81
1602.916, 16467.78
1604.844, 16554.74
1606.773, 16608.38
1608.701, 16577.80
1610.630, 16554.63
1612.558, 16591.10
1614.487, 16657.30
1616.415, 16703.39
1618.344, 16729.04
1620.272, 16735.11
1622.201, 16701.70
1624.129, 16683.24
1626.058, 16700.95
1627.986, 16734.38
1629.915, 16770.01
1631.843, 16807.20
1633.771, 16839.46
1635.700, 16867.30
1637.628, 16888.46
1639.557, 16894.25
1641.485, 16902.40
1643.414, 16922.59
1645.342, 16949.22
1647.271, 16971.30
1649.199, 16987.20
1651.128, 17011.10
1653.056, 17056.19
1654.985, 17088.29
1656.913, 17084.58
1658.842, 17079.10
1660.770, 17104.21
1662.698, 17152.15
1664.627, 17178.36
1666.555, 17171.56
1668.484, 17178.35
1670.412, 17220.67
1672.341, 17256.88
1674.269, 17264.25
1676.198, 17262.93
1678.126, 17280.58
1680.055, 17318.19
1681.983, 17344.52
1683.912, 17344.77
1685.840, 17365.09
1687.769, 17439.83
1689.697, 17508.48
1691.625, 17537.17
1693.554, 17538.37
1695.482, 17532.46
1697.411, 17515.30
1699.339, 17523.56
1701.268, 17580.33
1703.196, 17625.12
1705.125, 17635.48
1707.053, 17635.76
1708.982, 17631.98
1710.910, 17632.08
1712.839, 17672.03
1714.767, 17763.80
1716.696, 17832.64
1718.624, 17873.94
1720.552, 17885.17
1722.481, 17827.57
1724.409, 17772.90
1726.338, 17795.47
1728.266, 17878.87
1730.195, 17937.46
1732.123, 17968.57
1734.052, 17980.78
1735.980, 17958.32
1737.909, 17943.92
1739.837, 17957.62
1741.766, 17985.43
1743.694, 18016.50
1745.623, 18050.25
1747.551, 18084.65
1749.479, 18120.86
1751.408, 18151.64
1753.336, 18179.37
1755.265, 18195.53
1757.193, 18184.79
1759.122, 18169.01
1761.050, 18167.78
1762.979, 18180.73
1764.907, 18207.25
1766.836, 18248.95
1768.764, 18296.15
1770.693, 18353.19
1772.621, 18405.30
1774.550, 18451.71
1776.478, 18484.81
1778.406, 18488.29
1780.335, 18471.43
1782.263, 18472.03
1784.192, 18494.46
1786.120, 18517.27
1788.049, 18538.67
1789.977, 18556.79
1791.906, 18579.15
1793.834, 18591.16
1795.763, 18559.85
1797.691, 18504.84
1799.620, 18509.84
1801.548, 18589.56
1803.477, 18648.60
1805.405, 18647.04
1807.333, 18666.84
1809.262, 18767.53
1811.190, 18865.89
1813.119, 18878.90
1815.047, 18837.79
1816.976, 18837.84
1818.904, 18897.85
1820.833, 18916.35
1822.761, 18833.24
1824.690, 18797.77
1826.618, 18872.56
1828.547, 18960.96
1830.475, 19009.76
1832.404, 19028.87
1834.332, 19025.85
1836.260, 18995.80
1838.189, 19010.35
1840.117, 19111.00
1842.046, 19178.75
1843.974, 19185.82
1845.903, 19180.28
1847.831, 19176.96
1849.760, 19174.01
1851.688, 19160.18
1853.617, 19141.38
1855.545, 19171.90
1857.474, 19270.02
1859.402, 19320.98
1861.331, 19277.95
1863.259, 19251.57
1865.188, 19299.04
1867.116, 19354.65
1869.044, 19372.28
1870.973, 19367.93
1872.901, 19370.33
1874.830, 19379.47
1876.758, 19390.44
1878.687, 19401.13
1880.615, 19420.61
1882.544, 19457.47
1884.472, 19494.22
1886.401, 19518.15
1888.329, 19540.93
1890.258, 19585.09
1892.186, 19638.90
1894.115, 19649.39
1896.043, 19604.52
1897.971, 19596.05
1899.900, 19664.00
1901.828, 19715.17
1903.757, 19720.80
1905.685, 19715.57
1907.614, 19714.90
1909.542, 19718.73
1911.471, 19723.54
1913.399, 19730.51
1915.328, 19761.14
1917.256, 19839.66
1919.185, 19883.85
1921.113, 19851.68
1923.042, 19840.74
1924.970, 19895.89
1926.898, 19954.12
1928.827, 19964.12
1930.755, 19954.81
1932.684, 19987.38
1934.612, 20055.21
1936.541, 20076.19
1938.469, 20035.82
1940.398, 20009.39
1942.326, 20005.81
1944.255, 20026.22
1946.183, 20094.90
1948.112, 20162.62
1950.040, 20187.94
1951.969, 20191.31
1953.897, 20209.84
1955.825, 20240.52
1957.754, 20249.50
1959.682, 20224.38
1961.611, 20219.50
1963.539, 20244.13
1965.468, 20285.72
1967.396, 20363.78
1969.325, 20433.12
1971.253, 20460.57
1973.182, 20460.64
1975.110, 20452.56
1977.039, 20437.06
1978.967, 20424.89
1980.896, 20412.58
1982.824, 20416.06
1984.752, 20443.14
1986.681, 20473.53
1988.609, 20511.08
1990.538, 20539.73
1992.466, 20535.02
1994.395, 20529.15
1996.323, 20571.85
1998.252, 20643.50
2000.180, 20678.87
2002.109, 20675.42
2004.037, 20675.25
2005.966, 20686.21
2007.894, 20690.08
2009.823, 20657.19
2011.751, 20649.61
2013.679, 20725.75
2015.608, 20807.09
2017.536, 20804.09
2019.465, 20761.06
2021.393, 20788.12
2023.322, 20887.50
2025.250, 20928.07
2027.179, 20873.32
2029.107, 20855.97
2031.036, 20908.05
2032.964, 20956.42
2034.893, 20984.30
2036.821, 21002.90
2038.750, 21017.87
2040.678, 21026.57
2042.606, 21017.22
2044.535, 21001.02
2046.463, 21011.76
2048.392, 21049.16
2050.320, 21084.60
2052.249, 21115.52
2054.177, 21145.82
2056.106, 21183.63
2058.034, 21210.20
2059.963, 21214.31
2061.891, 21211.61
2063.820, 21200.58
2065.748, 21197.16
2067.677, 21239.45
2069.605, 21310.72
2071.533, 21318.88
2073.462, 21249.07
2075.390, 21234.80
2077.319, 21299.21
2079.247, 21355.54
2081.176, 21390.17
2083.104, 21412.99
2085.033, 21418.37
2086.961, 21424.51
2088.890, 21457.48
2090.818, 21487.33
2092.747, 21465.25
2094.675, 21411.13
2096.604, 21389.40
2098.532, 21402.38
2100.460, 21421.20
2102.389, 21455.18
2104.317, 21476.60
2106.246, 21462.34
2108.174, 21469.15
2110.103, 21539.15
2112.031, 21595.90
2113.960, 21576.14
2115.888, 21547.28
2117.817, 21587.38
2119.745, 21662.32
2121.674, 21690.47
2123.602, 21682.82
2125.531, 21720.69
2127.459, 21816.69
2129.387, 21852.70
2131.316, 21780.24
2133.244, 21732.53
2135.173, 21748.65
2137.101, 21777.53
2139.030, 21819.29
2140.958, 21847.29
2142.887, 21822.94
2144.815, 21788.74
2146.744, 21807.71
2148.672, 21863.24
2150.601, 21900.03
2152.529, 21918.43
2154.458, 21924.97
2156.386, 21918.33
2158.314, 21910.95
2160.243, 21896.36
2162.171, 21905.00
2164.100, 21966.01
2166.028, 22022.97
2167.957, 22059.13
2169.885, 22076.75
2171.814, 22059.77
2173.742, 22038.11
2175.671, 22057.81
2177.599, 22105.42
2179.528, 22142.02
2181.456, 22167.39
2183.385, 22163.66
2185.313, 22124.46
2187.241, 22108.93
2189.170, 22128.54
2191.098, 22156.44
2193.027, 22201.08
2194.955, 22225.57
2196.884, 22194.91
2198.812, 22164.50
2200.741, 22163.80
2202.669, 22184.08
2204.598, 22227.64
2206.526, 22280.07
2208.455, 22306.67
2210.383, 22312.52
2212.312, 22349.42
2214.240, 22419.88
2216.168, 22435.16
2218.097, 22376.36
2220.025, 22345.00
2221.954, 22367.71
2223.882, 22391.92
2225.811, 22400.68
2227.739, 22409.90
2229.668, 22439.37
2231.596, 22455.77
2233.525, 22415.05
2235.453, 22367.17
2237.382, 22370.04
2239.310, 22408.97
2241.239, 22462.90
2243.167, 22525.09
2245.095, 22553.77
2247.024, 22548.85
2248.952, 22528.93
2250.881, 22489.57
2252.809, 22474.92
2254.738, 22502.67
2256.666, 22530.70
2258.595, 22553.86
2260.523, 22570.80
2262.452, 22578.47
2264.380, 22583.05
2266.309, 22582.44
2268.237, 22585.85
2270.166, 22609.01
2272.094, 22636.44
2274.022, 22642.75
2275.951, 22635.50
2277.879, 22633.44
2279.808, 22636.37
2281.736, 22638.94
2283.665, 22639.45
2285.593, 22649.03
2287.522, 22673.87
2289.450, 22697.03
2291.379, 22727.88
2293.307, 22739.02
2295.236, 22709.24
2297.164, 22688.31
2299.093, 22698.98
2301.021, 22715.53
2302.949, 22726.60
2304.878, 22733.51
2306.806, 22727.98
2308.735, 22726.25
2310.663, 22755.12
2312.592, 22803.52
2314.520, 22848.08
2316.449, 22887.47
2318.377, 22910.95
2320.306, 22918.55
2322.234, 22901.19
2324.163, 22852.70
2326.091, 22849.66
2328.020, 22919.40
2329.948, 22958.92
2331.876, 22926.81
2333.805, 22900.53
2335.733, 22890.53
2337.662, 22901.26
2339.590, 22955.63
2341.519, 23004.38
2343.447, 23020.79
2345.376, 23019.44
2347.304, 22996.88
2349.233, 22975.98
2351.161, 22992.52
2353.090, 23025.07
2355.018, 23031.49
2356.947, 23018.85
2358.875, 23016.81
2360.803, 23025.04
2362.732, 23017.04
2364.660, 22984.13
2366.589, 23001.80
2368.517, 23088.91
2370.446, 23117.74
2372.374, 23052.24
2374.303, 23013.45
2376.231, 23042.65
2378.160, 23068.65
2380.088, 23057.83
2382.017, 23059.51
2383.945, 23106.90
2385.874, 23151.12
2387.802, 23169.74
2389.730, 23171.74
2391.659, 23149.28
2393.587, 23127.19
2395.516, 23133.54
2397.444, 23152.93
2399.373, 23164.33
2401.301, 23171.04
2403.230, 23180.86
2405.158, 23193.25
2407.087, 23205.85
2409.015, 23218.65
2410.944, 23232.81
2412.872, 23248.82
2414.801, 23241.89
2416.729, 23205.71
2418.657, 23201.22
2420.586, 23250.14
2422.514, 23281.36
2424.443, 23272.92
2426.371, 23264.01
2428.300, 23249.08
2430.228, 23252.00
2432.157, 23302.20
2434.085, 23330.27
2436.014, 23292.47
2437.942, 23253.92
2439.871, 23250.13
2441.799, 23259.91
2443.728, 23270.88
2445.656, 23285.52
2447.584, 23318.32
2449.513, 23345.91
2451.441, 23329.17
2453.370, 23291.28
2455.298, 23263.65
2457.227, 23251.98
2459.155, 23280.87
2461.084, 23337.08
2463.012, 23364.95
2464.941, 23366.65
2466.869, 23374.57
2468.798, 23389.99
2470.726, 23399.08
2472.655, 23402.26
2474.583, 23389.50
2476.511, 23355.44
2478.440, 23353.17
2480.368, 23402.11
2482.297, 23432.88
2484.225, 23418.67
2486.154, 23412.41
2488.082, 23442.34
2490.011, 23440.46
2491.939, 23355.10
2493.868, 23319.49
2495.796, 23414.10
2497.725, 23491.13
2499.653, 23468.17
2501.582, 23431.43
2503.510, 23409.37
2505.438, 23408.04
2507.367, 23454.86
2509.295, 23497.20
2511.224, 23470.99
2513.152, 23444.21
2515.081, 23499.05
2517.009, 23568.49
2518.938, 23576.98
2520.866, 23550.80
2522.795, 23509.31
2524.723, 23474.53
2526.652, 23510.29
2528.580, 23583.38
2530.509, 23597.80
2532.437, 23568.14
2534.365, 23530.96
2536.294, 23492.85
2538.222, 23490.66
2540.151, 23520.80
2542.079, 23517.93
2544.008, 23478.66
2545.936, 23455.95
2547.865, 23449.20
2549.793, 23493.03
2551.722, 23593.58
2553.650, 23622.63
2555.579, 23544.19
2557.507, 23523.24
2559.436, 23636.34
2561.364, 23667.94
2563.292, 23576.49
2565.221, 23534.33
2567.149, 23571.92
2569.078, 23613.07
2571.006, 23648.29
2572.935, 23669.81
2574.863, 23675.75
2576.792, 23667.82
2578.720, 23628.53
2580.649, 23604.63
2582.577, 23605.54
2584.506, 23623.96
2586.434, 23676.63
2588.363, 23709.43
2590.291, 23674.58
2592.219, 23651.75
2594.148, 23712.44
2596.076, 23741.16
2598.005, 23638.02
2599.933, 23547.73
2601.862, 23538.18
2603.790, 23566.96
2605.719, 23654.37
2607.647, 23710.84
2609.576, 23629.45
2611.504, 23545.09
2613.433, 23566.64
2615.361, 23629.16
2617.290, 23716.77
2619.218, 23776.84
2621.146, 23733.61
2623.075, 23671.59
2625.003, 23677.55
2626.932, 23712.08
2628.860, 23742.48
2630.789, 23762.43
2632.717, 23748.99
2634.646, 23733.33
2636.574, 23767.10
2638.503, 23814.53
2640.431, 23824.50
2642.360, 23814.47
2644.288, 23808.62
2646.217, 23806.69
2648.145, 23807.35
2650.073, 23812.22
2652.002, 23833.50
2653.930, 23855.76
2655.859, 23843.18
2657.787, 23812.36
2659.716, 23794.62
2661.644, 23792.54
2663.573, 23830.01
2665.501, 23881.39
2667.430, 23865.20
2669.358, 23813.31
2671.287, 23811.06
2673.215, 23843.27
2675.144, 23870.72
2677.072, 23889.56
2679.000, 23874.94
2680.929, 23842.29
2682.857, 23850.39
2684.786, 23882.86
2686.714, 23880.00
2688.643, 23851.71
2690.571, 23830.29
2692.500, 23819.77
2694.428, 23851.08
2696.357, 23908.10
2698.285, 23931.63
2700.214, 23926.87
2702.142, 23916.92
2704.071, 23902.07
2705.999, 23879.16
2707.927, 23852.45
2709.856, 23840.67
2711.784, 23844.72
2713.713, 23890.10
2715.641, 23951.23
2717.570, 23905.84
2719.498, 23788.54
2721.427, 23765.39
2723.355, 23812.38
2725.284, 23805.05
2727.212, 23769.11
2729.141, 23805.97
2731.069, 23887.93
2732.998, 23924.01
2734.926, 23918.41
2736.854, 23862.40
2738.783, 23784.38
2740.711, 23805.02
2742.640, 23885.75
2744.568, 23924.62
2746.497, 23929.33
2748.425, 23910.18
2750.354, 23880.84
2752.282, 23890.63
2754.211, 23918.68
2756.139, 23903.11
2758.068, 23870.02
2759.996, 23869.10
2761.925, 23897.52
2763.853, 23981.95
2765.781, 24070.60
2767.710, 24021.13
2769.638, 23923.20
2771.567, 23938.48
2773.495, 24003.79
2775.424, 24022.88
2777.352, 24017.24
2779.281, 24006.72
2781.209, 24006.10
2783.138, 24063.19
2785.066, 24117.40
2786.995, 24072.58
2788.923, 24007.12
2790.852, 24028.81
2792.780, 24066.99
2794.708, 24023.23
2796.637, 23979.58
2798.565, 24035.43
2800.494, 24094.82
2802.422, 24048.58
2804.351, 23997.72
2806.279, 24046.32
2808.208, 24097.13
2810.136, 24070.47
2812.065, 24045.05
2813.993, 24088.51
2815.922, 24126.65
2817.850, 24095.05
2819.779, 24075.88
2821.707, 24128.75
2823.635, 24167.25
2825.564, 24148.09
2827.492, 24114.07
2829.421, 24064.23
2831.349, 24033.73
2833.278, 24051.15
2835.206, 24049.83
2837.135, 23985.28
2839.063, 23974.60
2840.992, 24118.04
2842.920, 24199.12
2844.849, 24132.80
2846.777, 24120.25
2848.706, 24205.37
2850.634, 24246.76
2852.563, 24215.18
2854.491, 24155.22
2856.419, 24036.96
2858.348, 23993.77
2860.276, 24038.34
2862.205, 24047.64
2864.133, 24009.44
2866.062, 24035.71
2867.990, 24142.07
2869.919, 24197.86
2871.847, 24203.26
2873.776, 24189.32
2875.704, 24160.93
2877.633, 24145.13
2879.561, 24141.59
2881.490, 24151.08
2883.418, 24167.75
2885.346, 24156.22
2887.275, 24140.78
2889.203, 24207.19
2891.132, 24291.05
2893.060, 24263.00
2894.989, 24185.97
2896.917, 24139.86
2898.846, 24120.85
2900.774, 24147.21
2902.703, 24169.34
2904.631, 24123.90
2906.560, 24075.70
2908.488, 24066.57
2910.417, 24089.89
2912.345, 24170.27
2914.273, 24230.60
2916.202, 24218.62
2918.130, 24195.96
2920.059, 24173.25
2921.987, 24169.91
2923.916, 24202.25
2925.844, 24219.63
2927.773, 24202.07
2929.701, 24181.51
2931.630, 24153.18
2933.558, 24150.67
2935.487, 24179.81
2937.415, 24205.54
2939.344, 24224.72
2941.272, 24228.66
2943.200, 24212.77
2945.129, 24246.69
2947.057, 24318.91
2948.986, 24315.32
2950.914, 24249.71
2952.843, 24194.97
2954.771, 24157.09
2956.700, 24169.98
2958.628, 24204.12
2960.557, 24188.18
2962.485, 24162.83
2964.414, 24189.85
2966.342, 24230.11
2968.271, 24241.14
2970.199, 24243.83
2972.127, 24254.73
2974.056, 24262.33
2975.984, 24255.57
2977.913, 24249.96
2979.841, 24260.56
2981.770, 24255.60
2983.698, 24207.15
2985.627, 24196.16
2987.555, 24304.73
2989.484, 24322.43
2991.412, 24196.64
2993.341, 24175.79
2995.269, 24293.67
2997.198, 24281.79
2999.126, 24104.40
3001.054, 24068.15
3002.983, 24159.82
3004.911, 24223.14
3006.840, 24255.49
3008.768, 24257.99
3010.697, 24228.74
3012.625, 24117.07
3014.554, 24010.83
3016.482, 24082.20
3018.411, 24193.47
3020.339, 24223.13
3022.268, 24222.67
3024.196, 24201.27
3026.125, 24212.64
3028.053, 24323.25
3029.981, 24381.80
3031.910, 24275.05
3033.838, 24204.54
3035.767, 24220.94
3037.695, 24230.14
3039.624, 24218.69
3041.552, 24213.52
3043.481, 24217.96
3045.409, 24233.92
3047.338, 24259.96
3049.266, 24256.90
3051.195, 24226.12
3053.123, 24157.54
3055.052, 24086.01
3056.980, 24122.53
3058.908, 24196.80
3060.837, 24202.06
3062.765, 24184.63
3064.694, 24198.71
3066.622, 24194.03
3068.551, 24079.60
3070.479, 24029.08
3072.408, 24161.81
3074.336, 24260.83
3076.265, 24231.52
3078.193, 24202.99
3080.122, 24185.67
3082.050, 24186.29
3083.979, 24208.42
3085.907, 24207.63
3087.835, 24182.47
3089.764, 24210.25
3091.692, 24270.64
3093.621, 24274.50
3095.549, 24249.19
3097.478, 24251.57
3099.406, 24260.80
3101.335, 24235.03
3103.263, 24219.78
3105.192, 24272.99
3107.120, 24315.19
3109.049, 24294.57
3110.977, 24263.03
3112.906, 24228.87
3114.834, 24203.20
3116.762, 24181.03
3118.691, 24199.09
3120.619, 24268.54
3122.548, 24263.63
3124.476, 24190.04
3126.405, 24179.54
3128.333, 24209.99
3130.262, 24159.32
3132.190, 24089.81
3134.119, 24140.06
3136.047, 24221.68
3137.976, 24245.18
3139.904, 24250.43
3141.833, 24266.57
3143.761, 24269.83
3145.689, 24240.94
3147.618, 24216.71
3149.546, 24215.01
3151.475, 24188.48
3153.403, 24129.25
3155.332, 24110.45
3157.260, 24137.94
3159.189, 24153.27
3161.117, 24156.74
3163.046, 24134.80
3164.974, 24114.45
3166.903, 24152.70
3168.831, 24208.79
3170.760, 24256.49
3172.688, 24272.28
3174.616, 24219.00
3176.545, 24171.85
3178.473, 24174.60
3180.402, 24154.72
3182.330, 24091.87
3184.259, 24079.36
3186.187, 24141.02
3188.116, 24140.17
3190.044, 24085.27
3191.973, 24111.23
3193.901, 24170.25
3195.830, 24131.23
3197.758, 24071.17
3199.687, 24112.81
3201.615, 24160.50
3203.543, 24131.59
3205.472, 24112.42
3207.400, 24154.08
3209.329, 24193.05
3211.257, 24228.53
3213.186, 24198.07
3215.114, 24071.12
3217.043, 24060.55
3218.971, 24152.43
3220.900, 24167.91
3222.828, 24140.50
3224.757, 24144.92
3226.685, 24162.01
3228.614, 24183.30
3230.542, 24181.92
3232.470, 24101.64
3234.399, 24061.99
3236.327, 24160.82
3238.256, 24197.72
3240.184, 24139.80
3242.113, 24106.20
3244.041, 24111.14
3245.970, 24085.41
3247.898, 24047.28
3249.827, 24107.85
3251.755, 24195.83
3253.684, 24202.35
3255.612, 24168.40
3257.541, 24102.25
3259.469, 24060.25
3261.397, 24108.18
3263.326, 24103.29
3265.254, 23985.90
3267.183, 23953.58
3269.111, 24024.67
3271.040, 24094.67
3272.968, 24150.85
3274.897, 24110.02
3276.825, 24045.30
3278.754, 24129.83
3280.682, 24211.21
3282.611, 24106.14
3284.539, 23997.18
3286.468, 23959.61
3288.396, 23947.42
3290.324, 23961.85
3292.253, 23965.04
3294.181, 23956.14
3296.110, 23961.96
3298.038, 23977.33
3299.967, 23962.04
3301.895, 23944.34
3303.824, 24003.96
3305.752, 24048.06
3307.681, 23956.97
3309.609, 23904.26
3311.538, 23975.54
3313.466, 24030.39
3315.395, 24040.12
3317.323, 24022.14
3319.251, 23978.53
3321.180, 23937.69
3323.108, 23914.76
3325.037, 23981.02
3326.965, 24047.26
3328.894, 23953.71
3330.822, 23873.53
3332.751, 23941.07
3334.679, 23980.16
3336.608, 23934.42
3338.536, 23889.69
3340.465, 23853.52
3342.393, 23840.54
3344.322, 23846.09
3346.250, 23836.16
3348.178, 23837.46
3350.107, 23913.65
3352.035, 23982.29
3353.964, 23963.08
3355.892, 23940.57
3357.821, 23950.61
3359.749, 23920.41
3361.678, 23825.07
3363.606, 23770.16
3365.535, 23751.93
3367.463, 23744.57
3369.392, 23745.94
3371.320, 23757.33
3373.249, 23771.49
3375.177, 23785.54
3377.105, 23795.53
3379.034, 23805.79
3380.962, 23792.69
3382.891, 23751.64
3384.819, 23732.71
3386.748, 23728.52
3388.676, 23632.35
3390.605, 23537.19
3392.533, 23636.29
3394.462, 23740.51
3396.390, 23660.82
3398.319, 23604.78
3400.247, 23644.16
3402.176, 23669.53
3404.104, 23663.90
3406.032, 23667.81
3407.961, 23678.19
3409.889, 23682.09
3411.818, 23682.23
3413.746, 23695.95
3415.675, 23686.28
3417.603, 23597.32
3419.532, 23550.02
3421.460, 23584.49
3423.389, 23597.35
3425.317, 23581.49
3427.246, 23560.30
3429.174, 23543.62
3431.103, 23575.87
3433.031, 23604.80
3434.959, 23573.71
3436.888, 23531.35
3438.816, 23487.66
3440.745, 23475.38
3442.673, 23512.33
3444.602, 23487.02
3446.530, 23416.13
3448.459, 23417.95
3450.387, 23459.05
3452.316, 23513.24
3454.244, 23552.77
3456.173, 23561.86
3458.101, 23556.22
3460.030, 23536.90
3461.958, 23506.54
3463.886, 23468.12
3465.815, 23458.89
3467.743, 23461.85
3469.672, 23451.21
3471.600, 23417.69
3473.529, 23313.64
3475.457, 23269.19
3477.386, 23363.82
3479.314, 23398.47
3481.243, 23361.29
3483.171, 23370.63
3485.100, 23403.47
3487.028, 23388.23
3488.957, 23342.96
3490.885, 23243.36
3492.813, 23202.10
3494.742, 23282.29
3496.670, 23307.68
3498.599, 23240.56
3500.527, 23249.08
3502.456, 23303.45
3504.384, 23303.19
3506.313, 23279.36
3508.241, 23242.23
3510.170, 23234.12
3512.098, 23289.23
3514.027, 23293.05
3515.955, 23220.53
3517.884, 23162.78
3519.812, 23115.03
3521.740, 23044.29
3523.669, 22999.20
3525.597, 23052.39
3527.526, 23114.65
3529.454, 23171.35
3531.383, 23176.06
3533.311, 23127.46
3535.240, 23068.72
3537.168, 23014.07
3539.097, 22979.22
3541.025, 22992.75
3542.954, 23139.36
3544.882, 23201.80
3546.811, 23049.33
3548.739, 22962.66
3550.667, 22953.59
3552.596, 22946.31
3554.524, 22949.16
3556.453, 23024.93
3558.381, 23063.89
3560.310, 22928.75
3562.238, 22867.79
3564.167, 22944.76
3566.095, 22930.78
3568.024, 22832.85
3569.952, 22865.84
3571.881, 22933.81
3573.809, 22879.88
3575.738, 22843.27
3577.666, 22928.74
3579.594, 22966.34
3581.523, 22928.35
3583.451, 22859.65
3585.380, 22775.54
3587.308, 22714.75
3589.237, 22682.83
3591.165, 22708.69
3593.094, 22724.83
3595.022, 22709.07
3596.951, 22697.51
3598.879, 22693.89
3600.808, 22710.75
3602.736, 22720.67
3604.665, 22652.00
3606.593, 22607.30
3608.521, 22657.38
3610.450, 22696.53
3612.378, 22702.52
3614.307, 22679.37
3616.235, 22640.03
3618.164, 22638.59
3620.092, 22628.52
3622.021, 22531.04
3623.949, 22476.01
3625.878, 22525.03
3627.806, 22512.98
3629.735, 22449.06
3631.663, 22509.88
3633.592, 22605.70
3635.520, 22620.47
3637.448, 22593.98
3639.377, 22528.36
3641.305, 22481.10
3643.234, 22458.12
3645.162, 22469.00
3647.091, 22504.80
3649.019, 22561.86
3650.948, 22607.61
3652.876, 22617.08
3654.805, 22629.83
3656.733, 22655.80
3658.662, 22674.40
3660.590, 22694.61
3662.519, 22724.44
3664.447, 22798.18
3666.375, 22951.79
3668.304, 23133.93
3670.232, 23320.10
3672.161, 23614.19
3674.089, 23944.91
3676.018, 24033.54
3677.946, 23953.51
3679.875, 23716.78
3681.803, 23496.26
3683.732, 23385.81
3685.660, 23218.31
3687.589, 23004.19
3689.517, 22828.72
3691.446, 22667.58
3693.374, 22462.44
3695.302, 22307.24
3697.231, 22250.06
3699.159, 22260.93
3701.088, 22313.30
3703.016, 22185.73
3704.945, 22010.88
3706.873, 21976.09
3708.802, 21989.85
3710.730, 22035.14
3712.659, 22077.34
3714.587, 22109.08
3716.516, 22055.28
3718.444, 21986.72
3720.373, 22031.38
3722.301, 22060.71
3724.229, 22003.93
3726.158, 21975.16
3728.086, 21975.82
3730.015, 21955.63
3731.943, 21921.21
3733.872, 21850.39
3735.800, 21833.59
3737.729, 21956.95
3739.657, 21952.35
3741.586, 21835.07
3743.514, 21837.43
3745.443, 21880.78
3747.371, 21865.41
3749.300, 21846.37
3751.228, 21849.45
3753.156, 21814.61
3755.085, 21751.64
3757.013, 21718.14
3758.942, 21712.56
3760.870, 21750.10
3762.799, 21787.03
3764.727, 21817.03
3766.656, 21813.86
3768.584, 21780.77
3770.513, 21713.07
3772.441, 21658.86
3774.370, 21687.88
3776.298, 21663.93
3778.227, 21522.65
3780.155, 21576.98
3782.083, 21722.24
3784.012, 21694.68
3785.940, 21609.48
3787.869, 21515.04
3789.797, 21479.96
3791.726, 21520.57
3793.654, 21488.63
3795.583, 21434.52
3797.511, 21440.65
3799.440, 21461.67
3801.368, 21484.25
3803.297, 21476.11
3805.225, 21439.24
3807.154, 21422.44
3809.082, 21410.29
3811.010, 21387.03
3812.939, 21356.74
3814.867, 21318.25
3816.796, 21305.09
3818.724, 21315.79
3820.653, 21372.00
3822.581, 21402.71
3824.510, 21334.21
3826.438, 21266.47
3828.367, 21214.64
3830.295, 21230.57
3832.224, 21272.89
3834.152, 21274.59
3836.081, 21258.21
3838.009, 21226.26
3839.938, 21202.62
3841.866, 21183.58
3843.794, 21127.40
3845.723, 21087.77
3847.651, 21130.92
3849.580, 21139.66
3851.508, 21100.31
3853.437, 21070.25
3855.365, 21046.97
3857.294, 21019.06
3859.222, 21002.72
3861.151, 21018.29
3863.079, 20983.36
3865.008, 20905.40
3866.936, 20839.36
3868.865, 20802.36
3870.793, 20842.66
3872.721, 20857.41
3874.650, 20810.97
3876.578, 20797.92
3878.507, 20799.34
3880.435, 20781.26
3882.364, 20754.55
3884.292, 20727.89
3886.221, 20660.69
3888.149, 20566.10
3890.078, 20558.44
3892.006, 20589.97
3893.935, 20655.98
3895.863, 20648.66
3897.792, 20551.05
3899.720, 20494.67
3901.648, 20465.39
3903.577, 20421.05
3905.505, 20394.47
3907.434, 20404.33
3909.362, 20407.52
3911.291, 20398.34
3913.219, 20354.22
3915.148, 20295.23
3917.076, 20211.36
3919.005, 20187.05
3920.933, 20221.77
3922.862, 20220.32
3924.790, 20208.15
3926.719, 20211.57
3928.647, 20206.84
3930.575, 20196.78
3932.504, 20150.40
3934.432, 20096.46
3936.361, 20056.46
3938.289, 19994.14
3940.218, 19918.00
3942.146, 19900.38
3944.075, 19919.97
3946.003, 19913.60
3947.932, 19890.22
3949.860, 19857.03
3951.789, 19825.03
3953.717, 19793.10
3955.646, 19749.55
3957.574, 19735.02
3959.502, 19787.72
3961.431, 19792.40
3963.359, 19752.83
3965.288, 19680.61
3967.216, 19607.61
3969.145, 19633.42
3971.073, 19629.81
3973.002, 19551.55
3974.930, 19510.77
3976.859, 19480.24
3978.787, 19452.56
3980.716, 19450.95
3982.644, 19494.50
3984.573, 19478.93
3986.501, 19414.10
3988.429, 19389.13
3990.358, 19380.37
3992.286, 19354.45
3994.215, 19347.94
3996.143, 19366.90
3998.072, 19298.78
4000.000, 19221.43
4001.929, 19222.69
4003.857, 19232.12
4005.786, 19195.96
4007.714, 19133.75
4009.643, 19132.75
4011.571, 19170.88
4013.500, 19134.49
4015.428, 19091.90
4017.356, 19049.59
4019.285, 19003.60
4021.213, 19026.22
4023.142, 19032.31
4025.070, 18992.54
4026.999, 18967.51
4028.927, 18985.67
4030.856, 19031.76
4032.784, 18983.63
4034.713, 18881.30
4036.641, 18838.76
4038.570, 18822.68
4040.498, 18859.78
4042.427, 18866.12
4044.355, 18819.80
4046.283, 18761.90
4048.212, 18706.70
4050.140, 18732.80
4052.069, 18728.68
4053.997, 18690.93
4055.926, 18697.35
4057.854, 18681.73
4059.783, 18637.44
4061.711, 18638.71
4063.640, 18630.19
4065.568, 18578.89
4067.497, 18548.52
4069.425, 18491.02
4071.354, 18481.25
4073.282, 18512.30
4075.210, 18463.58
4077.139, 18427.99
4079.067, 18451.09
4080.996, 18457.26
4082.924, 18431.03
4084.853, 18364.23
4086.781, 18309.64
4088.710, 18301.07
4090.638, 18300.27
4092.567, 18295.89
4094.495, 18275.56
4096.424, 18246.12
4098.352, 18198.59
4100.280, 18177.29
4102.209, 18178.38
4104.138, 18130.83
4106.066, 18092.32
4107.994, 18105.05
4109.923, 18092.77
4111.852, 18055.86
4113.780, 18064.05
4115.708, 18075.15
4117.637, 18044.68
4119.565, 18025.54
4121.494, 18026.76
4123.422, 17994.29
4125.351, 17957.75
4127.279, 17952.72
4129.208, 17941.20
4131.136, 17918.62
4133.064, 17894.82
4134.993, 17863.86
4136.921, 17794.72
4138.850, 17783.52
4140.778, 17851.36
4142.707, 17869.56
4144.635, 17848.03
4146.563, 17797.40
4148.492, 17743.09
4150.421, 17686.13
4152.349, 17671.39
4154.277, 17671.87
4156.206, 17649.15
4158.135, 17660.26
4160.063, 17699.18
4161.991, 17658.79
4163.920, 17579.16
4165.849, 17524.17
4167.777, 17533.39
4169.705, 17586.32
4171.634, 17602.20
4173.563, 17587.17
4175.491, 17529.41
4177.419, 17521.28
4179.348, 17575.88
4181.276, 17546.72
4183.205, 17472.49
4185.133, 17385.95
4187.062, 17343.59
4188.990, 17381.27
4190.918, 17375.93
4192.847, 17348.75
4194.775, 17330.51
4196.704, 17333.23
4198.632, 17346.86
4200.561, 17353.67
4202.489, 17355.21
4204.418, 17353.95
4206.346, 17326.21
4208.274, 17253.80
4210.203, 17232.46
4212.132, 17217.78
4214.060, 17145.48
4215.988, 17129.58
4217.917, 17174.71
4219.846, 17139.22
4221.774, 17092.48
4223.702, 17119.00
4225.631, 17114.15
4227.560, 17069.74
4229.488, 17024.19
4231.416, 17005.10
4233.345, 17064.79
4235.273, 17047.11
4237.202, 16966.72
4239.130, 16923.20
4241.059, 16892.46
4242.987, 16863.87
4244.916, 16844.62
4246.844, 16838.70
4248.772, 16887.02
4250.701, 16935.65
4252.629, 16966.68
4254.558, 16952.44
4256.486, 16911.54
4258.415, 16863.66
4260.343, 16854.28
4262.271, 16913.70
4264.200, 16876.79
4266.129, 16818.85
4268.057, 16865.42
4269.985, 16884.11
4271.914, 16847.61
4273.843, 16818.18
4275.771, 16777.88
4277.699, 16676.37
4279.628, 16658.83
4281.557, 16723.29
4283.485, 16745.16
4285.413, 16745.59
4287.342, 16734.14
4289.271, 16715.46
4291.199, 16694.04
4293.127, 16682.80
4295.056, 16675.99
4296.984, 16673.31
4298.913, 16651.29
4300.841, 16640.29
4302.770, 16739.86
4304.698, 16760.64
4306.626, 16646.84
4308.555, 16614.11
4310.483, 16620.48
4312.412, 16638.56
4314.340, 16628.54
4316.269, 16594.47
4318.197, 16611.18
4320.126, 16634.85
4322.054, 16642.18
4323.982, 16635.49
4325.911, 16624.45
4327.840, 16641.15
4329.768, 16638.43
4331.696, 16599.31
4333.625, 16632.62
4335.554, 16674.49
4337.482, 16640.40
4339.410, 16583.52
4341.339, 16520.90
4343.268, 16506.82
4345.196, 16490.54
4347.124, 16422.51
4349.053, 16461.78
4350.981, 16564.26
4352.910, 16586.71
4354.838, 16571.01
4356.767, 16532.40
4358.695, 16482.91
4360.624, 16445.47
4362.552, 16462.71
4364.480, 16453.89
4366.409, 16408.14
4368.337, 16315.57
4370.266, 16276.19
4372.194, 16410.42
4374.123, 16450.85
4376.051, 16417.50
4377.979, 16359.20
4379.908, 16316.75
4381.837, 16305.19
4383.765, 16265.58
4385.693, 16242.64
4387.622, 16296.30
4389.551, 16325.65
4391.479, 16325.26
4393.407, 16318.98
4395.336, 16315.02
4397.265, 16316.23
4399.193, 16352.52
4401.121, 16366.35
4403.050, 16235.86
4404.979, 16175.24
4406.907, 16202.26
4408.835, 16217.25
4410.764, 16228.95
4412.692, 16247.92
4414.621, 16235.38
4416.549, 16208.82
4418.478, 16200.49
4420.406, 16209.97
4422.334, 16235.60
4424.263, 16230.03
4426.191, 16204.19
4428.120, 16162.56
4430.048, 16099.82
4431.977, 16050.53
4433.905, 16132.22
4435.834, 16185.85
4437.762, 16169.49
4439.690, 16119.09
4441.619, 16093.25
4443.548, 16151.74
4445.476, 16174.36
4447.404, 16145.22
4449.333, 16013.18
4451.262, 15954.80
4453.190, 16018.71
4455.118, 16057.68
4457.047, 16078.71
4458.976, 16104.78
4460.904, 16052.08
4462.832, 15966.50
4464.761, 16013.46
4466.689, 16043.03
4468.618, 16010.78
4470.546, 15960.13
4472.475, 15928.48
4474.403, 15953.41
4476.332, 15949.42
4478.260, 15920.93
4480.188, 15890.49
4482.117, 15867.28
4484.045, 15854.11
4485.974, 15864.82
4487.902, 15869.94
4489.831, 15843.58
4491.759, 15800.20
4493.688, 15770.99
4495.616, 15841.50
4497.545, 15885.94
4499.473, 15882.50
4501.401, 15854.70
4503.330, 15837.21
4505.259, 15849.28
4507.187, 15846.40
4509.115, 15830.79
4511.044, 15804.50
4512.973, 15790.76
4514.901, 15781.05
4516.829, 15713.29
4518.758, 15669.03
4520.687, 15688.65
4522.615, 15704.77
4524.543, 15715.05
4526.472, 15718.22
4528.400, 15706.48
4530.329, 15685.63
4532.257, 15662.01
4534.186, 15658.80
4536.114, 15677.07
4538.042, 15693.04
4539.971, 15700.89
4541.899, 15694.63
4543.828, 15701.67
4545.756, 15695.04
4547.685, 15606.86
4549.613, 15602.92
4551.542, 15662.88
4553.470, 15605.84
4555.398, 15580.73
4557.327, 15625.90
4559.256, 15631.10
4561.184, 15616.24
4563.112, 15600.06
4565.041, 15559.35
4566.970, 15521.11
4568.898, 15547.93
4570.826, 15545.79
4572.755, 15516.39
4574.684, 15572.31
4576.612, 15552.56
4578.540, 15415.26
4580.469, 15452.32
4582.397, 15503.17
4584.326, 15409.92
4586.254, 15388.18
4588.183, 15423.03
4590.111, 15506.99
4592.040, 15500.16
4593.968, 15418.36
4595.896, 15427.76
4597.825, 15454.13
4599.753, 15469.91
4601.682, 15417.35
4603.610, 15372.50
4605.539, 15396.68
4607.467, 15431.80
4609.396, 15451.59
4611.324, 15402.73
4613.253, 15411.26
4615.181, 15450.54
4617.109, 15374.27
4619.038, 15323.21
4620.967, 15322.28
4622.895, 15299.07
4624.823, 15268.25
4626.752, 15235.28
4628.681, 15213.03
4630.609, 15216.02
4632.537, 15269.48
4634.466, 15274.86
4636.395, 15254.63
4638.323, 15257.74
4640.251, 15283.34
4642.180, 15307.90
4644.108, 15222.62
4646.037, 15182.49
4647.965, 15235.53
4649.894, 15210.86
4651.822, 15166.28
4653.750, 15130.07
4655.679, 15141.08
4657.607, 15160.12
4659.536, 15133.85
4661.464, 15169.38
4663.393, 15208.96
4665.321, 15115.00
4667.250, 15062.96
4669.178, 15067.87
4671.106, 15126.65
4673.035, 15083.53
4674.964, 14935.41
4676.892, 14994.94
4678.820, 15062.00
4680.749, 15034.56
4682.678, 14999.77
4684.606, 14979.34
4686.534, 14988.22
4688.463, 15026.42
4690.392, 15060.07
4692.320, 15060.87
4694.248, 14979.04
4696.177, 14876.54
4698.105, 14899.64
4700.034, 14929.27
4701.962, 14944.50
4703.891, 14960.54
4705.819, 14940.00
4707.748, 14879.11
4709.676, 14849.90
4711.604, 14825.39
4713.533, 14793.50
4715.461, 14822.36
4717.390, 14855.67
4719.318, 14856.83
4721.247, 14859.93
4723.175, 14868.24
4725.104, 14896.78
4727.032, 14855.78
4728.961, 14793.75
4730.889, 14791.81
4732.817, 14798.81
4734.746, 14785.17
4736.675, 14678.54
4738.603, 14625.85
4740.531, 14642.45
4742.460, 14705.56
4744.389, 14728.82
4746.317, 14691.14
4748.245, 14545.91
4750.174, 14488.31
4752.103, 14597.96
4754.031, 14631.03
4755.959, 14630.93
4757.888, 14619.39
4759.816, 14617.21
4761.745, 14600.63
4763.673, 14539.09
4765.602, 14514.71
4767.530, 14519.89
4769.458, 14554.70
4771.387, 14527.47
4773.315, 14482.77
4775.244, 14508.96
4777.172, 14434.46
4779.101, 14337.09
4781.029, 14397.88
4782.958, 14446.08
4784.886, 14458.45
4786.814, 14428.99
4788.743, 14406.12
4790.672, 14393.85
4792.600, 14365.66
4794.528, 14367.63
4796.457, 14394.27
4798.386, 14367.91
4800.314, 14326.54
4802.242, 14289.23
4804.171, 14338.75
4806.100, 14319.71
4808.028, 14197.93
4809.956, 14231.59
4811.885, 14278.80
4813.813, 14273.14
4815.742, 14216.96
4817.670, 14196.17
4819.599, 14253.47
4821.527, 14225.96
4823.456, 14186.07
4825.384, 14181.36
4827.313, 14233.92
4829.241, 14232.01
4831.169, 14086.48
4833.098, 14093.33
4835.026, 14120.88
4836.955, 14018.41
4838.883, 14024.70
4840.812, 14064.70
4842.740, 14063.34
4844.669, 14044.98
4846.597, 14020.96
4848.525, 13993.10
4850.454, 14008.18
4852.383, 14018.60
4854.311, 13958.76
4856.239, 13937.66
4858.168, 13951.80
4860.097, 14019.29
4862.025, 13930.35
4863.953, 13807.74
4865.882, 13847.48
4867.811, 13876.90
4869.739, 13882.00
4871.667, 13869.16
4873.596, 13863.43
4875.524, 13848.57
4877.453, 13783.76
4879.381, 13769.49
4881.310, 13785.13
4883.238, 13773.86
4885.167, 13797.75
4887.095, 13809.67
4889.023, 13682.64
4890.952, 13688.21
4892.880, 13757.06
4894.809, 13713.06
4896.737, 13730.44
4898.666, 13755.45
4900.594, 13633.16
4902.522, 13648.49
4904.451, 13691.49
4906.380, 13504.61
4908.308, 13499.47
4910.236, 13589.57
4912.165, 13577.76
4914.094, 13555.18
4916.022, 13540.17
4917.950, 13543.77
4919.879, 13598.17
4921.808, 13629.16
4923.736, 13486.83
4925.664, 13463.12
4927.593, 13486.28
4929.521, 13446.53
4931.450, 13386.64
4933.378, 13341.38
4935.307, 13348.21
4937.235, 13374.66
4939.164, 13379.04
4941.092, 13300.18
4943.021, 13309.10
4944.949, 13338.74
4946.877, 13323.25
4948.806, 13317.64
4950.734, 13289.76
4952.663, 13181.29
4954.591, 13233.48
4956.520, 13285.43
4958.448, 13231.55
4960.377, 13278.42
4962.305, 13303.89
4964.233, 13229.42
4966.162, 13193.29
4968.091, 13152.47
4970.019, 13084.35
4971.947, 13092.88
4973.876, 13111.73
4975.805, 13112.71
4977.733, 13095.53
4979.661, 13057.72
4981.590, 13008.21
4983.519, 13043.03
4985.447, 13034.13
4987.375, 12975.45
4989.304, 13000.44
4991.232, 12995.30
4993.161, 12962.29
4995.089, 13000.92
4997.018, 13019.50
4998.946, 13000.40
5000.875, 12932.70
5002.803, 12888.93
5004.731, 12865.17
5006.660, 12820.34
5008.588, 12876.70
5010.517, 12944.89
5012.445, 12896.45
5014.374, 12885.10
5016.302, 12869.75
5018.230, 12799.36
5020.159, 12770.91
5022.088, 12747.77
5024.016, 12691.03
5025.944, 12721.21
5027.873, 12710.58
5029.802, 12616.45
5031.730, 12666.75
5033.658, 12695.90
5035.587, 12651.13
5037.516, 12627.46
5039.444, 12582.87
5041.372, 12529.30
5043.301, 12574.95
5045.229, 12553.80
5047.158, 12494.47
5049.086, 12536.21
5051.015, 12572.53
5052.943, 12562.74
5054.872, 12430.75
5056.800, 12422.40
5058.729, 12461.69
5060.657, 12460.10
5062.585, 12420.64
5064.514, 12378.50
5066.442, 12358.10
5068.371, 12315.96
5070.299, 12276.20
5072.228, 12253.79
5074.156, 12304.89
5076.085, 12330.11
5078.013, 12309.37
5079.941, 12268.69
5081.870, 12231.15
5083.799, 12204.95
5085.727, 12205.70
5087.655, 12182.96
5089.584, 12148.95
5091.513, 12124.42
5093.441, 12142.67
5095.369, 12148.08
5097.298, 12080.43
5099.227, 12105.92
5101.155, 12137.55
5103.083, 12132.22
5105.012, 12098.49
5106.940, 12038.56
5108.869, 11965.63
5110.797, 11910.81
5112.726, 11915.26
5114.654, 11953.44
5116.583, 11968.19
5118.511, 11926.15
5120.439, 11883.19
5122.368, 11908.31
5124.296, 11865.01
5126.225, 11806.41
5128.153, 11772.80
5130.082, 11874.76
5132.010, 11905.83
5133.938, 11815.51
5135.867, 11812.39
5137.796, 11794.22
5139.724, 11750.33
5141.652, 11692.44
5143.581, 11717.21
5145.510, 11749.39
5147.438, 11671.04
5149.366, 11600.42
5151.295, 11579.23
5153.224, 11624.48
5155.152, 11630.32
5157.080, 11616.76
5159.009, 11599.28
5160.938, 11605.66
5162.866, 11632.19
5164.794, 11642.27
5166.723, 11542.28
5168.651, 11537.99
5170.580, 11565.96
5172.508, 11535.82
5174.437, 11529.99
5176.365, 11521.17
5178.293, 11492.04
5180.222, 11464.00
5182.150, 11462.15
5184.079, 11474.76
5186.007, 11442.32
5187.936, 11401.24
5189.864, 11369.40
5191.793, 11363.34
5193.721, 11365.26
5195.649, 11374.29
5197.578, 11391.48
5199.507, 11375.53
5201.435, 11382.88
5203.363, 11405.75
5205.292, 11322.42
5207.221, 11302.24
5209.149, 11312.33
5211.077, 11258.89
5213.006, 11193.43
5214.935, 11149.44
5216.863, 11147.69
5218.791, 11155.04
5220.720, 11148.71
5222.648, 11132.46
5224.577, 11150.22
5226.505, 11162.57
5228.434, 11166.76
5230.362, 11177.04
5232.291, 11138.90
5234.219, 11077.63
5236.147, 11016.00
5238.076, 11038.23
5240.004, 11029.59
5241.933, 10989.95
5243.861, 11050.90
5245.790, 11028.27
5247.718, 10955.84
5249.646, 10893.26
5251.575, 10887.45
5253.504, 10909.53
5255.432, 10933.01
5257.360, 10877.48
5259.289, 10826.70
5261.218, 10807.81
5263.146, 10851.30
5265.074, 10838.19
5267.003, 10805.63
5268.932, 10792.29
5270.860, 10770.46
5272.788, 10777.67
5274.717, 10795.01
5276.646, 10676.02
5278.574, 10650.09
5280.502, 10695.12
5282.431, 10765.82
5284.359, 10703.68
5286.288, 10630.24
5288.216, 10605.61
5290.145, 10575.19
5292.073, 10598.95
5294.001, 10646.90
5295.930, 10651.36
5297.858, 10575.15
5299.787, 10526.10
5301.715, 10574.96
5303.644, 10483.11
5305.572, 10467.77
5307.501, 10511.55
5309.429, 10401.17
5311.357, 10393.07
5313.286, 10425.83
5315.215, 10424.29
5317.143, 10430.94
5319.071, 10424.83
5321.000, 10396.75
5322.929, 10330.17
5324.857, 10305.19
5326.785, 10294.77
5328.714, 10264.05
5330.643, 10255.70
5332.571, 10246.73
5334.499, 10236.48
5336.428, 10266.48
5338.356, 10238.90
5340.285, 10196.01
5342.213, 10191.96
5344.142, 10220.63
5346.070, 10194.78
5347.999, 10117.96
5349.927, 10118.13
5351.855, 10138.08
5353.784, 10140.67
5355.712, 10100.76
5357.641, 10093.70
5359.569, 10054.80
5361.498, 9991.765
5363.426, 10040.58
5365.354, 10009.99
5367.283, 9926.617
5369.212, 9838.395
5371.140, 9820.751
5373.068, 9827.616
5374.997, 9847.485
5376.926, 9918.573
5378.854, 9853.317
5380.782, 9768.425
5382.711, 9767.166
5384.640, 9798.143
5386.568, 9768.661
5388.496, 9717.092
5390.425, 9779.452
5392.354, 9803.121
5394.282, 9773.893
5396.210, 9707.201
5398.139, 9676.544
5400.067, 9725.664
5401.996, 9760.994
5403.924, 9583.292
5405.853, 9657.233
5407.781, 9706.379
5409.709, 9634.126
5411.638, 9611.467
5413.566, 9581.094
5415.495, 9539.508
5417.423, 9496.568
5419.352, 9569.958
5421.280, 9548.657
5423.209, 9448.916
5425.137, 9511.704
5427.065, 9462.330
5428.994, 9396.733
5430.923, 9387.033
5432.851, 9399.937
5434.779, 9419.202
5436.708, 9411.839
5438.637, 9340.375
5440.565, 9334.140
5442.493, 9312.051
5444.422, 9255.924
5446.351, 9212.111
5448.279, 9283.255
5450.207, 9308.055
5452.136, 9164.781
5454.064, 9126.527
5455.993, 9154.673
5457.921, 9200.646
5459.850, 9211.185
5461.778, 9167.154
5463.707, 9113.704
5465.635, 9086.241
5467.563, 9163.752
5469.492, 9091.822
5471.420, 9037.996
5473.349, 9142.593
5475.277, 9085.627
5477.206, 9026.040
5479.134, 8996.956
5481.063, 8988.049
5482.991, 9021.944
5484.920, 8994.838
5486.848, 8931.604
5488.776, 9019.904
5490.705, 8980.982
5492.634, 8902.532
5494.562, 8860.749
5496.490, 8847.263
5498.419, 8840.072
5500.348, 8840.331
5502.276, 8855.828
5504.204, 8852.319
5506.133, 8837.760
5508.062, 8795.705
5509.990, 8688.973
5511.918, 8668.103
5513.847, 8697.858
5515.775, 8732.647
5517.704, 8694.329
5519.632, 8703.311
5521.561, 8674.291
5523.489, 8561.549
5525.417, 8604.208
5527.346, 8686.962
5529.274, 8707.700
5531.203, 8590.308
5533.131, 8545.326
5535.060, 8563.472
5536.988, 8601.773
5538.917, 8605.583
5540.845, 8505.412
5542.773, 8435.294
5544.702, 8447.985
5546.631, 8575.891
5548.559, 8540.471
5550.487, 8460.596
5552.416, 8414.854
5554.345, 8431.320
5556.273, 8412.003
5558.201, 8353.247
5560.130, 8279.836
5562.059, 8345.063
5563.987, 8345.084
5565.915, 8309.122
5567.844, 8299.447
5569.772, 8285.056
5571.701, 8257.886
5573.629, 8234.370
5575.558, 8236.715
5577.486, 8233.646
5579.415, 8215.399
5581.343, 8181.394
5583.271, 8123.527
5585.200, 8180.491
5587.128, 8129.414
5589.057, 8009.086
5590.985, 8090.037
5592.914, 8025.533
5594.842, 8011.023
5596.771, 8083.966
5598.699, 8052.382
5600.628, 8063.210
5602.556, 8030.291
5604.484, 7945.688
5606.413, 8035.212
5608.342, 7971.839
5610.270, 7894.708
5612.198, 7902.552
5614.127, 7968.976
5616.056, 7968.662
5617.984, 7935.973
5619.912, 7902.943
5621.841, 7824.628
5623.770, 7804.532
5625.698, 7792.478
5627.626, 7749.923
5629.555, 7769.528
5631.483, 7776.898
5633.412, 7759.811
5635.340, 7723.922
5637.269, 7719.571
5639.197, 7702.113
5641.125, 7666.569
5643.054, 7618.410
5644.982, 7571.177
5646.911, 7654.235
5648.839, 7694.175
5650.768, 7541.281
5652.696, 7585.248
5654.625, 7629.684
5656.553, 7623.568
5658.481, 7568.302
5660.410, 7514.633
5662.339, 7562.514
5664.267, 7579.696
5666.195, 7462.009
5668.124, 7471.110
5670.053, 7456.108
5671.981, 7429.113
5673.909, 7424.663
5675.838, 7415.829
5677.767, 7361.646
5679.695, 7317.411
5681.623, 7326.814
5683.552, 7324.757
5685.480, 7327.751
5687.409, 7322.650
5689.337, 7298.935
5691.266, 7263.048
5693.194, 7235.154
5695.123, 7219.379
5697.051, 7215.503
5698.979, 7229.637
5700.908, 7198.259
5702.836, 7177.739
5704.765, 7183.583
5706.693, 7111.066
5708.622, 7112.874
5710.550, 7146.142
5712.479, 7175.896
5714.407, 7195.881
5716.336, 7154.856
5718.264, 7099.422
5720.192, 7057.463
5722.121, 7041.128
5724.050, 7036.857
5725.978, 7053.186
5727.906, 7061.304
5729.835, 7013.556
5731.764, 7009.368
5733.692, 6931.371
5735.620, 6862.901
5737.549, 6929.837
5739.478, 6895.428
5741.406, 6883.799
5743.334, 6906.814
5745.263, 6936.962
5747.191, 6880.744
5749.120, 6795.568
5751.048, 6779.983
5752.977, 6863.522
5754.905, 6878.419
5756.833, 6822.845
5758.762, 6800.657
5760.690, 6823.322
5762.619, 6753.298
5764.547, 6763.680
5766.476, 6745.460
5768.404, 6704.603
5770.333, 6737.710
5772.261, 6664.738
5774.189, 6614.276
5776.118, 6623.669
5778.047, 6671.949
5779.975, 6558.183
5781.903, 6584.493
5783.832, 6644.160
5785.761, 6614.541
5787.689, 6557.094
5789.617, 6561.095
5791.546, 6572.409
5793.475, 6550.813
5795.403, 6466.348
5797.331, 6489.311
5799.260, 6511.768
5801.188, 6500.033
5803.117, 6474.947
5805.045, 6437.400
5806.974, 6416.449
5808.902, 6395.283
5810.831, 6356.085
5812.759, 6369.831
5814.688, 6358.186
5816.616, 6339.385
5818.544, 6328.735
5820.473, 6312.230
5822.401, 6316.013
5824.330, 6329.420
5826.258, 6338.304
5828.187, 6329.753
5830.115, 6279.600
5832.044, 6257.198
5833.972, 6257.913
5835.900, 6257.643
5837.829, 6224.596
5839.758, 6197.208
5841.686, 6161.447
5843.614, 6126.136
5845.543, 6143.329
5847.472, 6148.732
5849.400, 6136.085
5851.328, 6124.098
5853.257, 6134.207
5855.186, 6111.591
5857.114, 6075.001
5859.042, 6085.597
5860.971, 6130.342
5862.899, 6021.587
5864.828, 6007.600
5866.756, 6016.411
5868.685, 6028.611
5870.613, 6060.247
5872.542, 5946.734
5874.470, 5922.407
5876.398, 5921.688
5878.327, 5890.222
5880.255, 5935.004
5882.184, 5892.783
5884.112, 5860.933
5886.041, 5875.124
5887.969, 5916.071
5889.897, 5898.909
5891.826, 5861.822
5893.755, 5848.346
5895.683, 5855.300
5897.611, 5796.274
5899.540, 5752.177
5901.469, 5764.986
5903.397, 5784.315
5905.325, 5741.646
5907.254, 5692.758
5909.183, 5718.854
5911.111, 5740.762
5913.039, 5720.629
5914.968, 5711.534
5916.896, 5669.187
5918.825, 5681.113
5920.753, 5680.274
5922.682, 5593.374
5924.610, 5622.290
5926.539, 5607.468
5928.467, 5625.955
5930.396, 5657.072
5932.324, 5551.407
5934.252, 5534.496
5936.181, 5561.446
5938.109, 5571.716
5940.038, 5546.187
5941.966, 5549.176
5943.895, 5505.596
5945.823, 5450.296
5947.752, 5430.867
5949.680, 5474.978
5951.608, 5422.853
5953.537, 5394.987
5955.466, 5386.870
5957.394, 5387.212
5959.322, 5395.991
5961.251, 5308.626
5963.180, 5322.320
5965.108, 5324.789
5967.036, 5274.187
5968.965, 5366.010
5970.894, 5295.563
5972.822, 5261.262
5974.750, 5266.618
5976.679, 5255.579
5978.607, 5256.045
5980.536, 5230.950
5982.464, 5211.353
5984.393, 5215.812
5986.321, 5237.119
5988.250, 5163.385
5990.178, 5181.399
5992.106, 5168.661
5994.035, 5107.790
5995.963, 5096.137
5997.892, 5156.702
5999.820, 5135.442
6001.749, 5117.384
6003.677, 5125.809
6005.605, 5063.757
6007.534, 5056.993
6009.463, 5039.914
6011.391, 5020.503
6013.319, 5009.212
6015.248, 4983.875
6017.177, 4962.185
6019.105, 4971.012
6021.033, 4966.546
6022.962, 4936.356
6024.891, 4990.070
6026.819, 4909.662
6028.747, 4892.748
6030.676, 4930.670
6032.604, 4946.555
6034.533, 4904.309
6036.461, 4876.426
6038.390, 4882.443
6040.318, 4894.080
6042.247, 4877.858
6044.175, 4808.963
6046.104, 4796.782
6048.032, 4809.931
6049.960, 4821.853
6051.889, 4821.777
6053.817, 4819.285
6055.746, 4717.216
6057.674, 4683.634
6059.603, 4718.838
6061.531, 4748.217
6063.460, 4721.326
6065.388, 4705.797
6067.316, 4690.503
6069.245, 4672.488
6071.174, 4652.018
6073.102, 4603.138
6075.030, 4632.218
6076.959, 4637.451
6078.888, 4609.416
6080.816, 4586.882
6082.744, 4637.320
6084.673, 4635.979
6086.602, 4594.832
6088.530, 4549.507
6090.458, 4529.305
6092.387, 4566.227
6094.315, 4521.669
6096.244, 4477.554
6098.172, 4461.051
6100.101, 4465.158
6102.029, 4467.832
6103.958, 4483.568
6105.886, 4498.996
6107.814, 4483.689
6109.743, 4446.872
6111.671, 4435.936
6113.600, 4439.116
6115.528, 4426.929
6117.457, 4369.894
6119.385, 4330.543
6121.313, 4386.068
6123.242, 4330.769
6125.171, 4346.869
6127.099, 4341.185
6129.027, 4317.369
6130.956, 4323.758
6132.885, 4344.083
6134.813, 4278.089
6136.741, 4227.671
6138.670, 4230.008
6140.599, 4261.466
6142.527, 4256.630
6144.455, 4220.157
6146.384, 4184.024
6148.313, 4176.972
6150.241, 4188.235
6152.169, 4177.429
6154.098, 4112.226
6156.026, 4108.723
6157.955, 4112.554
6159.883, 4119.121
6161.812, 4149.451
6163.740, 4170.761
6165.668, 4119.458
6167.597, 4058.548
6169.525, 4052.746
6171.454, 4082.762
6173.382, 4037.760
6175.311, 4057.329
6177.239, 4028.817
6179.168, 4007.858
6181.096, 4007.858
6183.024, 3998.080
6184.953, 4009.509
6186.882, 3971.985
6188.810, 3953.424
6190.738, 3955.353
6192.667, 3953.878
6194.596, 3939.259
6196.524, 3927.153
6198.452, 3942.542
6200.381, 3947.398
6202.310, 3917.666
6204.238, 3860.059
6206.166, 3857.868
6208.095, 3841.283
6210.023, 3826.263
6211.952, 3819.560
6213.880, 3819.725
6215.809, 3825.701
6217.737, 3794.628
6219.666, 3804.337
6221.594, 3757.969
6223.522, 3716.845
6225.451, 3768.664
6227.379, 3765.763
6229.308, 3769.659
6231.236, 3728.076
6233.165, 3699.028
6235.093, 3703.624
6237.021, 3706.900
6238.950, 3681.372
6240.879, 3706.360
6242.807, 3658.893
6244.735, 3606.556
6246.664, 3617.122
6248.593, 3650.154
6250.521, 3616.184
6252.449, 3632.841
6254.378, 3650.048
6256.307, 3627.578
6258.235, 3573.260
6260.163, 3538.543
6262.092, 3578.367
6264.021, 3543.124
6265.949, 3495.239
6267.877, 3485.038
6269.806, 3505.246
6271.734, 3509.290
6273.663, 3483.008
6275.591, 3497.605
6277.520, 3497.861
6279.448, 3463.073
6281.376, 3427.114
6283.305, 3445.201
6285.233, 3444.032
6287.162, 3416.888
6289.090, 3399.626
6291.019, 3396.535
6292.947, 3390.375
6294.876, 3421.944
6296.804, 3416.460
6298.732, 3347.698
6300.661, 3355.469
6302.590, 3401.752
6304.518, 3337.245
6306.446, 3359.403
6308.375, 3366.370
6310.304, 3312.390
6312.232, 3272.557
6314.160, 3294.464
6316.089, 3346.232
6318.018, 3275.026
6319.946, 3267.074
6321.874, 3271.047
6323.803, 3245.047
6325.731, 3225.890
6327.660, 3242.502
6329.588, 3185.317
6331.517, 3201.365
6333.445, 3194.604
6335.374, 3170.102
6337.302, 3144.162
6339.230, 3140.127
6341.159, 3211.313
6343.087, 3169.352
6345.016, 3156.422
6346.944, 3135.845
6348.873, 3134.989
6350.801, 3164.285
6352.729, 3136.827
6354.658, 3101.291
6356.587, 3099.565
6358.515, 3091.500
6360.443, 3078.039
6362.372, 3056.548
6364.301, 3015.294
6366.229, 3056.333
6368.157, 3036.368
6370.086, 3027.294
6372.015, 3006.164
6373.943, 2995.443
6375.871, 3018.277
6377.800, 2986.702
6379.729, 2953.856
6381.657, 2968.435
6383.585, 2978.690
6385.514, 2958.045
6387.442, 2933.633
6389.371, 2954.676
6391.299, 2932.911
6393.228, 2921.552
6395.156, 2925.642
6397.084, 2931.454
6399.013, 2921.060
6400.941, 2886.173
6402.870, 2835.939
6404.798, 2847.580
6406.727, 2847.989
6408.655, 2848.914
6410.584, 2859.862
6412.512, 2863.445
6414.440, 2837.242
6416.369, 2816.747
6418.298, 2813.116
6420.226, 2801.122
6422.154, 2783.711
6424.083, 2779.319
6426.012, 2779.911
6427.940, 2740.263
6429.868, 2739.087
6431.797, 2750.989
6433.726, 2781.848
6435.654, 2751.352
6437.582, 2693.813
6439.511, 2689.395
6441.439, 2666.974
6443.368, 2672.781
6445.296, 2675.164
6447.225, 2691.829
6449.153, 2671.160
6451.082, 2640.517
6453.010, 2661.323
6454.938, 2641.963
6456.867, 2626.432
6458.795, 2706.737
6460.724, 2630.686
6462.652, 2600.820
6464.581, 2665.057
6466.509, 2618.877
6468.438, 2605.330
6470.366, 2659.091
6472.295, 2619.971
6474.223, 2598.794
6476.151, 2570.131
6478.080, 2540.208
6480.009, 2566.985
6481.937, 2537.647
6483.865, 2537.008
6485.794, 2534.126
6487.723, 2558.021
6489.651, 2580.265
6491.579, 2553.972
6493.508, 2489.756
6495.437, 2491.890
6497.365, 2473.122
6499.293, 2497.906
6501.222, 2491.897
6503.150, 2464.503
6505.079, 2464.838
6507.007, 2489.183
6508.936, 2443.602
6510.864, 2448.304
6512.792, 2414.912
6514.721, 2412.381
6516.649, 2429.256
6518.578, 2433.946
6520.506, 2416.240
6522.435, 2392.260
6524.363, 2386.927
6526.292, 2399.496
6528.220, 2395.371
6530.148, 2372.669
6532.077, 2362.592
6534.006, 2353.867
6535.934, 2334.720
6537.862, 2398.865
6539.791, 2395.519
6541.720, 2344.618
6543.648, 2349.974
6545.576, 2340.872
6547.505, 2346.495
6549.434, 2361.528
6551.362, 2309.170
6553.290, 2314.021
6555.219, 2279.199
6557.147, 2314.778
6559.076, 2259.684
6561.004, 2252.383
6562.933, 2287.114
6564.861, 2268.589
6566.790, 2246.022
6568.718, 2265.170
6570.646, 2255.716
##END=



