##NAMES=Talnakhite
##RRUFFID=R060389
##IDEAL CHEMISTRY=Cu_9_Fe_8_S_16_
##LOCALITY=Oktyabrskiy mine, Talnakh, Noril'sk Region, Siberia, U.S.S.R.
##OWNER=RRUFF
##SOURCE=Michael Scott
##DESCRIPTION=Bronze metallic massive, associated with cubanite. We can not tell the difference between them by eye.
##STATUS=The identification of this mineral has been confirmed by X-ray diffraction and chemical analysis
##URL=https://www.rruff.net/odr/rruff_sample/R060389
##MEASURED CHEMISTRY=(Cu_8.70_Ni_0.30_)Fe_9.00_S_16.00_
##DIFFRACTION SAMPLE DESCRIPTION=Powder, cell parameters are from single crystal
##CELL PARAMETERS=a: 10.613 b: 10.613 c: 10.613 alpha: 90 beta: 90 gamma: 90 volume: 1195.6 crystal system: cubic
##FILETYPE=Raman RAW
##RAMAN WAVELENGTH=780

161.0437, 58.50337
162.9722, 58.20359
164.9006, 58.23906
166.8291, 59.05608
168.7576, 59.93066
170.6860, 60.16254
172.6145, 59.83069
174.5430, 59.40735
176.4714, 58.85519
178.3999, 58.30987
180.3284, 57.64997
182.2568, 57.12402
184.1853, 57.03118
186.1138, 57.19820
188.0422, 57.11467
189.9707, 56.62751
191.8992, 56.12963
193.8276, 55.28986
195.7561, 54.80948
197.6846, 55.27998
199.6130, 56.21095
201.5415, 56.96055
203.4700, 57.52855
205.3984, 57.87230
207.3269, 57.89423
209.2554, 57.88079
211.1838, 57.73732
213.1123, 57.76091
215.0408, 58.34104
216.9692, 59.42539
218.8977, 60.04126
220.8262, 59.91769
222.7546, 60.13896
224.6831, 61.09832
226.6116, 62.16198
228.5400, 62.99321
230.4685, 63.67466
232.3970, 64.45767
234.3254, 64.79935
236.2539, 65.81385
238.1824, 65.22691
240.1108, 64.70521
242.0393, 64.53992
243.9678, 64.72033
245.8962, 65.35233
247.8247, 66.38790
249.7532, 67.44838
251.6816, 68.58285
253.6101, 69.47258
255.5386, 69.88486
257.4670, 70.24606
259.3955, 71.14088
261.3240, 71.92409
263.2524, 71.29306
265.1809, 69.35460
267.1094, 67.66711
269.0378, 66.20422
270.9663, 65.39177
272.8948, 65.73071
274.8232, 66.34875
276.7517, 67.04601
278.6802, 67.54592
280.6086, 67.07371
282.5371, 65.65099
284.4656, 64.20422
286.3940, 62.80744
288.3225, 61.53844
290.2510, 60.38255
292.1794, 59.38361
294.1079, 58.71098
296.0364, 58.21463
297.9648, 57.40049
299.8933, 56.15612
301.8218, 55.33162
303.7502, 55.32658
305.6787, 55.44892
307.6072, 55.82970
309.5356, 56.01460
311.4641, 55.26603
313.3926, 53.95137
315.3210, 53.10999
317.2495, 52.96110
319.1780, 52.70101
321.1064, 52.09565
323.0349, 51.55925
324.9634, 51.26410
326.8918, 51.07920
328.8203, 50.87249
330.7488, 50.66396
332.6772, 50.55534
334.6057, 50.69494
336.5342, 50.55779
338.4626, 49.92733
340.3911, 49.30021
342.3196, 48.80695
344.2480, 48.42146
346.1765, 48.20326
348.1050, 48.07907
350.0334, 47.66083
351.9619, 46.68450
353.8904, 46.06250
355.8188, 45.94527
357.7473, 45.92501
359.6758, 45.92906
361.6042, 45.93240
363.5327, 45.92762
365.4612, 45.90765
367.3896, 45.84221
369.3181, 45.71231
371.2466, 45.63417
373.1750, 45.74916
375.1035, 45.56349
377.0320, 44.53343
378.9604, 43.67145
380.8889, 43.85986
382.8174, 43.19935
384.7458, 43.02193
386.6743, 43.15209
388.6028, 42.80702
390.5313, 43.48396
392.4597, 43.79317
394.3882, 43.21121
396.3167, 42.56768
398.2451, 42.15794
400.1736, 41.95435
402.1021, 41.98063
404.0305, 42.20176
405.9590, 42.51020
407.8875, 42.93798
409.8159, 42.92233
411.7444, 42.10695
413.6729, 41.54218
415.6013, 41.78497
417.5298, 42.17881
419.4583, 42.42094
421.3867, 42.51292
423.3152, 42.32166
425.2437, 41.93239
427.1721, 42.00514
429.1006, 42.69342
431.0291, 43.15816
432.9575, 43.13338
434.8860, 42.94544
436.8145, 42.67120
438.7429, 42.30223
440.6714, 41.70011
442.5999, 41.04211
444.5283, 40.72129
446.4568, 40.71759
448.3853, 40.82379
450.3137, 41.10248
452.2422, 41.24707
454.1707, 40.94733
456.0991, 40.84757
458.0276, 41.38147
459.9561, 42.06127
461.8845, 42.54938
463.8130, 42.77660
465.7415, 42.46964
467.6699, 41.61533
469.5984, 41.05125
471.5269, 40.94611
473.4553, 40.96521
475.3838, 41.16336
477.3123, 41.35798
479.2407, 41.51923
481.1692, 41.60640
483.0977, 41.58309
485.0261, 41.46097
486.9546, 41.24423
488.8831, 40.92828
490.8115, 40.59033
492.7400, 39.94534
494.6685, 39.77934
496.5969, 40.50660
498.5254, 41.11908
500.4539, 41.26804
502.3823, 41.20610
504.3108, 40.99425
506.2393, 40.76667
508.1677, 40.82219
510.0962, 41.12980
512.0247, 41.04119
513.9531, 40.26936
515.8816, 39.98822
517.8101, 40.41358
519.7385, 40.85207
521.6670, 41.15166
523.5955, 41.36142
525.5239, 41.44249
527.4524, 41.51084
529.3809, 41.60844
531.3093, 41.79673
533.2378, 42.35754
535.1663, 42.70261
537.0947, 43.14726
539.0232, 43.89463
540.9517, 44.15377
542.8801, 44.99654
544.8086, 45.65488
546.7371, 45.83016
548.6655, 45.70335
550.5940, 45.35840
552.5225, 44.76726
554.4509, 43.63177
556.3794, 42.22129
558.3079, 41.70211
560.2363, 41.99213
562.1648, 41.98357
564.0933, 41.53781
566.0217, 41.17384
567.9502, 41.02961
569.8787, 40.93418
571.8071, 40.84791
573.7356, 40.77892
575.6641, 40.64067
577.5925, 40.59636
579.5210, 41.08795
581.4495, 41.75496
583.3779, 41.47331
585.3064, 40.43036
587.2349, 40.09948
589.1633, 40.73432
591.0918, 41.11428
593.0203, 40.97290
594.9487, 40.68105
596.8772, 39.80915
598.8057, 39.47693
600.7341, 40.87104
602.6626, 42.32401
604.5911, 42.06427
606.5195, 41.10234
608.4480, 41.10870
610.3765, 41.73513
612.3049, 41.57275
614.2334, 40.46489
616.1619, 40.14154
618.0903, 41.32060
620.0188, 41.96498
621.9473, 41.56324
623.8757, 41.22912
625.8042, 41.23643
627.7327, 41.34755
629.6611, 41.45607
631.5896, 41.59808
633.5181, 41.83321
635.4465, 42.10469
637.3750, 42.33502
639.3035, 42.52191
641.2319, 42.63537
643.1604, 42.78220
645.0889, 42.88433
647.0173, 42.92688
648.9458, 43.03375
650.8743, 42.98766
652.8027, 42.99151
654.7312, 43.17269
656.6597, 43.27879
658.5881, 43.22251
660.5166, 42.99231
662.4451, 42.26875
664.3735, 41.62947
666.3020, 42.01964
668.2305, 43.00533
670.1589, 43.38146
672.0874, 43.17738
674.0159, 42.81622
675.9443, 42.23429
677.8728, 42.30243
679.8013, 43.24779
681.7297, 43.87092
683.6582, 43.90456
685.5867, 43.69472
687.5151, 42.96419
689.4436, 42.65563
691.3721, 43.75188
693.3005, 44.69524
695.2290, 44.13017
697.1575, 43.09770
699.0859, 42.75238
701.0144, 42.91074
702.9429, 43.37711
704.8713, 43.99975
706.7998, 43.89151
708.7283, 44.18206
710.6567, 44.28230
712.5852, 43.91256
714.5137, 44.16366
716.4421, 43.34127
718.3706, 42.82486
720.2991, 43.12605
722.2275, 43.44115
724.1560, 43.73623
726.0845, 43.79060
728.0129, 43.22546
729.9414, 42.69990
731.8699, 42.81648
733.7983, 43.14524
735.7268, 43.05609
737.6553, 42.90795
739.5837, 43.48387
741.5122, 44.46117
743.4407, 44.87415
745.3691, 44.75063
747.2976, 44.62843
749.2261, 44.53915
751.1545, 44.38055
753.0830, 44.50523
755.0115, 44.75887
756.9399, 44.78781
758.8684, 45.38822
760.7969, 45.58655
762.7253, 45.57309
764.6538, 45.02971
766.5823, 44.80175
768.5107, 45.70451
770.4392, 46.57591
772.3677, 46.49747
774.2961, 46.10975
776.2246, 45.92216
778.1531, 45.85947
780.0815, 45.77571
782.0100, 45.74267
783.9385, 46.04847
785.8669, 46.60701
787.7954, 46.74921
789.7239, 46.44458
791.6523, 46.60595
793.5808, 47.37437
795.5093, 47.94490
797.4377, 48.32323
799.3662, 48.45726
801.2947, 48.29207
803.2231, 48.02256
805.1516, 47.51691
807.0801, 47.45359
809.0085, 48.38446
810.9370, 49.05352
812.8655, 48.63554
814.7939, 48.29790
816.7224, 48.77127
818.6509, 49.29353
820.5793, 49.42505
822.5078, 49.33774
824.4363, 48.93235
826.3647, 48.61863
828.2932, 49.22416
830.2217, 48.84863
832.1501, 49.91695
834.0786, 49.11036
836.0071, 49.23995
837.9355, 49.99729
839.8640, 49.86559
841.7925, 49.02045
843.7209, 48.66458
845.6494, 48.80273
847.5779, 48.74992
849.5063, 48.44672
851.4348, 48.11308
853.3633, 47.71504
855.2917, 47.69633
857.2202, 48.31998
859.1487, 48.67895
861.0771, 48.51167
863.0056, 48.29373
864.9341, 48.22261
866.8625, 47.91604
868.7910, 46.87105
870.7195, 46.22716
872.6479, 46.84141
874.5764, 47.25573
876.5049, 46.56083
878.4333, 45.78773
880.3618, 45.75357
882.2903, 45.61586
884.2188, 44.35775
886.1472, 43.14546
888.0757, 43.18760
890.0042, 43.66319
891.9326, 43.90571
893.8611, 43.88904
895.7896, 43.38133
897.7180, 43.39294
899.6465, 42.59858
901.5750, 42.72074
903.5034, 42.35240
905.4319, 41.65015
907.3604, 41.03978
909.2888, 40.57809
911.2173, 40.73269
913.1458, 41.41651
915.0742, 41.50413
917.0027, 40.99378
918.9312, 40.48389
920.8596, 39.94550
922.7881, 39.84269
924.7166, 40.28902
926.6450, 40.37065
928.5735, 40.03242
930.5020, 39.72091
932.4304, 39.46275
934.3589, 39.12208
936.2874, 39.09265
938.2158, 38.54364
940.1443, 39.06188
942.0728, 39.39878
944.0012, 39.40364
945.9297, 39.33462
947.8582, 39.18544
949.7866, 39.25237
951.7151, 39.75717
953.6436, 39.93864
955.5720, 39.55254
957.5005, 38.93871
959.4290, 37.89062
961.3574, 37.32527
963.2859, 37.70923
965.2144, 38.22290
967.1428, 38.86450
969.0713, 39.20671
970.9998, 38.92596
972.9282, 38.64414
974.8567, 38.48855
976.7852, 38.48587
978.7136, 38.74931
980.6421, 39.01233
982.5706, 39.21136
984.4990, 39.30473
986.4275, 39.27684
988.3560, 39.13217
990.2844, 38.69444
992.2129, 38.39573
994.1414, 38.71668
996.0698, 38.92373
997.9983, 38.27648
999.9268, 37.77636
1001.855, 38.31729
1003.784, 38.87203
1005.712, 38.65904
1007.641, 38.33863
1009.569, 38.41451
1011.498, 38.49049
1013.426, 38.17989
1015.354, 37.90245
1017.283, 38.22729
1019.211, 38.37098
1021.140, 37.30634
1023.068, 36.42228
1024.997, 37.00060
1026.925, 37.83801
1028.854, 38.19975
1030.782, 38.23475
1032.711, 37.80614
1034.639, 37.42004
1036.568, 37.58722
1038.496, 37.77438
1040.425, 37.50792
1042.353, 37.21460
1044.281, 37.13940
1046.210, 37.23130
1048.138, 37.69273
1050.067, 38.00535
1051.995, 37.66289
1053.924, 37.23400
1055.852, 37.05833
1057.781, 36.98487
1059.709, 37.04401
1061.638, 37.00021
1063.566, 36.57137
1065.495, 36.17385
1067.423, 35.98065
1069.352, 36.01764
1071.280, 36.52991
1073.208, 36.95525
1075.137, 37.05058
1077.065, 36.86683
1078.994, 36.04498
1080.922, 35.50909
1082.851, 36.26502
1084.779, 36.58763
1086.708, 35.00994
1088.636, 33.87611
1090.565, 34.49303
1092.493, 35.23150
1094.422, 35.65631
1096.350, 35.80814
1098.279, 35.36454
1100.207, 35.19837
1102.135, 35.89487
1104.064, 36.34840
1105.992, 36.07868
1107.921, 35.88037
1109.849, 36.07379
1111.778, 36.08860
1113.706, 35.58926
1115.635, 35.33892
1117.563, 35.68591
1119.492, 35.81256
1121.420, 35.55635
1123.349, 35.24905
1125.277, 34.73323
1127.206, 34.61294
1129.134, 35.13286
1131.063, 35.48751
1132.991, 35.64110
1134.919, 35.63798
1136.848, 35.67696
1138.776, 35.29470
1140.705, 35.34863
1142.633, 35.18676
1144.562, 34.74487
1146.490, 34.86012
1148.419, 35.54920
1150.347, 35.66261
1152.276, 35.25617
1154.204, 35.13465
1156.133, 35.21727
1158.061, 34.84284
1159.990, 35.01204
1161.918, 34.50489
1163.846, 35.27946
1165.775, 35.97773
1167.703, 36.39768
1169.632, 35.77558
1171.560, 36.25016
1173.489, 35.32619
1175.417, 35.99001
1177.346, 35.32091
1179.274, 34.56367
1181.203, 35.19107
1183.131, 35.97821
1185.060, 35.96676
1186.988, 35.73249
1188.917, 35.49895
1190.845, 35.34385
1192.773, 35.30502
1194.702, 35.35105
1196.630, 35.43175
1198.559, 35.70653
1200.487, 36.47223
1202.416, 36.74715
1204.344, 36.12759
1206.273, 35.67159
1208.201, 35.60555
1210.130, 35.45142
1212.058, 35.11977
1213.987, 34.99599
1215.915, 35.12049
1217.844, 35.33191
1219.772, 35.60189
1221.700, 35.67147
1223.629, 35.94368
1225.557, 35.84045
1227.486, 36.27489
1229.414, 36.40070
1231.343, 36.33479
1233.271, 36.35480
1235.200, 36.40155
1237.128, 36.36714
1239.057, 36.31495
1240.985, 36.29428
1242.914, 36.32212
1244.842, 36.46511
1246.771, 36.58538
1248.699, 36.52522
1250.627, 36.51518
1252.556, 36.74979
1254.484, 36.91406
1256.413, 36.80273
1258.341, 36.82556
1260.270, 37.17853
1262.198, 37.42778
1264.127, 37.61098
1266.055, 37.31446
1267.984, 37.52772
1269.912, 37.37212
1271.841, 37.27461
1273.769, 37.34289
1275.698, 36.60351
1277.626, 36.93998
1279.554, 36.75115
1281.483, 37.65879
1283.411, 37.01989
1285.340, 37.50402
1287.268, 38.21210
1289.197, 37.84587
1291.125, 37.43816
1293.054, 38.16536
1294.982, 38.61544
1296.911, 37.75778
1298.839, 37.16788
1300.768, 37.56636
1302.696, 37.66542
1304.625, 36.97924
1306.553, 36.98901
1308.481, 37.11862
1310.410, 37.24135
1312.338, 37.82027
1314.267, 38.04346
1316.195, 38.91695
1318.124, 39.30407
1320.052, 39.25411
1321.981, 38.75376
1323.909, 38.20458
1325.838, 38.34892
1327.766, 38.81091
1329.695, 39.43193
1331.623, 39.80089
1333.552, 39.41971
1335.480, 39.00586
1337.408, 38.79636
1339.337, 38.80489
1341.265, 38.69611
1343.194, 38.70356
1345.122, 38.94071
1347.051, 38.86743
1348.979, 39.27687
1350.908, 39.58443
1352.836, 39.78558
1354.765, 40.04252
1356.693, 40.25242
1358.622, 40.00706
1360.550, 39.65657
1362.479, 39.77849
1364.407, 39.91552
1366.335, 39.49892
1368.264, 39.30017
1370.192, 40.06028
1372.121, 40.41602
1374.049, 39.75561
1375.978, 39.05428
1377.906, 38.29081
1379.835, 38.32027
1381.763, 39.27546
1383.692, 39.72389
1385.620, 39.76825
1387.549, 40.34541
1389.477, 40.96391
1391.406, 39.87437
1393.334, 40.86703
1395.262, 40.00822
1397.191, 41.40717
1399.119, 41.34816
1401.048, 40.92788
1402.976, 40.41978
1404.905, 39.99688
1406.833, 39.66578
1408.762, 39.73651
1410.690, 40.24524
1412.619, 40.69526
1414.547, 41.03887
1416.476, 41.17602
1418.404, 41.13092
1420.333, 40.76702
1422.261, 40.47307
1424.189, 41.09221
1426.118, 41.43926
1428.046, 40.14854
1429.975, 39.35913
1431.903, 39.92014
1433.832, 40.61112
1435.760, 41.35639
1437.689, 41.33903
1439.617, 41.55093
1441.546, 41.50229
1443.474, 41.16747
1445.403, 40.97576
1447.331, 40.46952
1449.260, 40.00529
1451.188, 39.82409
1453.116, 40.23902
1455.045, 40.80564
1456.973, 41.85103
1458.902, 41.90157
1460.830, 39.89521
1462.759, 39.33781
1464.687, 40.42936
1466.616, 40.84577
1468.544, 40.71138
1470.473, 40.44096
1472.401, 40.31510
1474.330, 41.06300
1476.258, 41.71468
1478.187, 41.37793
1480.115, 41.15661
1482.043, 41.74849
1483.972, 41.69958
1485.900, 41.54140
1487.829, 41.42333
1489.757, 40.97518
1491.686, 40.91767
1493.614, 40.37427
1495.543, 40.65592
1497.471, 41.01400
1499.400, 40.29376
1501.328, 39.67497
1503.257, 39.78637
1505.185, 40.03162
1507.114, 40.27550
1509.042, 40.49359
1510.970, 40.68070
1512.899, 40.40388
1514.827, 39.91051
1516.756, 40.46623
1518.684, 41.20123
1520.613, 40.70847
1522.541, 39.87511
1524.470, 38.96807
1526.398, 38.63559
1528.327, 39.14193
1530.255, 39.85558
1532.184, 40.68225
1534.112, 40.83997
1536.041, 41.17122
1537.969, 40.79398
1539.897, 41.16522
1541.826, 40.68339
1543.754, 40.37058
1545.683, 41.22154
1547.611, 41.97071
1549.540, 42.40294
1551.468, 42.15584
1553.397, 41.19556
1555.325, 40.44331
1557.254, 39.96195
1559.182, 39.95252
1561.111, 40.13372
1563.039, 40.05962
1564.968, 40.23481
1566.896, 41.20695
1568.824, 41.99941
1570.753, 42.54424
1572.681, 42.34280
1574.610, 41.40770
1576.538, 40.62999
1578.467, 40.14178
1580.395, 40.49690
1582.324, 40.98808
1584.252, 41.03485
1586.181, 41.09108
1588.109, 41.40833
1590.038, 41.49450
1591.966, 41.26606
1593.895, 40.58385
1595.823, 39.76646
1597.751, 40.47800
1599.680, 41.50727
1601.608, 41.16270
1603.537, 40.73126
1605.465, 40.76810
1607.394, 40.80522
1609.322, 40.71697
1611.251, 41.28596
1613.179, 42.29150
1615.108, 42.15863
1617.036, 41.46197
1618.965, 40.78857
1620.893, 40.48936
1622.822, 40.99277
1624.750, 41.33613
1626.678, 41.32301
1628.607, 41.28720
1630.535, 41.27992
1632.464, 41.59684
1634.392, 41.82090
1636.321, 40.97062
1638.249, 40.21879
1640.178, 40.56261
1642.106, 40.75888
1644.035, 40.56222
1645.963, 40.47325
1647.892, 40.54020
1649.820, 41.08549
1651.749, 41.53650
1653.677, 40.73558
1655.605, 40.05638
1657.534, 40.58912
1659.462, 40.87534
1661.391, 40.61021
1663.319, 40.63206
1665.248, 40.86374
1667.176, 40.70222
1669.105, 40.59718
1671.033, 41.34313
1672.962, 41.79478
1674.890, 41.10053
1676.819, 40.87656
1678.747, 41.39916
1680.676, 41.31721
1682.604, 40.88344
1684.532, 40.78604
1686.461, 40.92322
1688.389, 41.35087
1690.318, 41.58827
1692.246, 41.42872
1694.175, 41.39264
1696.103, 41.48420
1698.032, 41.06648
1699.960, 40.61012
1701.889, 41.14433
1703.817, 41.59238
1705.746, 41.32714
1707.674, 41.33537
1709.603, 41.81155
1711.531, 41.90405
1713.459, 41.69709
1715.388, 41.43678
1717.316, 41.21493
1719.245, 40.99830
1721.173, 41.21878
1723.102, 40.84113
1725.030, 40.86604
1726.959, 40.62771
1728.887, 40.65086
1730.816, 41.11324
1732.744, 40.91344
1734.673, 40.64983
1736.601, 40.42387
1738.530, 41.00857
1740.458, 42.28631
1742.386, 41.33415
1744.315, 39.66880
1746.243, 40.19175
1748.172, 41.25773
1750.100, 42.23337
1752.029, 42.42614
1753.957, 41.70356
1755.886, 41.46757
1757.814, 41.53980
1759.743, 41.42445
1761.671, 41.24506
1763.600, 40.89948
1765.528, 40.97646
1767.457, 41.07972
1769.385, 41.18410
1771.313, 41.57843
1773.242, 41.66650
1775.170, 41.85108
1777.099, 42.01222
1779.027, 41.74417
1780.956, 40.73993
1782.884, 40.37390
1784.813, 40.55645
1786.741, 41.07481
1788.670, 41.54423
1790.598, 41.73215
1792.527, 41.49897
1794.455, 41.67895
1796.384, 40.80799
1798.312, 41.53515
1800.240, 41.99403
1802.169, 41.96154
1804.097, 40.95819
1806.026, 40.25677
1807.954, 40.13391
1809.883, 40.37190
1811.811, 40.90233
1813.740, 41.95044
1815.668, 42.68375
1817.597, 42.23020
1819.525, 41.76928
1821.454, 41.48423
1823.382, 41.46038
1825.311, 41.55446
1827.239, 41.42157
1829.167, 41.29202
1831.096, 41.39690
1833.024, 41.34632
1834.953, 41.11268
1836.881, 40.78502
1838.810, 40.51628
1840.738, 40.62638
1842.667, 40.72826
1844.595, 40.53542
1846.524, 40.58135
1848.452, 40.82081
1850.381, 40.54605
1852.309, 40.29626
1854.238, 40.84014
1856.166, 41.30693
1858.094, 41.18493
1860.023, 41.85501
1861.951, 42.92580
1863.880, 42.73223
1865.808, 42.03517
1867.737, 41.08282
1869.665, 40.69320
1871.594, 41.09882
1873.522, 41.02879
1875.451, 40.73395
1877.379, 40.62347
1879.308, 40.69796
1881.236, 41.04872
1883.165, 41.07949
1885.093, 40.80777
1887.021, 40.73235
1888.950, 40.64740
1890.878, 40.23021
1892.807, 40.09157
1894.735, 40.37953
1896.664, 40.86098
1898.592, 41.29066
1900.521, 40.99694
1902.449, 40.74242
1904.378, 40.93200
1906.306, 40.91236
1908.235, 40.64191
1910.163, 40.17541
1912.092, 39.97453
1914.020, 39.53035
1915.948, 39.29480
1917.877, 39.16962
1919.805, 38.97633
1921.734, 39.79076
1923.662, 40.07262
1925.591, 40.20348
1927.519, 40.29440
1929.448, 40.70898
1931.376, 41.22773
1933.305, 40.58178
1935.233, 39.98895
1937.162, 40.74922
1939.090, 41.16345
1941.019, 41.02300
1942.947, 40.32742
1944.875, 39.55548
1946.804, 39.38557
1948.732, 39.18823
1950.661, 38.57123
1952.589, 38.89843
1954.518, 39.72284
1956.446, 40.09447
1958.375, 40.02268
1960.303, 40.59212
1962.232, 40.58183
1964.160, 40.86813
1966.089, 40.69948
1968.017, 40.19373
1969.946, 40.08182
1971.874, 40.14922
1973.802, 40.31141
1975.731, 39.56377
1977.659, 39.14021
1979.588, 40.87997
1981.516, 41.63409
1983.445, 40.71992
1985.373, 39.94526
1987.302, 39.54212
1989.230, 39.14277
1991.159, 39.26206
1993.087, 39.32423
1995.016, 39.85073
1996.944, 41.10740
1998.873, 41.41151
2000.801, 41.21074
2002.729, 40.66469
2004.658, 39.99335
2006.586, 39.46484
2008.515, 39.90754
2010.443, 40.30291
2012.372, 39.97912
2014.300, 40.16545
2016.229, 40.68832
2018.157, 40.72919
2020.086, 40.51554
2022.014, 40.03907
2023.943, 39.85701
2025.871, 39.88807
2027.800, 39.34506
2029.728, 39.11393
2031.656, 40.35064
2033.585, 40.64196
2035.513, 39.99082
2037.442, 39.67016
2039.370, 39.69647
2041.299, 39.20779
2043.227, 40.19274
2045.156, 38.96068
2047.084, 38.93024
2049.013, 39.45997
2050.941, 40.30743
2052.870, 40.40326
2054.798, 39.79292
2056.727, 40.30363
2058.655, 40.39697
2060.583, 40.10356
2062.512, 40.07738
2064.440, 39.60809
2066.369, 39.46590
2068.297, 38.91349
2070.226, 38.66459
2072.154, 38.43672
2074.083, 38.29315
2076.011, 38.96836
2077.940, 39.55297
2079.868, 39.38472
2081.797, 39.21033
2083.725, 39.14546
2085.654, 39.29649
2087.582, 39.47112
2089.510, 39.54475
2091.439, 39.71861
2093.367, 39.93546
2095.296, 40.04769
2097.224, 39.89457
2099.153, 39.32277
2101.081, 38.84546
2103.010, 38.55180
2104.938, 38.50237
2106.867, 38.74073
2108.795, 39.37710
2110.724, 39.63372
2112.652, 39.55461
2114.581, 39.28925
2116.509, 38.73912
2118.438, 37.69392
2120.366, 38.89452
2122.294, 40.42101
2124.223, 39.63593
2126.151, 38.97204
2128.080, 38.92810
2130.008, 38.19615
2131.937, 37.85616
2133.865, 39.14437
2135.794, 39.74186
2137.722, 39.45447
2139.651, 38.77405
2141.579, 38.57971
2143.508, 38.29147
2145.436, 39.31350
2147.365, 38.31913
2149.293, 39.29679
2151.221, 40.28091
2153.150, 40.55768
2155.078, 40.43004
2157.007, 39.94658
2158.935, 39.96414
2160.864, 38.33378
2162.792, 39.36793
2164.721, 38.72788
2166.649, 38.10576
2168.578, 39.84031
2170.506, 39.88729
2172.435, 38.38201
2174.363, 37.96280
2176.292, 38.23839
2178.220, 39.13429
2180.148, 39.22036
2182.077, 38.92245
2184.005, 39.54159
2185.934, 39.58289
2187.862, 38.70519
2189.791, 38.43560
2191.719, 38.55102
2193.648, 39.01387
2195.576, 39.01350
2197.505, 38.57983
2199.433, 38.14778
2201.362, 37.99541
2203.290, 38.35955
2205.219, 39.20205
2207.147, 39.84908
2209.075, 38.65479
2211.004, 38.10885
2212.932, 38.87621
2214.861, 38.94099
2216.789, 38.90931
2218.718, 39.40788
2220.646, 39.20004
2222.575, 38.44996
2224.503, 37.73311
2226.432, 37.85192
2228.360, 37.58772
2230.289, 37.70753
2232.217, 37.97449
2234.146, 38.31305
2236.074, 38.86790
2238.002, 39.39275
2239.931, 39.58070
2241.859, 39.34991
2243.788, 38.66935
2245.716, 38.01638
2247.645, 37.59692
2249.573, 37.79722
2251.502, 38.15561
2253.430, 38.50228
2255.359, 38.15015
2257.287, 38.10550
2259.216, 39.11189
2261.144, 39.30602
2263.073, 38.90693
2265.001, 38.07867
2266.929, 38.36064
2268.858, 37.87538
2270.786, 38.55499
2272.715, 37.50079
2274.643, 38.35059
2276.572, 38.19287
2278.500, 37.58835
2280.429, 37.38444
2282.357, 37.97156
2284.286, 39.17228
2286.214, 38.07135
2288.143, 37.29061
2290.071, 38.72963
2292.000, 39.05803
2293.928, 38.83014
2295.856, 39.11095
2297.785, 38.45628
2299.713, 38.54724
2301.642, 37.58281
2303.570, 38.30340
2305.499, 38.45990
2307.427, 38.30796
2309.356, 37.91856
2311.284, 37.25883
2313.213, 36.84776
2315.141, 36.88623
2317.070, 38.37284
2318.998, 38.85274
2320.927, 37.73499
2322.855, 37.40747
2324.783, 37.43995
2326.712, 37.48130
2328.640, 37.45679
2330.569, 37.44160
2332.497, 37.45041
2334.426, 38.18614
2336.354, 37.66416
2338.283, 38.22198
2340.211, 37.02716
2342.140, 36.64697
2344.068, 36.29551
2345.997, 36.20104
2347.925, 35.95071
2349.854, 36.83118
2351.782, 35.95142
2353.710, 35.40862
2355.639, 35.94482
2357.567, 37.47615
2359.496, 37.68465
2361.424, 37.49310
2363.353, 37.29426
2365.281, 37.38059
2367.210, 37.54756
2369.138, 37.59457
2371.067, 37.55403
2372.995, 37.44797
2374.924, 37.20638
2376.852, 37.38251
2378.781, 37.93472
2380.709, 36.56962
2382.637, 36.08738
2384.566, 37.87996
2386.494, 37.72322
2388.423, 36.88904
2390.351, 36.60514
2392.280, 36.60304
2394.208, 36.65300
2396.137, 36.10069
2398.065, 36.61168
2399.994, 36.53912
2401.922, 37.28059
2403.851, 36.63766
2405.779, 36.51154
2407.708, 35.97123
2409.636, 35.62378
2411.564, 35.84739
2413.493, 36.67791
2415.421, 37.43330
2417.350, 37.21444
2419.278, 36.85988
2421.207, 36.44020
2423.135, 35.48602
2425.064, 36.36832
2426.992, 35.80327
2428.921, 37.05311
2430.849, 35.87376
2432.778, 36.03669
2434.706, 36.29934
2436.635, 36.44736
2438.563, 36.32643
2440.491, 36.09560
2442.420, 35.97626
2444.348, 36.13364
2446.277, 35.97580
2448.205, 35.88479
2450.134, 36.11187
2452.062, 35.64448
2453.991, 36.06550
2455.919, 36.10754
2457.848, 36.04004
2459.776, 36.01188
2461.705, 36.64040
2463.633, 37.20266
2465.562, 37.40370
2467.490, 36.86496
2469.418, 36.08236
2471.347, 35.33865
2473.275, 36.09891
2475.204, 36.59258
2477.132, 35.39721
2479.061, 35.27738
2480.989, 35.37823
2482.918, 34.14267
2484.846, 34.89602
2486.775, 36.42145
2488.703, 36.05854
2490.632, 35.27915
2492.560, 34.81842
2494.489, 36.39305
2496.417, 36.75389
2498.345, 35.89187
2500.274, 36.11822
2502.202, 35.87188
2504.131, 34.96553
2506.059, 35.13026
2507.988, 35.04426
2509.916, 34.23031
2511.845, 34.34347
2513.773, 34.56714
2515.702, 34.46484
2517.630, 34.64075
2519.559, 34.44959
2521.487, 34.36366
2523.416, 34.54290
2525.344, 34.59385
2527.272, 34.81047
2529.201, 35.04654
2531.129, 35.14996
2533.058, 35.47444
2534.986, 34.74512
2536.915, 34.10820
2538.843, 35.23876
2540.772, 35.65006
2542.700, 35.30564
2544.629, 34.32823
2546.557, 34.00534
2548.486, 34.14312
2550.414, 33.93830
2552.343, 34.54369
2554.271, 35.34959
2556.199, 34.19466
2558.128, 33.96024
2560.056, 34.62109
2561.985, 35.12429
2563.913, 34.51872
2565.842, 33.39229
2567.770, 34.07963
2569.699, 34.30409
2571.627, 33.94123
2573.556, 34.22108
2575.484, 34.51027
2577.413, 34.49462
2579.341, 34.33003
2581.270, 34.26918
2583.198, 33.62156
2585.126, 33.69621
2587.055, 33.27979
2588.983, 32.70635
2590.912, 33.58027
2592.840, 33.93438
2594.769, 33.47575
2596.697, 33.87661
2598.626, 34.16050
2600.554, 34.13358
2602.483, 34.30523
2604.411, 34.32116
2606.340, 34.10010
2608.268, 33.78130
2610.197, 33.12436
2612.125, 32.36683
2614.053, 32.19046
2615.982, 31.79493
2617.910, 31.87153
2619.839, 31.64475
2621.767, 31.94248
2623.696, 31.67370
2625.624, 31.85078
2627.553, 31.36973
2629.481, 31.12121
2631.410, 31.08832
2633.338, 31.90740
2635.267, 33.24345
2637.195, 34.14186
2639.124, 33.51553
2641.052, 32.02929
2642.980, 31.73345
2644.909, 31.68697
2646.837, 31.68626
2648.766, 31.62900
2650.694, 31.87929
2652.623, 32.24569
2654.551, 32.52085
2656.480, 32.42012
2658.408, 32.41705
2660.337, 31.85752
2662.265, 31.93335
2664.194, 31.13021
2666.122, 30.69226
2668.051, 31.30779
2669.979, 31.53821
2671.907, 29.79494
2673.836, 30.84517
2675.764, 31.89021
2677.693, 30.53180
2679.621, 29.91843
2681.550, 30.16170
2683.478, 31.07171
2685.407, 30.99212
2687.335, 30.48845
2689.264, 30.01196
2691.192, 30.86023
2693.121, 31.30157
2695.049, 30.82774
2696.978, 30.39578
2698.906, 29.98767
2700.834, 29.68349
2702.763, 29.83377
2704.691, 30.10123
2706.620, 30.47582
2708.548, 30.39164
2710.477, 30.31753
2712.405, 30.32203
2714.334, 29.82214
2716.262, 29.81434
2718.191, 29.66221
2720.119, 28.22379
2722.048, 27.72693
2723.976, 28.15821
2725.905, 29.74323
2727.833, 29.97768
2729.761, 29.48467
2731.690, 28.62334
2733.618, 29.76823
2735.547, 30.28449
2737.475, 29.28288
2739.404, 28.35978
2741.332, 28.39491
2743.261, 29.19637
2745.189, 29.28066
2747.118, 29.36407
2749.046, 29.38757
2750.975, 28.97816
2752.903, 28.36614
2754.832, 28.24822
2756.760, 28.05782
2758.688, 27.71837
2760.617, 27.97178
2762.545, 27.36895
2764.474, 27.18567
2766.402, 27.24995
2768.331, 27.41833
2770.259, 27.20854
2772.188, 27.80644
2774.116, 28.65765
2776.045, 26.92201
2777.973, 26.83402
2779.902, 27.68770
2781.830, 27.22210
2783.759, 26.83343
2785.687, 26.77719
2787.615, 26.72283
2789.544, 27.31339
2791.472, 27.14511
2793.401, 27.11924
2795.329, 27.63577
2797.258, 27.47784
2799.186, 26.72242
2801.115, 26.89563
2803.043, 26.42564
2804.972, 25.88856
2806.900, 26.59187
2808.829, 25.64423
2810.757, 24.68990
2812.686, 25.07528
2814.614, 25.62300
2816.542, 26.10496
2818.471, 26.27247
2820.399, 24.58142
2822.328, 24.96287
2824.256, 26.45880
2826.185, 24.13357
2828.113, 24.07503
2830.042, 24.99862
2831.970, 24.99556
2833.899, 24.66911
2835.827, 24.64782
2837.756, 25.11649
2839.684, 25.52026
2841.613, 25.81777
2843.541, 25.58069
2845.469, 23.12647
2847.398, 23.52176
2849.326, 24.70435
2851.255, 23.00110
2853.183, 23.80016
2855.112, 24.45961
2857.040, 23.66943
2858.969, 23.25557
2860.897, 23.57801
2862.826, 24.35731
2864.754, 24.92931
2866.683, 24.54614
2868.611, 24.03080
2870.540, 24.18253
2872.468, 23.00457
2874.396, 22.36275
2876.325, 22.85135
2878.253, 22.81285
2880.182, 22.84106
2882.110, 23.21247
2884.039, 24.32554
2885.967, 23.16815
2887.896, 22.68444
2889.824, 24.36045
2891.753, 23.68154
2893.681, 21.94029
2895.610, 20.66983
2897.538, 23.26130
2899.467, 23.65262
2901.395, 22.74545
2903.323, 22.06214
2905.252, 22.17085
2907.180, 22.16610
2909.109, 21.76912
2911.037, 21.12848
2912.966, 21.07182
2914.894, 21.28381
2916.823, 21.17624
2918.751, 21.16095
2920.680, 20.74937
2922.608, 20.99434
2924.537, 20.98394
2926.465, 21.26041
2928.394, 20.90455
2930.322, 20.86969
2932.250, 20.44244
2934.179, 20.21508
2936.107, 20.51422
2938.036, 21.02352
2939.964, 20.60075
2941.893, 19.88997
2943.821, 20.28042
2945.750, 19.95639
2947.678, 21.57895
2949.607, 19.84784
2951.535, 20.38840
2953.464, 19.98822
2955.392, 18.81240
2957.321, 18.18825
2959.249, 18.15780
2961.177, 17.97101
2963.106, 18.51725
2965.034, 18.62472
2966.963, 19.32063
2968.891, 19.91749
2970.820, 19.87066
2972.748, 20.22614
2974.677, 19.76201
2976.605, 19.60229
2978.534, 19.40823
2980.462, 18.96219
2982.391, 17.94351
2984.319, 17.88793
2986.248, 17.82588
2988.176, 18.30085
2990.104, 18.91607
2992.033, 17.76424
2993.961, 17.60460
2995.890, 18.21265
2997.818, 18.99088
2999.747, 16.85602
3001.675, 16.44872
3003.604, 17.78466
3005.532, 18.75980
3007.461, 18.18289
3009.389, 17.30206
3011.318, 16.86127
3013.246, 17.01660
3015.175, 17.13858
3017.103, 17.30511
3019.031, 17.66804
3020.960, 17.09139
3022.888, 17.37546
3024.817, 18.00516
3026.745, 16.08422
3028.674, 15.49691
3030.602, 15.64323
3032.531, 15.96969
3034.459, 16.52217
3036.388, 17.59693
3038.316, 17.96222
3040.245, 17.83431
3042.173, 16.75679
3044.102, 16.86390
3046.030, 15.50841
3047.958, 14.44041
3049.887, 14.69952
3051.815, 14.84013
3053.744, 14.32500
3055.672, 15.26995
3057.601, 14.43130
3059.529, 13.92896
3061.458, 15.69599
3063.386, 15.14066
3065.315, 14.65486
3067.243, 14.48356
3069.172, 13.94144
3071.100, 15.06579
3073.029, 15.27714
3074.957, 14.43580
3076.885, 15.57643
3078.814, 15.00485
3080.742, 14.73433
3082.671, 15.74767
3084.599, 16.67933
3086.528, 15.89015
3088.456, 14.76291
3090.385, 14.70761
3092.313, 15.27559
3094.242, 14.61511
3096.170, 13.64877
3098.099, 14.35375
3100.027, 14.15077
3101.956, 14.42459
3103.884, 14.87163
3105.813, 13.88455
3107.741, 14.29088
3109.669, 14.36261
3111.598, 13.47214
3113.526, 12.24635
3115.455, 12.43693
3117.383, 11.93251
3119.312, 11.85117
3121.240, 12.20369
3123.169, 12.19843
3125.097, 12.91758
3127.026, 13.46231
3128.954, 13.58082
3130.883, 13.57875
3132.811, 13.11736
3134.740, 13.24824
3136.668, 12.97082
3138.596, 12.99546
3140.525, 12.36574
3142.453, 11.91766
3144.382, 11.82077
3146.310, 11.83086
3148.239, 12.12411
3150.167, 13.01039
3152.096, 14.05942
3154.024, 13.22434
3155.953, 11.69216
3157.881, 12.06499
3159.810, 11.93191
3161.738, 12.25300
3163.667, 12.72024
3165.595, 12.38322
3167.523, 12.49759
3169.452, 11.99695
3171.380, 11.55464
3173.309, 12.82447
3175.237, 11.92862
3177.166, 11.31460
3179.094, 11.19332
3181.023, 10.34793
3182.951, 9.700237
3184.880, 9.754041
3186.808, 10.46438
3188.737, 11.48443
3190.665, 10.45757
3192.594, 9.701646
3194.522, 9.814762
3196.450, 10.37999
3198.379, 10.26781
3200.307, 10.49470
3202.236, 10.83110
3204.164, 10.45596
3206.093, 9.916152
3208.021, 9.433616
3209.950, 9.394865
3211.878, 10.33702
3213.807, 8.814442
3215.735, 9.855221
3217.664, 11.24978
3219.592, 9.104124
3221.521, 8.901740
3223.449, 9.477873
3225.377, 9.642470
3227.306, 8.682223
3229.234, 8.583734
3231.163, 8.449760
3233.091, 8.713830
3235.020, 9.577952
3236.948, 9.559631
3238.877, 8.427546
3240.805, 7.979371
3242.734, 8.814299
3244.662, 9.189286
3246.591, 9.303374
3248.519, 8.898190
3250.448, 8.329561
3252.376, 8.794214
3254.304, 9.387360
3256.233, 8.821270
3258.161, 9.034179
3260.090, 8.078047
3262.018, 8.469250
3263.947, 8.515703
3265.875, 7.994134
3267.804, 6.822267
3269.732, 7.706173
3271.661, 7.385205
3273.589, 7.353324
3275.518, 7.687286
3277.446, 8.166709
3279.375, 7.931581
3281.303, 8.072978
3283.231, 8.196468
3285.160, 8.005800
3287.088, 8.689936
3289.017, 9.526702
3290.945, 9.525166
3292.874, 7.851551
3294.802, 7.277358
3296.731, 7.976693
3298.659, 8.484682
3300.588, 7.766005
3302.516, 8.252131
3304.445, 7.570156
3306.373, 6.811208
3308.302, 6.655375
3310.230, 6.195331
3312.158, 6.377877
3314.087, 6.561646
3316.015, 6.927933
3317.944, 7.404305
3319.872, 7.526810
3321.801, 8.008878
3323.729, 8.160143
3325.658, 7.404119
3327.586, 6.692490
3329.515, 6.466387
3331.443, 7.044700
3333.372, 7.786904
3335.300, 7.114944
3337.229, 6.669028
3339.157, 6.383172
3341.085, 6.088448
3343.014, 5.776645
3344.942, 6.621875
3346.871, 6.876068
3348.799, 7.129851
3350.728, 7.468048
3352.656, 7.028911
3354.585, 5.184137
3356.513, 5.595279
3358.442, 6.562215
3360.370, 5.715018
3362.299, 6.893291
3364.227, 6.712682
3366.156, 7.098226
3368.084, 7.715426
3370.012, 5.150481
3371.941, 1.819478
3373.869, 2.181970
3375.798, 4.216731
3377.726, 5.077697
3379.655, 5.397014
3381.583, 6.138770
3383.512, 6.748174
3385.440, 6.889874
3387.369, 6.526069
3389.297, 6.041397
3391.226, 5.604415
3393.154, 5.883283
3395.083, 5.295569
3397.011, 5.805101
3398.939, 4.990628
3400.868, 4.860547
3402.796, 5.467763
3404.725, 6.393163
3406.653, 5.899216
3408.582, 4.997256
3410.510, 5.577234
3412.439, 6.551202
3414.367, 5.246247
3416.296, 6.929207
3418.224, 5.080306
3420.153, 4.667243
3422.081, 7.275737
3424.010, 6.432211
3425.938, 5.921056
3427.866, 5.827036
3429.795, 5.805841
3431.723, 5.773672
3433.652, 5.628783
3435.580, 5.481303
3437.509, 5.650762
3439.437, 5.037614
3441.366, 5.656753
3443.294, 5.442981
3445.223, 5.027541
3447.151, 5.133397
3449.080, 5.533617
3451.008, 5.534858
3452.937, 4.976836
3454.865, 3.616825
3456.793, 3.567227
3458.722, 4.503980
3460.650, 4.197157
##END=



