##NAMES=Tamarugite
##RRUFFID=R061060
##IDEAL CHEMISTRY=NaAl(SO_4_)_2_·6H_2_O
##LOCALITY=El Desierto mine fumaroles, Potosí, Bolivia
##OWNER=RRUFF
##SOURCE=Michael Scott
##DESCRIPTION=Colorless thin tabular crystals associated with yellow sulfur and colorless potassium alum
##STATUS=The identification of this mineral has been confirmed by single-crystal X-ray diffraction
##URL=https://www.rruff.net/odr/rruff_sample/R061060
##DIFFRACTION SAMPLE DESCRIPTION=Single crystal, powder profile is calculated
##CELL PARAMETERS=a: 7.37 b: 25.21 c: 6.098 alpha: 90 beta: 94.823 gamma: 90 volume: 1129.1 crystal system: monoclinic
##FILETYPE=Raman RAW
##RAMAN WAVELENGTH=532

134.2595, 1751.089
136.1880, 1719.831
138.1165, 1709.880
140.0449, 1719.489
141.9734, 1746.129
143.9019, 1790.896
145.8303, 1869.422
147.7588, 1963.535
149.6873, 2037.104
151.6157, 2102.324
153.5442, 2142.539
155.4727, 2138.014
157.4011, 2082.605
159.3296, 2029.879
161.2581, 1991.976
163.1865, 1968.293
165.1150, 1948.370
167.0435, 1948.717
168.9719, 1942.525
170.9004, 1907.080
172.8289, 1823.418
174.7573, 1738.832
176.6858, 1663.462
178.6143, 1595.728
180.5427, 1546.379
182.4712, 1526.435
184.3997, 1523.428
186.3281, 1518.863
188.2566, 1516.026
190.1851, 1508.159
192.1135, 1489.120
194.0420, 1454.669
195.9705, 1426.692
197.8989, 1410.975
199.8274, 1405.575
201.7559, 1405.955
203.6843, 1406.076
205.6128, 1415.221
207.5413, 1441.347
209.4697, 1485.429
211.3982, 1539.216
213.3267, 1611.855
215.2551, 1708.107
217.1836, 1761.996
219.1121, 1772.277
221.0405, 1740.675
222.9690, 1670.902
224.8975, 1532.929
226.8259, 1404.210
228.7544, 1306.224
230.6829, 1246.118
232.6113, 1203.509
234.5398, 1184.608
236.4683, 1182.972
238.3967, 1189.111
240.3252, 1206.474
242.2537, 1229.466
244.1821, 1260.150
246.1106, 1301.745
248.0391, 1335.521
249.9675, 1360.975
251.8960, 1376.836
253.8245, 1377.104
255.7529, 1348.041
257.6814, 1313.742
259.6099, 1280.866
261.5384, 1247.615
263.4668, 1222.479
265.3953, 1207.820
267.3238, 1202.320
269.2522, 1205.611
271.1807, 1217.290
273.1092, 1237.252
275.0376, 1266.518
276.9661, 1304.644
278.8946, 1350.971
280.8230, 1404.214
282.7515, 1464.673
284.6800, 1536.298
286.6084, 1613.256
288.5369, 1704.486
290.4654, 1816.769
292.3938, 1957.650
294.3223, 2096.318
296.2508, 2232.819
298.1792, 2364.270
300.1077, 2473.634
302.0362, 2519.533
303.9646, 2576.902
305.8931, 2685.552
307.8216, 2868.702
309.7500, 3057.549
311.6785, 3285.008
313.6070, 3523.381
315.5354, 3642.686
317.4639, 3608.228
319.3924, 3477.566
321.3208, 3288.215
323.2493, 2988.501
325.1778, 2712.325
327.1062, 2458.261
329.0347, 2238.723
330.9632, 2074.652
332.8916, 1974.942
334.8201, 1929.597
336.7486, 1932.177
338.6770, 2045.169
340.6055, 2121.380
342.5340, 2155.146
344.4624, 2143.937
346.3909, 2093.648
348.3194, 1976.949
350.2478, 1844.469
352.1763, 1720.440
354.1048, 1602.375
356.0332, 1498.862
357.9617, 1412.299
359.8902, 1341.572
361.8186, 1282.168
363.7471, 1237.331
365.6756, 1201.629
367.6040, 1172.678
369.5325, 1150.487
371.4610, 1136.518
373.3894, 1135.462
375.3179, 1142.077
377.2464, 1148.296
379.1748, 1151.355
381.1033, 1157.184
383.0318, 1167.135
384.9602, 1181.672
386.8887, 1202.285
388.8172, 1229.772
390.7456, 1264.091
392.6741, 1303.720
394.6026, 1341.504
396.5310, 1395.667
398.4595, 1471.457
400.3880, 1571.797
402.3164, 1683.319
404.2449, 1807.921
406.1734, 1943.901
408.1018, 2091.254
410.0303, 2268.688
411.9588, 2428.325
413.8872, 2561.528
415.8157, 2667.724
417.7442, 2761.296
419.6726, 2831.442
421.6011, 2898.137
423.5296, 2968.803
425.4580, 3031.233
427.3865, 3125.578
429.3150, 3244.984
431.2434, 3400.372
433.1719, 3606.746
435.1004, 3878.529
437.0288, 4183.020
438.9573, 4514.876
440.8858, 4898.166
442.8142, 5234.057
444.7427, 5468.783
446.6712, 5682.644
448.5996, 5958.958
450.5281, 6287.608
452.4566, 6696.395
454.3850, 7257.448
456.3135, 7974.839
458.2420, 8488.388
460.1705, 8839.499
462.0989, 8987.007
464.0274, 8848.808
465.9559, 8394.127
467.8843, 7917.981
469.8128, 7466.216
471.7413, 7044.593
473.6697, 6674.006
475.5982, 6371.002
477.5267, 6098.683
479.4551, 5870.654
481.3836, 5681.304
483.3121, 5449.801
485.2405, 5139.879
487.1690, 4789.811
489.0975, 4425.572
491.0259, 3999.690
492.9544, 3618.297
494.8829, 3295.884
496.8113, 3029.724
498.7398, 2811.371
500.6683, 2648.386
502.5967, 2531.681
504.5252, 2458.958
506.4537, 2442.250
508.3821, 2450.792
510.3106, 2490.792
512.2391, 2555.140
514.1675, 2634.217
516.0960, 2737.746
518.0245, 2837.609
519.9529, 2940.173
521.8814, 3042.011
523.8099, 3095.869
525.7383, 3097.884
527.6668, 3059.979
529.5953, 2985.322
531.5237, 2873.793
533.4522, 2738.339
535.3807, 2563.139
537.3091, 2371.493
539.2376, 2195.737
541.1661, 2024.630
543.0945, 1881.676
545.0230, 1784.223
546.9515, 1723.179
548.8799, 1671.689
550.8084, 1626.152
552.7369, 1592.304
554.6653, 1573.667
556.5938, 1574.380
558.5223, 1584.150
560.4507, 1608.988
562.3792, 1640.689
564.3077, 1668.608
566.2361, 1685.468
568.1646, 1713.008
570.0931, 1756.429
572.0215, 1815.091
573.9500, 1881.132
575.8785, 1942.150
577.8069, 2021.208
579.7354, 2128.818
581.6639, 2263.759
583.5923, 2420.395
585.5208, 2586.124
587.4493, 2778.984
589.3777, 3022.294
591.3062, 3342.851
593.2347, 3666.425
595.1631, 3997.794
597.0916, 4321.896
599.0201, 4616.781
600.9485, 4916.681
602.8770, 5130.558
604.8055, 5217.407
606.7339, 5165.749
608.6624, 5096.272
610.5909, 4980.784
612.5193, 4873.132
614.4478, 4801.512
616.3763, 4763.558
618.3047, 4764.709
620.2332, 4827.565
622.1617, 4918.758
624.0901, 4998.806
626.0186, 5091.920
627.9471, 5139.167
629.8755, 5129.917
631.8040, 5064.020
633.7325, 4943.983
635.6609, 4759.545
637.5894, 4529.496
639.5179, 4242.545
641.4464, 3885.594
643.3748, 3583.754
645.3033, 3326.098
647.2318, 3128.432
649.1602, 3013.330
651.0887, 2985.339
653.0172, 2969.664
654.9456, 2975.397
656.8741, 2974.790
658.8026, 2934.403
660.7310, 2822.979
662.6595, 2705.018
664.5880, 2579.320
666.5164, 2450.089
668.4449, 2325.765
670.3734, 2204.707
672.3018, 2093.438
674.2303, 1992.645
676.1588, 1902.625
678.0872, 1826.060
680.0157, 1765.411
681.9442, 1714.003
683.8726, 1670.605
685.8011, 1634.692
687.7296, 1602.045
689.6580, 1571.689
691.5865, 1544.792
693.5150, 1522.193
695.4434, 1503.495
697.3719, 1490.306
699.3004, 1483.551
701.2288, 1482.001
703.1573, 1485.473
705.0858, 1498.504
707.0142, 1504.863
708.9427, 1494.638
710.8712, 1474.114
712.7996, 1460.046
714.7281, 1454.342
716.6566, 1453.768
718.5850, 1460.623
720.5135, 1473.871
722.4420, 1482.813
724.3704, 1482.861
726.2989, 1483.359
728.2274, 1489.475
730.1558, 1501.503
732.0843, 1510.717
734.0128, 1513.685
735.9412, 1515.804
737.8697, 1520.368
739.7982, 1527.918
741.7266, 1535.747
743.6551, 1544.595
745.5836, 1553.177
747.5120, 1560.512
749.4405, 1566.322
751.3690, 1572.248
753.2974, 1577.418
755.2259, 1583.508
757.1544, 1593.589
759.0828, 1612.658
761.0113, 1626.832
762.9398, 1631.072
764.8682, 1629.170
766.7967, 1627.698
768.7252, 1628.394
770.6536, 1625.688
772.5821, 1615.793
774.5106, 1600.875
776.4390, 1590.464
778.3675, 1590.153
780.2960, 1588.403
782.2244, 1580.559
784.1529, 1568.870
786.0814, 1560.786
788.0098, 1560.487
789.9383, 1558.948
791.8668, 1550.563
793.7952, 1534.217
795.7237, 1524.077
797.6522, 1522.860
799.5806, 1523.842
801.5091, 1525.637
803.4376, 1527.827
805.3660, 1524.938
807.2945, 1512.721
809.2230, 1499.169
811.1514, 1489.018
813.0799, 1483.182
815.0084, 1477.476
816.9368, 1469.879
818.8653, 1464.179
820.7938, 1463.751
822.7222, 1469.614
824.6507, 1474.803
826.5792, 1478.506
828.5077, 1481.119
830.4362, 1481.165
832.3646, 1476.510
834.2931, 1479.668
836.2216, 1502.477
838.1500, 1527.041
840.0785, 1537.172
842.0070, 1523.232
843.9354, 1516.647
845.8639, 1526.756
847.7924, 1540.353
849.7208, 1543.253
851.6493, 1532.211
853.5778, 1528.223
855.5062, 1543.220
857.4347, 1563.433
859.3632, 1576.241
861.2916, 1575.764
863.2201, 1575.999
865.1486, 1576.716
867.0770, 1578.337
869.0055, 1580.892
870.9340, 1583.726
872.8624, 1590.087
874.7909, 1606.182
876.7194, 1623.489
878.6478, 1632.561
880.5763, 1628.731
882.5048, 1626.523
884.4332, 1630.760
886.3617, 1635.938
888.2902, 1632.566
890.2186, 1613.430
892.1471, 1608.553
894.0756, 1632.656
896.0040, 1668.948
897.9325, 1701.059
899.8610, 1727.853
901.7894, 1753.586
903.7179, 1774.297
905.6464, 1796.770
907.5748, 1828.467
909.5033, 1878.476
911.4318, 1922.917
913.3602, 1948.769
915.2887, 1976.253
917.2172, 2027.458
919.1456, 2104.434
921.0741, 2183.302
923.0026, 2252.138
924.9310, 2324.966
926.8595, 2411.559
928.7880, 2509.208
930.7164, 2630.303
932.6449, 2780.885
934.5734, 2949.436
936.5018, 3126.696
938.4303, 3312.811
940.3588, 3511.043
942.2872, 3743.892
944.2157, 3969.007
946.1442, 4157.342
948.0726, 4307.482
950.0011, 4448.559
951.9296, 4586.069
953.8580, 4714.420
955.7865, 4821.244
957.7150, 4898.101
959.6434, 5018.438
961.5719, 5149.746
963.5004, 5352.100
965.4288, 5607.737
967.3573, 5939.590
969.2858, 6504.620
971.2142, 7172.197
973.1427, 8310.037
975.0712, 9787.905
976.9996, 11658.55
978.9281, 14887.07
980.8566, 18114.51
982.7850, 24320.21
984.7135, 35646.43
986.6420, 50953.44
988.5704, 65878.04
990.4989, 85447.03
992.4274, 96539.79
994.3558, 90938.99
996.2843, 74970.64
998.2128, 58443.90
1000.141, 39913.06
1002.070, 25130.44
1003.998, 16375.60
1005.927, 11590.39
1007.855, 8045.830
1009.784, 6430.833
1011.712, 5171.885
1013.641, 4368.255
1015.569, 3841.992
1017.497, 3449.837
1019.426, 3191.081
1021.354, 2985.318
1023.283, 2833.546
1025.211, 2720.255
1027.140, 2632.682
1029.068, 2570.679
1030.997, 2535.461
1032.925, 2540.363
1034.854, 2560.117
1036.782, 2578.167
1038.711, 2595.322
1040.639, 2655.104
1042.568, 2752.098
1044.496, 2893.609
1046.424, 3071.616
1048.353, 3300.619
1050.281, 3606.510
1052.210, 3991.493
1054.138, 4452.098
1056.067, 5020.794
1057.995, 5650.596
1059.924, 6289.608
1061.852, 7024.436
1063.781, 7567.919
1065.709, 7910.915
1067.638, 8048.993
1069.566, 7945.231
1071.495, 7530.538
1073.423, 7115.356
1075.351, 6649.625
1077.280, 6240.748
1079.208, 5944.868
1081.137, 5756.333
1083.065, 5690.668
1084.994, 5782.968
1086.922, 5957.848
1088.851, 6220.561
1090.779, 6546.783
1092.708, 6803.845
1094.636, 7030.345
1096.565, 7127.179
1098.493, 7031.348
1100.422, 6806.945
1102.350, 6553.783
1104.278, 6257.445
1106.207, 5974.661
1108.135, 5748.087
1110.064, 5515.780
1111.992, 5218.404
1113.921, 4858.773
1115.849, 4508.715
1117.778, 4145.578
1119.706, 3837.455
1121.635, 3609.567
1123.563, 3460.597
1125.492, 3387.977
1127.420, 3414.645
1129.349, 3492.866
1131.277, 3619.478
1133.205, 3790.007
1135.134, 4006.885
1137.062, 4298.756
1138.991, 4555.532
1140.919, 4780.975
1142.848, 4943.914
1144.776, 5015.460
1146.705, 4997.396
1148.633, 4934.860
1150.562, 4824.723
1152.490, 4682.767
1154.419, 4507.671
1156.347, 4303.164
1158.276, 4109.181
1160.204, 3939.696
1162.132, 3761.866
1164.061, 3567.211
1165.989, 3360.417
1167.918, 3148.104
1169.846, 2923.519
1171.775, 2710.734
1173.703, 2503.096
1175.632, 2316.750
1177.560, 2167.615
1179.489, 2052.991
1181.417, 1954.363
1183.346, 1869.125
1185.274, 1802.878
1187.203, 1762.435
1189.131, 1741.555
1191.059, 1723.581
1192.988, 1709.650
1194.916, 1696.102
1196.845, 1677.786
1198.773, 1662.035
1200.702, 1658.116
1202.630, 1671.289
1204.559, 1674.849
1206.487, 1662.255
1208.416, 1646.631
1210.344, 1631.600
1212.273, 1618.260
1214.201, 1609.983
1216.130, 1608.964
1218.058, 1608.128
1219.986, 1607.044
1221.915, 1603.882
1223.843, 1594.660
1225.772, 1577.796
1227.700, 1568.127
1229.629, 1574.816
1231.557, 1582.157
1233.486, 1582.840
1235.414, 1578.215
1237.343, 1576.486
1239.271, 1583.620
1241.200, 1586.283
1243.128, 1577.831
1245.057, 1566.602
1246.985, 1562.655
1248.913, 1566.588
1250.842, 1571.852
1252.770, 1580.640
1254.699, 1587.359
1256.627, 1588.590
1258.556, 1585.762
1260.484, 1582.317
1262.413, 1578.573
1264.341, 1574.745
1266.270, 1570.546
1268.198, 1566.963
1270.127, 1565.270
1272.055, 1565.828
1273.984, 1565.187
1275.912, 1559.219
1277.840, 1555.838
1279.769, 1559.026
1281.697, 1566.551
1283.626, 1572.290
1285.554, 1575.837
1287.483, 1578.184
1289.411, 1581.109
1291.340, 1581.631
1293.268, 1574.978
1295.197, 1561.872
1297.125, 1555.907
1299.054, 1562.059
1300.982, 1567.555
1302.911, 1564.560
1304.839, 1559.868
1306.767, 1564.203
1308.696, 1579.285
1310.624, 1588.078
1312.553, 1582.971
1314.481, 1575.859
1316.410, 1571.218
1318.338, 1569.172
1320.267, 1571.146
1322.195, 1579.724
1324.124, 1586.887
1326.052, 1593.632
1327.981, 1597.006
1329.909, 1592.510
1331.838, 1578.742
1333.766, 1572.690
1335.694, 1580.757
1337.623, 1588.019
1339.551, 1587.036
1341.480, 1584.312
1343.408, 1592.760
1345.337, 1615.532
1347.265, 1628.008
1349.194, 1618.485
1351.122, 1607.810
1353.051, 1607.440
1354.979, 1613.423
1356.908, 1615.795
1358.836, 1612.356
1360.765, 1613.976
1362.693, 1627.421
1364.621, 1642.971
1366.550, 1654.962
1368.478, 1663.371
1370.407, 1669.132
1372.335, 1673.926
1374.264, 1672.364
1376.192, 1655.200
1378.121, 1637.173
1380.049, 1634.708
1381.978, 1651.984
1383.906, 1660.427
1385.835, 1648.432
1387.763, 1642.392
1389.692, 1652.646
1391.620, 1670.957
1393.548, 1685.316
1395.477, 1694.372
1397.405, 1702.800
1399.334, 1711.445
1401.262, 1717.791
1403.191, 1719.095
1405.119, 1717.477
1407.048, 1718.310
1408.976, 1722.781
1410.905, 1724.257
1412.833, 1716.616
1414.762, 1712.167
1416.690, 1721.750
1418.619, 1739.243
1420.547, 1751.001
1422.475, 1756.286
1424.404, 1757.042
1426.332, 1746.476
1428.261, 1738.878
1430.189, 1744.481
1432.118, 1759.810
1434.046, 1771.598
1435.975, 1778.111
1437.903, 1784.840
1439.832, 1797.072
1441.760, 1806.449
1443.689, 1805.933
1445.617, 1796.714
1447.546, 1790.899
1449.474, 1791.317
1451.402, 1789.777
1453.331, 1781.327
1455.259, 1773.786
1457.188, 1774.172
1459.116, 1781.967
1461.045, 1787.060
1462.973, 1789.576
1464.902, 1790.051
1466.830, 1785.646
1468.759, 1782.112
1470.687, 1785.494
1472.616, 1795.153
1474.544, 1800.813
1476.473, 1798.922
1478.401, 1798.982
1480.329, 1801.091
1482.258, 1806.323
1484.186, 1818.038
1486.115, 1834.292
1488.043, 1843.821
1489.972, 1844.608
1491.900, 1842.548
1493.829, 1837.371
1495.757, 1831.675
1497.686, 1827.048
1499.614, 1823.978
1501.543, 1823.919
1503.471, 1828.053
1505.400, 1832.492
1507.328, 1837.937
1509.256, 1841.712
1511.185, 1841.575
1513.113, 1838.252
1515.042, 1833.201
1516.970, 1824.937
1518.899, 1820.659
1520.827, 1823.735
1522.756, 1829.164
1524.684, 1834.735
1526.613, 1840.086
1528.541, 1844.392
1530.470, 1847.334
1532.398, 1850.406
1534.327, 1858.787
1536.255, 1861.749
1538.183, 1847.672
1540.112, 1827.186
1542.040, 1825.728
1543.969, 1850.231
1545.897, 1864.755
1547.826, 1854.638
1549.754, 1847.406
1551.683, 1851.932
1553.611, 1864.135
1555.540, 1880.582
1557.468, 1904.895
1559.397, 1915.743
1561.325, 1898.161
1563.254, 1886.149
1565.182, 1890.265
1567.111, 1901.101
1569.039, 1909.509
1570.968, 1915.580
1572.896, 1922.923
1574.824, 1932.552
1576.753, 1942.302
1578.681, 1952.267
1580.610, 1961.763
1582.538, 1970.257
1584.467, 1977.571
1586.395, 1983.555
1588.324, 1987.411
1590.252, 1990.929
1592.181, 1993.038
1594.109, 1996.068
1596.038, 1999.706
1597.966, 2005.543
1599.895, 2018.034
1601.823, 2041.014
1603.751, 2056.822
1605.680, 2059.539
1607.608, 2062.958
1609.537, 2071.254
1611.465, 2082.273
1613.394, 2094.537
1615.322, 2108.143
1617.251, 2119.797
1619.179, 2127.317
1621.108, 2136.780
1623.036, 2149.580
1624.965, 2163.871
1626.893, 2179.686
1628.822, 2195.690
1630.750, 2206.841
1632.678, 2209.577
1634.607, 2219.559
1636.535, 2241.324
1638.464, 2266.317
1640.392, 2295.111
1642.321, 2323.345
1644.249, 2344.272
1646.178, 2357.860
1648.106, 2373.132
1650.035, 2384.118
1651.963, 2408.525
1653.892, 2467.351
1655.820, 2524.266
1657.749, 2549.042
1659.677, 2551.596
1661.605, 2565.190
1663.534, 2593.755
1665.462, 2614.653
1667.391, 2623.945
1669.319, 2627.538
1671.248, 2629.449
1673.176, 2625.389
1675.105, 2608.556
1677.033, 2579.079
1678.962, 2548.091
1680.890, 2511.190
1682.819, 2482.464
1684.747, 2475.188
1686.676, 2465.411
1688.604, 2436.992
1690.532, 2397.441
1692.461, 2361.031
1694.389, 2327.697
1696.318, 2299.206
1698.246, 2282.799
1700.175, 2260.792
1702.103, 2220.383
1704.032, 2180.129
1705.960, 2155.879
1707.889, 2144.943
1709.817, 2137.651
1711.746, 2138.427
1713.674, 2129.235
1715.603, 2101.434
1717.531, 2073.345
1719.459, 2045.980
1721.388, 2025.485
1723.316, 2024.117
1725.245, 2039.923
1727.173, 2041.575
1729.102, 2018.862
1731.030, 2001.657
1732.959, 1997.659
1734.887, 1992.463
1736.816, 1974.896
1738.744, 1954.793
1740.673, 1949.049
1742.601, 1958.760
1744.530, 1958.545
1746.458, 1934.825
1748.386, 1921.685
1750.315, 1930.084
1752.243, 1939.966
1754.172, 1941.147
1756.100, 1936.969
1758.029, 1932.884
1759.957, 1929.157
1761.886, 1925.026
1763.814, 1919.823
1765.743, 1915.688
1767.671, 1909.869
1769.600, 1908.340
1771.528, 1917.729
1773.457, 1931.995
1775.385, 1940.058
1777.313, 1941.146
1779.242, 1939.454
1781.170, 1933.400
1783.099, 1927.162
1785.027, 1920.809
1786.956, 1915.382
1788.884, 1912.394
1790.813, 1910.569
1792.741, 1907.122
1794.670, 1902.181
1796.598, 1900.243
1798.527, 1904.017
1800.455, 1904.558
1802.384, 1895.559
1804.312, 1888.383
1806.240, 1890.229
1808.169, 1896.411
1810.097, 1900.247
1812.026, 1901.939
1813.954, 1904.204
1815.883, 1907.411
1817.811, 1909.161
1819.740, 1907.502
1821.668, 1905.660
1823.597, 1903.687
1825.525, 1903.352
1827.454, 1909.968
1829.382, 1920.638
1831.311, 1919.591
1833.239, 1903.109
1835.167, 1894.252
1837.096, 1903.995
1839.024, 1911.844
1840.953, 1904.476
1842.881, 1896.247
1844.810, 1903.107
1846.738, 1920.081
1848.667, 1929.262
1850.595, 1929.018
1852.524, 1928.801
1854.452, 1927.891
1856.381, 1928.488
1858.309, 1931.465
1860.238, 1935.549
1862.166, 1942.384
1864.094, 1948.760
1866.023, 1945.929
1867.951, 1932.069
1869.880, 1930.367
1871.808, 1958.707
1873.737, 1967.910
1875.665, 1935.924
1877.594, 1907.882
1879.522, 1905.741
1881.451, 1913.901
1883.379, 1915.813
1885.308, 1912.833
1887.236, 1913.288
1889.165, 1917.751
1891.093, 1921.813
1893.021, 1923.459
1894.950, 1927.192
1896.878, 1938.078
1898.807, 1946.850
1900.735, 1946.499
1902.664, 1940.887
1904.592, 1934.758
1906.521, 1928.716
1908.449, 1928.294
1910.378, 1936.766
1912.306, 1938.284
1914.235, 1923.961
1916.163, 1911.741
1918.092, 1910.341
1920.020, 1913.048
1921.948, 1911.948
1923.877, 1910.426
1925.805, 1920.617
1927.734, 1945.826
1929.662, 1956.689
1931.591, 1938.775
1933.519, 1929.239
1935.448, 1943.713
1937.376, 1952.186
1939.305, 1934.124
1941.233, 1910.096
1943.162, 1901.349
1945.090, 1905.500
1947.019, 1913.675
1948.947, 1927.360
1950.875, 1935.721
1952.804, 1936.124
1954.732, 1935.832
1956.661, 1933.382
1958.589, 1934.646
1960.518, 1945.750
1962.446, 1959.064
1964.375, 1969.430
1966.303, 1974.923
1968.232, 1966.633
1970.160, 1943.794
1972.089, 1932.272
1974.017, 1941.046
1975.946, 1945.130
1977.874, 1928.707
1979.802, 1918.847
1981.731, 1936.001
1983.659, 1959.537
1985.588, 1966.738
1987.516, 1961.980
1989.445, 1960.817
1991.373, 1964.459
1993.302, 1963.109
1995.230, 1951.076
1997.159, 1943.602
1999.087, 1939.307
2001.016, 1943.271
2002.944, 1967.757
2004.873, 1991.259
2006.801, 1991.184
2008.729, 1978.275
2010.658, 1978.482
2012.586, 1990.273
2014.515, 1994.448
2016.443, 1989.175
2018.372, 1981.347
2020.300, 1966.681
2022.229, 1961.693
2024.157, 1983.265
2026.086, 2004.690
2028.014, 2005.223
2029.943, 1996.779
2031.871, 1994.615
2033.800, 1998.076
2035.728, 2005.725
2037.656, 2020.210
2039.585, 2028.259
2041.513, 2024.919
2043.442, 2023.144
2045.370, 2025.076
2047.299, 2028.409
2049.227, 2036.904
2051.156, 2042.582
2053.084, 2034.482
2055.013, 2020.441
2056.941, 2017.489
2058.870, 2024.062
2060.798, 2029.895
2062.727, 2034.490
2064.655, 2038.662
2066.583, 2047.301
2068.512, 2045.538
2070.440, 2011.419
2072.369, 1988.130
2074.297, 2008.669
2076.226, 2041.036
2078.154, 2051.714
2080.083, 2047.214
2082.011, 2044.780
2083.940, 2044.027
2085.868, 2044.159
2087.797, 2046.555
2089.725, 2045.821
2091.654, 2039.194
2093.582, 2036.426
2095.510, 2042.146
2097.439, 2050.672
2099.367, 2063.696
2101.296, 2073.847
2103.224, 2067.229
2105.153, 2054.584
2107.081, 2061.350
2109.010, 2085.594
2110.938, 2103.138
2112.867, 2112.559
2114.795, 2118.252
2116.724, 2115.226
2118.652, 2116.898
2120.581, 2133.104
2122.509, 2144.455
2124.438, 2136.820
2126.366, 2128.125
2128.294, 2133.790
2130.223, 2147.516
2132.151, 2160.825
2134.080, 2172.650
2136.008, 2178.966
2137.937, 2179.526
2139.865, 2171.540
2141.794, 2148.094
2143.722, 2139.935
2145.651, 2170.769
2147.579, 2191.657
2149.508, 2183.971
2151.436, 2169.111
2153.365, 2154.027
2155.293, 2143.598
2157.221, 2144.705
2159.150, 2154.207
2161.078, 2166.630
2163.007, 2181.147
2164.935, 2184.685
2166.864, 2175.137
2168.792, 2174.929
2170.721, 2188.988
2172.649, 2203.095
2174.578, 2215.309
2176.506, 2223.701
2178.435, 2223.891
2180.363, 2224.070
2182.292, 2231.794
2184.220, 2240.661
2186.148, 2241.590
2188.077, 2238.485
2190.005, 2241.933
2191.934, 2251.716
2193.862, 2257.176
2195.791, 2257.925
2197.719, 2258.279
2199.648, 2257.997
2201.576, 2260.549
2203.505, 2269.868
2205.433, 2276.079
2207.362, 2267.463
2209.290, 2264.862
2211.219, 2287.661
2213.147, 2313.890
2215.075, 2319.365
2217.004, 2314.473
2218.932, 2319.418
2220.861, 2331.906
2222.789, 2337.596
2224.718, 2336.732
2226.646, 2339.758
2228.575, 2347.415
2230.503, 2361.048
2232.432, 2383.587
2234.360, 2404.052
2236.289, 2423.767
2238.217, 2433.150
2240.146, 2412.557
2242.074, 2398.314
2244.002, 2422.716
2245.931, 2457.758
2247.859, 2474.858
2249.788, 2479.712
2251.716, 2481.176
2253.645, 2480.844
2255.573, 2485.769
2257.502, 2496.106
2259.430, 2509.893
2261.359, 2529.251
2263.287, 2535.801
2265.216, 2515.387
2267.144, 2506.932
2269.073, 2523.299
2271.001, 2544.459
2272.929, 2565.944
2274.858, 2588.420
2276.786, 2618.086
2278.715, 2643.046
2280.643, 2646.949
2282.572, 2643.257
2284.500, 2650.632
2286.429, 2666.242
2288.357, 2683.601
2290.286, 2702.362
2292.214, 2724.191
2294.143, 2752.291
2296.071, 2766.073
2298.000, 2755.270
2299.928, 2752.233
2301.856, 2763.082
2303.785, 2772.083
2305.713, 2772.808
2307.642, 2778.903
2309.570, 2794.785
2311.499, 2819.096
2313.427, 2865.841
2315.356, 2905.514
2317.284, 2902.351
2319.213, 2883.424
2321.141, 2880.628
2323.070, 2894.314
2324.998, 2930.477
2326.927, 2986.065
2328.855, 3040.886
2330.783, 3094.362
2332.712, 3103.645
2334.640, 3060.714
2336.569, 3033.771
2338.497, 3035.322
2340.426, 3043.361
2342.354, 3054.145
2344.283, 3071.100
2346.211, 3098.705
2348.140, 3127.624
2350.068, 3159.859
2351.997, 3185.372
2353.925, 3190.697
2355.854, 3194.145
2357.782, 3209.830
2359.710, 3233.126
2361.639, 3263.630
2363.567, 3294.462
2365.496, 3309.063
2367.424, 3310.183
2369.353, 3308.806
2371.281, 3304.149
2373.210, 3329.633
2375.138, 3392.119
2377.067, 3422.750
2378.995, 3412.902
2380.924, 3402.148
2382.852, 3390.903
2384.781, 3399.132
2386.709, 3444.012
2388.637, 3489.703
2390.566, 3530.105
2392.494, 3564.040
2394.423, 3585.280
2396.351, 3604.373
2398.280, 3626.710
2400.208, 3648.564
2402.137, 3665.096
2404.065, 3681.893
2405.994, 3713.030
2407.922, 3745.215
2409.851, 3748.992
2411.779, 3736.724
2413.708, 3745.475
2415.636, 3773.298
2417.564, 3802.048
2419.493, 3831.463
2421.421, 3851.166
2423.350, 3859.815
2425.278, 3878.313
2427.207, 3910.862
2429.135, 3939.324
2431.064, 3959.454
2432.992, 3978.231
2434.921, 3993.419
2436.849, 4012.276
2438.778, 4047.926
2440.706, 4066.049
2442.635, 4039.819
2444.563, 4022.447
2446.491, 4045.246
2448.420, 4079.464
2450.348, 4121.779
2452.277, 4152.713
2454.205, 4137.308
2456.134, 4118.466
2458.062, 4154.798
2459.991, 4212.163
2461.919, 4237.286
2463.848, 4242.532
2465.776, 4250.405
2467.705, 4261.234
2469.633, 4281.068
2471.562, 4306.920
2473.490, 4308.309
2475.418, 4282.963
2477.347, 4291.351
2479.275, 4338.278
2481.204, 4353.679
2483.132, 4329.673
2485.061, 4331.559
2486.989, 4375.535
2488.918, 4407.539
2490.846, 4404.354
2492.775, 4416.921
2494.703, 4465.440
2496.632, 4504.676
2498.560, 4527.597
2500.489, 4539.198
2502.417, 4534.631
2504.345, 4530.547
2506.274, 4532.678
2508.202, 4540.593
2510.131, 4557.926
2512.059, 4577.552
2513.988, 4603.236
2515.916, 4620.028
2517.845, 4596.714
2519.773, 4577.245
2521.702, 4608.687
2523.630, 4659.394
2525.559, 4702.050
2527.487, 4733.394
2529.416, 4744.317
2531.344, 4743.880
2533.272, 4751.387
2535.201, 4764.009
2537.129, 4769.616
2539.058, 4771.916
2540.986, 4787.635
2542.915, 4811.626
2544.843, 4807.978
2546.772, 4777.130
2548.700, 4769.539
2550.629, 4787.690
2552.557, 4803.547
2554.486, 4817.696
2556.414, 4820.984
2558.343, 4812.377
2560.271, 4808.213
2562.199, 4813.077
2564.128, 4810.817
2566.056, 4794.412
2567.985, 4780.086
2569.913, 4765.182
2571.842, 4761.250
2573.770, 4775.935
2575.699, 4781.114
2577.627, 4767.775
2579.556, 4752.565
2581.484, 4738.999
2583.413, 4727.127
2585.341, 4713.895
2587.270, 4707.332
2589.198, 4712.492
2591.126, 4716.636
2593.055, 4713.672
2594.983, 4708.372
2596.912, 4704.406
2598.840, 4696.454
2600.769, 4681.033
2602.697, 4663.299
2604.626, 4640.155
2606.554, 4625.221
2608.483, 4631.147
2610.411, 4642.549
2612.340, 4649.901
2614.268, 4655.042
2616.197, 4663.308
2618.125, 4665.204
2620.053, 4636.355
2621.982, 4611.952
2623.910, 4643.258
2625.839, 4685.713
2627.767, 4690.068
2629.696, 4678.738
2631.624, 4679.203
2633.553, 4683.417
2635.481, 4673.291
2637.410, 4662.836
2639.338, 4679.928
2641.267, 4710.380
2643.195, 4736.622
2645.124, 4754.889
2647.052, 4748.822
2648.980, 4733.616
2650.909, 4747.871
2652.837, 4781.059
2654.766, 4805.883
2656.694, 4825.196
2658.623, 4846.355
2660.551, 4868.417
2662.480, 4887.108
2664.408, 4904.133
2666.337, 4924.521
2668.265, 4949.020
2670.194, 4983.749
2672.122, 5025.499
2674.051, 5065.283
2675.979, 5101.243
2677.907, 5126.293
2679.836, 5142.154
2681.764, 5159.128
2683.693, 5178.511
2685.621, 5210.628
2687.550, 5252.779
2689.478, 5279.495
2691.407, 5294.419
2693.335, 5340.020
2695.264, 5413.071
2697.192, 5461.345
2699.121, 5485.205
2701.049, 5503.210
2702.978, 5517.849
2704.906, 5548.283
2706.834, 5596.203
2708.763, 5673.794
2710.691, 5780.865
2712.620, 5840.343
2714.548, 5855.451
2716.477, 5882.041
2718.405, 5922.350
2720.334, 5988.843
2722.262, 6080.045
2724.191, 6133.481
2726.119, 6148.461
2728.048, 6192.484
2729.976, 6261.700
2731.905, 6313.688
2733.833, 6349.205
2735.761, 6401.537
2737.690, 6470.289
2739.618, 6512.918
2741.547, 6531.550
2743.475, 6576.580
2745.404, 6644.074
2747.332, 6701.694
2749.261, 6746.891
2751.189, 6772.627
2753.118, 6780.858
2755.046, 6812.563
2756.975, 6866.321
2758.903, 6934.436
2760.832, 7013.042
2762.760, 7075.523
2764.688, 7126.323
2766.617, 7193.606
2768.545, 7272.199
2770.474, 7321.122
2772.402, 7351.903
2774.331, 7424.664
2776.259, 7527.034
2778.188, 7619.148
2780.116, 7700.096
2782.045, 7756.444
2783.973, 7801.921
2785.902, 7890.427
2787.830, 8004.146
2789.759, 8101.893
2791.687, 8185.176
2793.615, 8258.496
2795.544, 8321.608
2797.472, 8361.733
2799.401, 8399.500
2801.329, 8489.569
2803.258, 8598.182
2805.186, 8662.351
2807.115, 8715.374
2809.043, 8815.654
2810.972, 8934.605
2812.900, 9026.129
2814.829, 9113.235
2816.757, 9228.114
2818.686, 9346.272
2820.614, 9435.100
2822.542, 9516.064
2824.471, 9606.429
2826.399, 9705.323
2828.328, 9826.763
2830.256, 9937.417
2832.185, 9987.573
2834.113, 10048.50
2836.042, 10197.56
2837.970, 10345.38
2839.899, 10433.38
2841.827, 10511.55
2843.756, 10595.58
2845.684, 10695.86
2847.613, 10820.19
2849.541, 10957.46
2851.469, 11113.25
2853.398, 11257.90
2855.326, 11375.71
2857.255, 11487.81
2859.183, 11602.47
2861.112, 11709.05
2863.040, 11797.50
2864.969, 11898.21
2866.897, 12021.50
2868.826, 12144.30
2870.754, 12263.49
2872.683, 12375.41
2874.611, 12465.53
2876.540, 12592.29
2878.468, 12767.30
2880.396, 12913.62
2882.325, 13020.38
2884.253, 13128.76
2886.182, 13241.64
2888.110, 13350.66
2890.039, 13454.45
2891.967, 13589.48
2893.896, 13751.65
2895.824, 13907.27
2897.753, 14052.78
2899.681, 14156.69
2901.610, 14232.42
2903.538, 14338.14
2905.467, 14469.33
2907.395, 14614.14
2909.323, 14764.56
2911.252, 14901.08
2913.180, 15030.16
2915.109, 15165.96
2917.037, 15301.01
2918.966, 15435.28
2920.894, 15560.73
2922.823, 15660.24
2924.751, 15764.11
2926.680, 15908.90
2928.608, 16055.71
2930.537, 16172.53
2932.465, 16289.32
2934.394, 16404.20
2936.322, 16545.30
2938.250, 16743.99
2940.179, 16923.70
2942.107, 17067.20
2944.036, 17179.47
2945.964, 17231.64
2947.893, 17323.02
2949.821, 17477.77
2951.750, 17623.55
2953.678, 17753.14
2955.607, 17852.17
2957.535, 17897.80
2959.464, 18001.30
2961.392, 18165.31
2963.321, 18305.50
2965.249, 18421.38
2967.177, 18507.85
2969.106, 18577.51
2971.034, 18703.25
2972.963, 18860.98
2974.891, 18965.64
2976.820, 19043.46
2978.748, 19145.11
2980.677, 19254.32
2982.605, 19331.19
2984.534, 19424.66
2986.462, 19620.05
2988.391, 19811.51
2990.319, 19901.51
2992.248, 19980.39
2994.176, 20105.90
2996.104, 20222.90
2998.033, 20309.38
2999.961, 20385.99
3001.890, 20455.47
3003.818, 20530.03
3005.747, 20614.73
3007.675, 20695.27
3009.604, 20767.41
3011.532, 20852.26
3013.461, 20960.47
3015.389, 21013.94
3017.318, 21011.01
3019.246, 21035.35
3021.175, 21087.51
3023.103, 21152.06
3025.031, 21225.38
3026.960, 21282.70
3028.888, 21341.35
3030.817, 21450.58
3032.745, 21570.54
3034.674, 21676.60
3036.602, 21739.62
3038.531, 21685.83
3040.459, 21653.05
3042.388, 21759.07
3044.316, 21858.64
3046.245, 21876.76
3048.173, 21888.78
3050.102, 21907.35
3052.030, 21945.56
3053.959, 22006.54
3055.887, 22074.02
3057.816, 22138.26
3059.744, 22231.88
3061.673, 22356.04
3063.601, 22412.45
3065.530, 22407.45
3067.458, 22428.64
3069.386, 22459.18
3071.315, 22420.14
3073.243, 22352.83
3075.172, 22333.09
3077.100, 22351.81
3079.029, 22440.77
3080.957, 22513.25
3082.886, 22441.05
3084.814, 22402.75
3086.743, 22504.92
3088.671, 22619.81
3090.600, 22694.31
3092.528, 22762.67
3094.457, 22838.89
3096.385, 22840.39
3098.313, 22733.95
3100.242, 22698.57
3102.170, 22757.64
3104.099, 22795.07
3106.027, 22812.54
3107.956, 22776.86
3109.884, 22716.01
3111.813, 22686.02
3113.741, 22687.76
3115.670, 22732.26
3117.598, 22790.91
3119.527, 22828.52
3121.455, 22874.71
3123.384, 22978.15
3125.312, 23042.55
3127.240, 23016.38
3129.169, 22998.55
3131.097, 23043.45
3133.026, 23046.75
3134.954, 22989.20
3136.883, 23000.98
3138.811, 23088.67
3140.740, 23177.10
3142.668, 23252.75
3144.597, 23212.64
3146.525, 23123.88
3148.454, 23183.25
3150.382, 23268.47
3152.311, 23214.94
3154.239, 23123.40
3156.167, 23053.04
3158.096, 23024.03
3160.024, 23072.66
3161.953, 23126.97
3163.881, 23169.15
3165.810, 23195.99
3167.738, 23197.18
3169.667, 23221.38
3171.595, 23273.96
3173.524, 23277.54
3175.452, 23243.44
3177.381, 23265.73
3179.309, 23304.01
3181.238, 23268.73
3183.166, 23193.45
3185.094, 23097.70
3187.023, 23016.87
3188.951, 22969.96
3190.880, 22955.24
3192.808, 22996.01
3194.737, 23024.32
3196.665, 23033.32
3198.594, 22999.18
3200.522, 22897.31
3202.451, 22852.79
3204.379, 22860.82
3206.308, 22864.24
3208.236, 22853.01
3210.165, 22788.29
3212.093, 22704.82
3214.021, 22658.96
3215.950, 22620.84
3217.878, 22553.29
3219.807, 22507.02
3221.735, 22553.18
3223.664, 22534.28
3225.592, 22395.44
3227.521, 22302.93
3229.449, 22298.78
3231.378, 22285.13
3233.306, 22257.94
3235.235, 22181.49
3237.163, 22065.26
3239.092, 21912.18
3241.020, 21764.05
3242.948, 21703.98
3244.877, 21650.24
3246.805, 21529.90
3248.734, 21431.56
3250.662, 21411.02
3252.591, 21376.33
3254.519, 21307.54
3256.448, 21243.71
3258.376, 21186.65
3260.305, 21098.29
3262.233, 20988.05
3264.162, 20928.42
3266.090, 20879.83
3268.019, 20750.01
3269.947, 20622.04
3271.875, 20595.69
3273.804, 20566.97
3275.732, 20455.46
3277.661, 20376.71
3279.589, 20359.18
3281.518, 20314.94
3283.446, 20225.73
3285.375, 20119.49
3287.303, 20000.29
3289.232, 19902.59
3291.160, 19806.57
3293.089, 19658.20
3295.017, 19506.05
3296.946, 19400.93
3298.874, 19311.54
3300.802, 19230.96
3302.731, 19145.75
3304.659, 19047.89
3306.588, 18968.56
3308.516, 18909.62
3310.445, 18803.77
3312.373, 18666.47
3314.302, 18633.77
3316.230, 18634.89
3318.159, 18562.90
3320.087, 18444.63
3322.016, 18281.31
3323.944, 18128.18
3325.873, 18015.86
3327.801, 17903.01
3329.729, 17775.88
3331.658, 17662.60
3333.586, 17562.84
3335.515, 17502.58
3337.443, 17452.63
3339.372, 17300.24
3341.300, 17136.05
3343.229, 17099.33
3345.157, 17063.57
3347.086, 16941.58
3349.014, 16814.02
3350.943, 16697.54
3352.871, 16595.66
3354.800, 16514.90
3356.728, 16388.83
3358.656, 16232.94
3360.585, 16147.52
3362.513, 16073.81
3364.442, 15886.20
3366.370, 15718.65
3368.299, 15696.63
3370.227, 15658.34
3372.156, 15524.34
3374.084, 15387.77
3376.013, 15254.27
3377.941, 15127.06
3379.870, 15005.23
3381.798, 14890.52
3383.727, 14772.85
3385.655, 14618.49
3387.583, 14473.96
3389.512, 14399.62
3391.440, 14301.73
3393.369, 14144.69
3395.297, 13997.67
3397.226, 13879.65
3399.154, 13744.05
3401.083, 13597.11
3403.011, 13478.53
3404.940, 13368.21
3406.868, 13227.77
3408.797, 13085.07
3410.725, 12954.62
3412.654, 12833.44
3414.582, 12734.65
3416.510, 12610.61
3418.439, 12460.62
3420.367, 12323.09
3422.296, 12192.04
3424.224, 12012.37
3426.153, 11838.73
3428.081, 11766.79
3430.010, 11684.60
3431.938, 11502.41
3433.867, 11333.01
3435.795, 11195.55
3437.724, 11083.71
3439.652, 10995.91
3441.581, 10892.34
3443.509, 10781.09
3445.438, 10687.32
3447.366, 10584.46
3449.294, 10429.41
3451.223, 10284.03
3453.151, 10175.54
3455.080, 10062.18
3457.008, 9940.068
3458.937, 9796.494
3460.865, 9640.636
3462.794, 9502.673
3464.722, 9383.290
3466.651, 9302.302
3468.579, 9210.451
3470.508, 9075.393
3472.436, 8927.748
3474.365, 8768.687
3476.293, 8627.850
3478.221, 8506.553
3480.150, 8399.510
3482.078, 8293.182
3484.007, 8148.791
3485.935, 8012.956
3487.864, 7933.008
3489.792, 7846.553
3491.721, 7735.813
3493.649, 7634.882
3495.578, 7546.855
3497.506, 7441.427
3499.435, 7321.757
3501.363, 7182.934
3503.292, 7052.734
3505.220, 6969.418
3507.148, 6877.107
3509.077, 6744.896
3511.005, 6659.070
3512.934, 6625.080
3514.862, 6545.746
3516.791, 6435.422
3518.719, 6323.746
3520.648, 6219.981
3522.576, 6142.224
3524.505, 6051.421
3526.433, 5911.575
3528.362, 5810.476
3530.290, 5749.399
3532.219, 5676.000
3534.147, 5592.356
3536.075, 5495.478
3538.004, 5409.842
3539.932, 5371.413
3541.861, 5315.229
3543.789, 5214.765
3545.718, 5125.507
3547.646, 5053.374
3549.575, 5001.513
3551.503, 4953.878
3553.432, 4860.254
3555.360, 4773.145
3557.289, 4749.967
3559.217, 4705.050
3561.146, 4615.478
3563.074, 4533.004
3565.002, 4463.292
3566.931, 4428.074
3568.859, 4405.786
3570.788, 4370.617
3572.716, 4318.556
3574.645, 4235.130
3576.573, 4173.605
3578.502, 4155.969
3580.430, 4093.835
3582.359, 4002.537
3584.287, 3952.185
3586.216, 3919.617
3588.144, 3879.760
3590.073, 3847.810
3592.001, 3836.333
3593.929, 3805.980
3595.858, 3752.420
3597.786, 3724.754
3599.715, 3705.746
3601.643, 3645.980
3603.572, 3590.899
3605.500, 3577.990
3607.429, 3564.200
3609.357, 3538.252
3611.286, 3503.582
3613.214, 3461.666
3615.143, 3416.282
3617.071, 3374.364
3619.000, 3342.497
3620.928, 3323.762
3622.856, 3338.064
3624.785, 3315.334
3626.713, 3253.764
3628.642, 3240.750
3630.570, 3250.600
3632.499, 3219.821
3634.427, 3183.433
3636.356, 3166.186
3638.284, 3149.629
3640.213, 3130.379
3642.141, 3114.871
3644.070, 3101.225
3645.998, 3075.370
3647.927, 3051.712
3649.855, 3048.721
3651.783, 3043.271
3653.712, 3027.837
3655.640, 3004.019
3657.569, 2974.263
3659.497, 2963.328
3661.426, 2956.575
3663.354, 2925.297
3665.283, 2899.815
3667.211, 2906.723
3669.140, 2892.573
3671.068, 2853.680
3672.997, 2821.251
3674.925, 2800.474
3676.854, 2811.727
3678.782, 2821.914
3680.710, 2805.185
3682.639, 2791.970
3684.567, 2786.161
3686.496, 2775.913
3688.424, 2764.015
3690.353, 2765.710
3692.281, 2763.660
3694.210, 2737.353
3696.138, 2721.648
3698.067, 2723.508
3699.995, 2714.064
3701.924, 2695.878
3703.852, 2680.585
3705.781, 2670.434
3707.709, 2665.541
3709.637, 2674.943
3711.566, 2703.679
3713.494, 2704.173
3715.423, 2678.953
3717.351, 2627.601
3719.280, 2587.198
3721.208, 2598.337
3723.137, 2618.443
3725.065, 2639.133
3726.994, 2635.876
3728.922, 2615.613
3730.851, 2614.660
3732.779, 2617.696
3734.708, 2612.012
3736.636, 2601.698
3738.564, 2587.157
3740.493, 2582.190
3742.421, 2583.179
3744.350, 2566.468
3746.278, 2553.323
3748.207, 2569.298
3750.135, 2580.415
3752.064, 2580.213
3753.992, 2559.876
3755.921, 2530.655
3757.849, 2536.922
3759.778, 2548.704
3761.706, 2543.974
3763.635, 2531.492
3765.563, 2512.556
3767.491, 2513.089
3769.420, 2525.109
3771.348, 2529.191
3773.277, 2526.204
3775.205, 2508.023
3777.134, 2506.024
3779.062, 2522.685
3780.991, 2516.323
3782.919, 2497.940
3784.848, 2485.754
3786.776, 2485.820
3788.705, 2511.358
3790.633, 2530.688
3792.562, 2539.792
3794.490, 2517.245
3796.418, 2486.177
3798.347, 2480.946
3800.275, 2480.267
3802.204, 2474.352
3804.132, 2476.703
3806.061, 2484.441
3807.989, 2480.239
3809.918, 2472.259
3811.846, 2465.410
3813.775, 2466.513
3815.703, 2479.784
3817.632, 2492.881
3819.560, 2496.838
3821.489, 2448.521
3823.417, 2421.864
3825.345, 2479.381
3827.274, 2498.949
3829.202, 2461.491
3831.131, 2449.005
3833.059, 2448.979
3834.988, 2440.153
3836.916, 2436.051
3838.845, 2444.345
3840.773, 2443.165
3842.702, 2434.944
3844.630, 2445.079
3846.559, 2460.501
3848.487, 2472.659
3850.416, 2478.824
3852.344, 2475.797
3854.272, 2481.891
3856.201, 2490.743
3858.129, 2491.941
3860.058, 2480.831
3861.986, 2446.896
3863.915, 2448.051
3865.843, 2482.283
3867.772, 2464.939
3869.700, 2441.687
3871.629, 2468.789
3873.557, 2482.850
3875.486, 2471.293
3877.414, 2474.370
3879.343, 2484.133
3881.271, 2461.821
3883.199, 2447.831
3885.128, 2480.937
3887.056, 2484.145
3888.985, 2461.987
3890.913, 2474.966
3892.842, 2492.880
3894.770, 2480.118
3896.699, 2469.757
3898.627, 2481.733
3900.556, 2489.706
3902.484, 2477.128
3904.413, 2451.830
3906.341, 2442.015
3908.270, 2446.412
3910.198, 2450.507
3912.126, 2454.836
3914.055, 2462.001
3915.983, 2473.801
3917.912, 2499.277
3919.840, 2501.758
3921.769, 2469.873
3923.697, 2467.382
3925.626, 2482.141
3927.554, 2487.209
3929.483, 2478.816
3931.411, 2462.667
3933.340, 2471.190
3935.268, 2495.412
3937.197, 2516.770
3939.125, 2522.341
3941.053, 2493.434
3942.982, 2474.372
3944.910, 2471.411
3946.839, 2467.365
3948.767, 2460.411
3950.696, 2458.736
3952.624, 2469.574
3954.553, 2483.410
3956.481, 2465.228
3958.410, 2444.146
3960.338, 2449.856
3962.267, 2457.773
3964.195, 2468.948
3966.124, 2470.505
3968.052, 2460.011
3969.980, 2431.458
3971.909, 2422.212
3973.837, 2446.066
3975.766, 2449.949
3977.694, 2439.438
3979.623, 2452.885
3981.551, 2463.135
3983.480, 2445.496
3985.408, 2437.125
3987.337, 2441.337
3989.265, 2433.789
3991.194, 2430.093
3993.122, 2447.224
3995.051, 2442.722
3996.979, 2421.152
3998.907, 2417.025
4000.836, 2416.746
4002.764, 2413.696
4004.693, 2416.034
4006.621, 2420.966
4008.550, 2430.014
4010.478, 2437.727
4012.407, 2428.370
4014.335, 2414.357
4016.264, 2398.357
4018.192, 2392.019
4020.121, 2393.165
4022.049, 2407.188
4023.978, 2402.086
4025.906, 2357.315
4027.834, 2356.571
4029.763, 2387.846
4031.691, 2402.208
4033.620, 2407.620
4035.548, 2402.740
4037.477, 2387.266
4039.405, 2367.664
4041.334, 2365.733
4043.262, 2370.985
4045.191, 2372.694
4047.119, 2373.220
4049.048, 2379.397
4050.976, 2384.952
4052.905, 2382.142
4054.833, 2358.055
4056.761, 2338.878
4058.690, 2335.080
4060.618, 2346.094
4062.547, 2354.749
4064.475, 2353.186
4066.404, 2350.328
4068.332, 2336.070
4070.261, 2338.956
4072.189, 2350.002
4074.118, 2355.532
4076.046, 2347.935
4077.975, 2311.724
4079.903, 2299.420
4081.832, 2301.561
4083.760, 2294.725
4085.688, 2296.049
4087.617, 2306.089
4089.545, 2300.694
4091.474, 2288.736
4093.402, 2309.026
4095.331, 2320.457
4097.259, 2303.021
4099.188, 2304.054
4101.116, 2315.814
4103.045, 2313.824
4104.973, 2312.188
4106.902, 2294.351
4108.830, 2266.101
4110.759, 2258.271
4112.687, 2277.336
4114.616, 2302.868
4116.544, 2304.273
4118.473, 2305.458
4120.401, 2302.993
4122.330, 2296.319
4124.258, 2300.571
4126.187, 2284.337
4128.115, 2264.284
4130.043, 2279.505
4131.972, 2291.584
4133.900, 2283.781
4135.829, 2269.802
4137.757, 2261.308
4139.686, 2261.340
4141.614, 2261.901
4143.542, 2266.157
4145.471, 2271.703
4147.399, 2261.876
4149.328, 2244.982
4151.256, 2250.642
4153.185, 2258.613
4155.113, 2241.023
4157.042, 2219.181
4158.970, 2224.249
4160.899, 2234.213
4162.827, 2239.835
4164.756, 2233.721
4166.684, 2218.699
4168.613, 2225.653
4170.541, 2238.438
4172.470, 2241.122
4174.398, 2229.862
4176.327, 2220.816
4178.255, 2231.621
4180.184, 2242.401
4182.112, 2247.690
4184.041, 2233.309
4185.969, 2216.513
4187.897, 2226.026
4189.826, 2231.274
4191.754, 2217.601
4193.683, 2223.489
4195.611, 2235.522
4197.540, 2210.456
4199.468, 2195.154
4201.396, 2211.838
4203.325, 2213.082
4205.253, 2204.508
4207.182, 2195.793
4209.110, 2188.805
4211.039, 2185.599
4212.967, 2178.407
4214.896, 2173.711
4216.824, 2183.178
4218.753, 2187.816
4220.681, 2183.866
4222.610, 2199.524
4224.538, 2216.036
4226.467, 2209.081
4228.395, 2198.868
4230.324, 2188.950
4232.252, 2181.901
4234.181, 2173.111
4236.109, 2148.906
4238.038, 2152.368
4239.966, 2181.986
4241.895, 2173.552
4243.823, 2159.889
4245.751, 2170.229
4247.680, 2177.340
4249.608, 2176.874
4251.537, 2155.038
4253.465, 2143.277
4255.394, 2167.523
4257.322, 2187.599
4259.250, 2202.037
4261.179, 2206.759
4263.107, 2225.140
4265.036, 2271.054
4266.964, 2319.613
4268.893, 2358.748
4270.821, 2356.479
4272.750, 2368.268
4274.678, 2415.778
4276.607, 2452.177
4278.535, 2454.417
4280.464, 2378.584
4282.392, 2296.653
4284.321, 2225.725
4286.249, 2174.348
4288.178, 2146.520
4290.106, 2157.905
4292.035, 2159.226
4293.963, 2145.281
4295.892, 2125.479
4297.820, 2110.043
4299.749, 2108.554
4301.677, 2109.119
4303.605, 2109.121
4305.534, 2102.033
4307.462, 2093.007
4309.391, 2078.892
4311.319, 2091.911
4313.248, 2111.062
4315.176, 2089.216
4317.104, 2074.906
4319.033, 2082.810
4320.961, 2091.732
4322.890, 2095.963
4324.818, 2082.774
4326.747, 2079.266
4328.675, 2085.684
4330.604, 2069.558
4332.532, 2055.891
4334.461, 2061.651
4336.389, 2078.368
4338.318, 2094.348
4340.246, 2072.623
4342.175, 2048.469
4344.103, 2033.003
4346.032, 2042.193
4347.960, 2052.932
4349.889, 2024.700
4351.817, 2027.325
4353.746, 2065.339
4355.674, 2042.796
4357.603, 2019.065
4359.531, 2037.534
4361.459, 2051.549
4363.388, 2057.394
4365.316, 2059.648
4367.245, 2057.699
4369.173, 2051.571
4371.102, 2051.424
4373.030, 2051.913
4374.958, 2043.378
4376.887, 2037.623
4378.815, 2037.893
4380.744, 2061.750
4382.672, 2072.676
4384.601, 2031.459
4386.529, 2014.603
4388.458, 2017.125
4390.386, 2018.167
4392.315, 2030.011
4394.243, 2059.798
4396.172, 2051.388
4398.100, 2033.117
4400.029, 2037.331
4401.957, 2026.522
4403.886, 2004.155
4405.814, 2008.355
4407.743, 2017.867
4409.671, 2024.145
4411.600, 2022.045
4413.528, 2019.686
4415.457, 2033.297
4417.385, 2036.934
4419.313, 2029.276
4421.242, 2027.229
4423.170, 2027.858
4425.099, 2030.799
4427.027, 2025.277
4428.956, 2012.084
4430.884, 1987.911
4432.813, 1976.939
4434.741, 1984.600
4436.669, 1975.692
4438.598, 1967.897
4440.526, 1972.525
4442.455, 2004.752
4444.383, 2042.826
4446.312, 2024.548
4448.240, 2001.191
4450.169, 1986.825
4452.097, 1974.998
4454.026, 1978.959
4455.954, 2017.252
4457.883, 2027.800
4459.811, 2016.047
4461.740, 2006.090
4463.668, 2005.484
4465.597, 2016.076
4467.525, 2022.144
4469.454, 2021.349
4471.382, 2000.192
4473.311, 2016.677
4475.239, 2054.727
4477.167, 2054.325
4479.096, 2061.983
4481.024, 2090.318
4482.953, 2071.430
4484.881, 2032.963
4486.810, 1989.192
4488.738, 1988.120
4490.667, 2010.596
4492.595, 2009.956
4494.523, 1993.432
4496.452, 1965.842
4498.380, 1968.654
4500.309, 1973.195
4502.237, 1954.787
4504.166, 1940.668
4506.094, 1931.996
4508.023, 1926.836
4509.951, 1933.760
4511.880, 1952.442
4513.808, 1973.564
4515.737, 1980.273
4517.665, 1962.778
4519.594, 1971.914
4521.522, 1983.682
4523.451, 1958.417
4525.379, 1946.140
4527.308, 1948.430
4529.236, 1944.806
4531.165, 1931.418
4533.093, 1901.929
4535.021, 1919.479
4536.950, 1939.104
4538.878, 1920.278
4540.807, 1902.617
4542.735, 1896.719
4544.664, 1934.374
4546.592, 1927.987
4548.521, 1872.950
4550.449, 1897.079
4552.377, 1929.992
4554.306, 1924.912
4556.234, 1919.589
4558.163, 1918.958
4560.091, 1931.452
4562.020, 1941.011
4563.948, 1946.017
4565.877, 1946.517
4567.805, 1948.253
4569.734, 1952.197
4571.662, 1943.697
4573.591, 1938.758
4575.519, 1959.483
4577.448, 1946.988
4579.376, 1920.253
4581.305, 1912.490
4583.233, 1895.169
4585.162, 1868.323
4587.090, 1841.025
4589.019, 1839.424
4590.947, 1867.054
4592.875, 1851.398
4594.804, 1828.417
4596.732, 1833.341
4598.661, 1815.388
4600.589, 1798.824
4602.518, 1830.548
4604.446, 1841.338
4606.375, 1832.425
4608.303, 1853.283
4610.231, 1856.383
4612.160, 1830.100
4614.088, 1815.994
4616.017, 1808.873
4617.945, 1806.265
4619.874, 1800.106
4621.802, 1801.430
4623.731, 1829.484
4625.659, 1842.926
4627.588, 1835.574
4629.516, 1795.322
4631.445, 1760.304
4633.373, 1742.621
4635.302, 1763.738
4637.230, 1789.931
4639.159, 1805.419
4641.087, 1829.414
4643.016, 1834.410
4644.944, 1792.199
4646.873, 1773.425
4648.801, 1775.276
4650.729, 1787.048
4652.658, 1797.883
4654.586, 1804.109
4656.515, 1793.232
4658.443, 1795.187
4660.372, 1813.006
4662.300, 1790.384
4664.229, 1776.302
4666.157, 1794.873
4668.085, 1803.435
4670.014, 1799.205
4671.942, 1774.333
4673.871, 1771.444
4675.799, 1777.062
4677.728, 1769.936
4679.656, 1753.428
4681.585, 1734.766
4683.513, 1729.573
4685.442, 1729.488
4687.370, 1730.729
4689.299, 1717.226
4691.227, 1709.019
4693.156, 1712.572
4695.084, 1706.174
4697.013, 1702.066
4698.941, 1711.128
4700.870, 1705.247
4702.798, 1693.915
4704.727, 1689.347
4706.655, 1678.496
4708.583, 1665.654
4710.512, 1655.807
4712.440, 1664.123
4714.369, 1680.192
4716.297, 1664.517
4718.226, 1657.091
4720.154, 1664.380
4722.083, 1659.826
4724.011, 1654.230
4725.939, 1651.132
4727.868, 1645.309
4729.796, 1641.468
4731.725, 1644.486
4733.653, 1636.273
4735.582, 1632.750
4737.510, 1649.383
4739.439, 1643.370
4741.367, 1627.479
4743.296, 1621.110
4745.224, 1615.428
4747.153, 1608.180
4749.081, 1591.530
4751.010, 1596.475
4752.938, 1614.743
4754.867, 1606.949
4756.795, 1605.908
4758.724, 1615.554
4760.652, 1613.476
4762.581, 1615.234
4764.509, 1623.237
4766.438, 1610.220
4768.366, 1597.098
4770.294, 1593.020
4772.223, 1580.351
4774.151, 1575.765
4776.080, 1590.517
4778.008, 1603.256
4779.937, 1606.812
4781.865, 1595.225
4783.793, 1584.340
4785.722, 1576.835
4787.650, 1574.729
4789.579, 1575.761
4791.507, 1576.140
4793.436, 1568.706
4795.364, 1570.774
4797.293, 1575.213
4799.221, 1556.490
4801.150, 1566.746
4803.078, 1592.693
4805.007, 1579.621
4806.935, 1572.589
4808.864, 1575.012
4810.792, 1569.112
4812.721, 1557.656
4814.649, 1546.109
4816.578, 1569.700
4818.506, 1575.211
4820.435, 1552.082
4822.363, 1530.246
4824.292, 1523.247
4826.220, 1533.917
4828.148, 1535.129
4830.077, 1536.430
4832.005, 1541.598
4833.934, 1541.253
4835.862, 1543.237
4837.791, 1551.161
4839.719, 1513.559
4841.647, 1490.946
4843.576, 1519.467
4845.504, 1526.728
4847.433, 1524.109
4849.361, 1520.490
4851.290, 1507.197
4853.218, 1501.137
4855.147, 1518.371
4857.075, 1517.406
4859.004, 1507.734
4860.932, 1497.042
4862.861, 1501.243
4864.789, 1505.966
4866.718, 1499.298
4868.646, 1469.128
4870.575, 1450.790
4872.503, 1482.439
4874.432, 1491.184
4876.360, 1491.520
4878.289, 1509.984
4880.217, 1511.677
4882.146, 1504.238
4884.074, 1497.372
4886.002, 1485.861
4887.931, 1478.731
4889.859, 1494.669
4891.788, 1487.937
4893.716, 1475.721
4895.645, 1483.125
4897.573, 1474.336
4899.501, 1462.740
4901.430, 1470.320
4903.358, 1478.063
4905.287, 1478.965
4907.215, 1464.041
4909.144, 1449.465
4911.072, 1443.580
4913.001, 1458.819
4914.929, 1447.980
4916.858, 1436.098
4918.786, 1464.089
4920.715, 1470.711
4922.643, 1466.214
4924.572, 1466.167
4926.500, 1457.743
4928.429, 1445.619
4930.357, 1438.291
4932.286, 1413.880
4934.214, 1400.631
4936.143, 1429.246
4938.071, 1439.600
4940.000, 1449.458
4941.928, 1486.111
4943.856, 1462.363
4945.785, 1429.397
4947.713, 1431.895
4949.642, 1442.178
4951.570, 1445.966
4953.499, 1433.487
4955.427, 1436.071
4957.355, 1435.024
4959.284, 1409.687
4961.212, 1424.200
4963.141, 1447.224
4965.069, 1460.799
4966.998, 1454.894
4968.926, 1436.968
4970.855, 1411.668
4972.783, 1417.110
4974.712, 1420.678
4976.640, 1409.563
4978.569, 1405.673
4980.497, 1403.026
4982.426, 1400.514
4984.354, 1408.157
4986.283, 1411.891
4988.211, 1408.588
4990.140, 1402.114
4992.068, 1410.794
4993.997, 1427.811
4995.925, 1412.450
4997.854, 1400.145
4999.782, 1399.538
5001.710, 1425.484
5003.639, 1416.101
5005.567, 1389.270
5007.496, 1401.660
5009.424, 1398.047
5011.353, 1386.047
5013.281, 1387.136
5015.209, 1390.148
5017.138, 1396.826
5019.066, 1412.248
5020.995, 1408.334
5022.923, 1400.910
5024.852, 1405.159
5026.780, 1403.877
5028.709, 1405.385
5030.637, 1415.030
5032.566, 1446.175
5034.494, 1479.065
5036.423, 1505.254
5038.351, 1535.063
5040.280, 1552.748
5042.208, 1554.044
5044.137, 1551.537
5046.065, 1538.391
5047.994, 1513.309
5049.922, 1469.657
5051.851, 1453.086
5053.779, 1451.975
5055.708, 1423.239
5057.636, 1398.036
5059.564, 1382.020
5061.493, 1383.265
5063.421, 1363.484
5065.350, 1346.283
5067.278, 1357.049
5069.207, 1359.597
5071.135, 1354.104
5073.063, 1341.715
5074.992, 1342.063
5076.920, 1347.124
5078.849, 1351.996
5080.777, 1338.688
5082.706, 1334.375
5084.634, 1341.922
5086.563, 1345.441
5088.491, 1338.568
5090.420, 1328.262
5092.348, 1336.650
5094.277, 1332.716
5096.205, 1323.915
5098.134, 1324.618
5100.062, 1338.226
5101.991, 1346.582
5103.919, 1330.237
5105.848, 1336.376
5107.776, 1354.266
5109.705, 1376.025
5111.633, 1372.483
5113.562, 1359.436
5115.490, 1345.779
5117.418, 1347.357
5119.347, 1341.271
5121.275, 1328.994
5123.204, 1321.887
5125.132, 1329.943
5127.061, 1347.818
5128.989, 1370.478
5130.917, 1346.225
5132.846, 1324.269
5134.774, 1345.627
5136.703, 1339.234
5138.631, 1322.516
5140.560, 1307.324
5142.488, 1330.128
5144.417, 1335.512
5146.345, 1322.814
5148.274, 1322.747
5150.202, 1340.998
5152.131, 1360.684
5154.059, 1353.656
5155.988, 1354.188
5157.916, 1356.255
5159.845, 1354.694
5161.773, 1389.985
5163.702, 1417.373
5165.630, 1423.551
5167.559, 1465.306
5169.487, 1487.930
5171.416, 1492.885
5173.344, 1525.624
5175.272, 1543.836
5177.201, 1539.376
5179.129, 1508.051
5181.058, 1486.227
5182.986, 1450.306
5184.915, 1382.570
5186.843, 1357.855
5188.771, 1346.560
5190.700, 1337.495
5192.628, 1331.803
5194.557, 1326.184
5196.485, 1314.523
5198.414, 1282.662
5200.342, 1271.920
5202.271, 1275.934
5204.199, 1289.133
5206.128, 1290.997
5208.056, 1290.625
5209.985, 1291.123
5211.913, 1286.907
5213.842, 1284.639
5215.770, 1282.612
5217.699, 1271.601
5219.627, 1270.063
5221.556, 1280.218
5223.484, 1306.375
5225.413, 1288.886
5227.341, 1279.334
5229.270, 1292.324
5231.198, 1283.933
5233.126, 1265.303
5235.055, 1248.174
5236.983, 1249.445
5238.912, 1261.987
5240.840, 1270.170
5242.769, 1261.685
5244.697, 1243.061
5246.625, 1229.581
5248.554, 1230.701
5250.482, 1273.073
5252.411, 1280.846
5254.339, 1259.496
5256.268, 1234.341
5258.196, 1224.799
5260.125, 1230.826
5262.053, 1249.857
5263.982, 1237.201
5265.910, 1240.807
5267.839, 1259.454
5269.767, 1238.599
5271.696, 1236.174
5273.624, 1250.065
5275.553, 1282.077
5277.481, 1240.002
5279.410, 1207.583
5281.338, 1218.524
5283.267, 1224.811
5285.195, 1231.917
5287.124, 1234.387
5289.052, 1216.748
5290.980, 1212.508
5292.909, 1221.708
5294.837, 1243.522
5296.766, 1221.263
5298.694, 1210.002
5300.623, 1213.565
5302.551, 1192.043
5304.479, 1203.655
5306.408, 1221.894
5308.336, 1214.307
5310.265, 1232.383
5312.193, 1240.816
5314.122, 1230.337
5316.050, 1224.384
5317.979, 1226.209
5319.907, 1234.373
5321.836, 1247.189
5323.764, 1221.896
5325.693, 1205.936
5327.621, 1214.771
5329.550, 1199.910
5331.478, 1183.884
5333.407, 1182.138
5335.335, 1218.108
5337.264, 1220.626
5339.192, 1201.206
5341.121, 1174.094
5343.049, 1179.026
5344.978, 1169.287
5346.906, 1159.019
5348.834, 1186.898
5350.763, 1218.783
5352.691, 1222.724
5354.620, 1187.716
5356.548, 1158.098
5358.477, 1174.743
5360.405, 1204.422
5362.333, 1182.563
5364.262, 1189.144
5366.190, 1197.096
5368.119, 1189.965
5370.047, 1181.364
5371.976, 1181.927
5373.904, 1181.414
5375.833, 1156.349
5377.761, 1156.316
5379.690, 1160.826
5381.618, 1164.036
5383.547, 1206.378
5385.475, 1203.500
5387.404, 1182.542
5389.332, 1194.826
5391.261, 1179.748
5393.189, 1177.134
5395.118, 1193.582
5397.046, 1172.054
5398.975, 1176.858
5400.903, 1186.344
5402.832, 1171.459
5404.760, 1176.848
5406.688, 1174.204
5408.617, 1164.484
5410.545, 1184.224
5412.474, 1163.423
5414.402, 1147.946
5416.331, 1174.509
5418.259, 1162.063
5420.188, 1160.069
5422.116, 1170.164
5424.044, 1174.341
5425.973, 1151.047
5427.901, 1146.491
5429.830, 1170.388
5431.758, 1147.580
5433.687, 1145.749
5435.615, 1153.041
5437.544, 1143.799
5439.472, 1142.144
5441.401, 1140.380
5443.329, 1140.720
5445.258, 1165.154
5447.186, 1124.253
5449.115, 1091.392
5451.043, 1112.841
5452.972, 1119.401
5454.900, 1126.461
5456.829, 1136.366
5458.757, 1148.218
5460.686, 1153.563
5462.614, 1136.668
5464.542, 1107.427
5466.471, 1122.568
5468.399, 1129.544
5470.328, 1129.008
5472.256, 1126.780
5474.185, 1127.348
5476.113, 1121.759
5478.042, 1117.721
5479.970, 1128.096
5481.898, 1131.871
5483.827, 1137.280
5485.755, 1143.496
5487.684, 1135.377
5489.612, 1127.056
5491.541, 1116.629
5493.469, 1103.696
5495.398, 1104.544
5497.326, 1124.703
5499.255, 1133.475
5501.183, 1098.406
5503.112, 1107.729
5505.040, 1108.961
5506.969, 1098.208
5508.897, 1114.055
5510.826, 1112.299
5512.754, 1104.687
5514.683, 1097.299
5516.611, 1076.150
5518.540, 1091.891
5520.468, 1098.412
5522.396, 1060.414
5524.325, 1064.010
5526.253, 1075.429
5528.182, 1083.913
5530.110, 1086.865
5532.039, 1093.950
5533.967, 1081.145
5535.896, 1059.255
5537.824, 1074.443
5539.752, 1084.564
5541.681, 1084.279
5543.609, 1075.355
5545.538, 1066.537
5547.466, 1076.740
5549.395, 1082.947
5551.323, 1071.022
5553.252, 1062.958
5555.180, 1072.203
5557.109, 1087.442
5559.037, 1094.357
5560.966, 1054.916
5562.894, 1049.557
5564.823, 1066.905
5566.751, 1053.833
5568.680, 1047.145
5570.608, 1064.916
5572.537, 1089.597
5574.465, 1072.101
5576.394, 1052.217
5578.322, 1045.925
5580.250, 1053.373
5582.179, 1060.045
5584.107, 1060.591
5586.036, 1056.411
5587.964, 1050.330
5589.893, 1051.342
5591.821, 1039.036
5593.750, 1033.115
5595.678, 1045.404
5597.606, 1031.892
5599.535, 1024.215
5601.463, 1024.110
5603.392, 1028.313
5605.320, 1053.601
5607.249, 1062.784
5609.177, 1059.010
5611.106, 1053.764
5613.034, 1027.447
5614.963, 1038.515
5616.891, 1058.672
5618.820, 1035.982
5620.748, 1015.886
5622.677, 1027.569
5624.605, 1052.692
5626.534, 1050.002
5628.462, 1035.704
5630.391, 1033.359
5632.319, 1038.826
5634.248, 1030.285
5636.176, 1042.787
5638.104, 1049.552
5640.033, 1043.126
5641.961, 1028.464
5643.890, 1031.242
5645.818, 1025.616
5647.747, 1015.442
5649.675, 1031.895
5651.604, 1020.317
5653.532, 1033.091
5655.460, 1064.493
5657.389, 1042.558
5659.317, 1032.379
5661.246, 1027.626
5663.174, 1024.339
5665.103, 1022.961
5667.031, 1033.819
5668.960, 1011.387
5670.888, 975.4031
5672.817, 1008.466
5674.745, 1002.027
5676.674, 1003.404
5678.602, 1020.492
5680.531, 1021.375
5682.459, 1033.040
5684.388, 1036.581
5686.316, 1029.066
5688.245, 1020.872
5690.173, 1012.206
5692.102, 1015.424
5694.030, 1022.067
5695.958, 1002.726
5697.887, 1015.313
5699.815, 999.8458
5701.744, 981.1087
5703.672, 1034.932
5705.601, 1019.235
5707.529, 1005.453
5709.458, 1012.235
5711.386, 1031.143
5713.314, 1017.174
5715.243, 1002.608
5717.171, 1001.812
5719.100, 1016.543
5721.028, 995.1776
5722.957, 987.5298
5724.885, 993.0884
5726.814, 999.2699
5728.742, 993.7707
5730.671, 985.9021
5732.599, 987.9288
5734.528, 1004.036
5736.456, 1004.003
5738.385, 1012.746
5740.313, 1006.924
5742.242, 981.9777
5744.170, 989.3645
5746.099, 1000.213
5748.027, 1005.313
5749.956, 1007.115
5751.884, 1019.849
5753.813, 1014.588
5755.741, 1006.961
5757.669, 1003.541
5759.598, 1002.120
5761.526, 979.9323
5763.455, 989.6920
5765.383, 1012.434
5767.312, 1004.990
5769.240, 1015.940
5771.168, 1018.734
5773.097, 1017.621
5775.025, 1021.868
5776.954, 1015.573
5778.882, 1021.022
5780.811, 1025.146
5782.739, 1019.710
5784.668, 1016.957
5786.596, 1013.701
5788.525, 1015.825
5790.453, 1020.430
5792.382, 1014.615
5794.310, 1002.469
5796.239, 996.8541
5798.167, 999.2978
5800.096, 1005.418
5802.024, 1001.581
5803.953, 989.3441
5805.881, 978.1606
5807.810, 975.0051
5809.738, 975.6456
5811.667, 973.9468
5813.595, 975.1609
5815.523, 978.8482
5817.452, 973.1210
5819.380, 953.8766
5821.309, 951.2815
5823.237, 960.1412
5825.166, 950.5876
5827.094, 959.5427
5829.022, 984.6404
5830.951, 984.2184
5832.879, 931.8820
5834.808, 939.1752
5836.736, 952.2358
5838.665, 934.7252
5840.593, 902.4058
5842.522, 949.2338
5844.450, 957.2037
5846.379, 946.6207
5848.307, 934.8879
5850.236, 931.3237
5852.164, 959.0856
5854.093, 961.4028
5856.021, 946.4831
5857.950, 936.0246
5859.878, 954.0306
5861.807, 937.1932
5863.735, 925.9280
5865.664, 936.8112
5867.592, 957.8411
5869.521, 945.0640
5871.449, 930.4913
5873.377, 930.6937
5875.306, 948.2219
5877.234, 968.7571
5879.163, 945.8436
5881.091, 922.5923
5883.020, 922.6583
5884.948, 944.8618
5886.876, 949.1757
5888.805, 942.4863
5890.733, 929.8633
5892.662, 914.9548
5894.590, 904.3994
5896.519, 924.6534
5898.447, 936.6767
5900.376, 927.1990
5902.304, 910.1406
5904.233, 927.1960
5906.161, 939.6188
5908.090, 936.3483
5910.018, 922.6985
5911.947, 935.0107
5913.875, 933.3797
5915.804, 926.8146
5917.732, 926.5848
5919.661, 940.0361
5921.589, 929.5136
5923.518, 923.4352
5925.446, 929.8415
5927.375, 939.6198
5929.303, 913.9360
5931.231, 915.3433
5933.160, 922.8727
5935.088, 917.8391
5937.017, 895.1987
5938.945, 905.8384
5940.874, 898.9357
5942.802, 899.3378
5944.730, 916.6071
5946.659, 924.7426
5948.587, 911.7719
5950.516, 893.0292
5952.444, 895.0974
5954.373, 926.2821
5956.301, 938.5097
5958.230, 922.1565
5960.158, 924.5009
5962.087, 939.8146
5964.015, 932.9215
5965.944, 897.6247
5967.872, 898.4606
5969.801, 920.8121
5971.729, 935.7098
5973.658, 910.2064
5975.586, 906.7473
5977.515, 907.7452
5979.443, 909.2606
5981.372, 910.4103
5983.300, 898.8876
5985.229, 900.9587
5987.157, 901.6276
5989.085, 891.8507
5991.014, 872.3605
5992.942, 877.6751
5994.871, 902.4459
5996.799, 922.7387
5998.728, 923.3647
6000.656, 896.3534
6002.584, 896.2707
6004.513, 904.6872
6006.441, 901.2167
6008.370, 894.8010
6010.299, 930.5898
6012.227, 922.3940
6014.156, 898.8543
6016.084, 883.1378
6018.013, 885.3725
6019.941, 912.6082
6021.870, 898.4688
6023.798, 897.3078
6025.727, 896.7105
6027.655, 883.1197
6029.583, 883.9597
6031.512, 873.2734
6033.440, 899.5707
6035.369, 917.8448
6037.297, 892.5637
6039.226, 895.3876
6041.154, 903.9162
6043.083, 900.9998
6045.011, 894.7867
6046.939, 895.2139
6048.868, 883.2469
6050.796, 915.0956
6052.725, 904.4990
6054.653, 879.5846
6056.582, 895.2556
6058.510, 924.6271
6060.439, 885.9240
6062.367, 891.5804
6064.296, 911.3076
6066.224, 882.5010
6068.153, 883.0361
6070.081, 889.0376
6072.010, 878.9415
6073.938, 873.2632
6075.867, 889.8983
6077.795, 875.3774
6079.724, 872.4457
6081.652, 860.6456
6083.581, 854.6462
6085.509, 873.0653
6087.438, 907.1853
6089.366, 874.9790
6091.294, 865.9583
6093.223, 888.6096
6095.151, 912.1857
6097.080, 894.9132
6099.008, 872.5303
6100.937, 862.0951
6102.865, 854.8718
6104.793, 848.9474
6106.722, 869.5665
6108.650, 862.5264
6110.579, 878.8173
6112.507, 888.5314
6114.436, 874.9341
6116.364, 860.4523
6118.293, 869.2162
6120.221, 880.5386
6122.150, 885.3169
6124.078, 883.4849
6126.007, 878.7739
6127.935, 881.1349
6129.864, 889.0486
6131.792, 894.6909
6133.721, 886.3840
6135.649, 859.6688
6137.578, 875.6804
6139.506, 868.4898
6141.435, 871.9727
6143.363, 887.8639
6145.292, 899.7791
6147.220, 884.7270
6149.148, 896.2722
6151.077, 887.7672
6153.005, 883.6458
6154.934, 890.8219
6156.862, 860.4644
6158.791, 867.8899
6160.719, 881.1909
6162.647, 881.9985
6164.576, 874.0911
6166.504, 870.4990
6168.433, 858.1857
6170.361, 859.8802
6172.290, 871.5275
6174.218, 871.7629
6176.147, 858.9880
6178.075, 900.5549
6180.004, 871.7131
6181.932, 844.9676
6183.861, 838.5759
6185.789, 846.1345
6187.718, 856.8334
6189.646, 866.5839
6191.575, 860.8962
6193.503, 871.4724
6195.432, 886.3196
6197.360, 880.0750
6199.289, 853.7202
6201.217, 860.2761
6203.146, 880.2766
6205.074, 883.2985
6207.002, 868.1993
6208.931, 861.7989
6210.859, 884.1773
6212.788, 856.3502
6214.716, 852.9643
6216.645, 863.9682
6218.573, 859.4230
6220.501, 879.7197
6222.430, 872.7904
6224.358, 861.4553
6226.287, 860.4590
6228.215, 869.2930
6230.144, 878.5938
6232.072, 877.7354
6234.001, 876.8107
6235.929, 872.7648
6237.858, 864.5362
6239.786, 851.3454
6241.715, 831.7507
6243.643, 859.5205
6245.572, 866.9868
6247.500, 849.0775
6249.429, 836.8779
6251.357, 852.6379
6253.286, 868.1534
6255.214, 882.3010
6257.143, 854.8535
6259.071, 843.6459
6261.000, 859.7853
6262.928, 865.3228
6264.856, 830.4114
6266.785, 852.0686
6268.713, 867.9517
6270.642, 860.5192
6272.570, 848.4982
6274.499, 856.8414
6276.427, 847.2698
6278.355, 855.0417
6280.284, 846.1674
6282.212, 842.0698
6284.141, 862.9357
6286.069, 889.7177
6287.998, 834.3594
6289.926, 850.1143
6291.855, 856.0928
6293.783, 845.2151
6295.712, 849.9689
6297.640, 878.0366
6299.569, 843.6956
6301.497, 865.9214
6303.426, 874.3429
6305.354, 858.0555
6307.283, 844.7133
6309.211, 849.7754
6311.140, 850.1962
6313.068, 860.6330
6314.997, 860.5577
6316.925, 855.0624
6318.854, 855.0543
6320.782, 859.2211
6322.710, 833.8845
6324.639, 833.3702
6326.567, 830.0425
6328.496, 837.0442
6330.424, 859.3503
6332.353, 862.3722
6334.281, 873.2883
6336.209, 863.8250
6338.138, 866.7647
6340.066, 859.9684
6341.995, 844.3055
6343.923, 859.7077
6345.852, 866.9937
6347.780, 842.2661
6349.709, 846.1047
6351.637, 854.8175
6353.566, 848.4444
6355.494, 841.9171
6357.423, 855.5992
6359.351, 871.3199
6361.280, 881.2210
6363.208, 860.2484
6365.137, 835.4918
6367.065, 841.6661
6368.994, 836.8571
6370.922, 834.3653
6372.851, 834.0109
6374.779, 840.8215
6376.708, 844.3243
6378.636, 838.6977
6380.564, 835.3987
6382.493, 838.7747
6384.421, 837.0170
6386.350, 832.6222
6388.278, 849.0981
6390.207, 862.2792
6392.135, 832.5127
6394.063, 822.8335
6395.992, 842.2740
6397.920, 838.1573
6399.849, 835.5419
6401.777, 850.7429
6403.706, 862.1231
6405.634, 822.8591
6407.563, 839.2632
6409.491, 833.8224
6411.420, 850.9601
6413.348, 844.7731
6415.277, 821.1116
6417.205, 839.1046
6419.134, 851.9730
6421.062, 822.4193
6422.991, 831.0980
6424.919, 841.9583
6426.848, 836.0380
6428.776, 822.0355
6430.705, 812.9345
6432.633, 825.2626
6434.562, 834.0146
6436.490, 830.5652
6438.418, 822.1544
6440.347, 820.0924
6442.275, 831.7617
6444.204, 853.9623
6446.132, 833.2026
6448.061, 835.2798
6449.989, 819.7505
6451.917, 812.6547
6453.846, 822.5751
6455.774, 828.3074
6457.703, 829.1788
6459.631, 793.6807
6461.560, 813.3989
6463.488, 839.6019
6465.417, 829.4821
6467.345, 802.3166
6469.274, 805.8961
6471.202, 843.2636
6473.131, 811.1008
6475.059, 804.6125
6476.988, 811.9011
6478.916, 814.8012
6480.845, 813.2234
6482.773, 816.0425
6484.702, 832.5615
6486.630, 837.5872
6488.559, 816.1573
6490.487, 821.3585
6492.416, 840.7762
6494.344, 835.8132
6496.272, 806.8676
6498.201, 820.4660
6500.129, 804.2048
6502.058, 805.6008
6503.986, 818.5677
6505.915, 833.0884
6507.843, 839.4797
6509.771, 836.7897
6511.700, 841.7517
6513.628, 839.5438
6515.557, 838.9383
6517.485, 841.3033
6519.414, 829.2216
6521.342, 820.1018
6523.271, 830.0980
6525.199, 840.7998
6527.128, 820.9766
6529.056, 815.0344
6530.985, 826.7435
6532.913, 827.6370
6534.842, 821.5080
6536.770, 818.2808
6538.699, 820.2050
6540.627, 835.9749
6542.556, 813.7298
6544.484, 830.1204
6546.413, 818.5929
6548.341, 816.8141
6550.270, 831.4685
6552.198, 833.7847
6554.126, 819.0658
6556.055, 815.6209
6557.983, 782.3893
6559.912, 818.2280
6561.840, 819.1530
6563.769, 797.4519
6565.697, 798.6058
6567.625, 813.8110
6569.554, 793.7826
6571.482, 807.0989
6573.411, 807.9244
6575.339, 791.7199
6577.268, 815.4680
6579.196, 830.6824
6581.125, 811.1574
6583.053, 802.9500
6584.982, 814.3765
6586.910, 798.4788
6588.839, 801.3245
6590.767, 813.0704
6592.696, 824.8124
6594.624, 826.7319
6596.553, 807.9900
6598.481, 779.1844
6600.410, 831.5858
6602.338, 813.4510
6604.267, 823.9611
6606.195, 818.9452
6608.124, 815.4376
6610.052, 821.3268
6611.980, 824.1008
6613.909, 818.2424
6615.837, 815.9714
6617.766, 781.2326
6619.694, 822.6799
6621.623, 825.1147
6623.551, 818.9257
6625.479, 820.9496
##END=



