##NAMES=Taneyamalite
##RRUFFID=R070705
##IDEAL CHEMISTRY=(Na,Ca)Mn^2+^_12_(Si,Al)_12_(O,OH)_44_
##LOCALITY=Taneyama mine, Kumamoto Prefecture, Kyushu Island, Japan
##OWNER=RRUFF
##SOURCE=Michael Scott
##DESCRIPTION=Contorted mats of black fibers
##STATUS=The identification of this mineral has been confirmed by X-ray diffraction
##URL=https://www.rruff.net/odr/rruff_sample/R070705
##DIFFRACTION SAMPLE DESCRIPTION=Powder
##CELL PARAMETERS=a: 10.2145 b: 9.7449 c: 9.3679 alpha: 91.05 beta: 69.53 gamma: 109.23 volume: 819.9 crystal system: triclinic
##FILETYPE=Raman RAW
##RAMAN WAVELENGTH=532

116.8006, 1446.841
118.7291, 1553.393
120.6575, 1573.859
122.5860, 1590.226
124.5145, 1610.750
126.4429, 1631.317
128.3714, 1633.455
130.2999, 1599.568
132.2283, 1558.431
134.1568, 1532.461
136.0853, 1524.517
138.0137, 1521.132
139.9422, 1521.244
141.8707, 1524.716
143.7991, 1522.287
145.7276, 1510.456
147.6561, 1495.375
149.5845, 1484.255
151.5130, 1477.484
153.4415, 1471.040
155.3699, 1463.948
157.2984, 1456.585
159.2269, 1448.379
161.1553, 1437.748
163.0838, 1426.871
165.0123, 1418.016
166.9408, 1408.536
168.8692, 1401.822
170.7977, 1399.835
172.7262, 1403.679
174.6546, 1407.927
176.5831, 1414.258
178.5116, 1420.274
180.4400, 1421.085
182.3685, 1408.974
184.2970, 1398.542
186.2254, 1397.230
188.1539, 1405.333
190.0824, 1411.111
192.0108, 1412.471
193.9393, 1411.020
195.8678, 1409.651
197.7962, 1403.854
199.7247, 1399.351
201.6532, 1399.271
203.5816, 1406.810
205.5101, 1412.398
207.4386, 1413.050
209.3670, 1410.147
211.2955, 1407.628
213.2240, 1405.520
215.1524, 1406.797
217.0809, 1413.318
219.0094, 1430.143
220.9378, 1439.864
222.8663, 1437.099
224.7948, 1428.599
226.7232, 1424.234
228.6517, 1426.576
230.5802, 1430.644
232.5086, 1435.057
234.4371, 1439.731
236.3656, 1444.762
238.2940, 1452.223
240.2225, 1460.918
242.1510, 1467.745
244.0794, 1468.304
246.0079, 1469.417
247.9364, 1474.385
249.8648, 1481.449
251.7933, 1486.641
253.7218, 1490.535
255.6502, 1494.963
257.5787, 1500.610
259.5072, 1507.077
261.4356, 1510.526
263.3641, 1507.633
265.2926, 1499.906
267.2210, 1496.325
269.1495, 1499.715
271.0780, 1505.634
273.0064, 1509.840
274.9349, 1513.196
276.8634, 1514.770
278.7918, 1513.161
280.7203, 1507.812
282.6488, 1505.580
284.5772, 1506.521
286.5057, 1508.638
288.4342, 1510.665
290.3626, 1513.880
292.2911, 1518.541
294.2196, 1526.798
296.1480, 1537.018
298.0765, 1541.042
300.0050, 1532.287
301.9334, 1525.031
303.8619, 1526.135
305.7904, 1539.032
307.7188, 1551.635
309.6473, 1565.158
311.5758, 1575.580
313.5042, 1578.212
315.4327, 1568.326
317.3612, 1560.547
319.2896, 1561.116
321.2181, 1569.240
323.1466, 1574.672
325.0750, 1576.506
327.0035, 1579.565
328.9320, 1585.341
330.8604, 1592.965
332.7889, 1598.621
334.7174, 1601.540
336.6458, 1603.016
338.5743, 1604.567
340.5028, 1604.861
342.4312, 1607.842
344.3597, 1616.048
346.2882, 1630.540
348.2166, 1640.595
350.1451, 1643.408
352.0736, 1643.564
354.0020, 1643.952
355.9305, 1643.963
357.8590, 1643.618
359.7874, 1644.341
361.7159, 1646.489
363.6444, 1648.176
365.5728, 1648.351
367.5013, 1649.236
369.4298, 1651.775
371.3582, 1656.607
373.2867, 1662.513
375.2152, 1669.883
377.1436, 1677.756
379.0721, 1684.784
381.0006, 1689.525
382.9290, 1694.302
384.8575, 1701.003
386.7860, 1713.034
388.7144, 1719.685
390.6429, 1715.562
392.5714, 1706.222
394.4999, 1702.303
396.4283, 1705.110
398.3568, 1710.770
400.2853, 1718.714
402.2137, 1729.833
404.1422, 1738.752
406.0707, 1746.999
407.9991, 1752.434
409.9276, 1752.189
411.8561, 1743.707
413.7845, 1738.948
415.7130, 1743.111
417.6415, 1752.612
419.5699, 1756.921
421.4984, 1751.608
423.4269, 1746.717
425.3553, 1746.404
427.2838, 1750.818
429.2123, 1755.658
431.1407, 1759.232
433.0692, 1764.368
434.9977, 1773.793
436.9261, 1787.725
438.8546, 1800.124
440.7831, 1810.364
442.7115, 1819.290
444.6400, 1824.525
446.5685, 1819.789
448.4969, 1816.264
450.4254, 1821.391
452.3539, 1834.329
454.2823, 1841.613
456.2108, 1833.283
458.1393, 1822.276
460.0677, 1818.500
461.9962, 1827.015
463.9247, 1834.427
465.8531, 1840.502
467.7816, 1844.955
469.7101, 1845.887
471.6385, 1838.449
473.5670, 1831.612
475.4955, 1828.904
477.4240, 1834.577
479.3524, 1841.949
481.2809, 1853.799
483.2094, 1863.124
485.1378, 1866.995
487.0663, 1861.863
488.9948, 1860.754
490.9232, 1867.045
492.8517, 1876.233
494.7802, 1883.953
496.7086, 1890.846
498.6371, 1895.935
500.5656, 1896.824
502.4940, 1893.184
504.4225, 1892.917
506.3510, 1897.455
508.2794, 1906.749
510.2079, 1918.349
512.1364, 1932.083
514.0648, 1941.638
515.9933, 1940.521
517.9218, 1935.871
519.8502, 1938.846
521.7787, 1958.230
523.7072, 1973.738
525.6356, 1974.349
527.5641, 1962.601
529.4926, 1955.678
531.4210, 1959.190
533.3495, 1964.690
535.2780, 1967.264
537.2064, 1965.050
539.1349, 1963.611
541.0634, 1966.034
542.9918, 1972.389
544.9203, 1973.183
546.8488, 1964.899
548.7772, 1960.374
550.7057, 1963.365
552.6342, 1971.175
554.5626, 1983.198
556.4911, 2000.808
558.4196, 2016.602
560.3480, 2026.604
562.2765, 2031.598
564.2050, 2032.644
566.1334, 2024.959
568.0619, 2018.466
569.9904, 2017.409
571.9188, 2022.228
573.8473, 2027.021
575.7758, 2029.685
577.7042, 2028.644
579.6327, 2028.974
581.5612, 2032.823
583.4896, 2038.666
585.4181, 2042.659
587.3466, 2043.858
589.2750, 2047.649
591.2035, 2055.639
593.1320, 2062.159
595.0604, 2061.105
596.9889, 2061.042
598.9174, 2065.637
600.8458, 2075.626
602.7743, 2079.723
604.7028, 2080.333
606.6312, 2081.559
608.5597, 2082.835
610.4882, 2077.632
612.4166, 2074.970
614.3451, 2083.576
616.2736, 2100.236
618.2020, 2110.475
620.1305, 2111.597
622.0590, 2107.578
623.9874, 2104.326
625.9159, 2103.771
627.8444, 2103.443
629.7728, 2091.672
631.7013, 2080.706
633.6298, 2078.567
635.5582, 2084.058
637.4867, 2085.377
639.4152, 2087.896
641.3436, 2094.863
643.2721, 2097.724
645.2006, 2087.070
647.1290, 2065.020
649.0575, 2048.085
650.9860, 2045.238
652.9144, 2052.512
654.8429, 2060.682
656.7714, 2066.332
658.6998, 2078.329
660.6283, 2093.087
662.5568, 2103.837
664.4852, 2101.510
666.4137, 2100.915
668.3422, 2107.814
670.2706, 2115.608
672.1991, 2114.026
674.1276, 2099.737
676.0560, 2088.531
677.9845, 2086.899
679.9130, 2092.742
681.8414, 2096.879
683.7699, 2089.266
685.6984, 2076.371
687.6268, 2066.040
689.5553, 2060.638
691.4838, 2056.082
693.4122, 2049.893
695.3407, 2053.125
697.2692, 2065.052
699.1976, 2077.463
701.1261, 2071.488
703.0546, 2061.997
704.9830, 2061.513
706.9115, 2070.496
708.8400, 2080.199
710.7684, 2084.619
712.6969, 2083.176
714.6254, 2079.430
716.5538, 2074.095
718.4823, 2068.954
720.4108, 2068.066
722.3392, 2077.031
724.2677, 2084.846
726.1962, 2084.497
728.1246, 2077.929
730.0531, 2082.078
731.9816, 2093.617
733.9100, 2100.957
735.8385, 2096.721
737.7670, 2087.261
739.6954, 2077.391
741.6239, 2070.764
743.5524, 2071.090
745.4808, 2079.226
747.4093, 2087.120
749.3378, 2087.738
751.2662, 2090.423
753.1947, 2095.754
755.1232, 2100.462
757.0516, 2092.383
758.9801, 2086.329
760.9086, 2086.661
762.8370, 2088.970
764.7655, 2088.524
766.6940, 2090.318
768.6225, 2093.708
770.5510, 2097.146
772.4794, 2102.344
774.4079, 2114.356
776.3364, 2125.964
778.2648, 2134.526
780.1933, 2143.356
782.1218, 2149.329
784.0502, 2146.091
785.9787, 2132.961
787.9072, 2124.464
789.8356, 2122.518
791.7641, 2125.030
793.6926, 2131.873
795.6210, 2140.161
797.5495, 2148.375
799.4780, 2158.518
801.4064, 2168.061
803.3349, 2173.984
805.2634, 2173.343
807.1918, 2172.287
809.1203, 2169.863
811.0488, 2167.209
812.9772, 2164.589
814.9057, 2167.840
816.8342, 2171.525
818.7626, 2172.868
820.6911, 2172.915
822.6196, 2174.443
824.5480, 2178.578
826.4765, 2188.413
828.4050, 2206.127
830.3334, 2222.624
832.2619, 2233.650
834.1904, 2239.298
836.1188, 2240.716
838.0473, 2234.521
839.9758, 2234.236
841.9042, 2245.649
843.8327, 2259.163
845.7612, 2264.668
847.6896, 2256.120
849.6181, 2251.215
851.5466, 2260.629
853.4750, 2283.506
855.4035, 2297.745
857.3320, 2296.356
859.2604, 2292.469
861.1889, 2293.321
863.1174, 2299.992
865.0458, 2307.672
866.9743, 2315.207
868.9028, 2319.262
870.8312, 2315.506
872.7597, 2314.515
874.6882, 2318.454
876.6166, 2325.243
878.5451, 2332.446
880.4736, 2339.581
882.4020, 2350.848
884.3305, 2366.053
886.2590, 2389.239
888.1874, 2401.764
890.1159, 2397.503
892.0444, 2386.067
893.9728, 2376.055
895.9013, 2370.018
897.8298, 2367.368
899.7582, 2366.394
901.6867, 2366.394
903.6152, 2375.395
905.5436, 2399.896
907.4721, 2417.063
909.4006, 2417.356
911.3290, 2413.573
913.2575, 2416.228
915.1860, 2423.798
917.1144, 2432.106
919.0429, 2441.546
920.9714, 2452.745
922.8998, 2466.448
924.8283, 2482.076
926.7568, 2491.513
928.6852, 2489.572
930.6137, 2486.973
932.5422, 2487.309
934.4706, 2489.772
936.3991, 2489.944
938.3276, 2485.675
940.2560, 2481.396
942.1845, 2476.990
944.1130, 2473.738
946.0414, 2476.497
947.9699, 2490.949
949.8984, 2503.557
951.8268, 2509.897
953.7553, 2510.519
955.6838, 2510.557
957.6122, 2504.662
959.5407, 2505.024
961.4692, 2514.983
963.3976, 2532.510
965.3261, 2552.795
967.2546, 2578.516
969.1830, 2595.284
971.1115, 2592.948
973.0400, 2581.488
974.9684, 2572.347
976.8969, 2565.330
978.8254, 2566.816
980.7538, 2582.508
982.6823, 2600.902
984.6108, 2614.463
986.5392, 2624.455
988.4677, 2634.274
990.3962, 2642.688
992.3246, 2649.521
994.2531, 2655.946
996.1816, 2663.359
998.1100, 2671.356
1000.039, 2679.116
1001.967, 2686.567
1003.895, 2692.703
1005.824, 2697.125
1007.752, 2705.534
1009.681, 2728.362
1011.609, 2740.661
1013.538, 2723.415
1015.466, 2688.045
1017.395, 2675.458
1019.323, 2701.918
1021.252, 2725.185
1023.180, 2724.860
1025.109, 2705.785
1027.037, 2694.129
1028.966, 2698.486
1030.894, 2704.863
1032.823, 2708.253
1034.751, 2713.476
1036.679, 2724.957
1038.608, 2738.478
1040.536, 2748.678
1042.465, 2755.373
1044.393, 2758.951
1046.322, 2756.693
1048.250, 2752.421
1050.179, 2752.913
1052.107, 2764.236
1054.036, 2772.338
1055.964, 2768.514
1057.893, 2753.545
1059.821, 2745.584
1061.750, 2742.036
1063.678, 2744.440
1065.606, 2759.237
1067.535, 2784.180
1069.463, 2801.341
1071.392, 2801.960
1073.320, 2801.044
1075.249, 2802.291
1077.177, 2809.983
1079.106, 2820.905
1081.034, 2831.848
1082.963, 2843.046
1084.891, 2859.623
1086.820, 2872.772
1088.748, 2873.893
1090.677, 2861.565
1092.605, 2855.815
1094.533, 2850.685
1096.462, 2849.371
1098.390, 2859.463
1100.319, 2881.222
1102.247, 2893.142
1104.176, 2885.761
1106.104, 2879.350
1108.033, 2884.285
1109.961, 2898.260
1111.890, 2913.197
1113.818, 2924.291
1115.747, 2928.983
1117.675, 2925.647
1119.604, 2921.490
1121.532, 2920.537
1123.460, 2922.321
1125.389, 2925.137
1127.317, 2929.475
1129.246, 2932.361
1131.174, 2930.541
1133.103, 2927.024
1135.031, 2932.237
1136.960, 2950.416
1138.888, 2960.467
1140.817, 2953.532
1142.745, 2945.214
1144.674, 2950.038
1146.602, 2961.550
1148.531, 2970.388
1150.459, 2975.680
1152.387, 2979.681
1154.316, 2983.586
1156.244, 2986.882
1158.173, 2984.411
1160.101, 2983.157
1162.030, 2988.132
1163.958, 2997.381
1165.887, 3001.634
1167.815, 2992.956
1169.744, 2980.829
1171.672, 2982.230
1173.601, 3000.499
1175.529, 3023.243
1177.458, 3041.104
1179.386, 3051.180
1181.314, 3052.394
1183.243, 3045.406
1185.171, 3038.056
1187.100, 3032.032
1189.028, 3028.683
1190.957, 3035.365
1192.885, 3060.685
1194.814, 3077.314
1196.742, 3082.014
1198.671, 3087.151
1200.599, 3104.017
1202.528, 3125.458
1204.456, 3136.105
1206.385, 3131.180
1208.313, 3120.730
1210.241, 3117.613
1212.170, 3124.608
1214.098, 3133.818
1216.027, 3138.301
1217.955, 3142.230
1219.884, 3152.324
1221.812, 3165.755
1223.741, 3174.290
1225.669, 3171.544
1227.598, 3166.028
1229.526, 3166.807
1231.455, 3171.738
1233.383, 3173.164
1235.312, 3168.940
1237.240, 3169.728
1239.168, 3187.734
1241.097, 3201.370
1243.025, 3200.172
1244.954, 3191.112
1246.882, 3188.705
1248.811, 3197.233
1250.739, 3213.518
1252.668, 3230.553
1254.596, 3238.511
1256.525, 3241.659
1258.453, 3244.250
1260.382, 3251.431
1262.310, 3262.852
1264.239, 3271.457
1266.167, 3279.948
1268.095, 3286.806
1270.024, 3284.712
1271.952, 3266.796
1273.881, 3259.027
1275.809, 3264.152
1277.738, 3277.854
1279.666, 3306.703
1281.595, 3338.855
1283.523, 3350.931
1285.452, 3340.092
1287.380, 3339.200
1289.309, 3349.199
1291.237, 3356.701
1293.166, 3359.371
1295.094, 3358.137
1297.022, 3357.707
1298.951, 3359.171
1300.879, 3366.383
1302.808, 3377.216
1304.736, 3391.114
1306.665, 3406.261
1308.593, 3422.515
1310.522, 3437.998
1312.450, 3455.295
1314.379, 3465.869
1316.307, 3468.170
1318.236, 3466.260
1320.164, 3467.759
1322.093, 3478.020
1324.021, 3484.051
1325.949, 3475.723
1327.878, 3466.664
1329.806, 3476.785
1331.735, 3506.911
1333.663, 3527.149
1335.592, 3530.986
1337.520, 3534.873
1339.449, 3542.735
1341.377, 3545.047
1343.306, 3541.102
1345.234, 3532.466
1347.163, 3540.074
1349.091, 3577.693
1351.020, 3611.543
1352.948, 3625.479
1354.876, 3625.184
1356.805, 3623.096
1358.733, 3620.340
1360.662, 3620.451
1362.590, 3627.477
1364.519, 3629.825
1366.447, 3618.242
1368.376, 3598.727
1370.304, 3598.915
1372.233, 3637.594
1374.161, 3667.752
1376.090, 3682.369
1378.018, 3693.573
1379.947, 3705.071
1381.875, 3713.020
1383.803, 3716.429
1385.732, 3714.206
1387.660, 3712.699
1389.589, 3711.921
1391.517, 3713.263
1393.446, 3714.973
1395.374, 3713.997
1397.303, 3714.457
1399.231, 3716.204
1401.160, 3722.231
1403.088, 3735.994
1405.017, 3752.055
1406.945, 3765.367
1408.874, 3774.734
1410.802, 3772.957
1412.730, 3708.836
1414.659, 3756.686
1416.587, 3787.198
1418.516, 3801.310
1420.444, 3749.888
1422.373, 3783.090
1424.301, 3782.375
1426.230, 3780.274
1428.158, 3825.381
1430.087, 3783.495
1432.015, 3827.853
1433.944, 3837.786
1435.872, 3863.473
1437.801, 3855.043
1439.729, 3857.147
1441.657, 3893.384
1443.586, 3910.725
1445.514, 3898.363
1447.443, 3925.055
1449.371, 3881.972
1451.300, 3900.119
1453.228, 3944.677
1455.157, 3934.034
1457.085, 3961.346
1459.014, 3974.206
1460.942, 3921.361
1462.871, 3982.780
1464.799, 3960.717
1466.728, 3966.073
1468.656, 3969.315
1470.584, 3963.792
1472.513, 3957.605
1474.441, 3968.006
1476.370, 3997.998
1478.298, 4011.092
1480.227, 3985.038
1482.155, 3966.053
1484.084, 3986.629
1486.012, 4024.758
1487.941, 4043.445
1489.869, 4039.208
1491.798, 4048.592
1493.726, 4087.852
1495.655, 4123.975
1497.583, 4144.727
1499.511, 4152.094
1501.440, 4148.680
1503.368, 4134.142
1505.297, 4126.125
1507.225, 4130.764
1509.154, 4134.936
1511.082, 4133.659
1513.011, 4132.634
1514.939, 4139.982
1516.868, 4160.057
1518.796, 4177.439
1520.725, 4189.659
1522.653, 4199.382
1524.582, 4203.791
1526.510, 4208.829
1528.438, 4220.250
1530.367, 4241.071
1532.295, 4261.611
1534.224, 4281.304
1536.152, 4294.822
1538.081, 4297.320
1540.009, 4297.883
1541.938, 4304.472
1543.866, 4315.751
1545.795, 4321.518
1547.723, 4317.383
1549.652, 4320.127
1551.580, 4337.155
1553.509, 4355.836
1555.437, 4363.989
1557.365, 4367.965
1559.294, 4389.453
1561.222, 4436.184
1563.151, 4466.031
1565.079, 4452.387
1567.008, 4443.334
1568.936, 4472.491
1570.865, 4513.591
1572.793, 4522.313
1574.722, 4500.042
1576.650, 4480.854
1578.579, 4463.957
1580.507, 4457.578
1582.436, 4467.882
1584.364, 4486.780
1586.292, 4510.156
1588.221, 4537.946
1590.149, 4558.453
1592.078, 4568.610
1594.006, 4568.359
1595.935, 4552.981
1597.863, 4533.638
1599.792, 4509.695
1601.720, 4489.217
1603.649, 4496.886
1605.577, 4538.333
1607.506, 4555.770
1609.434, 4523.438
1611.363, 4493.201
1613.291, 4489.936
1615.219, 4501.407
1617.148, 4517.919
1619.076, 4537.165
1621.005, 4540.395
1622.933, 4518.128
1624.862, 4500.297
1626.790, 4499.234
1628.719, 4503.346
1630.647, 4508.797
1632.576, 4513.562
1634.504, 4508.743
1636.433, 4492.526
1638.361, 4480.833
1640.290, 4480.832
1642.218, 4480.332
1644.146, 4464.654
1646.075, 4449.479
1648.003, 4461.830
1649.932, 4498.266
1651.860, 4510.031
1653.789, 4480.854
1655.717, 4461.727
1657.646, 4478.392
1659.574, 4499.363
1661.503, 4506.698
1663.431, 4502.668
1665.360, 4487.836
1667.288, 4459.066
1669.217, 4451.149
1671.145, 4484.343
1673.073, 4512.551
1675.002, 4509.725
1676.930, 4496.858
1678.859, 4491.630
1680.787, 4493.695
1682.716, 4504.264
1684.644, 4527.618
1686.573, 4543.479
1688.501, 4547.377
1690.430, 4543.503
1692.358, 4526.703
1694.287, 4507.997
1696.215, 4505.326
1698.144, 4518.260
1700.072, 4533.230
1702.000, 4554.640
1703.929, 4560.964
1705.857, 4523.848
1707.786, 4492.233
1709.714, 4505.961
1711.643, 4546.346
1713.571, 4574.830
1715.500, 4590.896
1717.428, 4598.885
1719.357, 4596.140
1721.285, 4593.494
1723.214, 4597.938
1725.142, 4601.723
1727.071, 4590.566
1728.999, 4574.715
1730.927, 4589.608
1732.856, 4641.708
1734.784, 4674.510
1736.713, 4666.794
1738.641, 4659.131
1740.570, 4670.438
1742.498, 4687.423
1744.427, 4697.786
1746.355, 4703.017
1748.284, 4710.622
1750.212, 4723.161
1752.141, 4724.941
1754.069, 4703.235
1755.998, 4688.572
1757.926, 4702.546
1759.854, 4724.498
1761.783, 4730.211
1763.711, 4724.468
1765.640, 4729.055
1767.568, 4745.916
1769.497, 4762.325
1771.425, 4779.500
1773.354, 4790.268
1775.282, 4789.585
1777.211, 4783.455
1779.139, 4774.847
1781.068, 4766.091
1782.996, 4770.047
1784.925, 4793.775
1786.853, 4805.434
1788.781, 4791.756
1790.710, 4777.990
1792.638, 4766.893
1794.567, 4762.938
1796.495, 4778.758
1798.424, 4806.668
1800.352, 4810.365
1802.281, 4774.349
1804.209, 4756.790
1806.138, 4767.907
1808.066, 4784.654
1809.995, 4807.390
1811.923, 4828.406
1813.852, 4842.334
1815.780, 4849.475
1817.708, 4848.150
1819.637, 4830.925
1821.565, 4831.903
1823.494, 4868.078
1825.422, 4896.839
1827.351, 4907.815
1829.279, 4912.350
1831.208, 4911.061
1833.136, 4909.639
1835.065, 4922.029
1836.993, 4949.082
1838.922, 4966.033
1840.850, 4973.188
1842.779, 4968.853
1844.707, 4943.199
1846.635, 4921.180
1848.564, 4920.091
1850.492, 4924.920
1852.421, 4912.882
1854.349, 4891.142
1856.278, 4894.170
1858.206, 4925.941
1860.135, 4957.396
1862.063, 4984.858
1863.992, 5005.688
1865.920, 5019.475
1867.849, 5023.473
1869.777, 5006.783
1871.706, 4982.125
1873.634, 4980.310
1875.563, 5001.773
1877.491, 5006.896
1879.419, 4984.912
1881.348, 4972.409
1883.276, 4983.810
1885.205, 4999.516
1887.133, 5013.528
1889.062, 5022.829
1890.990, 5017.219
1892.919, 5000.669
1894.847, 5003.166
1896.776, 5032.665
1898.704, 5058.623
1900.633, 5088.636
1902.561, 5105.797
1904.490, 5097.467
1906.418, 5087.488
1908.346, 5096.775
1910.275, 5112.340
1912.203, 5104.683
1914.132, 5073.080
1916.060, 5076.891
1917.989, 5130.194
1919.917, 5169.528
1921.846, 5182.247
1923.774, 5185.275
1925.703, 5179.032
1927.631, 5170.486
1929.560, 5162.767
1931.488, 5157.763
1933.417, 5159.675
1935.345, 5168.554
1937.273, 5180.330
1939.202, 5196.773
1941.130, 5206.120
1943.059, 5198.780
1944.987, 5194.114
1946.916, 5202.280
1948.844, 5214.214
1950.773, 5225.847
1952.701, 5235.005
1954.630, 5233.871
1956.558, 5221.489
1958.487, 5220.394
1960.415, 5239.599
1962.344, 5252.942
1964.272, 5243.250
1966.200, 5247.325
1968.129, 5297.375
1970.057, 5345.528
1971.986, 5344.882
1973.914, 5317.372
1975.843, 5314.748
1977.771, 5338.200
1979.700, 5334.227
1981.628, 5286.397
1983.557, 5277.539
1985.485, 5344.461
1987.414, 5403.436
1989.342, 5417.111
1991.271, 5417.683
1993.199, 5426.505
1995.127, 5436.531
1997.056, 5436.904
1998.984, 5429.760
2000.913, 5425.766
2002.841, 5427.025
2004.770, 5425.958
2006.698, 5419.420
2008.627, 5415.671
2010.555, 5414.330
2012.484, 5418.163
2014.412, 5426.875
2016.341, 5441.528
2018.269, 5466.292
2020.198, 5497.611
2022.126, 5524.310
2024.055, 5547.046
2025.983, 5563.240
2027.911, 5580.531
2029.840, 5570.516
2031.768, 5504.184
2033.697, 5454.123
2035.625, 5454.481
2037.554, 5475.316
2039.482, 5503.532
2041.411, 5532.660
2043.339, 5552.608
2045.268, 5564.020
2047.196, 5571.697
2049.125, 5574.139
2051.053, 5581.836
2052.981, 5603.423
2054.910, 5616.532
2056.838, 5604.781
2058.767, 5601.079
2060.695, 5612.606
2062.624, 5645.500
2064.552, 5742.372
2066.481, 5849.775
2068.409, 5831.286
2070.338, 5691.760
2072.266, 5627.380
2074.195, 5651.833
2076.123, 5673.052
2078.052, 5680.381
2079.980, 5683.958
2081.908, 5676.300
2083.837, 5680.970
2085.765, 5732.162
2087.694, 5779.740
2089.622, 5766.456
2091.551, 5722.842
2093.479, 5707.109
2095.408, 5718.175
2097.336, 5739.844
2099.265, 5781.589
2101.193, 5807.200
2103.122, 5800.687
2105.050, 5803.110
2106.979, 5833.066
2108.907, 5852.771
2110.835, 5835.482
2112.764, 5816.562
2114.692, 5823.609
2116.621, 5844.711
2118.549, 5872.474
2120.478, 5898.940
2122.406, 5885.162
2124.335, 5829.465
2126.263, 5800.967
2128.192, 5810.473
2130.120, 5830.980
2132.049, 5878.118
2133.977, 5905.914
2135.906, 5883.784
2137.834, 5860.228
2139.762, 5869.495
2141.691, 5885.220
2143.619, 5870.377
2145.548, 5843.087
2147.476, 5854.181
2149.405, 5897.776
2151.333, 5919.584
2153.262, 5915.910
2155.190, 5924.320
2157.119, 5957.423
2159.047, 5977.231
2160.976, 5963.863
2162.904, 5954.080
2164.833, 5967.389
2166.761, 5981.786
2168.689, 5980.276
2170.618, 5973.603
2172.546, 5970.402
2174.475, 5972.540
2176.403, 5990.496
2178.332, 6022.566
2180.260, 6036.027
2182.189, 6028.440
2184.117, 6017.389
2186.046, 5999.519
2187.974, 5999.392
2189.903, 6035.806
2191.831, 6067.077
2193.760, 6076.828
2195.688, 6079.354
2197.616, 6080.739
2199.545, 6081.613
2201.473, 6080.897
2203.402, 6080.365
2205.330, 6084.096
2207.259, 6090.979
2209.187, 6094.087
2211.116, 6092.453
2213.044, 6107.364
2214.973, 6147.686
2216.901, 6158.220
2218.830, 6113.570
2220.758, 6083.328
2222.687, 6090.643
2224.615, 6114.498
2226.543, 6160.489
2228.472, 6203.627
2230.400, 6230.869
2232.329, 6241.092
2234.257, 6221.245
2236.186, 6187.558
2238.114, 6184.271
2240.043, 6206.542
2241.971, 6209.319
2243.900, 6191.175
2245.828, 6196.990
2247.757, 6237.278
2249.685, 6262.211
2251.614, 6255.157
2253.542, 6248.320
2255.470, 6242.736
2257.399, 6248.993
2259.327, 6286.960
2261.256, 6319.552
2263.184, 6318.153
2265.113, 6303.628
2267.041, 6291.188
2268.970, 6285.446
2270.898, 6296.216
2272.827, 6321.257
2274.755, 6360.563
2276.684, 6411.648
2278.612, 6421.480
2280.541, 6373.757
2282.469, 6348.963
2284.397, 6364.862
2286.326, 6380.938
2288.254, 6385.680
2290.183, 6402.269
2292.111, 6450.708
2294.040, 6490.293
2295.968, 6501.225
2297.897, 6502.348
2299.825, 6506.080
2301.754, 6507.507
2303.682, 6491.324
2305.611, 6475.384
2307.539, 6502.427
2309.468, 6558.461
2311.396, 6579.487
2313.324, 6564.464
2315.253, 6563.446
2317.181, 6578.043
2319.110, 6594.770
2321.038, 6611.481
2322.967, 6635.875
2324.895, 6676.903
2326.824, 6701.261
2328.752, 6684.611
2330.681, 6672.432
2332.609, 6695.564
2334.538, 6708.877
2336.466, 6666.512
2338.395, 6628.439
2340.323, 6658.438
2342.251, 6707.436
2344.180, 6709.632
2346.108, 6690.548
2348.037, 6705.742
2349.965, 6741.322
2351.894, 6747.212
2353.822, 6724.823
2355.751, 6712.690
2357.679, 6709.646
2359.608, 6723.050
2361.536, 6760.428
2363.465, 6789.895
2365.393, 6808.412
2367.322, 6819.404
2369.250, 6821.472
2371.178, 6820.713
2373.107, 6818.687
2375.035, 6817.513
2376.964, 6820.466
2378.892, 6824.001
2380.821, 6819.041
2382.749, 6821.447
2384.678, 6855.461
2386.606, 6894.743
2388.535, 6900.781
2390.463, 6890.762
2392.392, 6897.166
2394.320, 6915.452
2396.249, 6940.331
2398.177, 6968.124
2400.105, 6963.147
2402.034, 6920.949
2403.962, 6904.552
2405.891, 6915.396
2407.819, 6954.792
2409.748, 7043.923
2411.676, 7067.905
2413.605, 6982.242
2415.533, 6935.061
2417.462, 6983.001
2419.390, 7024.571
2421.319, 7025.924
2423.247, 7017.502
2425.176, 6992.372
2427.104, 6985.778
2429.032, 7038.841
2430.961, 7091.494
2432.889, 7097.215
2434.818, 7086.740
2436.746, 7085.058
2438.675, 7086.835
2440.603, 7084.040
2442.532, 7080.298
2444.460, 7078.169
2446.389, 7081.078
2448.317, 7108.273
2450.246, 7154.206
2452.174, 7171.874
2454.103, 7163.379
2456.031, 7156.166
2457.959, 7151.685
2459.888, 7157.583
2461.816, 7177.115
2463.745, 7198.140
2465.673, 7234.198
2467.602, 7243.563
2469.530, 7213.290
2471.459, 7184.921
2473.387, 7158.726
2475.316, 7150.511
2477.244, 7172.242
2479.173, 7197.396
2481.101, 7215.732
2483.030, 7235.511
2484.958, 7265.140
2486.886, 7289.676
2488.815, 7299.814
2490.743, 7302.225
2492.672, 7293.403
2494.601, 7287.795
2496.529, 7296.674
2498.458, 7315.804
2500.386, 7353.197
2502.314, 7387.889
2504.243, 7382.838
2506.171, 7355.541
2508.100, 7343.503
2510.028, 7338.765
2511.957, 7302.618
2513.885, 7255.065
2515.814, 7277.604
2517.742, 7359.087
2519.671, 7408.722
2521.599, 7425.728
2523.528, 7431.652
2525.456, 7423.722
2527.385, 7423.980
2529.313, 7434.044
2531.241, 7435.044
2533.170, 7425.513
2535.098, 7407.443
2537.027, 7367.004
2538.955, 7365.188
2540.884, 7450.812
2542.812, 7494.106
2544.741, 7458.408
2546.669, 7449.718
2548.598, 7496.958
2550.526, 7543.910
2552.455, 7586.722
2554.383, 7606.513
2556.312, 7582.872
2558.240, 7557.866
2560.168, 7525.609
2562.097, 7522.554
2564.025, 7595.536
2565.954, 7651.935
2567.882, 7632.123
2569.811, 7604.582
2571.739, 7601.702
2573.668, 7620.604
2575.596, 7683.033
2577.525, 7740.465
2579.453, 7744.022
2581.382, 7731.618
2583.310, 7740.064
2585.239, 7750.549
2587.167, 7739.063
2589.095, 7723.078
2591.024, 7727.730
2592.952, 7739.412
2594.881, 7732.650
2596.809, 7720.660
2598.738, 7727.463
2600.666, 7747.115
2602.595, 7772.448
2604.523, 7799.838
2606.452, 7821.707
2608.380, 7839.148
2610.309, 7853.344
2612.237, 7865.302
2614.166, 7874.859
2616.094, 7884.641
2618.022, 7915.111
2619.951, 7958.247
2621.879, 7970.734
2623.808, 7955.874
2625.736, 7956.117
2627.665, 7971.821
2629.593, 7969.805
2631.522, 7951.472
2633.450, 7954.305
2635.379, 7976.986
2637.307, 7977.373
2639.236, 7948.759
2641.164, 7952.439
2643.093, 7997.893
2645.021, 8020.450
2646.949, 8018.659
2648.878, 8015.299
2650.806, 8012.166
2652.735, 8017.760
2654.663, 8035.358
2656.592, 8052.604
2658.520, 8067.811
2660.449, 8089.250
2662.377, 8120.820
2664.306, 8131.589
2666.234, 8112.498
2668.163, 8120.933
2670.091, 8175.380
2672.020, 8208.024
2673.948, 8194.709
2675.876, 8194.493
2677.805, 8214.211
2679.733, 8223.352
2681.662, 8217.754
2683.590, 8211.115
2685.519, 8206.706
2687.447, 8202.284
2689.376, 8183.783
2691.304, 8197.626
2693.233, 8260.333
2695.161, 8299.200
2697.090, 8293.466
2699.018, 8309.417
2700.947, 8385.008
2702.875, 8415.355
2704.803, 8343.443
2706.732, 8310.677
2708.660, 8337.347
2710.589, 8365.942
2712.517, 8390.648
2714.446, 8404.464
2716.374, 8402.184
2718.303, 8397.109
2720.231, 8380.787
2722.160, 8387.036
2724.088, 8427.646
2726.017, 8459.381
2727.945, 8473.382
2729.874, 8484.146
2731.802, 8499.563
2733.730, 8496.844
2735.659, 8450.056
2737.587, 8453.917
2739.516, 8537.464
2741.444, 8581.301
2743.373, 8554.624
2745.301, 8526.813
2747.230, 8502.225
2749.158, 8494.890
2751.087, 8510.068
2753.015, 8526.666
2754.944, 8544.280
2756.872, 8549.551
2758.801, 8530.491
2760.729, 8534.963
2762.657, 8578.419
2764.586, 8621.894
2766.514, 8671.186
2768.443, 8675.013
2770.371, 8617.069
2772.300, 8603.468
2774.228, 8665.882
2776.157, 8704.366
2778.085, 8708.142
2780.014, 8730.484
2781.942, 8775.294
2783.871, 8784.614
2785.799, 8748.594
2787.728, 8736.645
2789.656, 8759.171
2791.584, 8769.918
2793.513, 8770.341
2795.441, 8732.269
2797.370, 8659.959
2799.298, 8677.727
2801.227, 8792.850
2803.155, 8840.866
2805.084, 8821.017
2807.012, 8816.402
2808.941, 8824.565
2810.869, 8829.911
2812.798, 8831.723
2814.726, 8825.603
2816.655, 8815.143
2818.583, 8824.860
2820.511, 8849.196
2822.440, 8861.706
2824.368, 8866.475
2826.297, 8872.956
2828.225, 8883.926
2830.154, 8912.384
2832.082, 8947.397
2834.011, 8965.752
2835.939, 8968.091
2837.868, 8939.056
2839.796, 8908.542
2841.725, 8928.544
2843.653, 8969.883
2845.582, 8999.867
2847.510, 9018.327
2849.438, 9012.832
2851.367, 9011.237
2853.295, 9058.049
2855.224, 9100.828
2857.152, 9072.170
2859.081, 9044.253
2861.009, 9085.340
2862.938, 9124.656
2864.866, 9110.811
2866.795, 9091.558
2868.723, 9086.327
2870.652, 9096.140
2872.580, 9137.248
2874.509, 9160.646
2876.437, 9125.586
2878.365, 9111.048
2880.294, 9167.748
2882.222, 9208.501
2884.151, 9212.859
2886.079, 9210.302
2888.008, 9203.141
2889.936, 9207.544
2891.865, 9241.068
2893.793, 9251.342
2895.722, 9222.289
2897.650, 9221.356
2899.579, 9255.997
2901.507, 9265.508
2903.436, 9236.173
2905.364, 9243.409
2907.292, 9294.239
2909.221, 9328.724
2911.149, 9346.381
2913.078, 9320.279
2915.006, 9266.222
2916.935, 9295.055
2918.863, 9380.992
2920.792, 9409.701
2922.720, 9404.383
2924.649, 9428.270
2926.577, 9464.271
2928.506, 9485.045
2930.434, 9495.393
2932.363, 9503.456
2934.291, 9504.340
2936.219, 9484.433
2938.148, 9465.861
2940.076, 9470.491
2942.005, 9480.737
2943.933, 9485.023
2945.862, 9490.393
2947.790, 9506.071
2949.719, 9514.155
2951.647, 9503.128
2953.576, 9489.759
2955.504, 9471.056
2957.433, 9467.075
2959.361, 9481.471
2961.290, 9510.212
2963.218, 9569.514
2965.146, 9587.825
2967.075, 9548.864
2969.003, 9514.629
2970.932, 9486.828
2972.860, 9526.383
2974.789, 9638.597
2976.717, 9696.930
2978.646, 9704.857
2980.574, 9687.485
2982.503, 9656.628
2984.431, 9652.289
2986.360, 9665.273
2988.288, 9675.359
2990.217, 9687.694
2992.145, 9718.083
2994.073, 9747.054
2996.002, 9752.651
2997.930, 9748.616
2999.859, 9738.337
3001.787, 9735.979
3003.716, 9755.433
3005.644, 9777.068
3007.573, 9794.478
3009.501, 9808.676
3011.430, 9823.822
3013.358, 9821.721
3015.287, 9785.281
3017.215, 9795.942
3019.144, 9886.489
3021.072, 9934.158
3023.000, 9925.931
3024.929, 9903.816
3026.857, 9872.270
3028.786, 9891.143
3030.714, 9949.782
3032.643, 9976.976
3034.571, 9978.244
3036.500, 9964.886
3038.428, 9947.133
3040.357, 9945.695
3042.285, 9948.875
3044.214, 9934.055
3046.142, 9928.875
3048.071, 9976.495
3049.999, 10011.69
3051.927, 9971.040
3053.856, 9950.115
3055.784, 10002.56
3057.713, 10058.17
3059.641, 10115.77
3061.570, 10123.96
3063.498, 10045.12
3065.427, 10005.70
3067.355, 10014.68
3069.284, 10055.19
3071.212, 10121.96
3073.141, 10137.71
3075.069, 10116.15
3076.998, 10135.78
3078.926, 10177.27
3080.854, 10187.11
3082.783, 10183.84
3084.711, 10190.30
3086.640, 10200.62
3088.568, 10220.41
3090.497, 10225.22
3092.425, 10184.90
3094.354, 10158.52
3096.282, 10186.20
3098.211, 10209.56
3100.139, 10213.45
3102.068, 10222.54
3103.996, 10240.78
3105.925, 10261.07
3107.853, 10285.66
3109.781, 10286.12
3111.710, 10267.67
3113.638, 10270.64
3115.567, 10289.06
3117.495, 10309.08
3119.424, 10321.59
3121.352, 10293.20
3123.281, 10267.33
3125.209, 10297.25
3127.138, 10337.15
3129.066, 10360.97
3130.995, 10374.68
3132.923, 10381.19
3134.852, 10375.81
3136.780, 10336.81
3138.708, 10329.87
3140.637, 10367.76
3142.565, 10371.63
3144.494, 10338.16
3146.422, 10340.10
3148.351, 10375.18
3150.279, 10423.89
3152.208, 10475.02
3154.136, 10500.79
3156.065, 10511.92
3157.993, 10513.82
3159.922, 10519.63
3161.850, 10558.73
3163.779, 10573.76
3165.707, 10508.65
3167.635, 10464.33
3169.564, 10467.73
3171.492, 10499.92
3173.421, 10568.39
3175.349, 10572.21
3177.278, 10495.65
3179.206, 10509.40
3181.135, 10589.61
3183.063, 10610.15
3184.992, 10594.70
3186.920, 10593.80
3188.849, 10586.47
3190.777, 10510.84
3192.706, 10469.89
3194.634, 10574.32
3196.563, 10659.46
3198.491, 10648.53
3200.419, 10619.73
3202.348, 10572.48
3204.276, 10581.68
3206.205, 10675.81
3208.133, 10700.74
3210.062, 10669.95
3211.990, 10699.33
3213.919, 10757.24
3215.847, 10759.53
3217.776, 10739.87
3219.704, 10741.55
3221.633, 10748.35
3223.561, 10751.73
3225.490, 10754.29
3227.418, 10757.59
3229.346, 10763.71
3231.275, 10775.00
3233.203, 10781.38
3235.132, 10778.11
3237.060, 10801.16
3238.989, 10841.95
3240.917, 10846.22
3242.846, 10833.48
3244.774, 10850.84
3246.703, 10872.48
3248.631, 10861.56
3250.560, 10855.78
3252.488, 10897.40
3254.417, 10916.12
3256.345, 10880.47
3258.273, 10863.44
3260.202, 10877.90
3262.130, 10902.99
3264.059, 10936.40
3265.987, 10969.74
3267.916, 10991.23
3269.844, 10958.07
3271.773, 10907.73
3273.701, 10880.35
3275.630, 10885.01
3277.558, 10951.98
3279.487, 11005.37
3281.415, 10992.67
3283.344, 10995.54
3285.272, 11020.92
3287.200, 11074.04
3289.129, 11155.56
3291.057, 11164.68
3292.986, 11120.81
3294.914, 11078.36
3296.843, 11060.87
3298.771, 11135.33
3300.700, 11203.92
3302.628, 11182.40
3304.557, 11157.64
3306.485, 11164.56
3308.414, 11168.21
3310.342, 11158.48
3312.271, 11178.25
3314.199, 11224.78
3316.127, 11227.74
3318.056, 11203.18
3319.984, 11196.70
3321.913, 11205.55
3323.841, 11235.16
3325.770, 11264.93
3327.698, 11280.40
3329.627, 11296.96
3331.555, 11322.93
3333.484, 11333.03
3335.412, 11318.31
3337.341, 11342.97
3339.269, 11392.38
3341.198, 11390.10
3343.126, 11357.60
3345.054, 11322.29
3346.983, 11299.47
3348.911, 11295.12
3350.840, 11319.08
3352.768, 11406.86
3354.697, 11460.76
3356.625, 11469.43
3358.554, 11440.19
3360.482, 11379.18
3362.411, 11391.08
3364.339, 11441.74
3366.268, 11446.32
3368.196, 11451.10
3370.125, 11538.19
3372.053, 11590.94
3373.981, 11551.06
3375.910, 11484.55
3377.838, 11373.91
3379.767, 11363.13
3381.695, 11445.98
3383.624, 11520.83
3385.552, 11574.21
3387.481, 11552.50
3389.409, 11525.00
3391.338, 11578.97
3393.266, 11626.23
3395.195, 11607.45
3397.123, 11597.12
3399.052, 11608.68
3400.980, 11618.34
3402.908, 11623.38
3404.837, 11539.59
3406.765, 11451.41
3408.694, 11589.23
3410.622, 11762.22
3412.551, 11776.84
3414.479, 11743.36
3416.408, 11681.16
3418.336, 11640.76
3420.265, 11623.35
3422.193, 11686.31
3424.122, 11805.45
3426.050, 11811.73
3427.979, 11769.35
3429.907, 11827.92
3431.835, 11867.96
3433.764, 11749.44
3435.692, 11688.56
3437.621, 11766.93
3439.549, 11843.11
3441.478, 11901.23
3443.406, 11874.43
3445.335, 11797.27
3447.263, 11826.86
3449.192, 11889.27
3451.120, 11891.86
3453.049, 11906.48
3454.977, 11990.06
3456.906, 12020.32
3458.834, 11929.39
3460.762, 11923.69
3462.691, 11989.48
3464.619, 12006.97
3466.548, 11992.28
3468.476, 11956.92
3470.405, 11929.77
3472.333, 11925.41
3474.262, 11943.55
3476.190, 11997.80
3478.119, 12033.37
3480.047, 12047.79
3481.976, 12049.31
3483.904, 12044.70
3485.833, 12045.38
3487.761, 12056.23
3489.689, 12092.24
3491.618, 12117.25
3493.546, 12107.90
3495.475, 12128.72
3497.403, 12191.64
3499.332, 12211.12
3501.260, 12199.52
3503.189, 12204.86
3505.117, 12218.39
3507.046, 12246.90
3508.974, 12248.58
3510.903, 12185.63
3512.831, 12190.82
3514.760, 12317.04
3516.688, 12303.96
3518.616, 12207.62
3520.545, 12221.70
3522.473, 12279.20
3524.402, 12311.68
3526.330, 12333.13
3528.259, 12336.65
3530.187, 12371.62
3532.116, 12448.05
3534.044, 12424.46
3535.973, 12341.53
3537.901, 12362.32
3539.830, 12417.14
3541.758, 12448.51
3543.687, 12449.92
3545.615, 12391.11
3547.543, 12363.75
3549.472, 12375.11
3551.400, 12429.83
3553.329, 12505.26
3555.257, 12540.47
3557.186, 12551.61
3559.114, 12545.28
3561.043, 12538.60
3562.971, 12543.92
3564.900, 12506.99
3566.828, 12423.79
3568.757, 12469.78
3570.685, 12575.92
3572.614, 12592.09
3574.542, 12580.32
3576.470, 12586.22
3578.399, 12572.42
3580.327, 12517.67
3582.256, 12539.25
3584.184, 12632.62
3586.113, 12718.60
3588.041, 12769.77
3589.970, 12720.40
3591.898, 12662.86
3593.827, 12634.66
3595.755, 12631.16
3597.684, 12651.17
3599.612, 12714.00
3601.541, 12788.18
3603.469, 12780.17
3605.397, 12737.28
3607.326, 12679.45
3609.254, 12661.95
3611.183, 12733.61
3613.111, 12768.54
3615.040, 12768.66
3616.968, 12795.32
3618.897, 12829.24
3620.825, 12824.10
3622.754, 12828.85
3624.682, 12883.88
3626.611, 12921.48
3628.539, 12934.14
3630.468, 12906.99
3632.396, 12859.66
3634.324, 12851.20
3636.253, 12854.66
3638.181, 12813.92
3640.110, 12854.32
3642.038, 13062.90
3643.967, 13092.55
3645.895, 12962.13
3647.824, 12945.91
3649.752, 12988.18
3651.681, 13032.08
3653.609, 13061.63
3655.538, 13052.13
3657.466, 13068.81
3659.395, 13114.57
3661.323, 13175.01
3663.251, 13223.35
3665.180, 13185.50
3667.108, 13138.22
3669.037, 13115.74
3670.965, 13134.84
3672.894, 13198.20
3674.822, 13180.44
3676.751, 13116.85
3678.679, 13125.76
3680.608, 13149.35
3682.536, 13138.93
3684.465, 13137.97
3686.393, 13153.41
3688.322, 13207.53
3690.250, 13282.35
3692.178, 13297.13
3694.107, 13294.88
3696.035, 13323.35
3697.964, 13332.40
3699.892, 13305.94
3701.821, 13298.64
3703.749, 13314.79
3705.678, 13372.09
3707.606, 13427.60
3709.535, 13433.55
3711.463, 13424.62
3713.392, 13407.87
3715.320, 13423.22
3717.249, 13465.39
3719.177, 13460.22
3721.105, 13443.75
3723.034, 13453.59
3724.962, 13473.25
3726.891, 13496.12
3728.819, 13534.25
3730.748, 13580.01
3732.676, 13539.84
3734.605, 13498.01
3736.533, 13580.36
3738.462, 13633.69
3740.390, 13600.56
3742.319, 13583.89
3744.247, 13588.56
3746.176, 13572.37
3748.104, 13572.47
3750.032, 13668.33
3751.961, 13706.74
3753.889, 13631.64
3755.818, 13609.76
3757.746, 13638.76
3759.675, 13624.29
3761.603, 13606.00
3763.532, 13628.21
3765.460, 13654.31
3767.389, 13677.33
3769.317, 13658.69
3771.246, 13625.95
3773.174, 13739.45
3775.103, 13855.16
3777.031, 13825.35
3778.959, 13815.98
3780.888, 13861.24
3782.816, 13881.47
3784.745, 13878.87
3786.673, 13851.11
3788.602, 13834.18
3790.530, 13873.40
3792.459, 13875.87
3794.387, 13831.79
3796.316, 13800.39
3798.244, 13793.23
3800.173, 13855.32
3802.101, 13910.13
3804.030, 13912.66
3805.958, 13900.08
3807.886, 13882.38
3809.815, 13930.83
3811.743, 13995.25
3813.672, 14009.30
3815.600, 14006.32
3817.529, 13996.48
3819.457, 13967.94
3821.386, 13933.52
3823.314, 13954.23
3825.243, 13985.47
3827.171, 13982.35
3829.100, 13999.08
3831.028, 14050.21
3832.957, 14098.78
3834.885, 14137.92
3836.813, 14152.05
3838.742, 14154.78
3840.670, 14151.94
3842.599, 14140.21
3844.527, 14123.80
3846.456, 14190.18
3848.384, 14254.45
3850.313, 14164.00
3852.241, 14120.27
3854.170, 14208.50
3856.098, 14233.57
3858.027, 14229.81
3859.955, 14278.60
3861.884, 14325.51
3863.812, 14324.63
3865.740, 14336.40
3867.669, 14375.46
3869.597, 14431.10
3871.526, 14485.21
3873.454, 14507.18
3875.383, 14538.19
3877.311, 14596.75
3879.240, 14656.23
3881.168, 14705.49
3883.097, 14731.16
3885.025, 14766.54
3886.954, 14825.73
3888.882, 14883.76
3890.811, 14939.88
3892.739, 14984.29
3894.667, 15016.73
3896.596, 15032.27
3898.524, 15069.56
3900.453, 15129.29
3902.381, 15159.04
3904.310, 15182.56
3906.238, 15210.88
3908.167, 15238.29
3910.095, 15277.48
3912.024, 15359.97
3913.952, 15487.72
3915.881, 15548.16
3917.809, 15574.52
3919.738, 15600.49
3921.666, 15634.90
3923.594, 15702.56
3925.523, 15744.97
3927.451, 15765.31
3929.380, 15803.17
3931.308, 15818.99
3933.237, 15828.90
3935.165, 15858.16
3937.094, 15885.06
3939.022, 15973.09
3940.951, 16046.43
3942.879, 16012.39
3944.808, 16001.07
3946.736, 16062.09
3948.665, 16125.60
3950.593, 16166.00
3952.521, 16174.79
3954.450, 16215.57
3956.378, 16299.99
3958.307, 16371.42
3960.235, 16398.81
3962.164, 16402.70
3964.092, 16417.53
3966.021, 16454.31
3967.949, 16519.52
3969.878, 16582.64
3971.806, 16625.13
3973.735, 16687.40
3975.663, 16769.87
3977.592, 16819.63
3979.520, 16843.42
3981.448, 16836.26
3983.377, 16850.60
3985.305, 16933.62
3987.234, 16995.31
3989.162, 17005.21
3991.091, 17037.26
3993.019, 17100.86
3994.948, 17147.31
3996.876, 17137.51
3998.805, 17135.25
4000.733, 17198.60
4002.662, 17259.72
4004.590, 17296.83
4006.519, 17347.45
4008.447, 17399.10
4010.375, 17445.15
4012.304, 17479.63
4014.232, 17501.54
4016.161, 17549.20
4018.089, 17603.54
4020.018, 17661.04
4021.946, 17713.91
4023.875, 17721.97
4025.803, 17734.64
4027.732, 17778.33
4029.660, 17835.08
4031.589, 17892.99
4033.517, 17923.27
4035.446, 17951.75
4037.374, 18007.80
4039.302, 18007.44
4041.231, 17970.45
4043.159, 18085.85
4045.088, 18211.63
4047.016, 18250.90
4048.945, 18253.46
4050.873, 18229.44
4052.802, 18196.30
4054.730, 18199.01
4056.659, 18297.33
4058.587, 18381.21
4060.516, 18436.56
4062.444, 18493.61
4064.373, 18539.09
4066.301, 18563.05
4068.229, 18576.37
4070.158, 18579.28
4072.086, 18598.18
4074.015, 18642.08
4075.943, 18760.82
4077.872, 18824.07
4079.800, 18768.63
4081.729, 18788.93
4083.657, 18850.28
4085.586, 18879.01
4087.514, 18920.01
4089.443, 18965.35
4091.371, 19012.66
4093.300, 19066.75
4095.228, 19096.77
4097.157, 19087.79
4099.085, 19097.38
4101.014, 19124.71
4102.942, 19155.43
4104.871, 19235.63
4106.799, 19314.41
4108.728, 19341.71
4110.656, 19378.56
4112.584, 19415.42
4114.513, 19445.43
4116.441, 19481.74
4118.370, 19491.90
4120.298, 19475.56
4122.227, 19448.89
4124.155, 19503.31
4126.083, 19586.25
4128.012, 19649.63
4129.940, 19715.18
4131.869, 19765.97
4133.797, 19789.69
4135.726, 19810.88
4137.654, 19796.25
4139.583, 19796.25
4141.511, 19857.57
4143.440, 19921.28
4145.368, 19957.83
4147.297, 19972.49
4149.225, 20005.74
4151.154, 20040.88
4153.082, 20078.14
4155.011, 20119.88
4156.939, 20138.45
4158.868, 20162.30
4160.796, 20234.61
4162.725, 20227.64
4164.653, 20192.16
4166.582, 20335.58
4168.510, 20460.14
4170.438, 20472.64
4172.367, 20508.69
4174.295, 20563.34
4176.224, 20523.23
4178.152, 20479.14
4180.081, 20508.30
4182.009, 20545.67
4183.938, 20590.67
4185.866, 20660.41
4187.794, 20704.75
4189.723, 20695.08
4191.651, 20712.69
4193.580, 20757.08
4195.508, 20880.91
4197.437, 20955.59
4199.365, 20847.33
4201.294, 20895.12
4203.222, 21038.24
4205.151, 21043.83
4207.079, 21043.81
4209.008, 21107.55
4210.936, 21106.86
4212.865, 21083.56
4214.793, 21195.67
4216.722, 21313.25
4218.650, 21405.51
4220.579, 21365.09
4222.507, 21260.46
4224.436, 21281.69
4226.364, 21330.25
4228.292, 21371.41
4230.221, 21432.92
4232.149, 21489.22
4234.078, 21492.03
4236.006, 21503.88
4237.935, 21542.78
4239.863, 21582.16
4241.792, 21618.54
4243.720, 21631.78
4245.648, 21693.28
4247.577, 21826.66
4249.505, 21774.97
4251.434, 21685.74
4253.362, 21729.34
4255.291, 21802.80
4257.219, 21889.33
4259.148, 21861.38
4261.076, 21817.57
4263.005, 21876.49
4264.933, 21881.75
4266.862, 21832.73
4268.790, 21828.35
4270.719, 21848.28
4272.647, 21890.68
4274.576, 21898.11
4276.504, 21877.20
4278.433, 21851.93
4280.361, 21861.42
4282.290, 21962.80
4284.218, 21957.54
4286.146, 21895.37
4288.075, 21868.01
4290.003, 21886.95
4291.932, 21967.88
4293.860, 22011.49
4295.789, 22012.18
4297.717, 21924.76
4299.646, 21903.48
4301.574, 21975.42
4303.502, 21967.32
4305.431, 21952.23
4307.359, 22014.74
4309.288, 22045.04
4311.216, 22038.88
4313.145, 22012.37
4315.073, 22007.63
4317.002, 22062.55
4318.930, 22096.07
4320.859, 22087.19
4322.787, 21926.81
4324.716, 21869.39
4326.644, 22022.40
4328.573, 22008.65
4330.501, 21955.49
4332.430, 22051.31
4334.358, 22074.54
4336.287, 22000.29
4338.215, 22065.35
4340.144, 22141.74
4342.072, 22144.15
4344.000, 22092.70
4345.929, 22029.43
4347.857, 22103.28
4349.786, 22160.84
4351.714, 22148.81
4353.643, 22134.51
4355.571, 22118.81
4357.500, 22093.14
4359.428, 22058.24
4361.356, 22023.99
4363.285, 22126.43
4365.213, 22162.81
4367.142, 21901.37
4369.070, 21945.21
4370.999, 22168.88
4372.927, 22054.12
4374.856, 21987.91
4376.784, 22147.59
4378.713, 22089.04
4380.641, 21967.79
4382.570, 21992.96
4384.498, 22079.76
4386.427, 22195.09
4388.355, 22159.17
4390.284, 22080.24
4392.212, 22002.08
4394.141, 22008.12
4396.069, 22081.31
4397.998, 22228.84
4399.926, 22293.08
4401.854, 22237.92
4403.783, 22197.87
4405.711, 22173.51
4407.640, 22162.12
4409.568, 22168.38
4411.497, 22177.78
4413.425, 22136.86
4415.354, 22099.19
4417.282, 22084.05
4419.210, 22129.27
4421.139, 22195.17
4423.067, 22259.03
4424.996, 22228.70
4426.924, 22128.44
4428.853, 22168.31
4430.781, 22207.22
4432.710, 22152.55
4434.638, 22116.99
4436.567, 22135.77
4438.495, 22335.95
4440.424, 22357.50
4442.352, 22174.39
4444.281, 22206.40
4446.209, 22254.65
4448.138, 22208.43
4450.066, 22225.14
4451.995, 22273.24
4453.923, 22296.16
4455.852, 22272.58
4457.780, 22207.78
4459.708, 22145.42
4461.637, 22113.98
4463.565, 22121.37
4465.494, 22235.88
4467.422, 22370.05
4469.351, 22345.19
4471.279, 22317.03
4473.208, 22314.10
4475.136, 22288.71
4477.064, 22272.91
4478.993, 22286.14
4480.921, 22284.56
4482.850, 22291.97
4484.778, 22387.06
4486.707, 22384.57
4488.635, 22293.54
4490.564, 22360.33
4492.492, 22402.42
4494.421, 22282.78
4496.349, 22318.75
4498.278, 22405.62
4500.206, 22381.86
4502.135, 22328.82
4504.063, 22270.95
4505.992, 22292.04
4507.920, 22330.84
4509.849, 22365.94
4511.777, 22354.58
4513.706, 22292.38
4515.634, 22128.37
4517.563, 22115.34
4519.491, 22210.27
4521.419, 22228.81
4523.348, 22235.06
4525.276, 22250.86
4527.205, 22227.10
4529.133, 22208.25
4531.062, 22228.00
4532.990, 22254.50
4534.918, 22294.80
4536.847, 22394.55
4538.775, 22422.93
4540.704, 22381.56
4542.632, 22418.82
4544.561, 22422.95
4546.489, 22324.50
4548.418, 22294.40
4550.346, 22302.36
4552.275, 22319.99
4554.203, 22330.17
4556.132, 22328.93
4558.060, 22288.87
4559.989, 22286.93
4561.917, 22329.27
4563.846, 22280.65
4565.774, 22256.67
4567.703, 22340.22
4569.631, 22432.38
4571.560, 22485.09
4573.488, 22387.69
4575.417, 22396.56
4577.345, 22487.38
4579.273, 22436.61
4581.202, 22365.17
4583.130, 22313.95
4585.059, 22355.97
4586.987, 22399.01
4588.916, 22382.39
4590.844, 22315.02
4592.772, 22264.96
4594.701, 22379.84
4596.629, 22386.91
4598.558, 22305.29
4600.486, 22349.73
4602.415, 22370.78
4604.343, 22338.93
4606.272, 22440.33
4608.200, 22522.84
4610.129, 22465.52
4612.057, 22480.89
4613.986, 22497.01
4615.914, 22383.81
4617.843, 22356.68
4619.771, 22398.18
4621.700, 22393.14
4623.628, 22393.68
4625.557, 22415.18
4627.485, 22505.42
4629.414, 22563.26
4631.342, 22528.85
4633.271, 22458.77
4635.199, 22402.68
4637.127, 22409.50
4639.056, 22436.77
4640.984, 22458.12
4642.913, 22418.11
4644.841, 22405.24
4646.770, 22427.20
4648.698, 22461.05
4650.626, 22528.83
4652.555, 22637.36
4654.483, 22560.51
4656.412, 22484.20
4658.340, 22505.41
4660.269, 22404.35
4662.197, 22334.12
4664.126, 22499.39
4666.054, 22564.69
4667.983, 22559.85
4669.911, 22596.83
4671.840, 22554.92
4673.768, 22449.31
4675.697, 22368.25
4677.625, 22372.41
4679.554, 22457.22
4681.482, 22402.49
4683.411, 22387.87
4685.339, 22520.41
4687.268, 22517.87
4689.196, 22454.24
4691.125, 22377.37
4693.053, 22372.70
4694.981, 22408.67
4696.910, 22459.92
4698.838, 22431.26
4700.767, 22369.48
4702.695, 22418.55
4704.624, 22404.96
4706.552, 22340.15
4708.480, 22436.50
4710.409, 22493.04
4712.337, 22449.60
4714.266, 22357.86
4716.194, 22306.64
4718.123, 22338.69
4720.051, 22403.63
4721.980, 22442.40
4723.908, 22408.60
4725.837, 22439.52
4727.765, 22457.03
4729.694, 22329.34
4731.622, 22270.15
4733.551, 22265.82
4735.479, 22269.23
4737.408, 22294.90
4739.336, 22336.99
4741.265, 22381.07
4743.193, 22423.28
4745.122, 22453.01
4747.050, 22374.11
4748.979, 22353.51
4750.907, 22418.14
4752.835, 22438.22
4754.764, 22427.43
4756.692, 22396.32
4758.621, 22321.61
4760.549, 22292.62
4762.478, 22365.44
4764.406, 22320.72
4766.334, 22272.69
4768.263, 22367.39
4770.191, 22363.36
4772.120, 22307.07
4774.048, 22251.55
4775.977, 22284.97
4777.905, 22338.23
4779.834, 22236.54
4781.762, 22328.35
4783.691, 22509.72
4785.619, 22418.15
4787.548, 22369.04
4789.476, 22382.16
4791.405, 22337.83
4793.333, 22293.24
4795.262, 22266.18
4797.190, 22283.13
4799.119, 22322.31
4801.047, 22368.43
4802.976, 22353.43
4804.904, 22323.68
4806.833, 22300.16
4808.761, 22346.68
4810.689, 22374.08
4812.618, 22344.31
4814.546, 22371.41
4816.475, 22355.84
4818.403, 22212.50
4820.332, 22233.71
4822.260, 22320.03
4824.188, 22407.59
4826.117, 22345.38
4828.045, 22244.81
4829.974, 22194.09
4831.902, 22221.42
4833.831, 22271.30
4835.759, 22295.67
4837.688, 22258.80
4839.616, 22212.56
4841.545, 22236.58
4843.473, 22172.65
4845.402, 22121.62
4847.330, 22241.43
4849.259, 22325.63
4851.187, 22358.88
4853.116, 22360.40
4855.044, 22273.59
4856.973, 22184.97
4858.901, 22277.26
4860.830, 22264.86
4862.758, 22183.91
4864.687, 22159.26
4866.615, 22187.47
4868.543, 22239.38
4870.472, 22259.36
4872.400, 22273.01
4874.329, 22270.39
4876.257, 22179.90
4878.186, 22229.21
4880.114, 22347.33
4882.042, 22250.49
4883.971, 22243.02
4885.899, 22286.00
4887.828, 22070.02
4889.756, 22087.84
4891.685, 22262.31
4893.613, 22158.62
4895.542, 22108.71
4897.470, 22144.95
4899.399, 22218.91
4901.327, 22181.73
4903.256, 22088.86
4905.184, 22183.39
4907.113, 22139.27
4909.041, 22004.26
4910.970, 22079.52
4912.898, 22110.23
4914.827, 22095.03
4916.755, 22170.45
4918.684, 22136.27
4920.612, 22044.60
4922.541, 22134.33
4924.469, 22124.35
4926.397, 22054.19
4928.326, 22134.48
4930.254, 22191.33
4932.183, 22196.83
4934.111, 22120.81
4936.040, 22079.59
4937.968, 22086.34
4939.896, 22149.63
4941.825, 22163.47
4943.753, 22133.68
4945.682, 22077.27
4947.610, 22057.42
4949.539, 22059.01
4951.467, 22053.85
4953.396, 22016.86
4955.324, 22001.46
4957.253, 22117.14
4959.181, 22084.43
4961.110, 22026.71
4963.038, 22127.61
4964.967, 22107.30
4966.895, 22031.19
4968.824, 21977.28
4970.752, 21897.65
4972.681, 21851.08
4974.609, 21921.13
4976.538, 21882.76
4978.466, 21868.53
4980.395, 21966.45
4982.323, 21897.62
4984.251, 21822.04
4986.180, 21841.74
4988.108, 21886.10
4990.037, 21950.20
4991.965, 22024.44
4993.894, 21919.25
4995.822, 21844.05
4997.750, 21860.50
4999.679, 21836.63
5001.607, 21836.92
5003.536, 21862.26
5005.464, 21749.56
5007.393, 21747.53
5009.321, 21846.88
5011.250, 21831.00
5013.178, 21752.91
5015.107, 21678.53
5017.035, 21742.37
5018.964, 21862.45
5020.892, 21959.24
5022.821, 21918.34
5024.749, 21785.72
5026.678, 21679.54
5028.606, 21763.47
5030.535, 21794.20
5032.463, 21790.16
5034.392, 21779.67
5036.320, 21801.44
5038.249, 21783.31
5040.177, 21683.02
5042.105, 21656.49
5044.034, 21723.06
5045.962, 21880.38
5047.891, 21816.23
5049.819, 21760.73
5051.748, 21769.01
5053.676, 21637.88
5055.604, 21624.02
5057.533, 21715.54
5059.461, 21665.98
5061.390, 21676.36
5063.318, 21722.06
5065.247, 21680.65
5067.175, 21601.19
5069.104, 21562.25
5071.032, 21677.73
5072.961, 21631.60
5074.889, 21557.82
5076.818, 21614.70
5078.746, 21630.86
5080.675, 21635.10
5082.603, 21644.10
5084.532, 21688.80
5086.460, 21692.50
5088.389, 21628.35
5090.317, 21481.20
5092.246, 21450.59
5094.174, 21533.51
5096.103, 21593.97
5098.031, 21548.01
5099.959, 21463.92
5101.888, 21474.12
5103.816, 21475.25
5105.745, 21480.49
5107.673, 21527.13
5109.602, 21505.80
5111.530, 21446.50
5113.458, 21375.32
5115.387, 21390.33
5117.315, 21393.05
5119.244, 21351.87
5121.172, 21288.46
5123.101, 21276.67
5125.029, 21301.07
5126.958, 21251.58
5128.886, 21305.67
5130.815, 21376.91
5132.743, 21299.62
5134.672, 21306.83
5136.600, 21316.23
5138.529, 21225.20
5140.457, 21289.92
5142.386, 21273.40
5144.314, 21098.13
5146.243, 21052.53
5148.171, 21103.44
5150.100, 21194.24
5152.028, 21164.00
5153.957, 21272.48
5155.885, 21398.44
5157.813, 21278.67
5159.742, 21133.50
5161.670, 21068.75
5163.599, 21147.45
5165.527, 21093.03
5167.456, 21078.91
5169.384, 21168.58
5171.313, 21143.29
5173.241, 21111.00
5175.169, 21105.11
5177.098, 21143.44
5179.026, 21137.28
5180.955, 21128.72
5182.883, 21193.78
5184.812, 21148.35
5186.740, 21096.87
5188.669, 21117.68
5190.597, 21078.90
5192.526, 21061.33
5194.454, 21073.68
5196.383, 21051.67
5198.311, 20972.20
5200.240, 20905.68
5202.168, 20989.97
5204.097, 21022.97
5206.025, 21013.15
5207.954, 20976.28
5209.882, 20856.66
5211.811, 20834.96
5213.739, 20933.26
5215.667, 20938.13
5217.596, 20969.61
5219.524, 20996.58
5221.453, 20902.55
5223.381, 20824.10
5225.310, 20824.99
5227.238, 20952.18
5229.167, 20884.32
5231.095, 20869.94
5233.023, 20943.38
5234.952, 20802.25
5236.880, 20692.60
5238.809, 20653.89
5240.737, 20682.48
5242.666, 20669.25
5244.594, 20705.91
5246.523, 20852.12
5248.451, 20768.07
5250.380, 20715.09
5252.308, 20732.21
5254.237, 20598.84
5256.165, 20588.86
5258.094, 20633.77
5260.022, 20561.40
5261.951, 20632.03
5263.879, 20663.34
5265.808, 20567.86
5267.736, 20519.99
5269.665, 20569.16
5271.593, 20646.63
5273.521, 20557.42
5275.450, 20512.41
5277.378, 20502.91
5279.307, 20507.65
5281.235, 20496.35
5283.164, 20468.81
5285.092, 20438.51
5287.021, 20465.30
5288.949, 20474.01
5290.877, 20461.66
5292.806, 20444.92
5294.734, 20350.64
5296.663, 20295.09
5298.591, 20331.69
5300.520, 20305.08
5302.448, 20358.05
5304.377, 20426.16
5306.305, 20321.87
5308.234, 20252.54
5310.162, 20235.72
5312.091, 20262.80
5314.019, 20235.47
5315.948, 20223.00
5317.876, 20243.68
5319.805, 20291.70
5321.733, 20354.18
5323.662, 20361.68
5325.590, 20266.30
5327.519, 20272.09
5329.447, 20179.75
5331.375, 20012.09
5333.304, 20086.96
5335.232, 20164.29
5337.161, 20163.25
5339.089, 20021.10
5341.018, 20032.50
5342.946, 20113.80
5344.875, 20185.56
5346.803, 20085.26
5348.731, 20052.81
5350.660, 20038.28
5352.588, 19951.13
5354.517, 19957.61
5356.445, 20005.51
5358.374, 20051.78
5360.302, 20040.96
5362.231, 19954.09
5364.159, 19849.58
5366.088, 19785.11
5368.016, 19733.98
5369.945, 19757.32
5371.873, 19815.07
5373.802, 19665.00
5375.730, 19745.84
5377.659, 19845.38
5379.587, 19711.03
5381.516, 19742.49
5383.444, 19745.45
5385.373, 19694.35
5387.301, 19681.17
5389.229, 19710.92
5391.158, 19683.70
5393.086, 19538.88
5395.015, 19450.42
5396.943, 19383.93
5398.872, 19381.64
5400.800, 19630.58
5402.729, 19522.98
5404.657, 19423.51
5406.585, 19531.15
5408.514, 19578.43
5410.442, 19501.03
5412.371, 19424.89
5414.299, 19540.88
5416.228, 19420.10
5418.156, 19339.95
5420.085, 19386.86
5422.013, 19355.35
5423.942, 19299.80
5425.870, 19272.65
5427.799, 19311.51
5429.727, 19375.52
5431.656, 19379.54
5433.584, 19316.98
5435.513, 19200.98
5437.441, 19258.74
5439.370, 19281.71
5441.298, 19155.51
5443.227, 19106.17
5445.155, 19133.25
5447.083, 19181.47
5449.012, 19184.38
5450.940, 19247.47
5452.869, 19242.70
5454.797, 19148.63
5456.726, 19019.56
5458.654, 19014.40
5460.583, 19001.54
5462.511, 18901.10
5464.440, 18987.14
5466.368, 18989.46
5468.297, 18940.51
5470.225, 18970.52
5472.154, 18991.31
5474.082, 19042.68
5476.011, 19080.32
5477.939, 18924.10
5479.868, 18871.46
5481.796, 18865.97
5483.725, 18846.55
5485.653, 18847.48
5487.582, 18797.63
5489.510, 18741.57
5491.438, 18755.75
5493.367, 18788.54
5495.295, 18760.57
5497.224, 18696.98
5499.152, 18723.68
5501.081, 18638.42
5503.009, 18593.28
5504.938, 18649.91
5506.866, 18666.37
5508.794, 18618.94
5510.723, 18505.06
5512.651, 18334.58
5514.580, 18389.96
5516.508, 18483.81
5518.437, 18548.79
5520.365, 18564.80
5522.294, 18536.56
5524.222, 18516.92
5526.151, 18512.21
5528.079, 18485.62
5530.008, 18487.99
5531.936, 18448.91
5533.865, 18346.87
5535.793, 18260.98
5537.722, 18293.08
5539.650, 18353.76
5541.579, 18358.26
5543.507, 18308.36
5545.436, 18233.16
5547.364, 18177.82
5549.292, 18191.25
5551.221, 18235.64
5553.149, 18180.14
5555.078, 18086.59
5557.006, 18144.07
5558.935, 18055.15
5560.863, 18037.15
5562.792, 18122.81
5564.720, 18080.62
5566.648, 18066.11
5568.577, 18041.62
5570.505, 17993.65
5572.434, 18043.47
5574.362, 18034.19
5576.291, 17982.38
5578.219, 17925.96
5580.148, 17942.65
5582.076, 17839.42
5584.005, 17765.14
5585.933, 17875.11
5587.862, 17823.36
5589.790, 17771.59
5591.719, 17777.11
5593.647, 17856.12
5595.576, 17884.58
5597.504, 17821.86
5599.433, 17715.52
5601.361, 17650.46
5603.290, 17656.22
5605.218, 17664.92
5607.146, 17654.90
5609.075, 17641.15
5611.003, 17551.58
5612.932, 17482.09
5614.860, 17480.17
5616.789, 17563.71
5618.717, 17513.68
5620.646, 17474.59
5622.574, 17477.04
5624.502, 17321.61
5626.431, 17368.32
5628.359, 17420.52
5630.288, 17375.08
5632.216, 17306.57
5634.145, 17338.94
5636.073, 17323.01
5638.002, 17213.91
5639.930, 17240.53
5641.859, 17215.63
5643.787, 17233.08
5645.716, 17323.12
5647.644, 17278.51
5649.573, 17206.26
5651.501, 17144.96
5653.430, 17114.91
5655.358, 17151.68
5657.287, 17160.96
5659.215, 17169.08
5661.144, 17185.22
5663.072, 17092.23
5665.000, 17070.51
5666.929, 17082.05
5668.857, 17083.02
5670.786, 17046.06
5672.714, 17051.65
5674.643, 17047.64
5676.571, 17015.11
5678.500, 17098.18
5680.428, 17013.16
5682.356, 16913.03
5684.285, 16899.35
5686.213, 16867.67
5688.142, 16869.01
5690.070, 16864.78
5691.999, 16832.66
5693.927, 16772.98
5695.856, 16839.84
5697.784, 16839.15
5699.713, 16722.53
5701.641, 16719.80
5703.570, 16674.88
5705.498, 16666.84
5707.427, 16692.47
5709.355, 16609.57
5711.284, 16648.38
5713.212, 16623.27
5715.141, 16527.37
5717.069, 16516.01
5718.998, 16587.55
5720.926, 16549.91
5722.854, 16458.46
5724.783, 16509.24
5726.711, 16432.53
5728.640, 16399.52
5730.568, 16402.98
5732.497, 16357.79
5734.425, 16328.47
5736.354, 16307.20
5738.282, 16287.80
5740.210, 16266.79
5742.139, 16206.98
5744.067, 16144.03
5745.996, 16122.58
5747.924, 16157.91
5749.853, 16115.67
5751.781, 16153.35
5753.710, 16160.90
5755.638, 16099.34
5757.567, 16174.30
5759.495, 16087.61
5761.424, 16061.42
5763.352, 16131.12
5765.281, 16075.07
5767.209, 16065.86
5769.138, 16020.04
5771.066, 15943.65
5772.995, 15903.68
5774.923, 15914.59
5776.852, 15993.30
5778.780, 16042.18
5780.708, 15968.58
5782.637, 16031.92
5784.565, 16011.38
5786.494, 15940.55
5788.422, 15891.24
5790.351, 15964.92
5792.279, 15925.62
5794.208, 15778.78
5796.136, 15632.12
5798.064, 15734.21
5799.993, 15752.42
5801.921, 15747.97
5803.850, 15749.45
5805.778, 15748.44
5807.707, 15645.81
5809.635, 15618.77
5811.564, 15627.14
5813.492, 15598.75
5815.421, 15600.01
5817.349, 15538.03
5819.278, 15545.89
5821.206, 15642.58
5823.135, 15628.73
5825.063, 15435.29
5826.992, 15413.44
5828.920, 15526.57
5830.849, 15496.14
5832.777, 15458.13
5834.706, 15392.64
5836.634, 15340.51
5838.563, 15344.27
5840.491, 15492.90
5842.419, 15410.10
5844.348, 15297.16
5846.276, 15271.59
5848.205, 15271.05
5850.133, 15322.16
5852.062, 15318.95
5853.990, 15269.01
5855.918, 15225.87
5857.847, 15109.09
5859.775, 15097.39
5861.704, 15110.32
5863.632, 15083.06
5865.561, 15083.66
5867.489, 14994.45
5869.418, 15008.80
5871.346, 15072.41
5873.275, 15002.24
5875.203, 15047.56
5877.132, 14958.60
5879.060, 14905.06
5880.989, 15000.51
5882.917, 14987.00
5884.846, 14951.87
5886.774, 14922.99
5888.703, 14886.64
5890.631, 14813.12
5892.560, 14876.24
5894.488, 14905.90
5896.417, 14844.06
5898.345, 14713.30
5900.273, 14663.21
5902.202, 14716.81
5904.130, 14699.78
5906.059, 14642.33
5907.987, 14710.16
5909.916, 14754.58
5911.844, 14762.80
5913.772, 14686.71
5915.701, 14555.47
5917.629, 14608.61
5919.558, 14604.17
5921.486, 14621.63
5923.415, 14622.33
5925.343, 14513.54
5927.272, 14447.38
5929.200, 14410.45
5931.129, 14429.37
5933.057, 14462.01
5934.986, 14371.97
5936.914, 14329.41
5938.843, 14329.39
5940.771, 14355.90
5942.700, 14374.09
5944.628, 14254.58
5946.557, 14212.99
5948.485, 14215.66
5950.414, 14244.11
5952.342, 14298.89
5954.271, 14172.89
5956.199, 14174.19
5958.127, 14176.45
5960.056, 14109.63
5961.984, 14087.50
5963.913, 14095.67
5965.841, 14123.29
5967.770, 14137.15
5969.698, 14127.93
5971.626, 14179.29
5973.555, 14121.11
5975.483, 13993.06
5977.412, 13940.33
5979.340, 14060.49
5981.269, 13987.37
5983.197, 14010.40
5985.126, 13961.36
5987.054, 13862.51
5988.983, 13930.35
5990.911, 13935.34
5992.840, 13889.52
5994.768, 13830.06
5996.697, 13795.48
5998.625, 13840.02
6000.554, 13775.60
6002.482, 13716.74
6004.411, 13738.73
6006.339, 13808.65
6008.268, 13640.68
6010.196, 13634.47
6012.125, 13590.99
6014.053, 13570.52
6015.981, 13664.41
6017.910, 13626.04
6019.838, 13562.20
6021.767, 13505.48
6023.695, 13476.03
6025.624, 13477.81
6027.552, 13412.15
6029.480, 13400.49
6031.409, 13434.16
6033.337, 13437.34
6035.266, 13335.77
6037.194, 13402.84
6039.123, 13379.04
6041.051, 13322.04
6042.980, 13294.31
6044.908, 13319.98
6046.837, 13234.46
6048.765, 13139.01
6050.694, 13183.46
6052.622, 13281.32
6054.551, 13184.41
6056.479, 13025.64
6058.408, 13091.14
6060.336, 13111.25
6062.265, 13045.09
6064.193, 13098.92
6066.122, 13075.62
6068.050, 13058.28
6069.979, 13070.27
6071.907, 13064.09
6073.835, 12953.94
6075.764, 12931.61
6077.692, 12971.74
6079.621, 12933.90
6081.549, 12874.32
6083.478, 12968.93
6085.406, 12926.31
6087.334, 12952.34
6089.263, 12842.35
6091.191, 12730.59
6093.120, 12901.50
6095.048, 12810.96
6096.977, 12685.25
6098.905, 12713.14
6100.834, 12776.66
6102.762, 12697.88
6104.691, 12703.93
6106.619, 12697.72
6108.548, 12686.27
6110.476, 12694.48
6112.405, 12727.82
6114.333, 12759.95
6116.262, 12543.98
6118.190, 12494.70
6120.119, 12527.89
6122.047, 12515.27
6123.976, 12601.77
6125.904, 12583.01
6127.833, 12551.11
6129.761, 12544.38
6131.689, 12549.87
6133.618, 12526.06
6135.546, 12445.68
6137.475, 12359.31
6139.403, 12333.35
6141.332, 12344.82
6143.260, 12332.21
6145.188, 12436.06
6147.117, 12355.49
6149.045, 12316.40
6150.974, 12335.60
6152.902, 12331.39
6154.831, 12317.15
6156.759, 12226.23
6158.688, 12214.36
6160.616, 12213.75
6162.545, 12174.58
6164.473, 12160.13
6166.402, 12105.71
6168.330, 12123.76
6170.259, 12169.64
6172.187, 12208.26
6174.116, 12222.33
6176.044, 12074.37
6177.973, 12052.05
6179.901, 12040.94
6181.830, 12020.63
6183.758, 12023.39
6185.687, 12060.09
6187.615, 12002.46
6189.543, 11875.75
6191.472, 11853.87
6193.400, 11908.56
6195.329, 11875.43
6197.257, 11919.67
6199.186, 11840.95
6201.114, 11836.67
6203.042, 11848.13
6204.971, 11782.04
6206.899, 11743.27
6208.828, 11809.00
6210.756, 11723.52
6212.685, 11714.44
6214.613, 11781.34
6216.542, 11715.82
6218.470, 11639.80
6220.399, 11590.16
6222.327, 11688.77
6224.256, 11766.77
6226.184, 11705.22
6228.113, 11612.75
6230.041, 11618.34
6231.970, 11650.05
6233.898, 11572.31
6235.827, 11494.06
6237.755, 11539.98
6239.684, 11385.03
6241.612, 11381.29
6243.541, 11453.56
6245.469, 11425.75
6247.397, 11315.95
6249.326, 11289.10
6251.254, 11324.46
6253.183, 11355.32
6255.111, 11359.20
6257.040, 11369.90
6258.968, 11380.72
6260.896, 11319.44
6262.825, 11245.45
6264.753, 11247.33
6266.682, 11203.47
6268.610, 11154.70
6270.539, 11163.79
6272.467, 11169.29
6274.396, 11119.54
6276.324, 11072.20
6278.253, 11086.76
6280.181, 11097.35
6282.110, 11034.02
6284.038, 10970.55
6285.967, 10953.14
6287.895, 11054.26
6289.824, 11092.81
6291.752, 11049.78
6293.681, 11002.02
6295.609, 10901.84
6297.538, 11021.30
6299.466, 10956.12
6301.395, 10916.79
6303.323, 10955.64
6305.251, 10938.78
6307.180, 10837.26
6309.108, 10799.19
6311.037, 10782.79
6312.965, 10767.84
6314.894, 10759.38
6316.822, 10761.99
6318.750, 10738.78
6320.679, 10711.63
6322.607, 10749.68
6324.536, 10715.86
6326.464, 10639.83
6328.393, 10641.00
6330.321, 10727.70
6332.250, 10726.92
6334.178, 10600.12
6336.107, 10586.28
6338.035, 10612.65
6339.964, 10547.66
6341.892, 10537.22
6343.821, 10555.90
6345.749, 10477.98
6347.678, 10464.20
6349.606, 10503.94
6351.535, 10523.79
6353.463, 10515.85
6355.392, 10405.71
6357.320, 10405.49
6359.249, 10452.04
6361.177, 10417.97
6363.105, 10339.33
6365.034, 10375.27
6366.962, 10354.18
6368.891, 10451.28
6370.819, 10431.54
6372.748, 10334.64
6374.676, 10263.14
6376.604, 10251.62
6378.533, 10242.71
6380.461, 10261.32
6382.390, 10239.27
6384.318, 10216.13
6386.247, 10207.18
6388.175, 10216.37
6390.104, 10242.70
6392.032, 10109.49
6393.961, 10102.99
6395.889, 10121.23
6397.818, 10095.39
6399.746, 10055.96
6401.675, 10056.83
6403.603, 10061.19
6405.532, 10083.35
6407.460, 10069.67
6409.389, 9978.277
6411.317, 9940.984
6413.246, 10000.84
6415.174, 9994.438
6417.103, 9893.280
6419.031, 9951.587
6420.959, 9986.746
6422.888, 9921.216
6424.816, 9845.789
6426.745, 9838.669
6428.673, 9788.935
6430.602, 9724.549
6432.530, 9761.517
6434.458, 9770.099
6436.387, 9754.000
6438.315, 9746.999
6440.244, 9747.213
6442.172, 9781.903
6444.101, 9692.865
6446.029, 9799.325
6447.958, 9781.908
6449.886, 9640.438
6451.815, 9567.027
6453.743, 9643.533
6455.672, 9643.545
6457.600, 9611.369
6459.529, 9556.742
6461.457, 9552.026
6463.386, 9530.972
6465.314, 9470.365
6467.243, 9472.585
6469.171, 9476.826
6471.100, 9443.511
6473.028, 9455.162
6474.957, 9483.774
6476.885, 9444.081
6478.813, 9354.997
6480.742, 9354.956
6482.670, 9391.049
6484.599, 9371.725
6486.527, 9366.441
6488.456, 9306.660
6490.384, 9313.999
6492.313, 9397.163
6494.241, 9363.748
6496.169, 9298.396
6498.098, 9223.785
6500.026, 9250.851
6501.955, 9267.049
6503.883, 9274.720
6505.812, 9283.444
6507.740, 9255.245
6509.669, 9252.694
6511.597, 9200.185
6513.526, 9191.936
6515.454, 9182.861
6517.383, 9132.583
6519.311, 9129.406
6521.240, 9188.481
6523.168, 9066.484
6525.097, 9110.746
6527.025, 9069.867
6528.954, 9098.021
6530.882, 9075.939
6532.811, 9029.255
6534.739, 9032.153
6536.667, 9034.175
6538.596, 8973.591
6540.524, 8980.691
6542.453, 8948.354
6544.381, 8963.371
6546.310, 8999.142
6548.238, 8984.625
6550.167, 8916.455
6552.095, 8875.233
6554.023, 8996.264
6555.952, 8870.129
6557.880, 8859.765
6559.809, 8851.916
6561.737, 8837.913
6563.666, 8849.827
6565.594, 8829.399
6567.523, 8868.186
6569.451, 8854.936
6571.380, 8753.202
6573.308, 8801.955
6575.237, 8790.671
6577.165, 8706.793
6579.094, 8666.399
6581.022, 8645.528
6582.951, 8690.082
6584.879, 8595.720
6586.808, 8628.617
6588.736, 8635.701
6590.665, 8616.874
6592.593, 8600.491
6594.521, 8596.832
6596.450, 8637.514
6598.378, 8583.311
6600.307, 8605.117
6602.235, 8570.392
6604.164, 8612.117
6606.092, 8659.866
6608.021, 8608.725
6609.949, 8501.998
6611.877, 8485.044
6613.806, 8501.317
6615.734, 8466.129
6617.663, 8478.631
6619.591, 8433.071
6621.520, 8476.416
6623.448, 8464.241
6625.377, 8378.758
6627.305, 8443.368
6629.234, 8446.704
6631.162, 8412.518
##END=



