##NAMES=Tantalite-(Mn)
##RRUFFID=R060252
##IDEAL CHEMISTRY=Mn^2+^Ta_2_O_6_
##LOCALITY=Kohtokay mine, Xinjiang Autonomous Region, China
##OWNER=RRUFF
##SOURCE=William W. Pinch
##DESCRIPTION=Reddish-brown fragment
##STATUS=The identification of this mineral is confirmed by single-crystal X-ray diffraction and chemical analysis
##URL=https://www.rruff.net/odr/rruff_sample/R060252
##MEASURED CHEMISTRY=(Mn^2+^_0.93_Fe^2+^_0.07_)(Ta_1.44_Nb_0.56_)O_6_
##DIFFRACTION SAMPLE DESCRIPTION=Single crystal, powder profile is calculated
##CELL PARAMETERS=a: 14.404 b: 5.756 c: 5.086 alpha: 90 beta: 90 gamma: 90 volume: 421.7 crystal system: orthorhombic
##FILETYPE=Raman RAW
##RAMAN WAVELENGTH=780

82.74634, 0.0000000E+00
84.67480, 1558.324
86.60327, 1543.329
88.53174, 1615.839
90.46021, 1716.637
92.38867, 1839.859
94.31714, 1823.535
96.24561, 1879.768
98.17407, 1780.439
100.1025, 1706.771
102.0310, 1645.334
103.9595, 1630.778
105.8879, 1653.176
107.8164, 1722.724
109.7449, 1861.858
111.6733, 2060.440
113.6018, 2301.273
115.5303, 2590.458
117.4587, 2911.825
119.3872, 3330.083
121.3157, 3737.750
123.2441, 4034.444
125.1726, 4222.353
127.1011, 4176.944
129.0295, 3733.893
130.9580, 3251.030
132.8865, 2748.076
134.8149, 2289.656
136.7434, 1952.512
138.6719, 1723.555
140.6003, 1553.995
142.5288, 1464.681
144.4573, 1400.323
146.3857, 1354.076
148.3142, 1326.737
150.2427, 1318.020
152.1711, 1327.616
154.0996, 1359.648
156.0281, 1401.471
157.9565, 1492.543
159.8850, 1652.796
161.8135, 1848.720
163.7419, 2060.534
165.6704, 2288.308
167.5989, 2539.419
169.5273, 2840.706
171.4558, 3110.412
173.3843, 3440.176
175.3127, 3639.326
177.2412, 3535.593
179.1697, 3253.893
181.0981, 2974.167
183.0266, 2656.503
184.9551, 2466.462
186.8835, 2410.686
188.8120, 2459.189
190.7405, 2637.905
192.6689, 2897.819
194.5974, 3220.245
196.5259, 3627.267
198.4543, 3895.560
200.3828, 4066.100
202.3113, 4052.118
204.2397, 3743.567
206.1682, 3322.556
208.0967, 2882.042
210.0252, 2438.221
211.9536, 2089.131
213.8821, 1843.702
215.8106, 1660.969
217.7390, 1546.759
219.6675, 1483.594
221.5960, 1463.749
223.5244, 1483.010
225.4529, 1535.025
227.3814, 1621.933
229.3098, 1749.330
231.2383, 1920.793
233.1668, 2124.819
235.0952, 2410.740
237.0237, 2681.807
238.9522, 2883.404
240.8806, 3008.000
242.8091, 3000.894
244.7376, 2846.545
246.6660, 2691.453
248.5945, 2537.700
250.5230, 2434.978
252.4514, 2392.925
254.3799, 2417.591
256.3083, 2515.918
258.2368, 2689.858
260.1653, 2973.310
262.0938, 3418.427
264.0222, 3826.089
265.9507, 4209.938
267.8792, 4462.382
269.8076, 4472.670
271.7361, 4298.833
273.6646, 4089.893
275.5930, 3845.276
277.5215, 3617.675
279.4500, 3450.761
281.3784, 3242.943
283.3069, 2946.465
285.2354, 2613.636
287.1638, 2267.543
289.0923, 1927.673
291.0208, 1653.520
292.9492, 1451.045
294.8777, 1295.458
296.8062, 1193.627
298.7346, 1123.383
300.6631, 1083.591
302.5916, 1068.747
304.5200, 1074.761
306.4485, 1099.765
308.3770, 1139.087
310.3054, 1186.427
312.2339, 1267.306
314.1624, 1391.887
316.0908, 1536.967
318.0193, 1747.394
319.9478, 1934.487
321.8762, 2001.642
323.8047, 1957.119
325.7332, 1851.240
327.6616, 1641.932
329.5901, 1458.172
331.5186, 1299.969
333.4471, 1179.330
335.3755, 1109.358
337.3040, 1076.723
339.2325, 1068.434
341.1609, 1083.791
343.0894, 1110.756
345.0179, 1148.768
346.9463, 1200.443
348.8748, 1260.166
350.8033, 1340.508
352.7317, 1441.711
354.6602, 1572.042
356.5887, 1740.799
358.5171, 1946.722
360.4456, 2178.572
362.3741, 2450.239
364.3025, 2719.579
366.2310, 3006.020
368.1595, 3256.398
370.0879, 3443.427
372.0164, 3587.749
373.9449, 3678.044
375.8733, 3738.235
377.8018, 3850.928
379.7303, 4003.418
381.6587, 4286.437
383.5872, 4706.662
385.5157, 5247.327
387.4441, 5954.467
389.3726, 6727.122
391.3011, 7642.896
393.2295, 8524.701
395.1580, 9065.764
397.0865, 9244.922
399.0149, 8935.517
400.9434, 8051.227
402.8719, 7040.100
404.8003, 5885.796
406.7288, 4826.996
408.6573, 3941.945
410.5857, 3217.604
412.5142, 2659.566
414.4427, 2256.183
416.3711, 1945.583
418.2996, 1727.495
420.2281, 1554.291
422.1565, 1426.816
424.0850, 1326.701
426.0135, 1254.319
427.9419, 1198.373
429.8704, 1157.010
431.7989, 1125.894
433.7273, 1098.278
435.6558, 1074.500
437.5843, 1057.733
439.5127, 1049.413
441.4412, 1040.613
443.3697, 1028.278
445.2981, 1016.969
447.2266, 1004.825
449.1551, 997.0837
451.0835, 998.9825
453.0120, 1007.881
454.9405, 1018.306
456.8689, 1030.436
458.7974, 1046.896
460.7259, 1070.255
462.6543, 1090.492
464.5828, 1103.012
466.5113, 1116.883
468.4397, 1132.318
470.3682, 1152.823
472.2967, 1180.428
474.2251, 1215.834
476.1536, 1259.450
478.0821, 1311.417
480.0105, 1374.805
481.9390, 1452.258
483.8675, 1536.117
485.7959, 1626.606
487.7244, 1721.760
489.6529, 1823.975
491.5813, 1927.598
493.5098, 2026.810
495.4383, 2125.703
497.3667, 2228.209
499.2952, 2334.679
501.2237, 2454.587
503.1521, 2593.601
505.0806, 2733.572
507.0091, 2872.398
508.9375, 3016.445
510.8660, 3179.833
512.7944, 3332.322
514.7229, 3464.285
516.6514, 3568.113
518.5798, 3625.863
520.5083, 3646.191
522.4368, 3658.285
524.3652, 3652.305
526.2937, 3696.107
528.2222, 3784.252
530.1506, 3934.741
532.0791, 4160.352
534.0076, 4430.952
535.9360, 4791.205
537.8645, 5127.076
539.7930, 5426.159
541.7214, 5612.767
543.6499, 5545.988
545.5784, 5238.624
547.5068, 4781.990
549.4353, 4164.040
551.3638, 3578.346
553.2922, 3027.465
555.2207, 2557.771
557.1492, 2188.972
559.0776, 1897.156
561.0061, 1684.365
562.9346, 1522.905
564.8630, 1399.994
566.7915, 1308.156
568.7200, 1236.927
570.6484, 1185.883
572.5769, 1146.844
574.5054, 1119.876
576.4338, 1104.499
578.3624, 1100.115
580.2908, 1109.688
582.2193, 1139.419
584.1478, 1176.120
586.0762, 1217.667
588.0047, 1262.246
589.9332, 1309.809
591.8616, 1358.748
593.7901, 1402.826
595.7186, 1447.247
597.6470, 1506.513
599.5755, 1580.558
601.5040, 1661.589
603.4324, 1746.221
605.3609, 1849.608
607.2894, 1985.616
609.2178, 2124.273
611.1463, 2276.957
613.0748, 2409.834
615.0032, 2526.291
616.9317, 2596.397
618.8602, 2586.576
620.7886, 2512.456
622.7171, 2387.301
624.6456, 2221.275
626.5740, 2052.103
628.5025, 1877.916
630.4310, 1730.662
632.3594, 1614.122
634.2879, 1522.017
636.2164, 1460.497
638.1448, 1412.386
640.0733, 1390.210
642.0018, 1359.782
643.9302, 1302.052
645.8587, 1230.277
647.7872, 1150.699
649.7156, 1067.502
651.6441, 983.1667
653.5726, 900.2618
655.5010, 831.5276
657.4295, 777.4740
659.3580, 732.7302
661.2864, 699.3929
663.2149, 670.0057
665.1434, 643.9102
667.0718, 623.1488
669.0003, 609.3891
670.9288, 598.7161
672.8572, 590.2926
674.7857, 583.3881
676.7142, 576.2936
678.6426, 571.6345
680.5711, 572.9791
682.4996, 578.1183
684.4280, 582.9434
686.3565, 587.6042
688.2850, 592.9619
690.2134, 599.0176
692.1419, 605.4282
694.0704, 611.8820
695.9988, 620.9295
697.9273, 632.8664
699.8558, 647.6652
701.7842, 666.7863
703.7127, 685.7054
705.6412, 704.7250
707.5696, 720.4335
709.4981, 732.0272
711.4266, 738.8619
713.3550, 741.3028
715.2835, 737.9857
717.2120, 724.1817
719.1404, 703.8886
721.0689, 687.1287
722.9974, 673.3957
724.9258, 660.1476
726.8543, 647.4952
728.7828, 638.7262
730.7112, 634.8438
732.6397, 628.0967
734.5682, 614.3297
736.4966, 606.1038
738.4251, 609.6052
740.3536, 613.6928
742.2820, 616.1306
744.2105, 618.2450
746.1390, 620.9645
748.0674, 623.1840
749.9959, 623.7344
751.9244, 623.7665
753.8528, 624.1025
755.7813, 625.0782
757.7098, 628.4100
759.6382, 632.2991
761.5667, 630.9860
763.4952, 625.6330
765.4236, 625.1766
767.3521, 630.3545
769.2806, 632.8923
771.2090, 631.4763
773.1375, 630.3000
775.0660, 628.8089
776.9944, 628.9979
778.9229, 631.4694
780.8514, 634.8791
782.7798, 639.0510
784.7083, 644.0668
786.6368, 651.3826
788.5652, 657.5431
790.4937, 658.1381
792.4222, 659.8284
794.3506, 668.8130
796.2791, 680.3361
798.2076, 690.1038
800.1360, 699.3161
802.0645, 708.7289
803.9930, 719.4603
805.9214, 734.7000
807.8499, 754.0048
809.7784, 775.2184
811.7068, 798.3458
813.6353, 820.5681
815.5638, 840.7529
817.4922, 868.5205
819.4207, 904.2830
821.3492, 945.0585
823.2776, 990.4318
825.2061, 1042.002
827.1346, 1100.143
829.0630, 1163.513
830.9915, 1229.027
832.9200, 1306.582
834.8484, 1397.469
836.7769, 1504.894
838.7054, 1626.861
840.6339, 1770.868
842.5623, 1915.254
844.4908, 2114.414
846.4193, 2367.498
848.3477, 2732.769
850.2762, 3269.131
852.2047, 3943.435
854.1331, 4787.923
856.0616, 5693.603
857.9901, 6504.758
859.9185, 7222.773
861.8470, 7777.671
863.7755, 8258.850
865.7039, 8840.753
867.6324, 9602.857
869.5609, 10848.04
871.4893, 12589.40
873.4178, 14877.82
875.3463, 17711.72
877.2747, 21141.95
879.2032, 25238.75
881.1317, 28982.97
883.0601, 32676.29
884.9886, 33789.15
886.9171, 31684.70
888.8455, 28044.62
890.7740, 21952.33
892.7025, 16555.24
894.6309, 11994.12
896.5594, 8456.121
898.4879, 6233.514
900.4163, 4598.030
902.3448, 3562.132
904.2733, 2801.751
906.2017, 2302.612
908.1302, 1922.009
910.0587, 1632.429
911.9871, 1399.644
913.9156, 1218.480
915.8441, 1072.881
917.7725, 962.2770
919.7010, 872.3702
921.6295, 797.4064
923.5579, 733.4188
925.4864, 677.9847
927.4149, 631.0432
929.3433, 594.4517
931.2718, 564.5281
933.2003, 538.9523
935.1287, 516.0453
937.0572, 492.2772
938.9857, 470.5665
940.9141, 458.2003
942.8426, 450.0602
944.7711, 434.7459
946.6995, 415.8253
948.6280, 401.8689
950.5565, 391.8974
952.4849, 383.3898
954.4134, 376.0750
956.3419, 369.2747
958.2703, 362.6531
960.1988, 353.8104
962.1273, 343.3130
964.0557, 335.3556
965.9842, 329.6970
967.9127, 324.3441
969.8411, 319.2044
971.7696, 312.9077
973.6981, 308.0094
975.6265, 302.8992
977.5550, 297.3905
979.4835, 292.4271
981.4119, 287.4584
983.3404, 282.0703
985.2689, 276.9713
987.1973, 271.7315
989.1258, 266.3300
991.0543, 260.7880
992.9827, 256.5129
994.9112, 252.4510
996.8397, 248.3931
998.7681, 245.6524
1000.697, 242.4825
1002.625, 239.3351
1004.554, 236.1768
1006.482, 233.9575
1008.410, 233.0762
1010.339, 230.4167
1012.267, 228.0103
1014.196, 225.4773
1016.124, 221.6406
1018.053, 219.9288
1019.981, 215.2369
1021.910, 213.3561
1023.838, 216.2377
1025.767, 216.5228
1027.695, 212.5114
1029.624, 209.6496
1031.552, 208.5622
1033.480, 207.6510
1035.409, 207.0692
1037.337, 206.1700
1039.266, 205.2881
1041.194, 203.2790
1043.123, 198.3984
1045.051, 196.4386
1046.980, 198.9071
1048.908, 200.5889
1050.837, 200.8692
1052.765, 202.0129
1054.694, 204.4595
1056.622, 206.6082
1058.551, 208.9650
1060.479, 208.6239
1062.407, 204.0830
1064.336, 203.1397
1066.264, 207.0900
1068.193, 209.6475
1070.121, 210.5462
1072.050, 209.6736
1073.978, 211.8365
1075.907, 207.0832
1077.835, 212.6642
1079.764, 214.4923
1081.692, 211.9650
1083.621, 209.9854
1085.549, 208.7530
1087.478, 208.1097
1089.406, 208.0166
1091.335, 205.8112
1093.263, 205.4637
1095.192, 204.2612
1097.120, 202.5886
1099.048, 201.7131
1100.977, 198.3154
1102.905, 196.0674
1104.834, 194.8982
1106.762, 194.3455
1108.691, 194.0481
1110.619, 191.7983
1112.548, 190.6860
1114.476, 188.6800
1116.405, 186.4896
1118.333, 184.3108
1120.262, 181.1338
1122.190, 178.9539
1124.119, 177.5772
1126.047, 177.0746
1127.975, 176.7534
1129.904, 175.8319
1131.832, 173.7640
1133.761, 168.2920
1135.689, 162.4256
1137.618, 160.5903
1139.546, 160.4784
1141.475, 159.7157
1143.403, 158.8514
1145.332, 158.4450
1147.260, 158.1677
1149.189, 157.5185
1151.117, 157.1656
1153.046, 157.9034
1154.974, 158.6819
1156.902, 159.9608
1158.831, 159.3852
1160.759, 153.6968
1162.688, 149.0703
1164.616, 148.8526
1166.545, 149.0523
1168.473, 148.5966
1170.402, 147.5484
1172.330, 147.2156
1174.259, 146.4896
1176.187, 145.8409
1178.116, 145.7614
1180.044, 145.4205
1181.973, 146.1668
1183.901, 144.3647
1185.829, 145.9702
1187.758, 144.7445
1189.686, 143.3921
1191.615, 141.9900
1193.543, 140.9370
1195.472, 140.2313
1197.400, 139.9939
1199.329, 140.1482
1201.257, 139.6331
1203.186, 139.7659
1205.114, 138.8202
1207.043, 139.5245
1208.971, 139.6198
1210.900, 138.9331
1212.828, 136.2021
1214.756, 133.3555
1216.685, 133.1151
1218.613, 134.5604
1220.542, 138.6634
1222.470, 141.4206
1224.399, 137.5970
1226.327, 133.5792
1228.256, 133.6448
1230.184, 134.5096
1232.113, 135.2651
1234.041, 135.3957
1235.970, 133.7667
1237.898, 133.5237
1239.827, 136.8322
1241.755, 137.1695
1243.683, 132.5910
1245.612, 129.1933
1247.540, 127.7185
1249.469, 126.3294
1251.397, 124.9014
1253.326, 126.1213
1255.254, 125.0116
1257.183, 124.7873
1259.111, 125.2422
1261.040, 124.3943
1262.968, 125.3791
1264.897, 126.1120
1266.825, 126.5657
1268.754, 126.8677
1270.682, 126.7675
1272.610, 125.4744
1274.539, 124.4765
1276.467, 125.2778
1278.396, 126.2635
1280.324, 126.8320
1282.253, 126.6916
1284.181, 125.2661
1286.110, 124.1806
1288.038, 124.2057
1289.967, 123.7814
1291.895, 121.7844
1293.824, 122.3319
1295.752, 126.7869
1297.681, 127.6434
1299.609, 124.9402
1301.537, 123.9177
1303.466, 124.2203
1305.394, 123.9718
1307.323, 123.4195
1309.251, 122.9613
1311.180, 123.0775
1313.108, 125.3284
1315.037, 127.2603
1316.965, 126.0579
1318.894, 124.3610
1320.822, 123.2760
1322.751, 122.9884
1324.679, 124.3271
1326.608, 124.2482
1328.536, 121.2074
1330.464, 120.4854
1332.393, 123.2783
1334.321, 125.2184
1336.250, 125.7466
1338.178, 124.6087
1340.107, 122.2428
1342.035, 120.5470
1343.964, 119.6358
1345.892, 120.1645
1347.821, 120.8166
1349.749, 119.1014
1351.678, 117.5634
1353.606, 119.0609
1355.535, 120.8759
1357.463, 122.0451
1359.391, 121.7686
1361.320, 118.1978
1363.248, 116.6885
1365.177, 118.7096
1367.105, 119.6269
1369.034, 119.1030
1370.962, 117.5423
1372.891, 115.4290
1374.819, 117.1873
1376.748, 115.6013
1378.676, 118.8270
1380.605, 115.0940
1382.533, 114.5805
1384.462, 114.3793
1386.390, 110.0472
1388.318, 107.7246
1390.247, 113.7041
1392.175, 117.0047
1394.104, 112.0940
1396.032, 108.9905
1397.961, 109.4568
1399.889, 110.8499
1401.818, 113.1835
1403.746, 114.3389
1405.675, 114.7085
1407.603, 114.6165
1409.532, 113.9487
1411.460, 112.9994
1413.389, 112.1264
1415.317, 110.7761
1417.245, 110.1629
1419.174, 111.9281
1421.102, 112.7966
1423.031, 111.1485
1424.959, 111.1798
1426.888, 113.8451
1428.816, 115.6348
1430.745, 116.1241
1432.673, 113.9132
1434.602, 110.8197
1436.530, 113.1058
1438.459, 111.2398
1440.387, 114.3017
1442.316, 111.6132
1444.244, 112.9442
1446.172, 114.1046
1448.101, 113.1357
1450.029, 112.1654
1451.958, 111.7951
1453.886, 111.5219
1455.815, 111.4103
1457.743, 112.4954
1459.672, 113.8183
1461.600, 111.9378
1463.529, 108.9922
1465.457, 108.9721
1467.386, 109.6620
1469.314, 108.2494
1471.243, 107.7491
1473.171, 110.0299
1475.099, 112.0213
1477.028, 113.9767
1478.956, 113.9705
1480.885, 111.7682
1482.813, 111.0219
1484.742, 111.4127
1486.670, 109.7062
1488.599, 108.0879
1490.527, 111.2780
1492.456, 115.0200
1494.384, 116.1817
1496.313, 116.0079
1498.241, 114.4723
1500.170, 113.7005
1502.098, 113.9882
1504.026, 113.6082
1505.955, 113.2437
1507.883, 113.4406
1509.812, 112.9941
1511.740, 112.0801
1513.669, 112.4696
1515.597, 114.6915
1517.526, 115.8952
1519.454, 114.8410
1521.383, 114.5189
1523.311, 115.7595
1525.240, 114.3854
1527.168, 110.4651
1529.097, 109.8242
1531.025, 111.2657
1532.953, 112.0614
1534.882, 111.7366
1536.810, 108.6215
1538.739, 105.9724
1540.667, 105.3772
1542.596, 106.4038
1544.524, 108.4627
1546.453, 108.5141
1548.381, 108.6540
1550.310, 108.1381
1552.238, 106.7756
1554.167, 104.9048
1556.095, 101.9763
1558.024, 98.53494
1559.952, 97.22522
1561.880, 99.54790
1563.809, 100.6152
1565.737, 99.35460
1567.666, 99.09101
1569.594, 100.3896
1571.523, 101.0333
1573.451, 100.9808
1575.380, 99.65080
1577.308, 97.86565
1579.237, 97.37659
1581.165, 98.15778
1583.094, 97.46722
1585.022, 100.3922
1586.951, 98.07888
1588.879, 97.82354
1590.807, 98.60496
1592.736, 95.43679
1594.664, 92.37672
1596.593, 94.03734
1598.521, 96.33781
1600.450, 97.32554
1602.378, 96.61888
1604.307, 96.78799
1606.235, 93.62651
1608.164, 94.28886
1610.092, 91.44083
1612.021, 88.96244
1613.949, 91.00543
1615.878, 93.41893
1617.806, 94.60003
1619.734, 93.99119
1621.663, 94.77361
1623.591, 92.12596
1625.520, 93.33013
1627.448, 91.24084
1629.377, 88.74181
1631.305, 86.73697
1633.234, 85.95531
1635.162, 88.89259
1637.091, 90.33089
1639.019, 88.61510
1640.948, 88.12634
1642.876, 88.88547
1644.805, 88.97992
1646.733, 88.33580
1648.661, 85.64500
1650.590, 84.11819
1652.518, 85.51269
1654.447, 87.45964
1656.375, 89.77888
1658.304, 89.51099
1660.232, 87.25440
1662.161, 84.98006
1664.089, 83.38158
1666.018, 84.85044
1667.946, 86.50041
1669.875, 85.91557
1671.803, 85.86205
1673.732, 86.44620
1675.660, 86.38422
1677.589, 86.20020
1679.517, 85.68655
1681.445, 85.27939
1683.374, 86.10722
1685.302, 86.92065
1687.231, 86.67696
1689.159, 84.05746
1691.088, 81.57356
1693.016, 84.75191
1694.945, 87.49225
1696.873, 83.29668
1698.802, 80.98392
1700.730, 86.09297
1702.659, 88.36428
1704.587, 85.78687
1706.516, 83.79381
1708.444, 82.85631
1710.372, 86.50500
1712.301, 88.74070
1714.229, 86.67667
1716.158, 85.45963
1718.086, 84.80586
1720.015, 86.58916
1721.943, 86.58031
1723.872, 90.00331
1725.800, 88.57643
1727.729, 89.19672
1729.657, 89.44521
1731.586, 89.12044
1733.514, 89.07263
1735.443, 88.38432
1737.371, 88.28017
1739.299, 89.88997
1741.228, 92.51950
1743.156, 93.55876
1745.085, 91.77731
1747.013, 89.91020
1748.942, 88.96539
1750.870, 88.81194
1752.799, 89.16572
1754.727, 89.86824
1756.656, 89.33514
1758.584, 84.39754
1760.513, 81.73656
1762.441, 83.69897
1764.370, 84.28473
1766.298, 84.14610
1768.226, 84.56064
1770.155, 83.94366
1772.083, 83.15224
1774.012, 82.11591
1775.940, 80.17611
1777.869, 78.60738
1779.797, 76.58772
1781.726, 73.49980
1783.654, 71.71925
1785.583, 73.74626
1787.511, 75.33620
1789.440, 74.41248
1791.368, 72.65755
1793.297, 70.22391
1795.225, 69.12004
1797.153, 70.09170
1799.082, 68.34718
1801.010, 71.90016
1802.939, 68.04436
1804.867, 68.34971
1806.796, 70.25823
1808.724, 68.43254
1810.653, 68.11565
1812.581, 69.46944
1814.510, 67.99919
1816.438, 69.15569
1818.367, 66.98309
1820.295, 69.96609
1822.224, 70.99833
1824.152, 70.41615
1826.080, 70.34118
1828.009, 69.76286
1829.937, 67.62251
1831.866, 66.36745
1833.794, 66.31957
1835.723, 64.91492
1837.651, 64.72462
1839.580, 68.58550
1841.508, 70.07701
1843.437, 68.38251
1845.365, 65.64143
1847.294, 62.37916
1849.222, 64.77533
1851.151, 67.91344
1853.079, 65.68748
1855.007, 63.78493
1856.936, 64.52763
1858.864, 64.67339
1860.793, 63.36431
1862.721, 65.08165
1864.650, 66.59148
1866.578, 63.41185
1868.507, 63.33447
1870.435, 66.08104
1872.364, 65.16255
1874.292, 63.71035
1876.221, 62.10629
1878.149, 61.77956
1880.078, 60.57570
1882.006, 63.20781
1883.934, 60.49632
1885.863, 62.05489
1887.791, 65.16961
1889.720, 66.24065
1891.648, 63.15533
1893.577, 60.72517
1895.505, 61.87164
1897.434, 62.66546
1899.362, 62.20900
1901.291, 62.22001
1903.219, 62.90120
1905.148, 60.77335
1907.076, 61.54045
1909.005, 60.43613
1910.933, 61.29760
1912.861, 60.94241
1914.790, 60.43736
1916.718, 59.30417
1918.647, 59.80298
1920.575, 60.47227
1922.504, 60.33613
1924.432, 60.30988
1926.361, 61.34748
1928.289, 59.39325
1930.218, 56.97459
1932.146, 58.48381
1934.075, 59.74992
1936.003, 62.04060
1937.932, 63.08019
1939.860, 60.92365
1941.788, 58.02066
1943.717, 56.96569
1945.645, 59.12540
1947.574, 59.23030
1949.502, 57.65290
1951.431, 57.55945
1953.359, 57.02340
1955.288, 58.39556
1957.216, 59.15438
1959.145, 57.74279
1961.073, 56.24647
1963.002, 55.89309
1964.930, 57.70145
1966.859, 59.12523
1968.787, 59.03148
1970.715, 56.94127
1972.644, 55.97527
1974.572, 55.98886
1976.501, 54.04055
1978.429, 53.69712
1980.358, 54.04510
1982.286, 53.92078
1984.215, 54.70154
1986.143, 57.72715
1988.072, 56.28400
1990.000, 56.87133
1991.929, 57.20851
1993.857, 54.13833
1995.786, 52.12676
1997.714, 51.12373
1999.642, 50.71098
2001.571, 52.29409
2003.499, 53.83587
2005.428, 53.37997
2007.356, 52.90367
2009.285, 53.88340
2011.213, 52.90496
2013.142, 52.11860
2015.070, 52.29266
2016.999, 53.45707
2018.927, 54.54558
2020.856, 53.80904
2022.784, 51.77579
2024.713, 51.07368
2026.641, 52.79837
2028.569, 53.51926
2030.498, 53.46911
2032.426, 52.49719
2034.355, 51.77826
2036.283, 53.50346
2038.212, 54.50322
2040.140, 52.65105
2042.069, 50.76655
2043.997, 50.67677
2045.926, 50.03100
2047.854, 49.46079
2049.782, 51.47390
2051.711, 51.81031
2053.639, 51.88267
2055.568, 51.43173
2057.497, 50.95872
2059.425, 49.43425
2061.354, 49.71871
2063.282, 47.73166
2065.210, 49.63472
2067.139, 48.40702
2069.067, 48.15177
2070.996, 49.92170
2072.924, 50.64229
2074.853, 52.63314
2076.781, 53.98607
2078.710, 52.70739
2080.638, 52.97440
2082.567, 52.00294
2084.495, 50.49347
2086.424, 50.17439
2088.352, 50.33471
2090.281, 48.28085
2092.209, 47.73092
2094.137, 50.80459
2096.066, 49.86293
2097.994, 48.17349
2099.923, 46.77866
2101.851, 44.97715
2103.780, 47.19858
2105.708, 47.47592
2107.637, 45.95901
2109.565, 45.65745
2111.494, 45.30872
2113.422, 47.95443
2115.351, 49.32610
2117.279, 48.53755
2119.208, 47.64014
2121.136, 45.59725
2123.064, 47.19648
2124.993, 48.08753
2126.921, 46.47099
2128.850, 45.51044
2130.778, 44.43690
2132.707, 44.26443
2134.635, 46.51730
2136.564, 47.81931
2138.492, 46.91576
2140.421, 45.30344
2142.349, 43.35810
2144.278, 47.53168
2146.206, 50.42625
2148.135, 45.38655
2150.063, 42.76316
2151.991, 43.61802
2153.920, 44.15142
2155.848, 45.25547
2157.777, 44.68162
2159.705, 45.21870
2161.634, 44.91100
2163.562, 44.35542
2165.491, 44.34887
2167.419, 41.91681
2169.348, 42.07052
2171.276, 41.66578
2173.205, 39.22170
2175.133, 41.82540
2177.062, 44.27538
2178.990, 40.79833
2180.918, 39.01812
2182.847, 39.23537
2184.775, 40.20400
2186.704, 40.99026
2188.632, 41.79504
2190.561, 42.81458
2192.489, 43.89538
2194.418, 44.28148
2196.346, 44.73476
2198.275, 44.95900
2200.203, 44.04218
2202.132, 40.38984
2204.060, 36.95588
2205.989, 39.03170
2207.917, 37.15409
2209.845, 37.05178
2211.774, 38.81770
2213.702, 37.87883
2215.631, 40.31121
2217.559, 42.72009
2219.488, 38.99426
2221.416, 35.84141
2223.345, 38.97345
2225.273, 40.81033
2227.202, 40.72741
2229.130, 40.69793
2231.059, 43.03379
2232.987, 43.02615
2234.916, 42.68246
2236.844, 43.77472
2238.772, 41.36260
2240.701, 39.25720
2242.629, 38.91920
2244.558, 40.43002
2246.486, 40.53173
2248.415, 41.50911
2250.343, 42.02618
2252.272, 40.01838
2254.200, 38.42484
2256.129, 35.90606
2258.057, 33.32193
2259.986, 33.39701
2261.914, 36.94561
2263.843, 39.00825
2265.771, 39.16956
2267.699, 38.40489
2269.628, 36.68455
2271.556, 38.73370
2273.485, 39.65964
2275.413, 36.35921
2277.342, 36.25836
2279.270, 35.29142
2281.199, 33.75947
2283.127, 35.74035
2285.056, 38.14126
2286.984, 36.51823
2288.913, 34.51817
2290.841, 37.39447
2292.770, 37.75211
2294.698, 34.39933
2296.626, 34.90677
2298.555, 37.65971
2300.483, 38.43290
2302.412, 35.83746
2304.340, 33.54013
2306.269, 32.60485
2308.197, 34.72039
2310.126, 37.54831
2312.054, 36.57856
2313.983, 35.10485
2315.911, 36.90124
2317.840, 36.60470
2319.768, 34.41698
2321.697, 34.87160
2323.625, 34.85101
2325.553, 33.86565
2327.482, 35.40406
2329.410, 36.09007
2331.339, 35.63118
2333.267, 34.58290
2335.196, 33.70552
2337.124, 33.96782
2339.053, 34.77913
2340.981, 35.20705
2342.910, 35.89819
2344.838, 35.30515
2346.767, 34.72491
2348.695, 36.06718
2350.624, 35.04185
2352.552, 34.42015
2354.480, 33.78535
2356.409, 33.29784
2358.337, 35.83558
2360.266, 35.77612
2362.194, 33.71621
2364.123, 33.29119
2366.051, 31.24491
2367.980, 31.25009
2369.908, 33.03488
2371.837, 32.28418
2373.765, 30.72196
2375.694, 31.57703
2377.622, 34.17838
2379.551, 35.03999
2381.479, 32.93895
2383.407, 30.35705
2385.336, 30.95962
2387.264, 32.82675
2389.193, 32.25684
2391.121, 31.11925
2393.050, 31.09175
2394.978, 29.93939
2396.907, 30.62468
2398.835, 28.60043
2400.764, 27.36128
2402.692, 27.79300
2404.621, 30.32096
2406.549, 29.76725
2408.478, 30.69927
2410.406, 30.95594
2412.334, 30.66916
2414.263, 30.92761
2416.191, 29.61034
2418.120, 27.79550
2420.048, 27.92197
2421.977, 26.99560
2423.905, 27.28432
2425.834, 27.05828
2427.762, 28.23111
2429.691, 29.63709
2431.619, 29.78137
2433.548, 30.28864
2435.476, 30.30884
2437.405, 25.61334
2439.333, 28.61949
2441.261, 27.89780
2443.190, 24.60512
2445.118, 28.44027
2447.047, 30.90469
2448.975, 28.84139
2450.904, 27.23039
2452.832, 28.84065
2454.761, 29.75940
2456.689, 26.39148
2458.618, 24.87667
2460.546, 25.42964
2462.475, 26.72579
2464.403, 28.15489
2466.332, 28.94989
2468.260, 29.12549
2470.188, 27.66345
2472.117, 25.99868
2474.045, 25.95372
2475.974, 28.00094
2477.902, 26.99560
2479.831, 27.99671
2481.759, 27.85962
2483.688, 29.06691
2485.616, 27.11319
2487.545, 26.55638
2489.473, 25.85767
2491.402, 25.75914
2493.330, 25.50476
2495.259, 26.18348
2497.187, 25.33868
2499.115, 26.31494
2501.044, 26.06053
2502.972, 26.09464
2504.901, 28.41388
2506.829, 26.67600
2508.758, 24.18528
2510.686, 26.87751
2512.615, 26.75718
2514.543, 24.56674
2516.472, 23.53908
2518.400, 25.04471
2520.329, 26.72382
2522.257, 26.45783
2524.186, 25.44611
2526.114, 24.23757
2528.042, 23.44820
2529.971, 24.21483
2531.899, 25.89566
2533.828, 23.66475
2535.756, 23.40487
2537.685, 25.54516
2539.613, 24.99445
2541.542, 24.44493
2543.470, 24.00921
2545.399, 23.04825
2547.327, 24.31438
2549.256, 27.05929
2551.184, 26.22251
2553.113, 24.78767
2555.041, 24.14884
2556.969, 22.95790
2558.898, 22.54440
2560.826, 22.05626
2562.755, 21.37584
2564.683, 21.45005
2566.612, 21.49788
2568.540, 21.19126
2570.469, 22.37264
2572.397, 21.71033
2574.326, 23.15513
2576.254, 23.68871
2578.183, 21.64029
2580.111, 20.72981
2582.040, 21.00013
2583.968, 22.61727
2585.896, 23.43364
2587.825, 22.08067
2589.753, 18.77447
2591.682, 18.50976
2593.610, 19.84816
2595.539, 21.76787
2597.467, 20.95947
2599.396, 20.80030
2601.324, 24.62071
2603.253, 21.76495
2605.181, 17.88195
2607.110, 20.53668
2609.038, 24.34358
2610.967, 26.02415
2612.895, 22.12191
2614.823, 21.71608
2616.752, 21.94187
2618.680, 19.70714
2620.609, 20.81235
2622.537, 22.36308
2624.466, 20.80521
2626.394, 19.54630
2628.323, 18.56425
2630.251, 19.24295
2632.180, 19.29190
2634.108, 19.19054
2636.037, 19.36769
2637.965, 18.79056
2639.894, 18.73256
2641.822, 21.14390
2643.750, 17.40916
2645.679, 14.32204
2647.607, 18.64024
2649.536, 19.63370
2651.464, 20.45844
2653.393, 23.36408
2655.321, 19.72924
2657.250, 17.41916
2659.178, 21.00513
2661.107, 19.85526
2663.035, 18.28078
2664.964, 18.52342
2666.892, 20.24835
2668.821, 21.07573
2670.749, 20.03757
2672.677, 19.23712
2674.606, 18.95340
2676.534, 18.68563
2678.463, 19.62524
2680.391, 18.36384
2682.320, 18.54138
2684.248, 16.57882
2686.177, 17.51748
2688.105, 16.60943
2690.034, 15.27353
2691.962, 17.93029
2693.891, 21.94761
2695.819, 18.09546
2697.748, 18.26820
2699.676, 20.27802
2701.604, 15.72038
2703.533, 13.64875
2705.461, 13.90988
2707.390, 15.42621
2709.318, 16.37789
2711.247, 16.86151
2713.175, 17.06341
2715.104, 16.42920
2717.032, 15.64131
2718.961, 15.06744
2720.889, 16.54458
2722.818, 18.25815
2724.746, 19.27952
2726.675, 16.79450
2728.603, 15.12794
2730.531, 15.57563
2732.460, 16.09051
2734.388, 15.74507
2736.317, 15.05541
2738.245, 16.80094
2740.174, 18.74132
2742.102, 19.08190
2744.031, 15.30269
2745.959, 14.30762
2747.888, 15.44435
2749.816, 17.14495
2751.745, 16.79626
2753.673, 16.12819
2755.602, 16.33356
2757.530, 15.09901
2759.458, 13.71954
2761.387, 13.07199
2763.315, 14.48754
2765.244, 15.45677
2767.172, 15.56892
2769.101, 17.81271
2771.029, 18.58574
2772.958, 17.85436
2774.886, 15.20959
2776.815, 15.68468
2778.743, 17.64762
2780.672, 16.87391
2782.600, 17.97458
2784.529, 16.94625
2786.457, 17.50172
2788.385, 12.74092
2790.314, 16.09435
2792.242, 17.80275
2794.171, 12.81710
2796.099, 11.09070
2798.028, 12.88346
2799.956, 11.51114
2801.885, 10.78813
2803.813, 12.38019
2805.742, 11.41580
2807.670, 12.23085
2809.599, 12.53916
2811.527, 13.28828
2813.456, 15.97724
2815.384, 16.62851
2817.313, 14.18113
2819.241, 14.76211
2821.169, 12.64998
2823.098, 10.19106
2825.026, 13.75799
2826.955, 14.48436
2828.883, 13.47406
2830.812, 10.84264
2832.740, 14.13278
2834.669, 15.55696
2836.597, 9.761702
2838.526, 11.48636
2840.454, 14.11896
2842.383, 14.67993
2844.311, 12.20875
2846.240, 10.30190
2848.168, 10.04278
2850.096, 11.88692
2852.025, 13.13347
2853.953, 12.43304
2855.882, 10.22475
2857.810, 11.27590
2859.739, 13.39585
2861.667, 14.93843
2863.596, 11.70712
2865.524, 9.788456
2867.453, 8.178881
2869.381, 7.352327
2871.310, 9.704004
2873.238, 13.00467
2875.167, 15.73435
2877.095, 12.71932
2879.023, 11.58990
2880.952, 12.28715
2882.880, 12.10143
2884.809, 11.12992
2886.737, 10.92223
2888.666, 9.926138
2890.594, 11.35315
2892.523, 8.986638
2894.451, 8.415180
2896.380, 10.15853
2898.308, 8.774137
2900.237, 9.731303
2902.165, 10.09627
2904.094, 11.44649
2906.022, 11.50821
2907.950, 13.98321
2909.879, 11.76553
2911.807, 12.75916
2913.736, 14.85433
2915.664, 10.35999
2917.593, 10.67923
2919.521, 12.28104
2921.450, 11.63347
2923.378, 12.01097
2925.307, 11.94077
2927.235, 10.33242
2929.164, 9.703859
2931.092, 10.16321
2933.021, 9.588218
2934.949, 10.97034
2936.877, 10.31941
2938.806, 9.903109
2940.734, 11.09636
2942.663, 11.63902
2944.591, 12.60088
2946.520, 13.34543
2948.448, 11.77019
2950.377, 11.68193
2952.305, 11.19208
2954.234, 9.440233
2956.162, 10.02591
2958.091, 9.065207
2960.019, 8.417003
2961.948, 11.31122
2963.876, 7.364385
2965.804, 6.385264
2967.733, 10.37977
2969.661, 8.594712
2971.590, 9.599422
2973.518, 10.54915
2975.447, 10.85299
2977.375, 11.32879
2979.304, 11.59996
2981.232, 5.538256
2983.161, 10.80062
2985.089, 9.037605
2987.018, 6.273625
2988.946, 8.917343
2990.875, 7.833844
2992.803, 8.107882
2994.731, 9.738103
2996.660, 8.336727
2998.588, 7.351377
3000.517, 8.627138
3002.445, 9.052912
3004.374, 5.152277
3006.302, 6.155143
3008.231, 8.336359
3010.159, 11.30346
3012.088, 10.38232
3014.016, 10.40193
3015.945, 11.33219
3017.873, 8.680663
3019.802, 9.821177
3021.730, 10.96366
3023.658, 8.376942
3025.587, 6.254259
3027.515, 6.405090
3029.444, 8.605021
3031.372, 6.634084
3033.301, 8.276846
3035.229, 8.472851
3037.158, 9.509405
3039.086, 8.536413
3041.015, 8.601194
3042.943, 6.952466
3044.872, 6.205912
3046.800, 6.024706
3048.729, 5.327058
3050.657, 6.261777
3052.585, 8.083387
3054.514, 8.039858
3056.442, 7.784711
3058.371, 6.068635
3060.299, 6.222815
3062.228, 6.026940
3064.156, 6.497045
3066.085, 6.207121
3068.013, 7.334946
3069.942, 7.025430
3071.870, 7.395013
3073.799, 7.458275
3075.727, 7.861766
3077.656, 7.376036
3079.584, 7.631982
3081.512, 7.948904
3083.441, 7.303121
3085.369, 7.717057
3087.298, 6.151591
3089.226, 7.880903
3091.155, 8.133862
3093.083, 8.193651
3095.012, 7.124017
3096.940, 8.199874
3098.869, 9.549736
3100.797, 9.327165
3102.726, 11.08649
3104.654, 5.721223
3106.583, 2.646033
3108.511, 4.417252
3110.439, 2.387306
3112.368, 4.026437
3114.296, 7.408225
3116.225, 11.02842
3118.153, 6.674850
3120.082, 3.476182
3122.010, 4.445218
3123.939, 9.988909
3125.867, 9.017035
3127.796, 9.063194
3129.724, 9.814199
3131.653, 6.559522
3133.581, 7.575685
3135.510, 7.191690
3137.438, 6.820487
3139.366, 9.208227
3141.295, 8.149064
3143.223, 8.581594
3145.152, 8.384634
3147.080, 5.123322
3149.009, 8.992825
3150.937, 9.417576
3152.866, 7.453108
3154.794, 9.792473
3156.723, 8.074170
3158.651, 7.590888
3160.580, 7.229618
3162.508, 5.956784
3164.437, 5.407009
3166.365, 6.103582
3168.293, 6.160398
3170.222, 4.398410
3172.150, 6.493627
3174.079, 8.388842
3176.007, 8.167273
3177.936, 7.343810
3179.864, 8.242446
3181.793, 6.456319
3183.721, 4.211219
3185.650, 7.208691
3187.578, 7.479941
3189.507, 6.506216
3191.435, 5.568357
3193.364, 7.570605
3195.292, 4.816529
3197.220, 3.201834
3199.149, 5.001447
3201.077, 7.750870
3203.006, 9.700275
3204.934, 8.129965
3206.863, 4.563113
3208.791, 5.200321
3210.720, 6.799067
3212.648, 7.731122
3214.577, 7.315148
3216.505, 5.034435
3218.434, 7.920180
3220.362, 7.634591
3222.291, 2.988170
3224.219, 3.680037
3226.147, 2.393750
3228.076, 1.877226
3230.004, 3.357755
3231.933, 4.526667
3233.861, 5.372635
3235.790, 3.858171
3237.718, 5.270359
3239.647, 4.928895
3241.575, 5.802614
3243.504, 4.998263
3245.432, 4.140769
3247.361, 1.095414
3249.289, 1.880153
3251.218, 4.614405
3253.146, 8.215623
3255.074, 9.259833
3257.003, 3.056159
3258.931, 0.6907557
3260.860, 3.154976
3262.788, 6.644221
3264.717, 4.671317
3266.645, 6.491164
3268.574, 8.363520
3270.502, 8.051523
3272.431, 3.459007
3274.359, 1.393357
3276.288, 2.771585
3278.216, 5.871186
3280.145, 6.992212
3282.073, 6.463367
3284.001, 4.772416
3285.930, 3.017303
3287.858, 2.583904
3289.787, 2.978553
3291.715, 6.684833
3293.644, 4.772202
3295.572, 6.810022
3297.501, 6.765377
3299.429, 5.350012
3301.358, 4.567854
3303.286, 4.731461
3305.215, 6.402329
3307.143, 7.855102
3309.072, 5.966903
3311.000, 3.421010
3312.928, 5.586947
3314.857, 6.296452
3316.785, 3.907502
3318.714, 4.018034
3320.642, 9.692738
3322.571, 3.508542
3324.499, 4.865602
3326.428, 5.298326
3328.356, 1.601056
3330.285, 3.190103
3332.213, 5.885777
3334.142, 7.697951
3336.070, 6.291734
3337.999, 7.294354
3339.927, 7.454421
3341.855, 6.011368
3343.784, 6.576016
3345.712, 5.790911
3347.641, 2.631941
3349.569, 3.683319
3351.498, 4.983291
3353.426, 4.227732
3355.355, 6.525724
3357.283, 5.673638
3359.212, 8.761267
3361.140, 8.213737
3363.069, 6.445116
3364.997, 7.570844
3366.926, 3.197547
3368.854, 2.365971
3370.782, 4.699819
3372.711, 3.521556
3374.639, 5.540920
3376.568, 6.022127
3378.496, 5.933040
3380.425, 6.843773
3382.353, 7.739723
3384.282, 3.296202
3386.210, 4.366652
3388.139, 7.386191
3390.067, 3.103934
3391.996, 5.744923
3393.924, 7.734589
3395.853, 5.140782
3397.781, 1.123847
3399.709, 5.686221
3401.638, 2.140312
3403.566, 3.659468
3405.495, 5.429641
3407.423, 1.817295
3409.352, 3.259771
3411.280, 3.464966
3413.209, 4.959090
3415.137, 5.155903
3417.066, 6.386067
3418.994, 5.244040
3420.923, 3.322947
3422.851, 2.256909
3424.780, 3.236845
3426.708, 7.600156
3428.636, 4.117144
3430.565, 7.717875
3432.493, 8.631831
3434.422, 0.8146818
3436.350, 3.892991
3438.279, 2.040781
3440.207, 1.254262
3442.136, 3.347121
3444.064, 6.728574
3445.993, 4.293050
3447.921, 6.099793
3449.850, 7.363882
3451.778, 5.695502
3453.707, 1.909294
3455.635, 2.758080
3457.563, 2.779810
3459.492, 2.096524
3461.420, 2.680873
3463.349, 5.987485
3465.277, 1.703186
3467.206, 4.334441
3469.134, 4.222100
3471.063, 0.2854856
3472.991, 2.017139
3474.920, 5.289869
3476.848, 3.225589
3478.777, 2.193223
3480.705, 4.250302
3482.634, 4.395054
3484.562, 3.584602
3486.490, 2.418111
3488.419, 2.125655
3490.347, 2.409544
3492.276, 1.015011
3494.204, 0.1540811
3496.133, 3.916051
3498.061, 3.073607
3499.990, 3.537878
3501.918, 1.536889
3503.847, 3.876065
3505.775, 2.247851
3507.704, 3.510330
3509.632, 6.868224
3511.561, 1.511829
3513.489, 2.543566
3515.417, 4.585745
3517.346, 4.693491
3519.274, 4.727357
3521.203, 8.833245
3523.131, 5.616868
3525.060, 0.5820985
3526.988, 0.9062996
3528.917, 3.477511
3530.845, 0.8233738
3532.774, 2.847086
3534.702, 5.540965
3536.631, 6.255038
3538.559, 8.172685
3540.488, 12.72911
3542.416, 2.972132
3544.344, 2.494261
3546.273, 3.698664
3548.201, 4.872371
3550.130, 6.389385
3552.058, 4.926218
3553.987, -1.241664
3555.915, -1.145595
3557.844, 1.613920
3559.772, 4.170453
3561.701, 3.661383
3563.629, 5.289138
3565.558, 3.435476
3567.486, 3.476137
3569.415, 3.363564
3571.343, 4.563149
3573.271, 0.2130134
3575.200, 0.6473270
3577.128, -9.3429588E-02
3579.057, 1.100089
3580.985, 6.268249
3582.914, 4.801732
3584.842, -0.1041021
3586.771, 4.825205
3588.699, 2.059405
3590.628, -4.774964
3592.556, 6.951495
3594.485, 7.885085
3596.413, 3.031118
3598.342, 3.952531
3600.270, 7.443855
3602.198, 6.880557
3604.127, 7.476845
3606.055, 3.842265
3607.984, 5.962998
3609.912, 5.525018
3611.841, 3.297026
3613.769, 3.522103
3615.698, 0.8600972
3617.626, 0.4598997
3619.555, 3.690205
3621.483, 7.162267
3623.412, 6.388313
3625.340, 5.651174
3627.269, 1.101031
3629.197, 1.286674
3631.125, 1.094213
3633.054, 1.605345
3634.982, 0.5425741
3636.911, 2.484627
3638.839, 2.761304
3640.768, 1.526598
3642.696, 1.319023
3644.625, 1.208792
3646.553, -1.314523
3648.482, 1.154104
3650.410, 3.648983
3652.339, 6.494662
3654.267, 5.709585
3656.196, 1.666625
3658.124, 0.5388725
3660.052, 1.560127
3661.981, 1.934200
3663.909, 4.567986
3665.838, 4.973166
3667.766, 2.362577
3669.695, 4.723004
3671.623, -0.1362416
3673.552, 1.017392
3675.480, 0.3433039
3677.409, -0.3715569
3679.337, 0.8949434
3681.266, -1.486410
3683.194, -3.741074
3685.123, 3.241376
3687.051, 5.786284
3688.979, 5.689712
3690.908, 6.721567
3692.836, 4.465658
3694.765, 4.706626
3696.693, 5.161521
3698.622, 4.318161
3700.550, 3.365694
3702.479, 5.314546
3704.407, 1.624579
3706.336, 2.779812
3708.264, 9.476097
3710.193, 2.232585
3712.121, 1.8286521E-02
3714.050, 7.057664
3715.978, 5.977963
3717.906, 4.815758
3719.835, 1.493785
3721.763, 5.137054
3723.692, 3.262160
3725.620, 5.9640460E-02
3727.549, 5.787682
3729.477, 4.172840
3731.406, -0.8210034
3733.334, 2.579400
3735.263, 2.910444
3737.191, 1.594297
3739.120, 2.760846
3741.048, 1.470236
3742.977, 3.167639
3744.905, 4.723900
3746.833, 0.9768972
3748.762, 2.196385
3750.690, 1.003510
3752.619, 2.702295
3754.547, 5.1108260E-02
3756.476, 0.6202792
3758.404, 1.644217
3760.333, 3.570389
3762.261, 4.580485
3764.190, 4.408186
3766.118, 5.795453
3768.047, 5.631077
3769.975, 2.969870
3771.904, 5.195279
3773.832, 2.925220
3775.760, 1.496915
3777.689, 5.845447
3779.617, 6.272540
3781.546, 9.479044
3783.474, 8.470957
3785.403, 5.443058
3787.331, 1.705263
3789.260, 1.397435
3791.188, 5.914916
3793.117, -1.748585
3795.045, 5.747258
3796.974, 3.394235
3798.902, 3.227429
3800.831, -0.1287255
3802.759, -3.362230
3804.688, -2.406240
3806.616, 2.500511
3808.544, -0.8939136
3810.473, 0.9738906
3812.401, 3.012204
3814.330, 0.1062615
3816.258, -1.949987
3818.187, 3.515293
3820.115, 4.182488
3822.044, 4.893832
3823.972, 1.763971
3825.901, 5.954491
3827.829, 4.842854
3829.758, -0.2203095
3831.686, 2.914430
3833.615, 8.520977
3835.543, 5.030196
3837.471, 3.356921
3839.400, 2.128289
3841.328, 0.9685825
3843.257, 2.184406
3845.185, 4.688802
3847.114, 1.564970
3849.042, 4.335328
3850.971, 3.984730
3852.899, 2.513651
3854.828, 3.296738
3856.756, 4.828419
3858.685, 4.227265
3860.613, 2.333572
3862.542, 5.975842
3864.470, 2.368878
3866.398, 0.5828430
3868.327, 1.686007
3870.255, -0.7370505
3872.184, 5.791837
3874.112, -1.743750
3876.041, 3.747948
3877.969, 5.166379
3879.898, 3.942267
3881.826, 4.318315
3883.755, 6.526868
3885.683, 5.544742
3887.612, 5.066556
3889.540, 7.482302
3891.469, 1.003845
3893.397, 6.266109
3895.325, 9.332024
3897.254, 3.500998
3899.182, 1.991363
3901.111, 2.880553
3903.039, 4.617390
3904.968, 6.837901
3906.896, 1.886351
3908.825, 5.662009
3910.753, 6.572899
3912.682, -1.419342
3914.610, 1.531164
3916.539, 2.679864
3918.467, 1.310218
3920.396, 4.571820
3922.324, 3.325903
3924.252, 3.674920
3926.181, 11.66120
3928.109, 3.578244
3930.038, 6.481220
3931.966, 7.099168
3933.895, 1.759420
3935.823, 1.792136
3937.752, 10.83950
3939.680, 9.058416
3941.609, 5.244629
3943.537, 0.4498686
3945.466, 3.397754
3947.394, 2.005978
3949.323, 0.2299475
3951.251, 1.487203
3953.179, 4.023896
3955.108, 7.600928
3957.036, 5.876195
3958.965, 6.239822
3960.893, 5.499543
3962.822, 2.656158
3964.750, 3.171787
3966.679, 0.9911979
3968.607, 1.690372
3970.536, 4.628893
3972.464, 4.175332
3974.393, 3.350866
3976.321, 0.6192473
3978.250, -0.3066739
3980.178, 2.724579
3982.106, 1.104228
3984.035, 2.732448
3985.963, 3.825748
3987.892, 2.025045
3989.820, 1.752072
3991.749, 1.251290
3993.677, 1.863813
3995.606, 1.559869
3997.534, 1.556424
3999.463, 1.151372
4001.391, 1.011451
4003.320, -0.3283070
4005.248, -2.132663
4007.177, -3.612496
4009.105, -2.982305
4011.033, -4.784398
4012.962, -1.227303
4014.890, -6.466061
4016.819, -2.003430
4018.747, -1.902944
4020.676, 0.7236482
4022.604, 3.727298
4024.533, 2.490916
4026.461, -1.440842
4028.390, -5.718412
4030.318, -7.657581
4032.247, -0.9889544
4034.175, 6.141436
4036.104, 1.186994
4038.032, 0.7158769
4039.960, -8.5535422E-02
4041.889, 1.734925
4043.817, 2.346215
4045.746, -2.914909
4047.674, 1.468185
4049.603, -1.381714
4051.531, 0.6317264
4053.460, 1.781784
4055.388, -2.623299
4057.317, 2.423557
4059.245, 5.117595
4061.174, 2.476458
4063.102, -0.5278444
4065.031, 2.313052
4066.959, 4.526614
4068.887, -1.423001
4070.816, 0.2231913
4072.744, 3.702321
4074.673, 1.246517
4076.601, 0.8807172
4078.530, 1.019604
4080.458, 2.198617
4082.387, 0.4063550
4084.315, -1.686865
4086.244, 0.2411976
4088.172, -2.377501
4090.101, -5.725471
4092.029, -3.235167
4093.958, 3.638784
4095.886, -2.040865
4097.814, 1.141264
4099.743, 5.782963
4101.671, 3.127154
4103.600, -0.5020614
4105.528, 0.8190094
4107.457, 4.045396
4109.385, 5.057408
4111.314, 4.655628
4113.242, 1.069625
4115.171, 6.333082
4117.099, -1.202268
4119.028, 4.033140
4120.956, 1.614861
4122.885, 2.9405920E-02
4124.813, -0.2693175
4126.742, -2.186466
4128.670, -3.963686
4130.599, -1.796839
4132.527, -1.961120
4134.456, -6.4879693E-02
4136.384, -0.2162772
4138.313, 1.310170
4140.241, 1.506673
4142.169, 0.9431769
4144.098, 1.207018
4146.026, -0.2534635
4147.955, -1.949363
4149.883, -1.930379
4151.812, 1.648831
4153.740, 5.338147
4155.668, 1.119805
4157.597, -3.666064
4159.525, -4.754320
4161.454, 8.2316943E-02
4163.382, 1.483171
4165.311, 2.995660
4167.239, -2.451050
4169.168, -3.430244
4171.096, -3.660878
4173.025, 2.143724
4174.953, 4.291312
4176.882, 0.1462981
4178.810, -4.079532
4180.739, -5.208245
4182.667, -1.865382
4184.596, 1.232957
4186.524, -1.604633
4188.453, -0.3860285
4190.381, 2.843612
4192.310, 6.186701
4194.238, 0.4607315
4196.167, -0.6308362
4198.095, 4.339334
4200.023, 3.103408
4201.952, 4.064483
4203.880, 3.563171
4205.809, 3.368168
4207.737, 3.713587
4209.666, 2.672965
4211.594, 2.273314
4213.522, 0.6072788
4215.451, -4.1127469E-02
4217.379, -1.859378
4219.308, -2.137776
4221.236, -7.226850
4223.165, -1.936473
4225.093, 2.282213
4227.022, 4.590347
4228.950, 2.324229
4230.879, 2.579722
4232.807, -1.398583
4234.736, -6.3523948E-02
4236.664, 2.321474
4238.593, 2.269277
4240.521, 5.605862
4242.450, 1.580428
4244.378, 3.768977
4246.307, 3.584075
4248.235, -6.719423
4250.164, -2.597920
4252.092, -2.346926
4254.021, -1.5133770E-02
4255.949, 2.717102
4257.877, 1.465626
4259.806, -0.7340445
4261.734, -0.9044391
4263.663, 1.230478
4265.591, 2.541938
4267.520, 1.561009
4269.448, 0.2356641
4271.376, 5.553996
4273.305, 8.567486
4275.233, 2.795557
4277.162, -9.9916682E-02
4279.090, -3.097799
4281.019, 0.3603475
4282.947, -1.341439
4284.876, 1.155196
4286.804, 1.258005
4288.733, 1.919002
4290.661, 5.272185
4292.590, -1.738273
4294.518, -0.2819099
4296.447, -2.142491
4298.375, 2.426651
4300.304, 3.337341
4302.232, 3.472883
4304.161, 4.421384
4306.089, 2.786838
4308.018, 2.289631
4309.946, 0.7231911
4311.875, 2.615882
4313.803, 6.297143
4315.731, 6.432015
4317.660, 4.808214
4319.588, 1.147210
4321.517, 2.738703
4323.445, 3.477355
4325.374, 2.287632
4327.302, 3.278614
4329.230, 2.806561
4331.159, 3.300962
4333.087, 5.178453
4335.016, 5.286533
4336.944, 1.213574
4338.873, 1.791092
4340.801, -2.817865
4342.730, -0.8356892
4344.658, 2.878273
4346.587, 2.804303
4348.515, 1.004720
4350.444, 6.050815
4352.372, 1.694364
4354.301, 4.168237
4356.229, 5.898317
4358.158, -0.4527166
4360.086, -1.018152
4362.015, 1.688244
4363.943, 2.345606
4365.872, -1.818121
4367.800, -2.533299
4369.729, 0.8804287
4371.657, 0.9490559
4373.585, 2.379039
4375.514, 4.952720
4377.442, 5.926512
4379.371, -4.055604
##END=



