##NAMES=Taramellite
##RRUFFID=R160011
##IDEAL CHEMISTRY=Ba_4_(Fe^3+^,Ti)_4_O_2_[B_2_Si_8_O_27_]Cl_x_
##LOCALITY=Gun claim, Yukon Territory, Canada
##OWNER=RRUFF
##SOURCE=Gunnar Färber
##DESCRIPTION=Red-brownish crystals in cavity, associated with  itsiite, cerchiaraite-(Fe), diopside, pyrite, quartz, sphalerite, and witherite
##STATUS=The identification of this mineral has been confirmed only by single crystal X-ray diffraction
##URL=https://www.rruff.net/odr/rruff_sample/R160011
##DIFFRACTION SAMPLE DESCRIPTION=Single crystal, powder profile is calculated
##CELL PARAMETERS=a: 12.2039 b: 13.9582 c: 7.1323 alpha: 90 beta: 90 gamma: 90 volume: 1214.95 crystal system: orthorhombic
##FILETYPE=Raman Processed
##RAMAN WAVELENGTH=532

95.17188, 841.6061
97.10034, 865.1187
99.02881, 893.4694
100.9573, 945.0465
102.8857, 1000.701
104.8142, 1056.421
106.7427, 1115.376
108.6711, 1172.722
110.5996, 1229.242
112.5281, 1287.402
114.4565, 1339.737
116.3850, 1389.740
118.3135, 1434.887
120.2419, 1472.166
122.1704, 1500.457
124.0989, 1529.129
126.0273, 1558.634
127.9558, 1588.362
129.8843, 1621.381
131.8127, 1656.885
133.7412, 1694.320
135.6697, 1732.568
137.5981, 1770.284
139.5266, 1808.620
141.4551, 1847.698
143.3835, 1887.410
145.3120, 1927.000
147.2405, 1966.725
149.1689, 2006.430
151.0974, 2046.035
153.0259, 2085.160
154.9543, 2124.774
156.8828, 2165.703
158.8113, 2208.074
160.7397, 2249.113
162.6682, 2286.561
164.5967, 2321.170
166.5251, 2356.811
168.4536, 2395.727
170.3821, 2432.701
172.3105, 2465.514
174.2390, 2493.265
176.1675, 2517.756
178.0959, 2539.286
180.0244, 2557.774
181.9529, 2574.873
183.8813, 2592.404
185.8098, 2607.586
187.7383, 2618.865
189.6667, 2621.870
191.5952, 2626.117
193.5237, 2634.739
195.4521, 2646.626
197.3806, 2655.309
199.3091, 2657.063
201.2375, 2657.021
203.1660, 2659.375
205.0945, 2665.688
207.0229, 2671.750
208.9514, 2676.558
210.8799, 2680.136
212.8083, 2682.351
214.7368, 2681.925
216.6653, 2680.633
218.5938, 2680.270
220.5222, 2680.187
222.4507, 2682.276
224.3792, 2687.843
226.3076, 2698.545
228.2361, 2706.830
230.1646, 2712.161
232.0930, 2715.504
234.0215, 2717.844
235.9500, 2717.216
237.8784, 2718.600
239.8069, 2723.421
241.7354, 2732.427
243.6638, 2742.958
245.5923, 2756.715
247.5208, 2771.294
249.4492, 2784.176
251.3777, 2793.521
253.3062, 2802.820
255.2346, 2813.909
257.1631, 2827.076
259.0916, 2837.322
261.0200, 2841.065
262.9485, 2842.559
264.8770, 2846.886
266.8054, 2856.626
268.7339, 2866.832
270.6624, 2876.378
272.5908, 2885.268
274.5193, 2894.053
276.4478, 2903.578
278.3762, 2912.556
280.3047, 2919.156
282.2332, 2922.519
284.1616, 2924.617
286.0901, 2925.799
288.0186, 2926.219
289.9470, 2925.752
291.8755, 2922.730
293.8040, 2919.765
295.7324, 2920.211
297.6609, 2924.974
299.5894, 2930.849
301.5178, 2936.868
303.4463, 2942.977
305.3748, 2949.776
307.3032, 2956.980
309.2317, 2964.833
311.1602, 2973.741
313.0886, 2984.118
315.0171, 2994.046
316.9456, 3003.120
318.8740, 3011.284
320.8025, 3018.326
322.7310, 3021.975
324.6594, 3026.016
326.5879, 3032.979
328.5164, 3043.526
330.4448, 3054.023
332.3733, 3064.500
334.3018, 3074.410
336.2302, 3081.587
338.1587, 3084.815
340.0872, 3087.128
342.0156, 3090.302
343.9441, 3095.010
345.8726, 3100.068
347.8010, 3104.988
349.7295, 3110.597
351.6580, 3118.488
353.5864, 3130.661
355.5149, 3141.641
357.4434, 3148.295
359.3718, 3147.573
361.3003, 3150.568
363.2288, 3162.549
365.1572, 3175.394
367.0857, 3178.730
369.0142, 3166.592
370.9426, 3157.591
372.8711, 3158.829
374.7996, 3171.617
376.7280, 3180.469
378.6565, 3183.783
380.5850, 3184.844
382.5134, 3185.754
384.4419, 3186.203
386.3704, 3187.895
388.2988, 3191.683
390.2273, 3197.226
392.1558, 3202.542
394.0842, 3206.438
396.0127, 3211.321
397.9412, 3218.103
399.8696, 3226.739
401.7981, 3235.927
403.7266, 3245.746
405.6550, 3255.218
407.5835, 3262.708
409.5120, 3266.807
411.4404, 3271.191
413.3689, 3278.412
415.2974, 3289.192
417.2258, 3295.551
419.1543, 3293.528
421.0828, 3290.979
423.0112, 3294.628
424.9397, 3305.706
426.8682, 3316.909
428.7966, 3326.021
430.7251, 3333.971
432.6536, 3343.414
434.5820, 3355.464
436.5105, 3367.759
438.4390, 3378.759
440.3674, 3388.426
442.2959, 3399.893
444.2244, 3416.426
446.1528, 3433.106
448.0813, 3444.625
450.0098, 3445.456
451.9382, 3448.650
453.8667, 3458.739
455.7952, 3473.174
457.7236, 3485.366
459.6521, 3494.475
461.5806, 3502.411
463.5090, 3509.782
465.4375, 3516.917
467.3660, 3525.968
469.2944, 3538.429
471.2229, 3552.852
473.1514, 3567.325
475.0798, 3580.564
477.0083, 3593.721
478.9368, 3607.782
480.8652, 3620.945
482.7937, 3627.829
484.7222, 3621.258
486.6506, 3615.604
488.5791, 3619.300
490.5076, 3638.916
492.4360, 3652.880
494.3645, 3658.277
496.2930, 3660.353
498.2214, 3665.399
500.1499, 3674.292
502.0784, 3683.573
504.0068, 3691.806
505.9353, 3698.607
507.8638, 3704.024
509.7922, 3705.283
511.7207, 3706.591
513.6492, 3710.387
515.5776, 3716.658
517.5061, 3722.737
519.4346, 3730.514
521.3630, 3737.650
523.2915, 3741.654
525.2200, 3739.383
527.1484, 3738.971
529.0769, 3741.100
531.0054, 3745.618
532.9338, 3752.348
534.8623, 3763.654
536.7908, 3773.589
538.7192, 3779.118
540.6477, 3779.079
542.5762, 3781.306
544.5046, 3788.577
546.4331, 3796.277
548.3616, 3801.518
550.2900, 3803.817
552.2185, 3806.557
554.1470, 3811.178
556.0754, 3816.779
558.0039, 3821.173
559.9324, 3821.950
561.8608, 3825.208
563.7893, 3834.532
565.7178, 3847.901
567.6462, 3858.253
569.5747, 3859.690
571.5032, 3861.800
573.4316, 3870.924
575.3601, 3888.787
577.2886, 3898.108
579.2170, 3889.337
581.1455, 3877.658
583.0740, 3875.548
585.0024, 3889.741
586.9309, 3901.955
588.8594, 3907.375
590.7878, 3910.203
592.7163, 3918.507
594.6448, 3933.085
596.5732, 3949.691
598.5017, 3966.492
600.4302, 3983.075
602.3586, 4000.017
604.2871, 4020.021
606.2156, 4037.361
608.1440, 4048.497
610.0725, 4053.783
612.0010, 4059.723
613.9294, 4069.336
615.8579, 4079.377
617.7864, 4087.580
619.7148, 4093.297
621.6433, 4099.238
623.5718, 4102.946
625.5002, 4107.692
627.4287, 4118.405
629.3572, 4136.784
631.2856, 4154.036
633.2141, 4167.002
635.1426, 4176.190
637.0710, 4183.479
638.9995, 4186.876
640.9280, 4190.562
642.8564, 4196.040
644.7849, 4203.299
646.7134, 4211.220
648.6418, 4221.926
650.5703, 4231.334
652.4988, 4237.143
654.4272, 4237.845
656.3557, 4239.835
658.2842, 4243.521
660.2126, 4248.091
662.1411, 4252.482
664.0696, 4256.317
665.9980, 4263.360
667.9265, 4279.134
669.8550, 4296.968
671.7834, 4309.727
673.7119, 4311.309
675.6404, 4314.917
677.5688, 4321.353
679.4973, 4329.907
681.4258, 4338.771
683.3542, 4346.885
685.2827, 4356.146
687.2112, 4368.202
689.1396, 4382.188
691.0681, 4393.055
692.9966, 4398.603
694.9250, 4404.266
696.8535, 4413.127
698.7820, 4424.627
700.7104, 4434.152
702.6389, 4437.505
704.5674, 4443.306
706.4958, 4456.723
708.4243, 4480.462
710.3528, 4498.004
712.2813, 4503.276
714.2097, 4506.794
716.1382, 4516.690
718.0667, 4533.095
719.9951, 4547.075
721.9236, 4553.974
723.8521, 4560.108
725.7805, 4570.232
727.7090, 4589.624
729.6375, 4605.381
731.5659, 4614.873
733.4944, 4622.316
735.4229, 4631.755
737.3513, 4642.459
739.2798, 4657.310
741.2083, 4680.635
743.1367, 4707.032
745.0652, 4728.942
746.9937, 4739.125
748.9221, 4752.474
750.8506, 4772.454
752.7791, 4795.675
754.7075, 4816.519
756.6360, 4836.368
758.5645, 4851.385
760.4929, 4859.299
762.4214, 4862.335
764.3499, 4866.277
766.2783, 4871.296
768.2068, 4877.100
770.1353, 4884.272
772.0637, 4891.460
773.9922, 4895.749
775.9207, 4896.368
777.8491, 4893.302
779.7776, 4884.333
781.7061, 4870.458
783.6345, 4861.995
785.5630, 4867.958
787.4915, 4871.075
789.4199, 4862.947
791.3484, 4846.348
793.2769, 4837.236
795.2053, 4840.678
797.1338, 4845.470
799.0623, 4846.794
800.9907, 4844.524
802.9192, 4841.601
804.8477, 4834.020
806.7761, 4829.969
808.7046, 4834.912
810.6331, 4848.680
812.5615, 4860.259
814.4900, 4868.997
816.4185, 4876.213
818.3469, 4880.282
820.2754, 4880.934
822.2039, 4888.567
824.1323, 4911.058
826.0608, 4932.458
827.9893, 4943.896
829.9177, 4944.510
831.8462, 4950.847
833.7747, 4968.849
835.7031, 4986.263
837.6316, 4996.127
839.5601, 4999.198
841.4885, 5004.909
843.4170, 5017.932
845.3455, 5030.460
847.2739, 5039.349
849.2024, 5044.190
851.1309, 5048.015
853.0593, 5047.971
854.9878, 5049.319
856.9163, 5056.075
858.8447, 5067.138
860.7732, 5075.740
862.7017, 5080.874
864.6301, 5084.409
866.5586, 5085.465
868.4871, 5084.372
870.4155, 5089.256
872.3440, 5106.011
874.2725, 5122.263
876.2009, 5132.116
878.1294, 5137.042
880.0579, 5142.491
881.9863, 5149.174
883.9148, 5155.136
885.8433, 5158.868
887.7717, 5160.587
889.7002, 5163.652
891.6287, 5167.681
893.5571, 5173.449
895.4856, 5183.964
897.4141, 5196.960
899.3425, 5205.179
901.2710, 5206.130
903.1995, 5208.073
905.1279, 5214.444
907.0564, 5224.024
908.9849, 5233.520
910.9133, 5240.132
912.8418, 5248.995
914.7703, 5262.306
916.6987, 5277.200
918.6272, 5288.252
920.5557, 5294.587
922.4841, 5299.764
924.4126, 5304.678
926.3411, 5309.751
928.2695, 5315.313
930.1980, 5321.491
932.1265, 5329.721
934.0549, 5341.032
935.9834, 5354.176
937.9119, 5368.338
939.8403, 5384.574
941.7688, 5396.962
943.6973, 5398.797
945.6257, 5400.081
947.5542, 5408.316
949.4827, 5423.812
951.4111, 5440.360
953.3396, 5459.396
955.2681, 5477.308
957.1965, 5491.665
959.1250, 5501.848
961.0535, 5513.003
962.9819, 5526.655
964.9104, 5539.774
966.8389, 5550.249
968.7673, 5558.647
970.6958, 5568.095
972.6243, 5581.723
974.5527, 5591.483
976.4812, 5591.351
978.4097, 5584.417
980.3381, 5584.619
982.2666, 5600.333
984.1951, 5613.995
986.1235, 5620.584
988.0520, 5624.175
989.9805, 5633.884
991.9089, 5652.807
993.8374, 5667.195
995.7659, 5670.458
997.6943, 5668.280
999.6228, 5665.108
1001.551, 5658.591
1003.480, 5658.860
1005.408, 5674.343
1007.337, 5691.069
1009.265, 5697.863
1011.194, 5691.653
1013.122, 5692.197
1015.051, 5707.060
1016.979, 5722.628
1018.907, 5730.624
1020.836, 5733.626
1022.764, 5741.253
1024.693, 5756.285
1026.621, 5773.200
1028.550, 5789.733
1030.478, 5805.913
1032.407, 5822.735
1034.335, 5840.637
1036.264, 5856.707
1038.192, 5870.521
1040.121, 5881.477
1042.049, 5887.867
1043.978, 5888.623
1045.906, 5891.146
1047.834, 5899.731
1049.763, 5908.832
1051.691, 5914.752
1053.620, 5917.686
1055.548, 5920.719
1057.477, 5926.163
1059.405, 5931.230
1061.334, 5933.696
1063.262, 5934.581
1065.191, 5941.050
1067.119, 5955.474
1069.048, 5971.385
1070.976, 5986.908
1072.905, 6001.611
1074.833, 6014.741
1076.761, 6024.710
1078.690, 6035.134
1080.618, 6048.846
1082.547, 6061.667
1084.475, 6070.412
1086.404, 6074.804
1088.332, 6078.028
1090.261, 6079.651
1092.189, 6082.382
1094.118, 6088.493
1096.046, 6097.632
1097.975, 6105.053
1099.903, 6108.626
1101.832, 6113.227
1103.760, 6121.512
1105.688, 6131.442
1107.617, 6139.935
1109.545, 6146.680
1111.474, 6152.808
1113.402, 6158.585
1115.331, 6163.839
1117.259, 6167.303
1119.188, 6167.019
1121.116, 6171.974
1123.045, 6186.294
1124.973, 6200.497
1126.902, 6212.758
1128.830, 6222.084
1130.759, 6224.283
1132.687, 6215.837
1134.615, 6210.524
1136.544, 6214.804
1138.472, 6224.655
1140.401, 6236.260
1142.329, 6250.396
1144.258, 6262.032
1146.186, 6265.819
1148.115, 6269.802
1150.043, 6279.363
1151.972, 6294.252
1153.900, 6305.595
1155.829, 6311.119
1157.757, 6316.439
1159.686, 6324.097
1161.614, 6332.510
1163.542, 6338.597
1165.471, 6341.880
1167.399, 6347.266
1169.328, 6358.179
1171.256, 6370.016
1173.185, 6380.071
1175.113, 6388.553
1177.042, 6396.177
1178.970, 6398.268
1180.899, 6405.095
1182.827, 6420.680
1184.756, 6441.917
1186.684, 6462.168
1188.613, 6480.589
1190.541, 6497.097
1192.469, 6511.974
1194.398, 6523.863
1196.326, 6532.415
1198.255, 6538.266
1200.183, 6540.417
1202.112, 6536.363
1204.040, 6535.880
1205.969, 6544.591
1207.897, 6559.622
1209.826, 6575.072
1211.754, 6591.643
1213.683, 6605.116
1215.611, 6610.918
1217.540, 6615.349
1219.468, 6621.817
1221.396, 6630.058
1223.325, 6641.128
1225.253, 6659.870
1227.182, 6675.487
1229.110, 6683.726
1231.039, 6688.411
1232.967, 6695.667
1234.896, 6706.431
1236.824, 6715.438
1238.753, 6717.545
1240.681, 6722.929
1242.610, 6739.376
1244.538, 6765.165
1246.467, 6785.310
1248.395, 6794.671
1250.323, 6804.728
1252.252, 6816.201
1254.180, 6828.910
1256.109, 6843.251
1258.037, 6859.765
1259.966, 6873.385
1261.894, 6882.423
1263.823, 6890.623
1265.751, 6902.233
1267.680, 6914.125
1269.608, 6918.565
1271.537, 6914.525
1273.465, 6910.358
1275.394, 6904.611
1277.322, 6904.102
1279.250, 6915.657
1281.179, 6937.780
1283.107, 6955.459
1285.036, 6963.007
1286.964, 6972.987
1288.893, 6989.956
1290.821, 7008.605
1292.750, 7023.161
1294.678, 7033.011
1296.607, 7039.501
1298.535, 7035.463
1300.464, 7037.470
1302.392, 7059.513
1304.321, 7091.810
1306.249, 7108.095
1308.177, 7103.741
1310.106, 7102.477
1312.034, 7108.341
1313.963, 7117.647
1315.891, 7129.111
1317.820, 7142.470
1319.748, 7157.637
1321.677, 7177.963
1323.605, 7194.585
1325.534, 7206.796
1327.462, 7214.124
1329.391, 7211.084
1331.319, 7194.751
1333.248, 7195.543
1335.176, 7225.517
1337.104, 7255.789
1339.033, 7277.438
1340.961, 7295.211
1342.890, 7317.113
1344.818, 7346.271
1346.747, 7368.681
1348.675, 7384.104
1350.604, 7395.884
1352.532, 7408.962
1354.461, 7420.215
1356.389, 7422.347
1358.318, 7415.491
1360.246, 7404.490
1362.175, 7382.600
1364.103, 7365.110
1366.031, 7361.665
1367.960, 7367.659
1369.888, 7373.241
1371.817, 7376.157
1373.745, 7384.165
1375.674, 7404.215
1377.602, 7424.913
1379.531, 7439.344
1381.459, 7448.547
1383.388, 7459.790
1385.316, 7476.238
1387.245, 7488.845
1389.173, 7492.115
1391.102, 7494.633
1393.030, 7502.964
1394.958, 7516.990
1396.887, 7531.799
1398.815, 7550.486
1400.744, 7566.582
1402.672, 7579.823
1404.601, 7589.823
1406.529, 7593.312
1408.458, 7591.069
1410.386, 7594.741
1412.315, 7607.370
1414.243, 7617.899
1416.172, 7621.592
1418.100, 7622.884
1420.029, 7626.276
1421.957, 7632.087
1423.885, 7638.145
1425.814, 7645.006
1427.742, 7653.205
1429.671, 7665.126
1431.599, 7677.016
1433.528, 7683.089
1435.456, 7683.083
1437.385, 7691.234
1439.313, 7711.592
1441.242, 7732.426
1443.170, 7750.870
1445.099, 7767.999
1447.027, 7784.594
1448.956, 7800.662
1450.884, 7816.845
1452.813, 7837.815
1454.741, 7852.666
1456.669, 7852.823
1458.598, 7851.775
1460.526, 7863.126
1462.455, 7886.159
1464.383, 7903.427
1466.312, 7912.259
1468.240, 7919.390
1470.169, 7929.807
1472.097, 7936.414
1474.026, 7928.898
1475.954, 7912.531
1477.883, 7912.497
1479.811, 7936.638
1481.740, 7958.438
1483.668, 7966.954
1485.596, 7974.853
1487.525, 7989.243
1489.453, 8007.893
1491.382, 8028.179
1493.310, 8050.095
1495.239, 8066.092
1497.167, 8072.054
1499.096, 8074.023
1501.024, 8074.417
1502.953, 8075.193
1504.881, 8081.087
1506.810, 8094.594
1508.738, 8107.896
1510.667, 8121.856
1512.595, 8133.339
1514.523, 8138.957
1516.452, 8141.159
1518.380, 8143.901
1520.309, 8145.763
1522.237, 8151.466
1524.166, 8165.876
1526.094, 8177.893
1528.023, 8182.962
1529.951, 8186.119
1531.880, 8193.529
1533.808, 8206.029
1535.737, 8219.061
1537.665, 8232.416
1539.594, 8246.990
1541.522, 8263.457
1543.450, 8280.087
1545.379, 8294.658
1547.307, 8307.029
1549.236, 8320.131
1551.164, 8336.938
1553.093, 8347.811
1555.021, 8346.701
1556.950, 8345.561
1558.878, 8351.697
1560.807, 8363.441
1562.735, 8377.010
1564.664, 8393.369
1566.592, 8406.497
1568.521, 8412.334
1570.449, 8417.703
1572.377, 8422.765
1574.306, 8428.728
1576.234, 8439.170
1578.163, 8453.228
1580.091, 8461.933
1582.020, 8463.926
1583.948, 8465.190
1585.877, 8469.485
1587.805, 8474.204
1589.734, 8474.760
1591.662, 8474.778
1593.591, 8485.052
1595.519, 8507.432
1597.448, 8526.258
1599.376, 8533.495
1601.304, 8541.809
1603.233, 8561.364
1605.161, 8583.206
1607.090, 8596.295
1609.018, 8601.074
1610.947, 8600.140
1612.875, 8588.765
1614.804, 8585.712
1616.732, 8605.052
1618.661, 8627.246
1620.589, 8635.665
1622.518, 8634.778
1624.446, 8642.931
1626.375, 8663.269
1628.303, 8676.351
1630.231, 8672.310
1632.160, 8670.850
1634.088, 8685.213
1636.017, 8704.568
1637.945, 8712.461
1639.874, 8709.057
1641.802, 8714.311
1643.731, 8733.455
1645.659, 8748.791
1647.588, 8751.061
1649.516, 8752.154
1651.445, 8762.628
1653.373, 8777.006
1655.302, 8777.361
1657.230, 8759.775
1659.158, 8757.700
1661.087, 8786.304
1663.015, 8811.839
1664.944, 8821.144
1666.872, 8825.406
1668.801, 8832.980
1670.729, 8843.686
1672.658, 8859.401
1674.586, 8886.687
1676.515, 8901.105
1678.443, 8882.080
1680.372, 8873.339
1682.300, 8896.414
1684.229, 8934.628
1686.157, 8968.111
1688.085, 8995.870
1690.014, 9022.780
1691.942, 9050.089
1693.871, 9069.261
1695.799, 9071.379
1697.728, 9071.995
1699.656, 9080.927
1701.585, 9092.412
1703.513, 9095.815
1705.442, 9090.758
1707.370, 9090.293
1709.299, 9096.828
1711.227, 9106.689
1713.156, 9121.947
1715.084, 9137.878
1717.012, 9153.659
1718.941, 9167.257
1720.869, 9173.383
1722.798, 9170.250
1724.726, 9169.069
1726.655, 9169.779
1728.583, 9172.797
1730.512, 9179.752
1732.440, 9188.042
1734.369, 9196.275
1736.297, 9204.896
1738.226, 9215.684
1740.154, 9229.338
1742.083, 9236.826
1744.011, 9231.552
1745.939, 9230.600
1747.868, 9241.145
1749.796, 9254.139
1751.725, 9266.928
1753.653, 9278.690
1755.582, 9285.626
1757.510, 9287.619
1759.439, 9295.095
1761.367, 9313.714
1763.296, 9325.486
1765.224, 9315.722
1767.153, 9306.180
1769.081, 9308.904
1771.010, 9318.990
1772.938, 9329.894
1774.866, 9341.919
1776.795, 9349.091
1778.723, 9350.317
1780.652, 9352.533
1782.580, 9355.601
1784.509, 9364.178
1786.437, 9386.592
1788.366, 9412.099
1790.294, 9422.803
1792.223, 9420.661
1794.151, 9426.365
1796.080, 9443.016
1798.008, 9457.529
1799.937, 9465.816
1801.865, 9472.876
1803.793, 9479.227
1805.722, 9486.968
1807.650, 9501.967
1809.579, 9520.310
1811.507, 9524.559
1813.436, 9511.373
1815.364, 9509.381
1817.293, 9530.692
1819.221, 9551.008
1821.150, 9559.328
1823.078, 9565.588
1825.007, 9575.626
1826.935, 9589.851
1828.864, 9610.061
1830.792, 9635.903
1832.720, 9658.156
1834.649, 9675.066
1836.577, 9687.498
1838.506, 9687.781
1840.434, 9691.509
1842.363, 9715.680
1844.291, 9743.439
1846.220, 9748.928
1848.148, 9734.210
1850.077, 9724.200
1852.005, 9717.862
1853.934, 9720.189
1855.862, 9740.211
1857.791, 9758.843
1859.719, 9773.479
1861.647, 9783.396
1863.576, 9782.244
1865.504, 9777.232
1867.433, 9788.063
1869.361, 9817.361
1871.290, 9842.217
1873.218, 9860.808
1875.147, 9873.214
1877.075, 9871.082
1879.004, 9870.991
1880.932, 9883.459
1882.861, 9900.275
1884.789, 9914.078
1886.718, 9925.584
1888.646, 9933.688
1890.574, 9938.093
1892.503, 9943.731
1894.431, 9947.739
1896.360, 9958.844
1898.288, 9989.193
1900.217, 10013.49
1902.145, 10010.86
1904.074, 9998.516
1906.002, 10001.19
1907.931, 10015.32
1909.859, 10021.36
1911.788, 10017.61
1913.716, 10018.30
1915.645, 10025.60
1917.573, 10037.83
1919.501, 10061.27
1921.430, 10081.01
1923.358, 10083.06
1925.287, 10077.35
1927.215, 10078.20
1929.144, 10085.35
1931.072, 10096.08
1933.001, 10112.26
1934.929, 10127.59
1936.858, 10144.33
1938.786, 10157.28
1940.715, 10160.64
1942.643, 10164.85
1944.572, 10178.45
1946.500, 10195.45
1948.428, 10207.01
1950.357, 10213.22
1952.285, 10216.40
1954.214, 10212.41
1956.142, 10217.13
1958.071, 10236.76
1959.999, 10253.68
1961.928, 10264.63
1963.856, 10270.53
1965.785, 10269.95
1967.713, 10267.27
1969.642, 10268.53
1971.570, 10273.34
1973.499, 10276.99
1975.427, 10279.97
1977.355, 10287.79
1979.284, 10301.91
1981.212, 10316.45
1983.141, 10325.00
1985.069, 10337.73
1986.998, 10364.08
1988.926, 10390.15
1990.855, 10401.48
1992.783, 10402.98
1994.712, 10407.88
1996.640, 10417.05
1998.569, 10418.56
2000.497, 10409.62
2002.426, 10404.07
2004.354, 10407.49
2006.282, 10409.50
2008.211, 10401.62
2010.139, 10398.12
2012.068, 10410.38
2013.996, 10429.36
2015.925, 10443.34
2017.853, 10453.27
2019.782, 10465.01
2021.710, 10479.10
2023.639, 10491.49
2025.567, 10501.72
2027.496, 10510.66
2029.424, 10514.54
2031.353, 10522.55
2033.281, 10543.02
2035.209, 10563.44
2037.138, 10573.47
2039.066, 10577.94
2040.995, 10583.94
2042.923, 10591.60
2044.852, 10601.15
2046.780, 10614.12
2048.709, 10622.38
2050.637, 10616.81
2052.566, 10620.31
2054.494, 10647.41
2056.423, 10667.92
2058.351, 10664.31
2060.280, 10657.09
2062.208, 10665.68
2064.136, 10680.95
2066.065, 10684.28
2067.993, 10677.85
2069.922, 10679.25
2071.850, 10688.40
2073.779, 10700.40
2075.707, 10716.03
2077.636, 10724.70
2079.564, 10719.00
2081.493, 10714.14
2083.421, 10723.38
2085.350, 10730.49
2087.278, 10720.11
2089.207, 10704.45
2091.135, 10700.40
2093.063, 10706.28
2094.992, 10713.60
2096.920, 10722.08
2098.849, 10729.38
2100.777, 10732.53
2102.706, 10738.49
2104.634, 10753.46
2106.563, 10762.31
2108.491, 10759.53
2110.420, 10753.67
2112.348, 10742.60
2114.277, 10736.95
2116.205, 10749.22
2118.134, 10772.76
2120.062, 10796.85
2121.990, 10820.29
2123.919, 10838.46
2125.847, 10850.55
2127.776, 10859.80
2129.704, 10866.42
2131.633, 10869.20
2133.561, 10861.47
2135.490, 10857.41
2137.418, 10865.59
2139.347, 10873.42
2141.275, 10874.46
2143.204, 10871.10
2145.132, 10864.80
2147.061, 10858.70
2148.989, 10860.24
2150.917, 10869.26
2152.846, 10875.40
2154.774, 10876.86
2156.703, 10884.04
2158.631, 10898.19
2160.560, 10909.53
2162.488, 10913.34
2164.417, 10914.57
2166.345, 10913.77
2168.274, 10913.85
2170.202, 10923.35
2172.131, 10932.39
2174.059, 10929.13
2175.988, 10919.07
2177.916, 10909.75
2179.844, 10901.88
2181.773, 10904.14
2183.701, 10915.77
2185.630, 10933.37
2187.558, 10958.15
2189.487, 10973.92
2191.415, 10973.51
2193.344, 10972.48
2195.272, 10978.59
2197.201, 10982.45
2199.129, 10975.70
2201.058, 10970.90
2202.986, 10983.33
2204.915, 11000.96
2206.843, 11005.28
2208.771, 11002.02
2210.700, 11007.57
2212.628, 11021.70
2214.557, 11033.75
2216.485, 11042.32
2218.414, 11058.23
2220.342, 11084.62
2222.271, 11100.88
2224.199, 11096.63
2226.128, 11094.03
2228.056, 11107.90
2229.985, 11116.88
2231.913, 11107.14
2233.842, 11096.32
2235.770, 11098.22
2237.698, 11107.62
2239.627, 11119.45
2241.555, 11131.76
2243.484, 11138.12
2245.412, 11139.12
2247.341, 11148.14
2249.269, 11164.97
2251.198, 11168.46
2253.126, 11154.43
2255.055, 11147.91
2256.983, 11155.81
2258.912, 11165.75
2260.840, 11177.58
2262.769, 11187.05
2264.697, 11187.56
2266.625, 11191.22
2268.554, 11210.67
2270.482, 11229.74
2272.411, 11231.06
2274.339, 11225.98
2276.268, 11232.21
2278.196, 11243.91
2280.125, 11244.95
2282.053, 11238.24
2283.982, 11241.09
2285.910, 11255.11
2287.839, 11264.12
2289.767, 11263.29
2291.696, 11269.71
2293.624, 11287.17
2295.552, 11305.29
2297.481, 11325.93
2299.409, 11340.89
2301.338, 11344.25
2303.266, 11346.44
2305.195, 11351.51
2307.123, 11358.28
2309.052, 11371.55
2310.980, 11381.17
2312.909, 11369.57
2314.837, 11350.77
2316.766, 11351.65
2318.694, 11366.01
2320.623, 11370.42
2322.551, 11366.20
2324.479, 11376.05
2326.408, 11401.90
2328.336, 11414.03
2330.265, 11408.73
2332.193, 11404.80
2334.122, 11402.30
2336.050, 11407.16
2337.979, 11428.49
2339.907, 11441.94
2341.836, 11430.58
2343.764, 11426.12
2345.693, 11452.44
2347.621, 11475.70
2349.550, 11466.97
2351.478, 11456.76
2353.406, 11476.24
2355.335, 11502.65
2357.263, 11506.88
2359.192, 11499.53
2361.120, 11498.44
2363.049, 11502.04
2364.977, 11507.37
2366.906, 11513.97
2368.834, 11511.59
2370.763, 11497.79
2372.691, 11496.49
2374.620, 11511.70
2376.548, 11522.23
2378.477, 11527.84
2380.405, 11524.99
2382.333, 11506.70
2384.262, 11499.58
2386.190, 11519.32
2388.119, 11536.76
2390.047, 11535.48
2391.976, 11539.25
2393.904, 11563.14
2395.833, 11588.32
2397.761, 11605.19
2399.690, 11616.75
2401.618, 11619.67
2403.547, 11623.22
2405.475, 11641.64
2407.404, 11663.71
2409.332, 11670.96
2411.260, 11668.34
2413.189, 11668.29
2415.117, 11671.15
2417.046, 11674.49
2418.974, 11679.48
2420.903, 11689.16
2422.831, 11703.68
2424.760, 11724.21
2426.688, 11750.75
2428.617, 11768.17
2430.545, 11771.20
2432.474, 11771.14
2434.402, 11767.52
2436.331, 11763.72
2438.259, 11759.72
2440.188, 11760.56
2442.116, 11773.10
2444.044, 11783.88
2445.973, 11783.39
2447.901, 11789.39
2449.830, 11815.39
2451.758, 11840.80
2453.687, 11848.02
2455.615, 11852.69
2457.544, 11871.70
2459.472, 11888.57
2461.401, 11886.60
2463.329, 11875.73
2465.258, 11870.86
2467.186, 11866.56
2469.115, 11847.87
2471.043, 11825.43
2472.971, 11821.99
2474.900, 11833.03
2476.828, 11841.95
2478.757, 11848.46
2480.685, 11863.66
2482.614, 11886.39
2484.542, 11893.80
2486.471, 11886.27
2488.399, 11892.21
2490.328, 11915.97
2492.256, 11929.27
2494.185, 11925.72
2496.113, 11924.69
2498.042, 11926.38
2499.970, 11929.38
2501.898, 11932.98
2503.827, 11936.60
2505.755, 11942.66
2507.684, 11940.99
2509.612, 11926.07
2511.541, 11912.82
2513.469, 11905.85
2515.398, 11905.39
2517.326, 11914.36
2519.255, 11925.99
2521.183, 11935.38
2523.112, 11946.32
2525.040, 11961.86
2526.969, 11974.70
2528.897, 11980.47
2530.825, 11981.98
2532.754, 11979.26
2534.682, 11978.63
2536.611, 11987.40
2538.539, 12000.69
2540.468, 12013.45
2542.396, 12025.23
2544.325, 12033.47
2546.253, 12040.53
2548.182, 12050.46
2550.110, 12061.89
2552.039, 12075.52
2553.967, 12088.67
2555.896, 12090.35
2557.824, 12085.96
2559.752, 12095.69
2561.681, 12113.86
2563.609, 12117.67
2565.538, 12110.44
2567.466, 12114.09
2569.395, 12127.86
2571.323, 12138.87
2573.252, 12147.73
2575.180, 12151.38
2577.109, 12150.18
2579.037, 12157.74
2580.966, 12174.06
2582.894, 12187.89
2584.823, 12198.82
2586.751, 12196.78
2588.679, 12173.52
2590.608, 12165.88
2592.536, 12179.91
2594.465, 12185.44
2596.393, 12179.45
2598.322, 12174.45
2600.250, 12169.22
2602.179, 12178.72
2604.107, 12217.37
2606.036, 12241.02
2607.964, 12234.98
2609.893, 12236.11
2611.821, 12249.39
2613.750, 12265.55
2615.678, 12287.71
2617.606, 12297.45
2619.535, 12281.70
2621.463, 12269.38
2623.392, 12266.35
2625.320, 12266.37
2627.249, 12265.38
2629.177, 12272.51
2631.106, 12295.47
2633.034, 12314.37
2634.963, 12322.36
2636.891, 12327.34
2638.820, 12332.74
2640.748, 12335.75
2642.677, 12333.16
2644.605, 12330.34
2646.533, 12328.60
2648.462, 12324.32
2650.390, 12310.50
2652.319, 12301.73
2654.247, 12313.54
2656.176, 12320.10
2658.104, 12308.41
2660.033, 12295.15
2661.961, 12282.70
2663.890, 12279.67
2665.818, 12296.68
2667.747, 12312.23
2669.675, 12310.14
2671.604, 12307.74
2673.532, 12315.57
2675.460, 12322.22
2677.389, 12318.74
2679.317, 12318.10
2681.246, 12332.45
2683.174, 12344.22
2685.103, 12343.23
2687.031, 12337.81
2688.960, 12326.37
2690.888, 12322.00
2692.817, 12339.14
2694.745, 12357.34
2696.674, 12360.02
2698.602, 12368.62
2700.531, 12404.51
2702.459, 12434.37
2704.387, 12429.38
2706.316, 12420.86
2708.244, 12427.15
2710.173, 12434.12
2712.101, 12438.70
2714.030, 12439.31
2715.958, 12434.57
2717.887, 12429.87
2719.815, 12422.71
2721.744, 12424.67
2723.672, 12449.09
2725.601, 12470.28
2727.529, 12471.70
2729.458, 12469.94
2731.386, 12472.74
2733.314, 12476.23
2735.243, 12478.60
2737.171, 12482.14
2739.100, 12491.55
2741.028, 12496.43
2742.957, 12488.64
2744.885, 12481.63
2746.814, 12480.81
2748.742, 12485.05
2750.671, 12497.97
2752.599, 12510.81
2754.528, 12515.34
2756.456, 12529.79
2758.385, 12572.96
2760.313, 12603.81
2762.241, 12600.03
2764.170, 12589.86
2766.098, 12571.23
2768.027, 12565.92
2769.955, 12588.37
2771.884, 12603.47
2773.812, 12599.45
2775.741, 12590.95
2777.669, 12581.54
2779.598, 12570.67
2781.526, 12554.89
2783.455, 12553.29
2785.383, 12577.81
2787.312, 12590.33
2789.240, 12568.92
2791.168, 12558.35
2793.097, 12563.70
2795.025, 12569.45
2796.954, 12573.81
2798.882, 12579.05
2800.811, 12588.33
2802.739, 12588.94
2804.668, 12577.70
2806.596, 12565.00
2808.525, 12549.42
2810.453, 12546.24
2812.382, 12556.52
2814.310, 12564.14
2816.239, 12567.20
2818.167, 12570.48
2820.095, 12574.84
2822.024, 12570.40
2823.952, 12559.01
2825.881, 12571.49
2827.809, 12603.30
2829.738, 12606.29
2831.666, 12583.56
2833.595, 12566.99
2835.523, 12556.65
2837.452, 12555.74
2839.380, 12561.79
2841.309, 12566.17
2843.237, 12570.07
2845.166, 12574.98
2847.094, 12578.88
2849.022, 12569.51
2850.951, 12559.14
2852.879, 12573.21
2854.808, 12593.61
2856.736, 12595.14
2858.665, 12590.69
2860.593, 12599.86
2862.522, 12608.49
2864.450, 12602.97
2866.379, 12591.86
2868.307, 12571.88
2870.236, 12562.33
2872.164, 12592.72
2874.093, 12615.54
2876.021, 12596.68
2877.949, 12580.34
2879.878, 12591.38
2881.806, 12603.58
2883.735, 12602.92
2885.663, 12607.10
2887.592, 12621.92
2889.520, 12633.61
2891.449, 12638.10
2893.377, 12639.63
2895.306, 12636.82
2897.234, 12638.55
2899.163, 12648.85
2901.091, 12654.67
2903.020, 12654.84
2904.948, 12653.66
2906.876, 12649.18
2908.805, 12657.85
2910.733, 12681.46
2912.662, 12689.61
2914.590, 12683.83
2916.519, 12674.82
2918.447, 12663.82
2920.376, 12647.04
2922.304, 12630.28
2924.233, 12634.23
2926.161, 12650.59
2928.090, 12660.49
2930.018, 12667.19
2931.947, 12675.35
2933.875, 12683.08
2935.803, 12687.19
2937.732, 12691.42
2939.660, 12702.15
2941.589, 12712.28
2943.517, 12718.58
2945.446, 12720.78
2947.374, 12716.93
2949.303, 12711.49
2951.231, 12704.11
2953.160, 12699.75
2955.088, 12699.85
2957.017, 12705.19
2958.945, 12727.31
2960.874, 12729.09
2962.802, 12700.12
2964.730, 12695.55
2966.659, 12728.09
2968.587, 12739.96
2970.516, 12722.30
2972.444, 12719.33
2974.373, 12729.40
2976.301, 12739.74
2978.230, 12748.38
2980.158, 12744.18
2982.087, 12732.52
2984.015, 12729.31
2985.944, 12729.96
2987.872, 12723.56
2989.801, 12717.06
2991.729, 12720.49
2993.657, 12727.45
2995.586, 12734.93
2997.514, 12739.19
2999.443, 12735.10
3001.371, 12731.15
3003.300, 12734.46
3005.228, 12731.45
3007.157, 12707.83
3009.085, 12701.00
3011.014, 12728.22
3012.942, 12736.80
3014.871, 12700.75
3016.799, 12692.56
3018.728, 12718.29
3020.656, 12733.59
3022.584, 12736.50
3024.513, 12736.40
3026.441, 12733.30
3028.370, 12725.21
3030.298, 12716.16
3032.227, 12724.62
3034.155, 12740.01
3036.084, 12746.84
3038.012, 12747.63
3039.941, 12742.56
3041.869, 12735.90
3043.798, 12731.33
3045.726, 12725.49
3047.655, 12711.41
3049.583, 12704.65
3051.511, 12719.16
3053.440, 12725.85
3055.368, 12718.56
3057.297, 12708.06
3059.225, 12691.35
3061.154, 12690.06
3063.082, 12705.58
3065.011, 12722.40
3066.939, 12737.96
3068.868, 12736.84
3070.796, 12722.55
3072.725, 12705.41
3074.653, 12692.14
3076.582, 12706.89
3078.510, 12727.10
3080.438, 12727.25
3082.367, 12720.13
3084.295, 12713.65
3086.224, 12709.94
3088.152, 12712.64
3090.081, 12712.41
3092.009, 12701.01
3093.938, 12693.08
3095.866, 12690.85
3097.795, 12689.21
3099.723, 12688.37
3101.652, 12683.89
3103.580, 12675.95
3105.509, 12681.68
3107.437, 12696.33
3109.365, 12694.26
3111.294, 12683.25
3113.222, 12674.03
3115.151, 12673.35
3117.079, 12698.08
3119.008, 12727.08
3120.936, 12747.61
3122.865, 12761.43
3124.793, 12766.94
3126.722, 12768.20
3128.650, 12762.77
3130.579, 12763.64
3132.507, 12776.71
3134.436, 12784.94
3136.364, 12787.21
3138.292, 12800.70
3140.221, 12821.97
3142.149, 12817.37
3144.078, 12797.08
3146.006, 12789.71
3147.935, 12789.62
3149.863, 12789.51
3151.792, 12790.71
3153.720, 12797.94
3155.649, 12803.42
3157.577, 12803.50
3159.506, 12802.08
3161.434, 12799.99
3163.363, 12797.34
3165.291, 12789.25
3167.219, 12798.07
3169.148, 12823.95
3171.076, 12826.74
3173.005, 12811.06
3174.933, 12815.26
3176.862, 12831.11
3178.790, 12837.60
3180.719, 12839.84
3182.647, 12841.27
3184.576, 12842.62
3186.504, 12847.49
3188.433, 12847.54
3190.361, 12839.97
3192.290, 12831.89
3194.218, 12823.25
3196.146, 12823.62
3198.075, 12833.46
3200.003, 12845.97
3201.932, 12859.14
3203.860, 12866.79
3205.789, 12869.17
3207.717, 12867.27
3209.646, 12862.81
3211.574, 12855.91
3213.503, 12850.26
3215.431, 12845.23
3217.360, 12845.73
3219.288, 12854.38
3221.217, 12860.85
3223.145, 12861.52
3225.073, 12862.00
3227.002, 12863.73
3228.930, 12841.72
3230.859, 12803.97
3232.787, 12799.45
3234.716, 12812.85
3236.644, 12807.30
3238.573, 12798.50
3240.501, 12800.79
3242.430, 12806.63
3244.358, 12814.59
3246.287, 12816.02
3248.215, 12807.25
3250.144, 12795.46
3252.072, 12779.79
3254.000, 12772.65
3255.929, 12773.02
3257.857, 12763.53
3259.786, 12748.01
3261.714, 12731.54
3263.643, 12721.59
3265.571, 12738.96
3267.500, 12751.26
3269.428, 12724.21
3271.357, 12707.80
3273.285, 12721.47
3275.214, 12733.88
3277.142, 12739.05
3279.071, 12741.78
3280.999, 12741.70
3282.927, 12741.92
3284.856, 12741.88
3286.784, 12745.75
3288.713, 12743.84
3290.641, 12713.93
3292.570, 12687.81
3294.498, 12685.42
3296.427, 12692.61
3298.355, 12711.54
3300.284, 12721.88
3302.212, 12720.67
3304.141, 12717.89
3306.069, 12713.46
3307.998, 12714.76
3309.926, 12715.37
3311.854, 12700.03
3313.783, 12678.25
3315.711, 12653.76
3317.640, 12639.78
3319.568, 12650.71
3321.497, 12653.28
3323.425, 12629.11
3325.354, 12627.00
3327.282, 12648.92
3329.211, 12657.23
3331.139, 12653.99
3333.068, 12655.72
3334.996, 12655.38
3336.925, 12630.82
3338.853, 12616.48
3340.781, 12647.05
3342.710, 12673.43
3344.638, 12678.83
3346.567, 12680.59
3348.495, 12679.92
3350.424, 12678.60
3352.352, 12676.63
3354.281, 12677.19
3356.209, 12675.50
3358.138, 12661.47
3360.066, 12645.34
3361.995, 12632.47
3363.923, 12629.82
3365.852, 12648.59
3367.780, 12652.41
3369.708, 12630.35
3371.637, 12630.78
3373.565, 12650.24
3375.494, 12661.82
3377.422, 12666.38
3379.351, 12657.87
3381.279, 12653.99
3383.208, 12672.80
3385.136, 12690.23
3387.065, 12695.23
3388.993, 12700.61
3390.922, 12708.55
3392.850, 12704.59
3394.779, 12690.99
3396.707, 12684.95
3398.635, 12677.10
3400.564, 12642.20
3402.492, 12616.32
3404.421, 12646.17
3406.349, 12660.24
3408.278, 12632.21
3410.206, 12619.53
3412.135, 12631.20
3414.063, 12631.65
3415.992, 12626.28
3417.920, 12640.76
3419.849, 12656.73
3421.777, 12640.03
3423.706, 12630.06
3425.634, 12656.73
3427.563, 12679.06
3429.491, 12688.68
3431.419, 12698.73
3433.348, 12709.02
3435.276, 12713.14
3437.205, 12710.83
3439.133, 12696.64
3441.062, 12683.34
3442.990, 12681.54
3444.919, 12685.81
3446.847, 12697.63
3448.776, 12704.15
3450.704, 12703.25
3452.633, 12704.21
3454.561, 12703.80
3456.490, 12680.67
3458.418, 12654.68
3460.346, 12651.45
3462.275, 12652.03
3464.203, 12647.91
3466.132, 12648.75
3468.060, 12665.05
3469.989, 12647.80
3471.917, 12606.61
3473.846, 12608.86
3475.774, 12627.87
3477.703, 12622.95
3479.631, 12614.20
3481.560, 12616.55
3483.488, 12614.39
3485.417, 12602.30
3487.345, 12595.86
3489.273, 12595.19
3491.202, 12597.23
3493.130, 12596.31
3495.059, 12571.58
3496.987, 12553.13
3498.916, 12577.97
3500.844, 12582.44
3502.773, 12545.42
3504.701, 12531.25
3506.630, 12545.00
3508.558, 12561.84
3510.487, 12574.43
3512.415, 12558.45
3514.344, 12543.57
3516.272, 12559.28
3518.200, 12569.65
3520.129, 12566.80
3522.057, 12562.40
3523.986, 12557.86
3525.914, 12559.89
3527.843, 12563.93
3529.771, 12562.76
3531.700, 12558.53
3533.628, 12553.00
3535.557, 12546.40
3537.485, 12539.76
3539.414, 12540.80
3541.342, 12549.66
3543.271, 12545.13
3545.199, 12537.56
3547.127, 12539.48
3549.056, 12548.35
3550.984, 12563.35
3552.913, 12574.65
3554.841, 12576.97
3556.770, 12580.44
3558.698, 12582.52
3560.627, 12574.97
3562.555, 12561.10
3564.484, 12540.43
3566.412, 12526.48
3568.341, 12533.91
3570.269, 12529.27
3572.198, 12509.75
3574.126, 12506.45
3576.054, 12516.91
3577.983, 12536.69
3579.911, 12556.03
3581.840, 12569.47
3583.768, 12571.20
3585.697, 12552.31
3587.625, 12542.71
3589.554, 12542.93
3591.482, 12545.67
3593.411, 12548.78
3595.339, 12553.39
3597.268, 12549.31
3599.196, 12517.05
3601.125, 12507.54
3603.053, 12527.34
3604.981, 12528.44
3606.910, 12514.55
3608.838, 12504.81
3610.767, 12497.21
3612.695, 12492.70
3614.624, 12486.82
3616.552, 12476.74
3618.481, 12477.02
3620.409, 12487.89
3622.338, 12499.39
3624.266, 12512.86
3626.195, 12536.66
3628.123, 12553.20
3630.052, 12545.93
3631.980, 12545.93
3633.908, 12555.95
3635.837, 12550.25
3637.765, 12532.97
3639.694, 12512.87
3641.622, 12497.18
3643.551, 12502.81
3645.479, 12492.60
3647.408, 12458.51
3649.336, 12457.78
3651.265, 12484.43
3653.193, 12500.02
3655.122, 12506.96
3657.050, 12495.17
3658.979, 12497.91
3660.907, 12526.92
3662.835, 12543.42
3664.764, 12543.74
3666.692, 12524.22
3668.621, 12503.92
3670.549, 12513.74
3672.478, 12521.23
3674.406, 12511.40
3676.335, 12504.90
3678.263, 12504.76
3680.192, 12505.96
3682.120, 12510.40
3684.049, 12524.88
3685.977, 12535.44
3687.906, 12531.16
3689.834, 12527.35
3691.762, 12525.15
3693.691, 12520.31
3695.619, 12516.83
3697.548, 12530.28
3699.476, 12539.06
3701.405, 12525.44
3703.333, 12514.78
3705.262, 12511.06
3707.190, 12493.75
3709.119, 12472.88
3711.047, 12473.09
3712.976, 12480.88
3714.904, 12492.34
3716.833, 12496.29
3718.761, 12490.22
3720.689, 12476.46
3722.618, 12464.73
3724.546, 12494.70
3726.475, 12517.08
3728.403, 12487.98
3730.332, 12466.54
3732.260, 12460.81
3734.189, 12478.75
3736.117, 12508.42
3738.046, 12521.70
3739.974, 12533.59
3741.903, 12563.09
3743.831, 12567.31
3745.760, 12542.69
3747.688, 12519.18
3749.616, 12502.03
3751.545, 12499.70
3753.473, 12506.63
3755.402, 12530.61
3757.330, 12535.63
3759.259, 12519.74
3761.187, 12503.14
3763.116, 12491.73
3765.044, 12495.30
3766.973, 12506.32
3768.901, 12529.48
3770.830, 12536.03
3772.758, 12527.51
3774.687, 12530.82
3776.615, 12536.82
3778.543, 12532.65
3780.472, 12526.46
3782.400, 12523.60
3784.329, 12504.28
3786.257, 12477.00
3788.186, 12488.01
3790.114, 12503.00
3792.043, 12485.25
3793.971, 12474.78
3795.900, 12484.88
3797.828, 12478.67
3799.757, 12462.84
3801.685, 12461.79
3803.614, 12461.10
3805.542, 12451.84
3807.470, 12440.07
3809.399, 12427.38
3811.327, 12430.19
3813.256, 12437.19
3815.184, 12432.35
3817.113, 12413.85
3819.041, 12374.06
3820.970, 12356.84
3822.898, 12362.66
3824.827, 12383.99
3826.755, 12402.49
3828.684, 12393.60
3830.612, 12385.25
3832.541, 12386.38
3834.469, 12364.19
3836.397, 12333.17
3838.326, 12343.83
3840.254, 12354.76
3842.183, 12332.95
3844.111, 12325.06
3846.040, 12337.31
3847.968, 12360.14
3849.897, 12378.30
3851.825, 12364.42
3853.754, 12356.11
3855.682, 12366.43
3857.611, 12373.54
3859.539, 12374.98
3861.468, 12365.93
3863.396, 12351.90
3865.324, 12330.77
3867.253, 12322.20
3869.181, 12327.60
3871.110, 12334.47
3873.038, 12339.87
3874.967, 12341.55
3876.895, 12336.10
3878.824, 12315.24
3880.752, 12310.25
3882.681, 12317.76
3884.609, 12328.84
3886.538, 12327.74
3888.466, 12295.93
3890.395, 12285.48
3892.323, 12303.85
3894.251, 12300.37
3896.180, 12287.45
3898.108, 12277.81
3900.037, 12275.47
3901.965, 12282.82
3903.894, 12291.85
3905.822, 12298.79
3907.751, 12289.26
3909.679, 12280.30
3911.608, 12281.79
3913.536, 12287.33
3915.465, 12294.27
3917.393, 12284.65
3919.322, 12271.70
3921.250, 12268.03
3923.178, 12272.99
3925.107, 12286.43
3927.035, 12276.51
3928.964, 12255.03
3930.892, 12236.65
3932.821, 12232.62
3934.749, 12251.47
3936.678, 12274.37
3938.606, 12293.82
3940.535, 12286.71
3942.463, 12273.17
3944.392, 12262.23
3946.320, 12270.44
3948.249, 12295.42
3950.177, 12301.99
3952.105, 12297.94
3954.034, 12284.23
3955.962, 12275.40
3957.891, 12274.03
3959.819, 12281.24
3961.748, 12287.76
3963.676, 12281.72
3965.605, 12267.33
3967.533, 12245.46
3969.462, 12255.18
3971.390, 12280.09
3973.319, 12273.35
3975.247, 12259.85
3977.176, 12247.16
3979.104, 12242.01
3981.032, 12242.17
3982.961, 12242.19
3984.889, 12237.33
3986.818, 12218.99
3988.746, 12219.54
3990.675, 12236.87
3992.603, 12234.79
3994.532, 12224.67
3996.460, 12211.80
3998.389, 12210.41
4000.317, 12222.26
4002.246, 12221.15
4004.174, 12212.41
4006.103, 12203.94
4008.031, 12189.41
4009.959, 12168.68
4011.888, 12164.61
4013.816, 12169.35
4015.745, 12166.89
4017.673, 12171.54
4019.602, 12186.45
4021.530, 12182.43
4023.459, 12168.46
4025.387, 12163.15
4027.316, 12162.04
4029.244, 12170.28
4031.173, 12163.72
4033.101, 12147.00
4035.030, 12121.04
4036.958, 12107.70
4038.886, 12116.58
4040.815, 12118.02
4042.743, 12114.45
4044.672, 12132.86
4046.600, 12130.35
4048.529, 12084.73
4050.457, 12047.87
4052.386, 12026.82
4054.314, 12037.51
4056.243, 12048.14
4058.171, 12036.00
4060.100, 12025.38
4062.028, 12018.22
4063.957, 12024.61
4065.885, 12028.64
4067.813, 12022.63
4069.742, 12010.21
4071.670, 11991.82
4073.599, 11955.61
4075.527, 11937.63
4077.456, 11962.74
4079.384, 11973.71
4081.313, 11967.37
4083.241, 11933.32
4085.170, 11919.48
4087.098, 11967.47
4089.027, 11981.54
4090.955, 11967.76
4092.884, 11976.35
4094.812, 11986.17
4096.740, 11983.50
4098.669, 11981.19
4100.598, 11978.77
4102.526, 11977.77
4104.454, 11967.83
4106.383, 11944.00
4108.312, 11925.55
4110.240, 11913.11
4112.168, 11901.19
4114.097, 11895.92
4116.025, 11899.53
4117.954, 11913.17
4119.882, 11929.80
4121.811, 11931.62
4123.739, 11930.71
4125.667, 11929.01
4127.596, 11938.87
4129.524, 11949.23
4131.453, 11932.76
4133.381, 11921.55
4135.310, 11928.11
4137.238, 11933.45
4139.167, 11934.98
4141.095, 11924.93
4143.023, 11922.71
4144.952, 11932.91
4146.881, 11938.35
4148.809, 11939.33
4150.737, 11933.16
4152.666, 11931.78
4154.595, 11935.11
4156.523, 11930.45
4158.451, 11927.19
4160.380, 11933.40
4162.309, 11950.19
4164.237, 11972.94
4166.165, 11954.04
4168.094, 11928.04
4170.022, 11915.30
4171.951, 11912.95
4173.879, 11917.97
4175.808, 11920.64
4177.736, 11927.82
4179.665, 11949.96
4181.593, 11940.79
4183.521, 11919.52
4185.450, 11934.51
4187.378, 11950.35
4189.307, 11954.39
4191.235, 11954.30
4193.164, 11942.37
4195.092, 11896.91
4197.021, 11875.37
4198.949, 11886.76
4200.878, 11867.41
4202.806, 11845.94
4204.734, 11850.93
4206.663, 11851.81
4208.592, 11846.60
4210.520, 11848.19
4212.448, 11844.35
4214.377, 11825.49
4216.306, 11833.74
4218.234, 11855.72
4220.162, 11852.60
4222.091, 11840.01
4224.020, 11823.01
4225.948, 11813.96
4227.876, 11808.72
4229.805, 11801.60
4231.733, 11796.38
4233.662, 11793.99
4235.590, 11786.56
4237.519, 11775.37
##END=



