##NAMES=Tellurium
##RRUFFID=R070376
##IDEAL CHEMISTRY=Te
##LOCALITY=North of Bennett Lake, Rainy River District, Ontario, Canada
##OWNER=RRUFF
##SOURCE=Royal Ontario Museum
##DESCRIPTION=Steel gray metallic fragment
##STATUS=The identification of this mineral has been confirmed by X-ray diffraction and chemical analysis
##URL=https://www.rruff.net/odr/rruff_sample/R070376
##MEASURED CHEMISTRY=Te
##DIFFRACTION SAMPLE DESCRIPTION=Powder
##CELL PARAMETERS=a: 4.4576 b: 4.4576 c: 5.9227 alpha: 90 beta: 90 gamma: 120 volume: 101.92 crystal system: hexagonal
##FILETYPE=Raman Processed
##RAMAN WAVELENGTH=785

164.7571, 2700.485
166.6855, 2708.576
168.6140, 2648.616
170.5425, 2488.279
172.4709, 2315.716
174.3994, 2140.827
176.3279, 1981.884
178.2563, 1858.259
180.1848, 1768.570
182.1133, 1681.006
184.0417, 1591.496
185.9702, 1512.791
187.8987, 1448.825
189.8271, 1393.094
191.7556, 1342.370
193.6841, 1296.829
195.6125, 1259.320
197.5410, 1233.092
199.4695, 1196.654
201.3979, 1142.020
203.3264, 1094.551
205.2549, 1066.728
207.1833, 1044.589
209.1118, 1019.261
211.0403, 991.0572
212.9688, 960.4338
214.8972, 925.0563
216.8257, 896.1970
218.7542, 877.4784
220.6826, 860.2353
222.6111, 841.4215
224.5396, 821.4583
226.4680, 799.8434
228.3965, 776.8311
230.3250, 757.3909
232.2534, 742.9723
234.1819, 725.1349
236.1104, 695.6749
238.0388, 673.3226
239.9673, 669.9215
241.8958, 676.4888
243.8242, 681.6699
245.7527, 685.4644
247.6812, 691.1174
249.6096, 698.3284
251.5381, 708.2924
253.4666, 722.2090
255.3950, 737.8454
257.3235, 759.0936
259.2520, 778.6724
261.1804, 784.5074
263.1089, 775.7953
265.0374, 762.1019
266.9658, 742.6619
268.8943, 721.0591
270.8228, 697.9215
272.7512, 673.1177
274.6797, 645.4837
276.6082, 616.7638
278.5366, 590.2410
280.4651, 565.7314
282.3936, 538.1572
284.3220, 506.1040
286.2505, 476.4815
288.1790, 450.4974
290.1074, 428.6830
292.0359, 412.4943
293.9644, 399.8105
295.8928, 388.6725
297.8213, 378.7369
299.7498, 366.0065
301.6782, 349.0796
303.6067, 337.2315
305.5352, 334.5387
307.4636, 334.8577
309.3921, 337.0901
311.3206, 340.0898
313.2490, 343.8300
315.1775, 347.3153
317.1060, 346.1558
319.0344, 340.0070
320.9629, 334.3385
322.8914, 331.6529
324.8198, 326.6037
326.7483, 315.1556
328.6768, 303.3618
330.6052, 295.1403
332.5337, 290.2777
334.4622, 288.4644
336.3906, 289.5097
338.3191, 292.2648
340.2476, 298.1961
342.1760, 301.2401
344.1045, 296.7274
346.0330, 293.0141
347.9614, 295.9569
349.8899, 300.6424
351.8184, 300.2045
353.7468, 295.8031
355.6753, 291.2280
357.6038, 286.7356
359.5322, 281.3653
361.4607, 273.4212
363.3892, 266.8791
365.3176, 263.0202
367.2461, 260.5101
369.1746, 258.7908
371.1030, 257.5713
373.0315, 256.1644
374.9600, 254.6705
376.8884, 253.9744
378.8169, 254.3225
380.7454, 254.9776
382.6738, 256.3584
384.6023, 257.2845
386.5308, 257.5768
388.4592, 257.0507
390.3877, 254.9376
392.3162, 252.0876
394.2446, 249.9833
396.1731, 248.6613
398.1016, 248.5400
400.0300, 251.8590
401.9585, 251.5239
403.8870, 243.4753
405.8154, 236.1520
407.7439, 234.0750
409.6724, 233.1181
411.6008, 228.5699
413.5293, 222.5739
415.4578, 219.0763
417.3862, 218.1869
419.3147, 219.2120
421.2432, 224.7283
423.1716, 227.0393
425.1001, 222.9806
427.0286, 219.2825
428.9570, 218.7949
430.8855, 219.2100
432.8140, 219.7742
434.7424, 219.3562
436.6709, 215.5171
438.5994, 208.2871
440.5278, 200.9552
442.4563, 191.5967
444.3848, 186.6804
446.3132, 189.8694
448.2417, 192.1642
450.1702, 188.3062
452.0986, 186.0978
454.0271, 193.2392
455.9556, 203.0982
457.8840, 208.4970
459.8125, 209.5843
461.7410, 206.6488
463.6694, 197.4324
465.5979, 192.3064
467.5264, 193.5793
469.4548, 194.1754
471.3833, 192.3856
473.3118, 190.9792
475.2402, 192.1204
477.1687, 193.1630
479.0972, 191.8325
481.0256, 189.1304
482.9541, 186.8421
484.8826, 184.9624
486.8110, 183.3011
488.7395, 181.8141
490.6680, 180.6523
492.5964, 179.3733
494.5249, 179.5674
496.4534, 183.6565
498.3818, 186.0808
500.3103, 181.0147
502.2388, 175.7958
504.1672, 178.2207
506.0957, 184.0586
508.0242, 183.2810
509.9526, 176.2873
511.8811, 175.4817
513.8096, 183.3710
515.7380, 185.2887
517.6665, 178.1413
519.5950, 172.3264
521.5234, 170.5851
523.4519, 170.4131
525.3804, 172.1496
527.3088, 173.3353
529.2373, 171.2054
531.1658, 168.0543
533.0942, 167.8106
535.0227, 169.9393
536.9512, 171.1545
538.8796, 171.2939
540.8081, 172.9334
542.7366, 176.8901
544.6650, 178.4727
546.5935, 175.6444
548.5220, 173.1918
550.4504, 173.0392
552.3789, 173.6324
554.3074, 174.5471
556.2358, 175.4724
558.1643, 176.4108
560.0928, 177.0035
562.0212, 175.9207
563.9497, 173.5352
565.8782, 173.2148
567.8066, 174.9865
569.7351, 176.6452
571.6636, 178.1075
573.5920, 178.8680
575.5205, 178.5263
577.4490, 178.1031
579.3774, 177.7676
581.3059, 177.6947
583.2344, 178.4090
585.1628, 178.9955
587.0913, 178.9873
589.0198, 178.0473
590.9482, 174.6269
592.8767, 169.6814
594.8052, 167.5463
596.7336, 168.0519
598.6621, 168.8298
600.5906, 169.6182
602.5190, 171.6404
604.4475, 176.0691
606.3760, 179.1726
608.3044, 179.7795
610.2329, 179.0737
612.1614, 176.0837
614.0898, 173.4651
616.0183, 172.9103
617.9468, 173.6426
619.8752, 176.2654
621.8037, 178.8646
623.7322, 176.2442
625.6606, 170.3597
627.5891, 167.7236
629.5176, 168.3660
631.4460, 170.7091
633.3745, 175.5813
635.3030, 175.1165
637.2314, 163.9222
639.1599, 157.2061
641.0884, 160.6315
643.0168, 164.3838
644.9453, 165.3645
646.8738, 166.4756
648.8022, 170.1637
650.7307, 173.7525
652.6592, 174.1350
654.5876, 173.4982
656.5161, 175.9016
658.4446, 179.1777
660.3730, 177.9238
662.3015, 173.2987
664.2300, 172.0302
666.1584, 174.5415
668.0869, 173.5438
670.0154, 166.8316
671.9438, 162.8564
673.8723, 163.1608
675.8008, 164.9995
677.7292, 168.7579
679.6577, 173.0215
681.5862, 179.6101
683.5146, 183.6232
685.4431, 181.4463
687.3716, 177.3865
689.3000, 173.1626
691.2285, 169.9095
693.1570, 169.5441
695.0854, 170.4046
697.0139, 169.6871
698.9424, 168.2979
700.8708, 168.6256
702.7993, 170.7301
704.7278, 176.1103
706.6563, 186.2530
708.5847, 188.8134
710.5132, 178.2401
712.4417, 173.8362
714.3701, 180.1180
716.2986, 183.6746
718.2271, 182.3620
720.1555, 180.6630
722.0840, 178.5574
724.0125, 177.7812
725.9409, 179.4327
727.8694, 181.9292
729.7979, 186.4272
731.7263, 188.9622
733.6548, 183.8565
735.5833, 178.0572
737.5117, 179.0335
739.4402, 182.6055
741.3687, 182.4237
743.2971, 180.1802
745.2256, 179.9572
747.1541, 181.4429
749.0825, 183.3558
751.0110, 185.6649
752.9395, 186.6808
754.8679, 186.3294
756.7964, 185.0232
758.7249, 182.4529
760.6533, 180.3892
762.5818, 178.7383
764.5103, 178.3442
766.4387, 179.6047
768.3672, 181.3787
770.2957, 184.5009
772.2241, 184.8940
774.1526, 179.0947
776.0811, 175.0225
778.0095, 177.2052
779.9380, 179.9938
781.8665, 181.5623
783.7949, 181.3796
785.7234, 176.9632
787.6519, 173.1085
789.5803, 174.7794
791.5088, 178.0323
793.4373, 178.6924
795.3657, 177.9889
797.2942, 177.8982
799.2227, 177.7556
801.1511, 175.7145
803.0796, 172.5567
805.0081, 170.0836
806.9365, 168.6598
808.8650, 171.1357
810.7935, 176.9609
812.7219, 180.3778
814.6504, 181.3848
816.5789, 179.0975
818.5073, 173.5126
820.4358, 174.1517
822.3643, 182.4044
824.2927, 182.9149
826.2212, 172.1252
828.1497, 168.9386
830.0781, 178.4896
832.0066, 184.7833
833.9351, 183.7783
835.8635, 182.3860
837.7920, 181.2206
839.7205, 182.2132
841.6489, 189.6748
843.5774, 192.5103
845.5059, 181.3836
847.4343, 174.9291
849.3628, 184.1518
851.2913, 191.7430
853.2197, 188.6501
855.1482, 184.5869
857.0767, 184.4365
859.0051, 185.1987
860.9336, 185.0765
862.8621, 184.9977
864.7905, 184.8992
866.7190, 186.0310
868.6475, 192.4350
870.5759, 197.5513
872.5044, 191.7766
874.4329, 183.6873
876.3613, 183.5658
878.2898, 187.1322
880.2183, 190.3654
882.1467, 192.1888
884.0752, 189.4241
886.0037, 185.1335
887.9321, 184.3869
889.8606, 186.0838
891.7891, 189.4107
893.7175, 192.9320
895.6460, 193.4525
897.5745, 191.5755
899.5029, 187.9298
901.4314, 183.6443
903.3599, 182.9488
905.2883, 184.7369
907.2168, 183.2051
909.1453, 179.5302
911.0737, 181.7292
913.0022, 188.9007
914.9307, 192.4690
916.8591, 192.5688
918.7876, 193.7583
920.7161, 196.0584
922.6445, 196.9734
924.5730, 196.5189
926.5015, 191.6776
928.4299, 181.5778
930.3584, 178.8442
932.2869, 184.8609
934.2153, 186.9184
936.1438, 184.2626
938.0723, 182.5618
940.0007, 181.7797
941.9292, 182.3096
943.8577, 184.4891
945.7861, 185.9046
947.7146, 185.5334
949.6431, 190.3604
951.5715, 203.8970
953.5000, 205.6947
955.4285, 191.1381
957.3569, 184.8540
959.2854, 188.9092
961.2139, 192.9851
963.1423, 197.4707
965.0708, 200.3685
966.9993, 201.6543
968.9277, 201.4353
970.8562, 199.6668
972.7847, 195.8844
974.7131, 188.6030
976.6416, 188.4681
978.5701, 197.7793
980.4985, 201.1050
982.4270, 196.7136
984.3555, 195.5648
986.2839, 198.7999
988.2124, 198.3068
990.1409, 192.8763
992.0693, 192.9484
993.9978, 199.4628
995.9263, 206.1487
997.8547, 213.1250
999.7832, 213.0491
1001.712, 205.2206
1003.640, 200.1686
1005.569, 198.3487
1007.497, 196.7170
1009.426, 195.1712
1011.354, 197.7132
1013.282, 204.2995
1015.211, 206.9307
1017.139, 205.6575
1019.068, 207.7904
1020.996, 212.8515
1022.925, 210.1289
1024.853, 200.7619
1026.782, 199.4679
1028.710, 204.8967
1030.639, 204.2778
1032.567, 198.8338
1034.496, 196.7397
1036.424, 197.4134
1038.353, 198.0634
1040.281, 198.7177
1042.209, 199.6569
1044.138, 200.6451
1046.066, 200.1675
1047.995, 199.4419
1049.923, 202.3067
1051.852, 207.1911
1053.780, 212.1349
1055.709, 215.3062
1057.637, 210.9192
1059.566, 203.9559
1061.494, 203.0857
1063.423, 205.0297
1065.351, 205.5179
1067.280, 205.3807
1069.208, 205.7777
1071.136, 206.0266
1073.065, 205.0917
1074.993, 203.9618
1076.922, 203.3930
1078.850, 203.2981
1080.779, 202.9323
1082.707, 203.9309
1084.636, 209.2827
1086.564, 213.7390
1088.493, 214.6470
1090.421, 212.9912
1092.350, 205.4367
1094.278, 201.5949
1096.207, 208.9682
1098.135, 214.7382
1100.063, 212.6362
1101.992, 212.1484
1103.920, 217.3410
1105.849, 221.1115
1107.777, 221.8002
1109.706, 221.8959
1111.634, 220.3028
1113.563, 221.0220
1115.491, 226.4243
1117.420, 228.0396
1119.348, 224.7814
1121.277, 220.7260
1123.205, 215.2308
1125.134, 213.6671
1127.062, 216.3563
1128.990, 217.0486
1130.919, 215.8631
1132.847, 214.5037
1134.776, 213.1445
1136.704, 212.6488
1138.633, 213.0176
1140.561, 215.1244
1142.490, 217.4930
1144.418, 216.2177
1146.347, 213.9158
1148.275, 214.7147
1150.204, 216.4465
1152.132, 216.4601
1154.061, 216.6889
1155.989, 219.5429
1157.917, 221.7636
1159.846, 220.8299
1161.774, 219.6099
1163.703, 219.3145
1165.631, 219.4614
1167.560, 219.7496
1169.488, 220.9149
1171.417, 223.6921
1173.345, 225.4703
1175.274, 225.7231
1177.202, 224.6505
1179.131, 222.0346
1181.059, 219.6228
1182.988, 217.3741
1184.916, 219.5867
1186.844, 226.1280
1188.773, 224.3374
1190.701, 216.0916
1192.630, 212.4746
1194.558, 212.5827
1196.487, 213.9042
1198.415, 216.6633
1200.344, 223.2004
1202.272, 229.4254
1204.201, 228.4695
1206.129, 226.4757
1208.058, 230.8111
1209.986, 233.6957
1211.915, 228.6796
1213.843, 223.3954
1215.771, 218.8066
1217.700, 218.9850
1219.628, 227.6024
1221.557, 232.0682
1223.485, 229.2843
1225.414, 226.4841
1227.342, 224.5108
1229.271, 226.2490
1231.199, 231.3973
1233.128, 232.0060
1235.056, 229.1301
1236.985, 229.9070
1238.913, 233.5885
1240.842, 239.7700
1242.770, 245.2470
1244.698, 242.6919
1246.627, 238.6452
1248.555, 241.9293
1250.484, 244.8105
1252.412, 239.7407
1254.341, 235.1795
1256.269, 235.6475
1258.198, 236.7415
1260.126, 236.8481
1262.055, 238.7775
1263.983, 245.1714
1265.912, 241.9724
1267.840, 226.6325
1269.769, 229.1170
1271.697, 247.7455
1273.625, 253.1332
1275.554, 248.3657
1277.482, 243.4239
1279.411, 240.8246
1281.339, 247.9119
1283.268, 255.5185
1285.196, 253.4916
1287.125, 248.3031
1289.053, 242.6950
1290.982, 238.4010
1292.910, 233.8565
1294.839, 235.1801
1296.767, 251.9946
1298.696, 257.0735
1300.624, 242.7413
1302.552, 236.2867
1304.481, 238.0283
1306.409, 242.4495
1308.338, 248.8228
1310.266, 253.7939
1312.195, 257.1365
1314.123, 258.8773
1316.052, 258.0557
1317.980, 250.9627
1319.909, 245.3811
1321.837, 247.1666
1323.766, 249.7599
1325.694, 250.6781
1327.623, 251.6768
1329.551, 253.6579
1331.479, 253.3348
1333.408, 249.7063
1335.336, 248.7626
1337.265, 250.2983
1339.193, 253.0900
1341.122, 256.0836
1343.050, 257.3656
1344.979, 256.0000
1346.907, 247.0899
1348.836, 240.2871
1350.764, 243.4479
1352.693, 247.3708
1354.621, 248.5089
1356.550, 250.7970
1358.478, 255.8121
1360.406, 255.6352
1362.335, 249.2465
1364.263, 251.6078
1366.192, 260.3327
1368.120, 260.4131
1370.049, 255.8427
1371.977, 254.0937
1373.906, 253.4752
1375.834, 250.8973
1377.763, 250.8984
1379.691, 259.3636
1381.620, 262.9020
1383.548, 256.8785
1385.477, 252.6545
1387.405, 251.8642
1389.333, 250.9202
1391.262, 249.7132
1393.190, 249.3329
1395.119, 249.6234
1397.047, 250.1296
1398.976, 251.1963
1400.904, 255.1001
1402.833, 256.8062
1404.761, 249.9714
1406.690, 246.6388
1408.618, 251.3133
1410.547, 252.7739
1412.475, 249.7333
1414.404, 249.4486
1416.332, 251.2991
1418.260, 249.9595
1420.189, 246.7842
1422.117, 244.1854
1424.046, 241.6835
1425.974, 238.7868
1427.903, 235.8762
1429.831, 229.6233
1431.760, 231.2509
1433.688, 246.3847
1435.617, 253.2541
1437.545, 251.0796
1439.474, 246.4767
1441.402, 241.2819
1443.331, 240.1177
1445.259, 241.6973
1447.188, 247.5575
1449.116, 250.5489
1451.044, 241.4323
1452.973, 237.3668
1454.901, 248.5478
1456.830, 252.8604
1458.758, 248.4543
1460.687, 245.4799
1462.615, 244.2206
1464.544, 247.4046
1466.472, 251.6511
1468.401, 252.7135
1470.329, 252.1346
1472.258, 250.4761
1474.186, 248.3029
1476.115, 245.8288
1478.043, 241.9855
1479.971, 235.9912
1481.900, 239.5143
1483.828, 249.3788
1485.757, 254.0106
1487.685, 255.4847
1489.614, 256.4061
1491.542, 255.2654
1493.471, 250.0816
1495.399, 246.0551
1497.328, 244.1566
1499.256, 247.5190
1501.185, 255.8858
1503.113, 252.1788
1505.042, 243.4839
1506.970, 251.1300
1508.898, 260.2628
1510.827, 255.0594
1512.755, 248.0235
1514.684, 242.8374
1516.612, 238.5632
1518.541, 234.9338
1520.469, 237.2957
1522.398, 243.5976
1524.326, 242.3774
1526.255, 239.2310
1528.183, 244.2824
1530.112, 248.1159
1532.040, 243.6734
1533.969, 241.2311
1535.897, 243.0537
1537.825, 245.3451
1539.754, 247.0245
1541.682, 241.1350
1543.611, 233.6125
1545.539, 239.3179
1547.468, 243.5271
1549.396, 228.7513
1551.325, 221.0565
1553.253, 227.6111
1555.182, 236.7367
1557.110, 246.2617
1559.039, 245.0559
1560.967, 238.4351
1562.896, 237.1015
1564.824, 237.9373
1566.752, 240.8617
1568.681, 239.6571
1570.609, 229.3870
1572.538, 228.8019
1574.466, 237.7557
1576.395, 236.0490
1578.323, 229.6237
1580.252, 232.2577
1582.180, 236.5094
1584.109, 235.7918
1586.037, 236.0350
1587.966, 240.5139
1589.894, 240.9194
1591.823, 237.4505
1593.751, 236.8476
1595.679, 237.4144
1597.608, 235.3586
1599.536, 233.9435
1601.465, 237.2860
1603.393, 237.8495
1605.322, 231.5864
1607.250, 229.8229
1609.179, 231.9345
1611.107, 234.1017
1613.036, 235.5497
1614.964, 233.3941
1616.893, 234.2435
1618.821, 244.9631
1620.750, 247.7460
1622.678, 238.0374
1624.606, 237.1768
1626.535, 241.2287
1628.463, 236.2156
1630.392, 230.7343
1632.320, 232.6231
1634.249, 233.6568
1636.177, 230.6747
1638.106, 229.1717
1640.034, 229.5240
1641.963, 231.9202
1643.891, 234.7319
1645.820, 235.8139
1647.748, 234.9702
1649.677, 231.1794
1651.605, 229.9343
1653.533, 232.3094
1655.462, 232.2918
1657.390, 229.7350
1659.319, 221.4722
1661.247, 215.5649
1663.176, 220.3482
1665.104, 224.4318
1667.033, 225.3625
1668.961, 222.9589
1670.890, 218.9461
1672.818, 222.5835
1674.747, 226.6592
1676.675, 220.7861
1678.604, 216.2032
1680.532, 216.6409
1682.460, 215.8276
1684.389, 213.8584
1686.317, 217.2281
1688.246, 221.4151
1690.174, 218.8854
1692.103, 215.9702
1694.031, 215.3133
1695.960, 215.6898
1697.888, 216.8445
1699.817, 217.9017
1701.745, 218.1907
1703.674, 214.9169
1705.602, 213.4583
1707.531, 220.1640
1709.459, 220.6877
1711.387, 214.3306
1713.316, 215.0344
1715.244, 217.8457
1717.173, 210.5805
1719.101, 205.2457
1721.030, 212.0142
1722.958, 216.0536
1724.887, 215.9257
1726.815, 211.9625
1728.744, 207.7027
1730.672, 209.3787
1732.601, 213.6060
1734.529, 221.7387
1736.458, 223.1384
1738.386, 216.6122
1740.314, 214.9740
1742.243, 216.0903
1744.171, 217.8295
1746.100, 217.0390
1748.028, 210.5520
1749.957, 205.3338
1751.885, 202.0340
1753.814, 204.1625
1755.742, 208.0228
1757.671, 209.3814
1759.599, 207.0029
1761.528, 197.4441
1763.456, 198.9808
1765.385, 210.2687
1767.313, 210.6951
1769.241, 207.1109
1771.170, 206.8361
1773.098, 206.5075
1775.027, 205.0737
1776.955, 203.1527
1778.884, 201.4319
1780.812, 204.0324
1782.741, 205.4706
1784.669, 200.1293
1786.598, 197.5563
1788.526, 199.8607
1790.455, 201.5168
1792.383, 201.3661
1794.312, 194.2367
1796.240, 190.3737
1798.168, 196.0767
1800.097, 196.6114
1802.025, 191.4447
1803.954, 196.0411
1805.882, 202.8168
1807.811, 201.7671
1809.739, 197.8460
1811.668, 192.0709
1813.596, 189.8364
1815.525, 190.4858
1817.453, 191.2003
1819.382, 190.5583
1821.310, 186.5728
1823.239, 183.1724
1825.167, 180.7320
1827.095, 179.3200
1829.024, 180.0614
1830.952, 186.9981
1832.881, 192.0130
1834.809, 191.4330
1836.738, 192.8622
1838.666, 195.1734
1840.595, 193.3081
1842.523, 189.5838
1844.452, 182.4139
1846.380, 183.0526
1848.309, 191.9765
1850.237, 192.6237
1852.166, 190.5802
1854.094, 195.9098
1856.022, 197.0697
1857.951, 187.3723
1859.879, 183.1989
1861.808, 182.7403
1863.736, 179.4395
1865.665, 177.0116
1867.593, 179.4822
1869.522, 177.6843
1871.450, 171.4519
1873.379, 171.4653
1875.307, 175.8748
1877.236, 183.3828
1879.164, 187.7771
1881.093, 188.2446
1883.021, 184.5233
1884.949, 178.8827
1886.878, 175.5622
1888.806, 176.0345
1890.735, 181.8015
1892.663, 181.7607
1894.592, 176.4678
1896.520, 165.3923
1898.449, 162.3101
1900.377, 176.9173
1902.306, 181.0076
1904.234, 173.5848
1906.163, 168.2651
1908.091, 164.9445
1910.020, 163.5794
1911.948, 165.9925
1913.876, 171.2953
1915.805, 173.0901
1917.733, 171.8244
1919.662, 164.9831
1921.590, 157.3464
1923.519, 150.4214
1925.447, 161.0166
1927.376, 174.6035
1929.304, 162.0845
1931.233, 153.1601
1933.161, 156.2413
1935.090, 160.8460
1937.018, 164.6257
1938.947, 162.9252
1940.875, 160.1471
1942.803, 158.1474
1944.732, 157.0331
1946.660, 156.7323
1948.589, 156.7885
1950.517, 158.7779
1952.446, 163.8554
1954.374, 161.5461
1956.303, 155.4532
1958.231, 154.3803
1960.160, 153.9479
1962.088, 152.3743
1964.017, 150.0815
1965.945, 148.4282
1967.874, 149.7026
1969.802, 151.1582
1971.730, 152.6089
1973.659, 157.3782
1975.587, 162.9006
1977.516, 160.2670
1979.444, 154.9982
1981.373, 148.7351
1983.301, 147.9278
1985.230, 150.4588
1987.158, 148.9344
1989.087, 147.1519
1991.015, 144.7398
1992.944, 146.9216
1994.872, 152.4799
1996.801, 149.6272
1998.729, 147.7788
2000.657, 154.0487
2002.586, 153.1301
2004.514, 146.8946
2006.443, 144.5167
2008.371, 145.0993
2010.300, 149.6068
2012.228, 148.3696
2014.157, 142.9472
2016.085, 136.9106
2018.014, 134.0197
2019.942, 135.7659
2021.871, 133.5630
2023.799, 130.8273
2025.728, 132.8412
2027.656, 132.5134
2029.584, 128.9176
2031.513, 130.0770
2033.441, 133.2875
2035.370, 133.2990
2037.298, 132.0581
2039.227, 130.4553
2041.155, 129.9541
2043.084, 129.4697
2045.012, 126.3940
2046.941, 130.3932
2048.869, 141.8191
2050.798, 139.4615
2052.726, 132.3283
2054.655, 127.7140
2056.583, 126.7309
2058.511, 129.5277
2060.440, 132.1294
2062.368, 133.0457
2064.297, 130.7713
2066.225, 128.1022
2068.154, 125.3851
2070.082, 123.6896
2072.011, 122.9164
2073.939, 123.2423
2075.868, 124.5657
2077.796, 126.8905
2079.725, 135.2196
2081.653, 135.3708
2083.582, 120.4680
2085.510, 119.7337
2087.438, 123.9458
2089.367, 119.5874
2091.295, 116.2446
2093.224, 115.5501
2095.152, 117.2661
2097.081, 120.1102
2099.009, 123.4124
2100.938, 123.0181
2102.866, 120.2220
2104.795, 118.3741
2106.723, 116.5565
2108.652, 114.5595
2110.580, 118.7224
2112.509, 123.7262
2114.437, 118.8702
2116.365, 115.2283
2118.294, 115.7962
2120.222, 116.4604
2122.151, 113.6260
2124.079, 101.7787
2126.008, 102.8101
2127.936, 113.9257
2129.865, 109.3144
2131.793, 106.6022
2133.722, 113.9625
2135.650, 112.4060
2137.579, 107.5448
2139.507, 112.5251
2141.436, 112.3854
2143.364, 105.2973
2145.292, 103.8755
2147.221, 106.2103
2149.149, 111.5052
2151.078, 112.6384
2153.006, 109.9640
2154.935, 106.8384
2156.863, 105.9539
2158.792, 107.1842
2160.720, 106.4276
2162.649, 105.8655
2164.577, 107.7688
2166.506, 108.1028
2168.434, 107.5258
2170.363, 104.7401
2172.291, 101.5796
2174.219, 100.1231
2176.148, 101.1349
2178.076, 102.3688
2180.005, 101.2898
2181.933, 104.7286
2183.862, 109.6987
2185.790, 104.2535
2187.719, 98.98406
2189.647, 97.18054
2191.576, 99.22821
2193.504, 103.3989
2195.433, 102.0505
2197.361, 97.98553
2199.290, 94.72279
2201.218, 96.94321
2203.146, 99.34931
2205.075, 99.46303
2207.003, 97.15479
2208.932, 96.26379
2210.860, 101.7617
2212.789, 102.7103
2214.717, 99.64668
2216.646, 99.14652
2218.574, 97.58069
2220.503, 95.54532
2222.431, 96.33958
2224.360, 96.42740
2226.288, 94.26398
2228.217, 94.92171
2230.145, 95.87288
2232.073, 95.10384
2234.002, 92.97707
2235.930, 88.49921
2237.859, 84.95049
2239.787, 82.91167
2241.716, 83.36054
2243.644, 84.56497
2245.573, 85.22900
2247.501, 82.33768
2249.430, 82.66095
2251.358, 89.39745
2253.287, 86.42285
2255.215, 81.98209
2257.144, 86.06046
2259.072, 83.42744
2261.000, 78.54241
2262.929, 86.08601
2264.857, 90.08554
2266.786, 87.10810
2268.714, 82.03522
2270.643, 78.63049
2272.571, 75.96662
2274.500, 79.16389
2276.428, 84.21249
2278.357, 81.56976
2280.285, 84.83389
2282.214, 88.60014
2284.142, 79.81052
2286.071, 79.78280
2287.999, 88.18693
2289.927, 81.59249
2291.856, 77.49792
2293.784, 82.84407
2295.713, 85.81505
2297.641, 84.58432
2299.570, 77.20335
2301.498, 77.93752
2303.427, 81.53158
2305.355, 77.52783
2307.284, 77.73730
2309.212, 81.89877
2311.141, 82.03177
2313.069, 80.73433
2314.998, 76.45951
2316.926, 76.49632
2318.854, 77.15516
2320.783, 76.40285
2322.711, 79.05502
2324.640, 79.84888
2326.568, 78.70306
2328.497, 77.06990
2330.425, 72.84024
2332.354, 75.11786
2334.282, 76.74288
2336.211, 72.55460
2338.139, 67.58395
2340.068, 68.69126
2341.996, 72.00725
2343.925, 71.37321
2345.853, 69.13917
2347.781, 66.70709
2349.710, 66.54607
2351.638, 67.84472
2353.567, 67.64522
2355.495, 64.90504
2357.424, 62.98342
2359.352, 64.49249
2361.281, 67.79793
2363.209, 66.45226
2365.138, 64.52845
2367.066, 68.07059
2368.995, 70.13754
2370.923, 68.59681
2372.852, 66.79398
2374.780, 60.53468
2376.708, 56.85328
2378.637, 57.11565
2380.565, 60.24047
2382.494, 64.22821
2384.422, 66.87915
2386.351, 68.54116
2388.279, 63.92670
2390.208, 57.44719
2392.136, 63.51354
2394.065, 66.40216
2395.993, 61.87273
2397.922, 62.30727
2399.850, 63.17997
2401.779, 62.31887
2403.707, 58.40827
2405.635, 56.14205
2407.564, 57.30134
2409.492, 57.17823
2411.421, 58.45578
2413.349, 60.52892
2415.278, 59.93167
2417.206, 61.48037
2419.135, 61.53517
2421.063, 55.56468
2422.992, 52.24859
2424.920, 56.18753
2426.849, 58.21118
2428.777, 57.01053
2430.706, 58.34316
2432.634, 59.25280
2434.563, 57.05538
2436.491, 54.82984
2438.419, 52.42610
2440.348, 51.42781
2442.276, 53.46333
2444.205, 53.05231
2446.133, 51.51004
2448.062, 52.62596
2449.990, 55.16483
2451.919, 57.93432
2453.847, 53.49702
2455.776, 48.11022
2457.704, 46.65169
2459.633, 47.00380
2461.561, 48.72582
2463.490, 49.93277
2465.418, 47.41171
2467.346, 47.51389
2469.275, 50.43139
2471.203, 50.56768
2473.132, 49.84077
2475.060, 49.51877
2476.989, 45.58005
2478.917, 44.82074
2480.846, 50.65373
2482.774, 52.25333
2484.703, 51.46184
2486.631, 48.68524
2488.560, 44.85886
2490.488, 44.13902
2492.417, 51.20624
2494.345, 53.64872
2496.273, 53.17505
2498.202, 48.42498
2500.130, 48.18973
2502.059, 51.47832
2503.987, 51.27622
2505.916, 47.59635
2507.844, 45.14155
2509.773, 44.14259
2511.701, 46.89273
2513.630, 50.24330
2515.558, 45.88849
2517.487, 46.32835
2519.415, 46.43507
2521.344, 40.53632
2523.272, 41.09966
2525.200, 43.94571
2527.129, 46.67115
2529.057, 43.34298
2530.986, 38.19738
2532.914, 37.89280
2534.843, 39.07975
2536.771, 40.96028
2538.700, 36.90781
2540.628, 36.26894
2542.557, 39.71924
2544.485, 39.86052
2546.414, 38.69189
2548.342, 38.31930
2550.271, 40.47684
2552.199, 37.33093
2554.127, 32.94172
2556.056, 36.60544
2557.984, 40.77314
2559.913, 41.83432
2561.841, 35.95192
2563.770, 36.32463
2565.698, 40.23159
2567.627, 42.62676
2569.555, 38.44283
2571.484, 32.20190
2573.412, 33.80344
2575.341, 34.01119
2577.269, 33.56448
2579.198, 34.83798
2581.126, 33.16622
2583.054, 33.09175
2584.983, 39.99756
2586.911, 38.89598
2588.840, 34.75638
2590.768, 33.19572
2592.697, 33.18706
2594.625, 32.98838
2596.554, 31.54462
2598.482, 34.67842
2600.411, 37.35934
2602.339, 36.38008
2604.268, 36.88794
2606.196, 37.33723
2608.125, 36.92079
2610.053, 36.35063
2611.981, 35.19188
2613.910, 34.09206
2615.838, 35.00456
2617.767, 35.56096
2619.695, 35.31532
2621.624, 33.91037
2623.552, 32.28414
2625.481, 31.82575
2627.409, 31.53422
2629.338, 33.22852
2631.266, 34.22268
2633.195, 29.87996
2635.123, 28.36863
2637.052, 29.72733
2638.980, 29.57067
2640.908, 28.83931
2642.837, 28.66123
2644.765, 30.59299
2646.694, 30.67972
2648.622, 29.61588
2650.551, 28.14567
2652.479, 27.92114
2654.408, 27.41384
2656.336, 26.50595
2658.265, 24.74658
2660.193, 26.51387
2662.122, 31.46659
2664.050, 27.00488
2665.979, 23.09593
2667.907, 21.63999
2669.835, 24.03323
2671.764, 23.89374
2673.692, 22.50517
2675.621, 22.46189
2677.549, 22.72960
2679.478, 23.81823
2681.406, 27.84791
2683.335, 25.07837
2685.263, 22.96076
2687.192, 29.04981
2689.120, 28.40034
2691.049, 28.20490
2692.977, 32.49478
2694.906, 30.08194
2696.834, 27.93702
2698.762, 27.54595
2700.691, 23.65808
2702.619, 22.81332
2704.548, 25.92621
2706.476, 23.55539
2708.405, 21.96093
2710.333, 25.12493
2712.262, 29.86311
2714.190, 26.95840
2716.119, 24.79582
2718.047, 25.59530
2719.976, 22.42662
2721.904, 21.59039
2723.833, 25.47307
2725.761, 23.00831
2727.689, 19.48297
2729.618, 20.72896
2731.546, 22.29338
2733.475, 23.60008
2735.403, 22.13976
2737.332, 19.50457
2739.260, 19.47976
2741.189, 23.25281
2743.117, 17.20242
2745.046, 17.66197
2746.974, 22.95704
2748.903, 18.81712
2750.831, 14.66514
2752.760, 15.51777
2754.688, 16.40317
2756.616, 17.29368
2758.545, 17.89221
2760.473, 20.10593
2762.402, 16.25616
2764.330, 14.94315
2766.259, 16.41117
2768.187, 16.63645
2770.116, 18.38056
2772.044, 15.94374
2773.973, 16.34501
2775.901, 21.39176
2777.830, 23.73864
2779.758, 19.84993
2781.687, 15.20369
2783.615, 20.95038
2785.543, 23.61853
2787.472, 22.13346
2789.400, 23.32069
2791.329, 23.24255
2793.257, 19.28651
2795.186, 17.69223
2797.114, 19.38020
2799.043, 21.49566
2800.971, 17.55263
2802.900, 14.63649
2804.828, 16.62209
2806.757, 15.77780
2808.685, 18.91451
2810.614, 21.13323
2812.542, 15.36055
2814.470, 16.28564
2816.399, 17.92736
2818.327, 18.22546
2820.256, 16.30914
2822.184, 12.97899
2824.113, 11.41776
2826.041, 21.45294
2827.970, 22.84144
2829.898, 15.29699
2831.827, 14.80033
2833.755, 18.06845
2835.684, 18.93607
2837.612, 16.61145
2839.541, 13.64841
2841.469, 11.86379
2843.397, 13.34013
2845.326, 14.96137
2847.254, 13.41658
2849.183, 9.635362
2851.111, 14.76638
2853.040, 17.84419
2854.968, 15.37945
2856.897, 13.26226
2858.825, 9.682961
2860.754, 10.41712
2862.682, 14.53781
2864.611, 14.64922
2866.539, 16.19328
2868.468, 18.81138
2870.396, 18.77278
2872.324, 16.09156
2874.253, 14.38541
2876.181, 12.95185
2878.110, 15.68587
2880.038, 16.23937
2881.967, 14.72522
2883.895, 17.97945
2885.824, 17.67140
2887.752, 18.05122
2889.681, 21.75486
2891.609, 23.61163
2893.538, 15.95625
2895.466, 9.458696
2897.395, 18.05763
2899.323, 14.43923
2901.251, 13.36407
2903.180, 16.32418
2905.108, 13.68611
2907.037, 13.37396
2908.965, 15.74909
2910.894, 15.86499
2912.822, 15.38794
2914.751, 14.51792
2916.679, 10.96492
2918.608, 11.39508
2920.536, 11.92289
2922.465, 12.25190
2924.393, 12.78979
2926.322, 9.679793
2928.250, 11.03345
2930.178, 11.48423
2932.107, 6.260986
2934.035, 6.707199
2935.964, 9.828721
2937.892, 14.43445
2939.821, 11.53727
2941.749, 5.012163
2943.678, 3.924333
2945.606, 10.72593
2947.535, 9.184236
2949.463, 9.243247
2951.392, 14.68859
2953.320, 11.11029
2955.249, 7.375865
2957.177, 7.128289
2959.105, 10.00419
2961.034, 13.56966
2962.962, 14.68097
2964.891, 15.00123
2966.819, 9.517653
2968.748, 13.35534
2970.676, 17.66132
2972.605, 11.99861
2974.533, 11.50502
2976.462, 11.98993
2978.390, 12.40794
2980.319, 11.28810
2982.247, 10.31030
2984.176, 9.455607
2986.104, 6.009781
2988.032, 8.936522
2989.961, 8.596498
2991.889, 7.992360
2993.818, 11.20117
2995.746, 8.017454
2997.675, 11.63128
2999.603, 13.88818
3001.532, 7.589634
3003.460, 8.833111
3005.389, 9.080762
3007.317, 9.668774
3009.246, 13.19206
3011.174, 9.704609
3013.103, 5.465316
3015.031, 3.901685
3016.959, 8.153526
3018.888, 9.644353
3020.816, 8.813561
3022.745, 8.257212
3024.673, 6.662743
3026.602, 5.703982
3028.530, 8.277315
3030.459, 13.96821
3032.387, 12.78620
3034.316, 10.70104
3036.244, 9.005482
3038.173, 5.180378
3040.101, 4.218819
3042.030, 7.854927
3043.958, 12.62559
3045.886, 8.699318
3047.815, 5.926825
3049.743, 5.608531
3051.672, 7.592591
3053.600, 9.345243
3055.529, 9.837081
3057.457, 10.34124
3059.386, 12.22599
3061.314, 9.722650
3063.243, 8.573658
3065.171, 9.156878
3067.100, 9.991027
3069.028, 6.316229
3070.957, 6.072864
3072.885, 8.646734
3074.813, 10.68303
3076.742, 11.76138
3078.670, 11.18222
3080.599, 9.110312
3082.527, 5.092380
3084.456, 7.258098
3086.384, 9.708491
3088.313, 10.32835
3090.241, 10.12433
3092.170, 11.02435
3094.098, 9.886728
3096.027, 6.716433
3097.955, 5.283675
3099.884, 7.858669
3101.812, 8.836460
3103.740, 6.222786
3105.669, 3.361281
3107.597, 3.675658
3109.526, 1.998218
3111.454, -1.477142
3113.383, 7.021133
3115.311, 6.110441
3117.240, 4.496084
3119.168, 7.255467
3121.097, 7.048242
3123.025, 8.719333
3124.954, 4.922879
3126.882, -2.990282
3128.811, 0.3812076
3130.739, 4.865028
3132.667, 5.103248
3134.596, 1.993311
3136.524, 5.198408
3138.453, 6.997522
3140.381, 6.617763
3142.310, 5.913797
3144.238, 7.086017
3146.167, 8.034056
3148.095, 6.290365
3150.024, 2.874990
3151.952, 0.6085266
3153.881, 2.470911
3155.809, 4.373239
3157.738, 3.530468
3159.666, 6.369876
3161.594, 5.690988
3163.523, 7.796622
3165.451, 11.67028
3167.380, 13.45111
3169.308, 11.68288
3171.237, 8.723527
3173.165, 7.315571
3175.094, 6.508450
3177.022, 5.620321
3178.951, 7.133291
3180.879, 9.201105
3182.808, 5.801265
3184.736, 5.364493
3186.665, 1.476807
3188.593, -2.519865
3190.521, -1.342113
3192.450, 8.282014
3194.378, 8.169594
3196.307, 1.652409
3198.235, -1.954258
3200.164, 9.901437
3202.092, 10.54145
3204.021, 3.465773
3205.949, -4.812304
3207.878, 4.838320
3209.806, 5.247708
3211.735, 4.567137
3213.663, 7.939220
3215.592, 5.374336
3217.520, 4.522563
3219.448, 1.092310
3221.377, -0.6724033
3223.305, -3.4946669E-02
3225.234, -1.223648
3227.162, 2.170249
3229.091, 6.860058
3231.019, 8.219281
3232.948, 8.932185
3234.876, 4.117595
3236.805, 3.810596
3238.733, 8.505177
3240.662, 3.019449
3242.590, 2.652905
3244.519, 6.720882
3246.447, 10.24536
3248.375, 5.736675
3250.304, 8.820685
3252.232, 8.139274
3254.161, 5.610270
3256.089, 7.718904
3258.018, 10.61468
3259.946, 10.43316
3261.875, 7.583016
3263.803, 5.529104
3265.732, 7.109123
3267.660, 2.912765
3269.589, 2.587215
3271.517, 5.982485
3273.446, 6.848426
3275.374, 9.503625
3277.302, 8.276074
3279.231, 4.184412
3281.159, 1.398031
3283.088, 1.611140
3285.016, -2.115761
3286.945, -1.557424
3288.873, 5.839248
3290.802, 13.75300
3292.730, 3.337484
3294.659, 5.489028
3296.587, 9.525734
3298.516, -1.798406
3300.444, 1.347745
3302.373, 3.079299
3304.301, 7.489820
3306.229, 11.42850
3308.158, 7.997416
3310.086, -5.8333032E-02
3312.015, -0.6337481
3313.943, 2.765643
3315.872, 4.476954
3317.800, 3.295439
3319.729, 0.9342858
3321.657, 1.275543
3323.586, 3.385526
3325.514, -1.243682
3327.443, 3.145011
3329.371, 5.998981
3331.300, 7.863602
3333.228, 9.199900
3335.156, 7.416556
3337.085, 7.971161
3339.013, 7.112645
3340.942, 8.776768
3342.870, 21.00636
3344.799, 11.62201
3346.727, 5.164137
3348.656, 4.795598
3350.584, 8.309719
3352.513, 9.715996
3354.441, 11.20065
3356.370, 12.53239
3358.298, 12.09185
3360.227, 9.119396
3362.155, 5.205539
3364.083, 2.706604
3366.012, 0.9972829
3367.940, 2.885405
3369.869, 9.542307
3371.797, 3.737286
3373.726, 4.474238
3375.654, 6.434254
3377.583, 3.655666
3379.511, -2.434118
3381.440, 4.937304
3383.368, -0.8425028
3385.297, -3.403554
3387.225, 3.054011
3389.154, 8.227115
3391.082, 3.002782
3393.010, 1.399668
3394.939, 0.9530536
3396.867, -7.9024933E-02
3398.796, 4.124854
3400.724, 6.127154
3402.653, 4.279764
3404.581, 3.744071
3406.510, 5.919805
3408.438, 5.319667
3410.367, 11.90667
3412.295, 12.41249
3414.224, 9.404114
3416.152, 7.975217
3418.081, 1.646396
3420.009, 7.087855
3421.938, 8.515652
3423.866, 8.630450
3425.794, 13.09322
3427.723, 8.015918
3429.651, 12.51412
3431.580, 13.74138
3433.508, 8.432366
3435.437, 1.268101
3437.365, 7.064340
3439.294, 1.982880
3441.222, -0.1610066
3443.151, 3.983471
3445.079, 10.37872
3447.008, 9.793064
3448.936, 4.811198
3450.865, 5.014438
3452.793, 5.408194
3454.721, 2.813452
3456.650, 6.223113
3458.578, 7.602605
3460.507, 7.638366
3462.435, 5.023772
3464.364, 1.683722
3466.292, 4.222717
3468.221, 1.546080
3470.149, 8.080126
3472.078, 7.924690
3474.006, 2.056273
3475.935, 9.110189
3477.863, -5.717330
3479.792, 8.061273
3481.720, 12.98013
3483.648, 3.805346
3485.577, 2.432958
3487.505, 6.306103
3489.434, 5.211415
3491.362, 7.618002
3493.291, 11.21720
3495.219, 9.526997
3497.148, -2.367715
3499.076, 0.8918782
3501.005, 5.858182
3502.933, 5.915015
3504.862, 2.615411
3506.790, 2.722563
3508.719, 7.158897
3510.647, 11.05838
3512.575, 9.936058
3514.504, 6.220830
3516.432, 5.515148
3518.361, 12.23842
3520.289, 12.90916
3522.218, 7.851613
3524.146, 2.817019
3526.075, 1.318343
3528.003, 1.413905
3529.932, 5.417712
3531.860, 8.017824
3533.789, 10.09893
3535.717, 9.747831
3537.646, 3.794265
3539.574, 4.984235
3541.502, 4.349166
3543.431, 1.943686
3545.359, -0.7482985
3547.288, -0.7632051
3549.216, 6.026661
3551.145, 2.007596
3553.073, -1.842132
3555.002, -2.324100
3556.930, 2.328453
3558.859, 9.932509
3560.787, 5.405967
3562.716, 6.510047
3564.644, 3.964956
3566.573, 1.268839
3568.501, 0.4068950
3570.429, -1.253711
3572.358, -9.0781793E-02
3574.286, 2.728937
3576.215, 3.721120
3578.143, 4.639644
3580.072, 5.624453
3582.000, 2.689853
3583.929, 5.768308
3585.857, 9.120168
3587.786, 11.29475
3589.714, 9.927333
3591.643, 5.957074
3593.571, 8.212400
3595.500, 8.762702
3597.428, 7.641477
3599.356, 5.743420
3601.285, 4.506396
3603.213, 5.233237
3605.142, 10.05808
3607.070, 2.590499
3608.999, 0.2987970
3610.927, 0.1116582
3612.856, 2.876589
3614.784, 8.840791
3616.713, 4.755846
3618.641, 2.700784
3620.570, 4.394526
3622.498, 4.042567
3624.427, 3.973442
3626.355, 7.887473
3628.283, 11.05366
3630.212, 10.08443
3632.140, 4.914881
3634.069, -2.252723
3635.997, -1.457232
3637.926, 9.433909
3639.854, 14.51368
3641.783, 0.6867008
3643.711, 3.939253
3645.640, 4.026170
3647.568, 3.625204
3649.497, 5.794927
3651.425, 0.7875286
3653.354, 6.767005
3655.282, 1.902950
3657.210, 3.215231
3659.139, 1.528255
3661.067, -1.422852
3662.996, 6.156798
3664.924, 9.841805
3666.853, 1.291510
3668.781, 0.5821845
3670.710, 2.592799
3672.638, -0.4040675
3674.567, -4.063466
3676.495, 15.38553
3678.424, 6.971988
3680.352, -1.067119
3682.281, -3.686402
3684.209, -1.473817
3686.137, 4.302539
3688.066, 10.45898
3689.994, 2.482283
3691.923, -3.041783
3693.851, 4.208587
3695.780, 8.123315
3697.708, 5.227293
3699.637, 1.071854
3701.565, -2.037354
3703.494, 5.763555
3705.422, -4.164556
3707.351, -4.419910
3709.279, 7.752101
3711.208, 12.68032
3713.136, 0.8815588
3715.064, 4.252553
3716.993, 3.776617
3718.921, 7.305567
3720.850, 5.323408
3722.778, 2.866018
3724.707, 3.779953
3726.635, 3.964117
3728.564, -1.749482
3730.492, 3.560881
3732.421, 2.116697
3734.349, 3.927907
3736.278, 2.508092
3738.206, 2.649637
3740.135, 14.12546
3742.063, 3.073436
3743.991, 6.827826
3745.920, 12.02652
3747.848, 11.40592
3749.777, 5.118024
3751.705, 1.544017
3753.634, 6.633330
3755.562, 6.423847
3757.491, 11.90353
3759.419, 11.46604
3761.348, 9.426395
3763.276, 5.966142
3765.205, 0.8280954
3767.133, -2.323154
3769.062, 3.519331
3770.990, 5.797531
3772.918, -4.901879
3774.847, -3.336599
3776.775, 3.873396
3778.704, 1.306143
3780.632, -9.179703
3782.561, -8.434270
3784.489, 6.032965
3786.418, 8.253171
3788.346, 0.2164091
3790.275, -7.1133692E-03
3792.203, 0.5963455
3794.132, 0.6217507
3796.060, 5.131957
3797.989, 2.911499
3799.917, 4.908885
3801.845, -4.724480
3803.774, -1.020358
3805.702, -0.8693727
3807.631, -0.5323675
3809.559, 4.910911
3811.488, 4.912143
3813.416, 1.317092
3815.345, -2.155589
3817.273, 2.127560
3819.202, 4.044355
3821.130, 6.664189
3823.059, 8.804810
3824.987, 8.170814
3826.916, 8.349877
3828.844, 13.14213
3830.772, 6.488400
3832.701, 6.157227
3834.629, 0.4253225
3836.558, 2.831338
3838.486, 11.16234
3840.415, 9.127524
3842.343, -5.639427
3844.272, 5.152598
3846.200, 4.890078
3848.129, 1.766193
3850.057, -0.6104631
3851.986, 4.387841
3853.914, 5.553267
3855.843, 0.7801180
3857.771, -1.284163
3859.699, -6.456465
3861.628, 3.451728
3863.556, 2.866374
3865.485, -3.023938
3867.413, -0.4839966
3869.342, 2.189640
3871.270, 4.040341
3873.199, 9.617558
3875.127, 13.89026
3877.056, 13.86080
3878.984, -3.241673
3880.913, 1.709173
3882.841, -1.865944
3884.770, 0.8398939
3886.698, 4.754592
3888.626, 1.231845
3890.555, -3.184787
3892.483, 0.4769349
3894.412, -3.339570
3896.340, 1.190548
3898.269, -6.136715
3900.197, 4.340671
3902.126, 11.34221
3904.054, 11.80051
3905.983, 7.973264
3907.911, 3.746438
3909.840, 13.39198
3911.768, 6.156367
3913.697, 0.1192413
3915.625, 5.858917
3917.553, 12.20297
3919.482, 3.954229
3921.410, 4.899813
3923.339, 7.536742
3925.267, 0.3314120
3927.196, 2.133875
3929.124, 4.667877
3931.053, 7.008016
3932.981, 4.780785
3934.910, 4.583664
3936.838, 5.814566
3938.767, 7.243548
3940.695, 4.006618
3942.624, -2.926986
3944.552, -6.283155
3946.480, -1.688225
3948.409, 12.02199
3950.337, 5.800375
3952.266, 1.519809
3954.194, 0.7123509
3956.123, 1.557678
3958.051, -4.162782
3959.980, -0.7012289
3961.908, 3.803602
3963.837, -2.385337
3965.765, 2.193667
3967.694, 5.521048
3969.622, 3.224714
3971.551, 3.069147
3973.479, -0.1414079
3975.407, 10.05172
3977.336, 5.556733
3979.264, -3.034397
3981.193, -3.412367
3983.121, -0.3650268
3985.050, 2.282228
3986.978, 5.595139
3988.907, 10.19857
3990.835, 14.03681
3992.764, 5.791822
3994.692, 2.682273
3996.621, 6.589929
3998.549, -0.2340852
4000.478, -4.620269
4002.406, -4.563967
4004.334, -5.618523
4006.263, -2.168693
4008.191, 4.834528
4010.120, 2.156368
4012.048, 10.76838
4013.977, -1.366673
4015.905, 4.520670
4017.834, 16.46350
4019.762, 15.59008
4021.691, 2.356827
4023.619, -3.593366
4025.548, -1.970356
4027.476, -1.458621
4029.405, 2.349746
4031.333, 2.553077
4033.261, -2.937137
4035.190, 4.876489
4037.118, 3.945444
4039.047, -1.888359
4040.975, 4.485851
4042.904, 1.985708
4044.832, 0.5509515
4046.761, 0.2730001
4048.689, 2.669652
4050.618, 2.919475
4052.546, -2.158421
4054.475, 7.080067
4056.403, 8.468066
4058.332, 16.09572
4060.260, 3.745852
4062.188, 13.54950
4064.117, 9.676826
4066.045, 9.728086
4067.974, 13.13665
4069.902, 9.101426
4071.831, 8.912380
4073.759, 1.923560
4075.688, -4.567960
4077.616, 3.331284
4079.545, -1.749287
4081.473, -1.076196
4083.402, -7.003942
4085.330, -5.230532
4087.259, 1.932633
4089.187, 7.4062407E-02
4091.115, 9.717143
4093.044, 7.186640
4094.972, -0.8686823
4096.901, 0.7547958
4098.829, -2.259289
4100.758, -2.727776
4102.687, 1.457909
4104.615, 0.5928008
4106.543, 0.4782162
4108.472, -2.442088
4110.400, 7.806030
4112.329, 5.743994
4114.257, 12.75444
4116.186, 9.972758
4118.114, 5.672401
4120.042, 1.939359
4121.971, 4.034783
4123.899, 2.125266
4125.828, -2.655335
4127.756, -1.987850
4129.685, 5.290488
4131.613, 6.116342
4133.542, 5.964792
4135.470, 8.272595
4137.398, 2.177962
4139.327, 11.70740
4141.256, 3.049742
4143.184, -4.268641
4145.112, 3.100124
4147.041, 2.066927
4148.970, -2.060401
4150.898, 2.115168
4152.826, 1.420599
4154.755, 0.4070892
4156.684, -0.2347256
4158.612, -5.908560
4160.540, -2.812732
4162.469, -5.073010
4164.397, 1.171129
4166.326, 11.96944
4168.254, 2.097839
4170.183, -5.721675
4172.111, 2.596346
4174.040, -5.815790
4175.968, 5.144967
4177.896, -0.8518239
4179.825, 9.754046
4181.753, 2.891286
4183.682, 3.929935
4185.610, 8.164057
4187.539, 3.254250
4189.467, 3.646326
4191.396, 7.482661
4193.324, 2.070623
4195.253, 6.293829
4197.181, 2.971364
4199.109, 9.307694
4201.038, 4.447521
4202.967, 7.499540
4204.895, 7.134743
4206.823, 2.838902
4208.752, 7.589937
4210.681, 5.497087
4212.609, 9.391625
4214.537, 3.984499
4216.466, -1.201867
4218.395, 12.42257
4220.323, -3.960308
4222.251, -0.3217921
4224.180, 9.336663
4226.108, 3.428055
4228.037, -4.989670
4229.965, 1.572185
4231.894, -2.069772
4233.822, -3.191368
4235.750, -2.789760
4237.679, 4.989171
4239.607, 4.813264
4241.536, 3.213579
4243.464, 4.149760
4245.393, -0.3576265
4247.321, 3.661404
4249.250, 4.395989
4251.178, 5.428243
4253.106, 5.051941
4255.035, 0.3590724
4256.964, 3.225649
4258.892, 12.67162
4260.820, 12.33751
4262.749, 4.563117
4264.678, 6.704019
4266.606, 12.72087
4268.534, 6.532957
4270.463, -1.199307
4272.392, 7.358213
4274.320, 5.792580
4276.248, 9.635061
4278.177, 6.556577
4280.105, 5.802872
4282.034, -4.769624
4283.962, 7.635968
4285.891, 4.925033
4287.819, 4.375834
4289.748, 8.070912
4291.676, 7.923851
4293.604, 7.342271
4295.533, -3.884482
4297.461, -0.8645284
4299.390, -7.071977
4301.318, -9.026794
4303.247, 0.9707507
4305.175, 0.2871321
4307.104, -1.592166
4309.032, -6.7113452E-02
4310.961, 1.853034
4312.889, 2.783425
4314.817, -0.4543032
4316.746, -0.3524861
4318.675, -0.1408056
4320.603, -7.391695
4322.531, -0.8616273
4324.460, 6.731964
4326.389, -0.4743328
4328.317, 0.5371846
4330.245, 5.733994
4332.174, 8.274506
4334.103, 6.665764
4336.031, 5.090691
4337.959, -0.8380185
4339.888, 3.668283
4341.816, 4.501917
4343.745, 2.556482
4345.673, 6.271737
##END=



