##NAMES=Tellurobismuthite
##RRUFFID=R060948
##IDEAL CHEMISTRY=Bi_2_Te_3_
##LOCALITY=Little Ben mine, Matheson, Ontario, Canada
##OWNER=RRUFF
##SOURCE=Bob Jenkins
##DESCRIPTION=Metallic steel-gray crystals on quartz
##STATUS=The identification of this mineral is confirmed by single-crystal X-ray diffraction and chemical analysis
##URL=https://www.rruff.net/odr/rruff_sample/R060948
##MEASURED CHEMISTRY=Bi_2.00_Te_3.00_
##DIFFRACTION SAMPLE DESCRIPTION=Single crystal, powder profile is calculated
##CELL PARAMETERS=a: 4.406 b: 4.406 c: 30.36 alpha: 90 beta: 90 gamma: 120 volume: 510.9 crystal system: hexagonal
##FILETYPE=Raman RAW
##RAMAN WAVELENGTH=532

122.6892, 356.2997
124.6177, 446.9476
126.5461, 539.6160
128.4746, 631.5723
130.4031, 728.2902
132.3315, 803.7455
134.2600, 855.7522
136.1885, 884.0161
138.1169, 898.3682
140.0454, 891.6655
141.9739, 876.1375
143.9023, 860.1501
145.8308, 838.8514
147.7593, 822.8021
149.6877, 816.1746
151.6162, 818.2853
153.5447, 819.1656
155.4731, 814.5873
157.4016, 808.5831
159.3301, 806.6671
161.2585, 813.4147
163.1870, 820.0338
165.1155, 822.7830
167.0439, 821.0007
168.9724, 821.5584
170.9009, 826.5829
172.8293, 835.2246
174.7578, 843.4216
176.6863, 850.9060
178.6147, 857.8472
180.5432, 864.2905
182.4717, 869.9778
184.4001, 874.9771
186.3286, 882.1074
188.2571, 890.4155
190.1855, 889.5381
192.1140, 868.5196
194.0425, 843.0264
195.9709, 827.6049
197.8994, 836.0005
199.8279, 842.4122
201.7563, 842.2473
203.6848, 835.9055
205.6133, 823.8860
207.5417, 801.7438
209.4702, 774.2187
211.3987, 749.2414
213.3272, 725.7601
215.2556, 705.0132
217.1841, 688.2955
219.1126, 676.0962
221.0410, 664.0114
222.9695, 650.7681
224.8980, 637.0119
226.8264, 624.9875
228.7549, 615.5769
230.6834, 607.2703
232.6118, 598.5790
234.5403, 587.2867
236.4688, 580.7827
238.3972, 582.9111
240.3257, 592.3240
242.2542, 597.4749
244.1826, 595.6528
246.1111, 591.0111
248.0396, 586.4540
249.9680, 580.6422
251.8965, 576.5197
253.8250, 575.8750
255.7534, 578.0320
257.6819, 578.4012
259.6104, 575.5262
261.5388, 571.2325
263.4673, 566.8969
265.3958, 561.0995
267.3242, 556.8440
269.2527, 555.5081
271.1812, 556.6478
273.1096, 557.6005
275.0381, 558.1885
276.9666, 558.3051
278.8950, 557.7653
280.8235, 557.4683
282.7520, 555.5265
284.6804, 549.8268
286.6089, 540.5722
288.5374, 534.0620
290.4658, 531.7006
292.3943, 531.9917
294.3228, 533.5512
296.2512, 536.6893
298.1797, 540.2666
300.1082, 544.4106
302.0366, 549.3843
303.9651, 552.6263
305.8936, 554.1190
307.8220, 554.0084
309.7505, 552.1028
311.6790, 546.8964
313.6074, 542.8284
315.5359, 541.6689
317.4644, 544.2719
319.3928, 545.8342
321.3213, 546.2513
323.2498, 545.5060
325.1782, 543.3389
327.1067, 538.1886
329.0352, 534.5878
330.9636, 534.0227
332.8921, 537.3135
334.8206, 540.7538
336.7491, 546.9723
338.6775, 552.2252
340.6060, 552.5635
342.5345, 544.6111
344.4629, 538.3040
346.3914, 536.8692
348.3199, 541.0349
350.2483, 544.2656
352.1768, 544.4781
354.1053, 544.7699
356.0337, 548.2051
357.9622, 558.5797
359.8907, 564.4146
361.8191, 560.4678
363.7476, 546.8895
365.6761, 539.1728
367.6045, 544.0031
369.5330, 550.1598
371.4615, 550.5034
373.3899, 541.1188
375.3184, 533.6381
377.2469, 531.1896
379.1753, 532.8381
381.1038, 532.4595
383.0323, 527.1394
384.9607, 522.3989
386.8892, 521.4938
388.8177, 527.3748
390.7461, 530.3925
392.6746, 528.0167
394.6031, 522.1132
396.5315, 517.7239
398.4600, 515.1295
400.3885, 513.8250
402.3169, 513.7997
404.2454, 516.0814
406.1739, 516.7354
408.1023, 515.4785
410.0308, 512.6042
411.9593, 508.3884
413.8877, 501.4197
415.8162, 495.8421
417.7447, 493.1512
419.6731, 493.8875
421.6016, 494.7470
423.5301, 495.6835
425.4585, 496.7349
427.3870, 498.5197
429.3155, 502.3313
431.2439, 503.0406
433.1724, 497.2339
435.1009, 485.8474
437.0293, 478.4531
438.9578, 476.3018
440.8863, 476.4835
442.8147, 478.7792
444.7432, 483.9954
446.6717, 485.8972
448.6001, 480.5399
450.5286, 471.5086
452.4571, 465.9926
454.3855, 467.3309
456.3140, 468.5510
458.2425, 466.7691
460.1709, 462.4541
462.0994, 460.1230
464.0279, 462.2688
465.9563, 465.7146
467.8848, 467.8289
469.8133, 467.6006
471.7417, 467.4282
473.6702, 468.3117
475.5987, 469.4551
477.5271, 468.8187
479.4556, 463.7321
481.3841, 458.7902
483.3125, 456.3094
485.2410, 457.9330
487.1695, 457.5042
489.0979, 450.5654
491.0264, 443.1921
492.9549, 442.5568
494.8833, 455.1559
496.8118, 465.3853
498.7403, 468.3629
500.6687, 463.9899
502.5972, 460.9792
504.5257, 457.7198
506.4541, 457.1279
508.3826, 462.0989
510.3111, 476.0906
512.2395, 483.4674
514.1680, 479.0130
516.0964, 467.5181
518.0249, 458.6735
519.9534, 452.8006
521.8818, 448.7606
523.8103, 446.8148
525.7388, 446.8497
527.6672, 447.1490
529.5957, 449.2044
531.5242, 450.6086
533.4526, 448.5221
535.3811, 440.4724
537.3096, 436.9498
539.2380, 444.3353
541.1665, 456.5082
543.0950, 463.6868
545.0234, 459.0019
546.9519, 456.1057
548.8804, 460.7308
550.8088, 472.9444
552.7373, 477.8281
554.6658, 468.1632
556.5942, 457.0947
558.5227, 452.9203
560.4512, 459.1560
562.3796, 462.6184
564.3081, 459.0885
566.2366, 452.7019
568.1650, 451.0854
570.0935, 456.7200
572.0220, 461.8336
573.9504, 462.8182
575.8789, 460.4872
577.8074, 460.0439
579.7358, 465.3918
581.6644, 469.6889
583.5928, 468.8899
585.5213, 461.9650
587.4498, 456.2720
589.3782, 451.9098
591.3067, 449.6961
593.2352, 450.6432
595.1636, 457.7044
597.0921, 462.9366
599.0206, 463.4290
600.9490, 460.7217
602.8775, 460.8289
604.8060, 466.5608
606.7344, 471.2125
608.6629, 471.1780
610.5914, 466.5399
612.5198, 463.4966
614.4483, 463.8508
616.3768, 465.0687
618.3052, 465.5653
620.2337, 465.1991
622.1622, 464.5290
624.0906, 463.4077
626.0191, 461.9760
627.9476, 460.2655
629.8760, 457.0388
631.8045, 455.6669
633.7330, 457.8432
635.6614, 462.9282
637.5899, 467.0828
639.5184, 471.4078
641.4468, 473.8741
643.3753, 472.2060
645.3038, 466.4785
647.2322, 463.4244
649.1607, 464.6491
651.0892, 467.7460
653.0176, 471.6518
654.9461, 476.9196
656.8746, 480.9022
658.8030, 483.8285
660.7315, 485.1201
662.6600, 484.2081
664.5884, 480.0406
666.5169, 476.4522
668.4454, 473.8563
670.3738, 472.4957
672.3023, 473.2267
674.2308, 479.0670
676.1592, 483.1138
678.0877, 480.7664
680.0162, 473.6841
681.9446, 469.5576
683.8731, 471.4150
685.8016, 474.5706
687.7300, 476.9980
689.6585, 478.2018
691.5870, 480.7768
693.5154, 488.0757
695.4439, 494.5822
697.3724, 494.8001
699.3008, 486.9488
701.2293, 482.4641
703.1578, 487.3304
705.0862, 495.4943
707.0147, 499.2725
708.9432, 492.3175
710.8716, 488.7182
712.8001, 491.9634
714.7286, 499.4015
716.6570, 505.7035
718.5855, 512.1825
720.5140, 514.9495
722.4424, 510.4633
724.3709, 499.5508
726.2994, 494.5851
728.2278, 501.1422
730.1563, 507.5637
732.0848, 508.0954
734.0132, 503.4029
735.9417, 500.9312
737.8702, 503.9693
739.7986, 506.9391
741.7271, 506.5828
743.6556, 501.6228
745.5840, 497.5505
747.5125, 494.5979
749.4410, 492.5299
751.3694, 491.6798
753.2979, 492.4863
755.2264, 492.0868
757.1548, 488.6155
759.0833, 484.3090
761.0118, 481.6696
762.9402, 482.4130
764.8687, 481.2733
766.7972, 477.0839
768.7256, 470.7310
770.6541, 463.3451
772.5826, 453.4027
774.5110, 445.6288
776.4395, 442.7564
778.3680, 442.8305
780.2964, 442.4681
782.2249, 442.3027
784.1534, 440.4862
786.0818, 435.6678
788.0103, 428.5269
789.9388, 422.6373
791.8672, 417.4348
793.7957, 413.9037
795.7242, 413.9231
797.6526, 416.2532
799.5811, 416.5468
801.5096, 413.1534
803.4380, 409.1426
805.3665, 404.6472
807.2950, 399.4538
809.2234, 398.4157
811.1519, 406.3553
813.0804, 413.4410
815.0089, 413.8751
816.9373, 408.4657
818.8658, 403.7481
820.7943, 400.6656
822.7227, 398.3902
824.6512, 396.3405
826.5797, 394.2401
828.5081, 393.9380
830.4366, 397.1409
832.3651, 400.6490
834.2935, 402.3090
836.2220, 402.0530
838.1505, 401.8280
840.0789, 401.0895
842.0074, 401.0659
843.9359, 403.1090
845.8643, 408.0902
847.7928, 410.4868
849.7213, 409.0738
851.6497, 405.7097
853.5782, 401.1121
855.5067, 394.6238
857.4351, 389.7613
859.3636, 388.0178
861.2921, 387.0865
863.2205, 384.6614
865.1490, 380.1837
867.0775, 378.2004
869.0059, 381.7425
870.9344, 386.4722
872.8629, 389.3041
874.7913, 389.0475
876.7198, 389.5659
878.6483, 392.2768
880.5767, 394.9367
882.5052, 395.2601
884.4337, 393.1081
886.3621, 391.7553
888.2906, 392.4788
890.2191, 393.8104
892.1475, 394.6349
894.0760, 394.4816
896.0045, 394.9642
897.9329, 397.8831
899.8614, 400.1809
901.7899, 398.3318
903.7183, 391.5068
905.6468, 387.3517
907.5753, 388.4099
909.5037, 391.3217
911.4322, 394.2976
913.3607, 397.5884
915.2891, 398.7552
917.2176, 394.5844
919.1461, 390.4849
921.0745, 390.1553
923.0030, 395.0109
924.9315, 398.5465
926.8599, 399.5786
928.7884, 400.3619
930.7169, 403.5293
932.6453, 408.7731
934.5738, 409.9109
936.5023, 402.2515
938.4307, 394.0191
940.3592, 389.0944
942.2877, 387.7342
944.2161, 387.8618
946.1446, 391.1222
948.0731, 394.1284
950.0015, 394.9316
951.9300, 393.7775
953.8585, 393.9739
955.7869, 397.7579
957.7154, 400.0762
959.6439, 397.2184
961.5723, 390.5087
963.5008, 386.1927
965.4293, 385.0927
967.3577, 385.9737
969.2862, 390.0585
971.2147, 396.3080
973.1431, 399.3918
975.0716, 396.9197
977.0001, 394.7570
978.9285, 395.4448
980.8570, 397.0301
982.7855, 395.3279
984.7139, 388.3894
986.6424, 383.0319
988.5709, 381.9664
990.4993, 383.5188
992.4278, 385.5544
994.3563, 389.5514
996.2847, 391.5796
998.2132, 389.3235
1000.142, 386.0693
1002.070, 385.6494
1003.999, 388.2062
1005.927, 392.3753
1007.856, 400.0915
1009.784, 407.6824
1011.712, 412.6405
1013.641, 414.8245
1015.569, 415.2621
1017.498, 411.4535
1019.426, 408.1528
1021.355, 408.2559
1023.283, 412.4106
1025.212, 415.1232
1027.140, 417.2011
1029.069, 417.3747
1030.997, 413.9717
1032.926, 407.8767
1034.854, 403.2260
1036.782, 399.8309
1038.711, 398.3495
1040.639, 401.0386
1042.568, 405.5554
1044.496, 406.2611
1046.425, 400.4459
1048.353, 395.7877
1050.282, 394.3792
1052.210, 394.7242
1054.139, 394.8078
1056.067, 394.7961
1057.996, 394.3568
1059.924, 390.6108
1061.853, 388.3834
1063.781, 394.1410
1065.709, 407.8624
1067.638, 415.8511
1069.566, 412.0890
1071.495, 405.8518
1073.423, 401.5699
1075.352, 399.2521
1077.280, 398.2133
1079.209, 400.0705
1081.137, 401.4768
1083.066, 401.1422
1084.994, 399.6007
1086.923, 398.9731
1088.851, 400.7930
1090.780, 400.8704
1092.708, 396.7955
1094.637, 391.2096
1096.565, 387.2705
1098.494, 385.0249
1100.422, 384.4370
1102.350, 386.1503
1104.279, 389.1452
1106.207, 393.4297
1108.136, 399.7554
1110.064, 403.0596
1111.993, 400.4046
1113.921, 397.5627
1115.850, 397.8148
1117.778, 400.3902
1119.707, 399.4537
1121.635, 392.3822
1123.564, 386.0960
1125.492, 382.4159
1127.421, 380.9125
1129.349, 381.2907
1131.277, 384.3547
1133.206, 385.9539
1135.134, 382.8117
1137.063, 379.4560
1138.991, 379.9145
1140.920, 385.6390
1142.848, 388.0450
1144.777, 384.0274
1146.705, 379.7509
1148.634, 378.6785
1150.562, 380.0167
1152.491, 377.8996
1154.419, 367.6686
1156.348, 361.4461
1158.276, 364.8133
1160.204, 373.0181
1162.133, 380.3120
1164.061, 387.2995
1165.990, 389.5689
1167.918, 381.7195
1169.847, 372.6470
1171.775, 368.0761
1173.704, 368.2517
1175.632, 369.3045
1177.561, 371.1666
1179.489, 373.8596
1181.418, 379.2292
1183.346, 385.4629
1185.275, 386.7692
1187.203, 379.5872
1189.131, 374.0136
1191.060, 371.1258
1192.988, 370.5339
1194.917, 373.2630
1196.845, 379.3216
1198.774, 382.0796
1200.702, 377.6330
1202.631, 373.7780
1204.559, 375.8596
1206.488, 381.8702
1208.416, 383.7983
1210.345, 378.2054
1212.273, 374.3975
1214.202, 376.4539
1216.130, 379.8632
1218.058, 379.2214
1219.987, 372.3817
1221.915, 367.4671
1223.844, 364.0567
1225.772, 363.0405
1227.701, 366.5601
1229.629, 373.4482
1231.558, 377.2521
1233.486, 376.8670
1235.415, 375.7554
1237.343, 373.8928
1239.272, 372.3847
1241.200, 372.8687
1243.129, 375.6130
1245.057, 376.8204
1246.985, 373.7370
1248.914, 371.3632
1250.842, 372.8543
1252.771, 377.3619
1254.699, 379.7982
1256.628, 378.7754
1258.556, 377.5966
1260.485, 375.9257
1262.413, 374.8574
1264.342, 376.0802
1266.270, 380.7051
1268.199, 383.2055
1270.127, 382.4236
1272.056, 380.8012
1273.984, 379.3203
1275.912, 377.6313
1277.841, 374.2762
1279.769, 367.6628
1281.698, 364.8640
1283.626, 373.1194
1285.555, 381.3889
1287.483, 379.0316
1289.412, 366.7901
1291.340, 362.1989
1293.269, 372.3390
1295.197, 381.9074
1297.126, 386.7473
1299.054, 387.6852
1300.983, 385.5996
1302.911, 377.1147
1304.839, 373.0652
1306.768, 377.2142
1308.696, 382.2851
1310.625, 384.8510
1312.553, 385.0254
1314.482, 383.2422
1316.410, 376.3289
1318.339, 373.1294
1320.267, 378.7557
1322.196, 386.5788
1324.124, 390.1377
1326.053, 389.6721
1327.981, 387.1219
1329.910, 380.4140
1331.838, 375.4499
1333.766, 376.0432
1335.695, 379.7263
1337.623, 383.2478
1339.552, 386.8633
1341.480, 389.0170
1343.409, 388.1331
1345.337, 386.9829
1347.266, 386.7123
1349.194, 387.2060
1351.123, 388.2204
1353.051, 392.2634
1354.980, 392.3975
1356.908, 383.2924
1358.837, 373.8466
1360.765, 372.0264
1362.693, 378.2289
1364.622, 382.5373
1366.550, 383.7116
1368.479, 384.9686
1370.407, 387.7065
1372.336, 390.5501
1374.264, 391.0928
1376.193, 389.1405
1378.121, 389.3771
1380.050, 395.0607
1381.978, 398.8403
1383.907, 396.0635
1385.835, 389.6841
1387.764, 383.9741
1389.692, 378.8756
1391.620, 375.4830
1393.549, 375.0923
1395.477, 375.1853
1397.406, 373.9098
1399.334, 372.2336
1401.263, 373.7739
1403.191, 381.0276
1405.120, 384.0540
1407.048, 376.8434
1408.977, 369.0892
1410.905, 366.3168
1412.834, 367.8536
1414.762, 369.1184
1416.691, 369.0499
1418.619, 370.3846
1420.547, 376.5969
1422.476, 381.5573
1424.404, 378.3233
1426.333, 367.5717
1428.261, 364.2619
1430.190, 374.5952
1432.118, 382.7156
1434.047, 385.9736
1435.975, 386.2939
1437.904, 384.9976
1439.832, 382.0425
1441.761, 377.9597
1443.689, 371.4898
1445.618, 366.4793
1447.546, 363.3937
1449.474, 362.9246
1451.403, 367.7991
1453.331, 376.9701
1455.260, 380.8459
1457.188, 375.4305
1459.117, 371.8182
1461.045, 378.0564
1462.974, 384.9012
1464.902, 382.0987
1466.831, 370.4073
1468.759, 362.1678
1470.688, 358.7425
1472.616, 358.2366
1474.545, 362.1040
1476.473, 367.1307
1478.401, 370.9394
1480.330, 373.6180
1482.258, 373.2895
1484.187, 368.0659
1486.115, 362.9588
1488.044, 358.0083
1489.972, 354.5230
1491.901, 354.3769
1493.829, 357.8711
1495.758, 359.9076
1497.686, 360.2111
1499.615, 359.2389
1501.543, 355.3025
1503.472, 351.4789
1505.400, 350.8144
1507.328, 353.3570
1509.257, 355.8867
1511.185, 360.0890
1513.114, 361.9793
1515.042, 358.3029
1516.971, 354.3944
1518.899, 354.6944
1520.828, 358.8090
1522.756, 363.1566
1524.685, 369.4923
1526.613, 372.5751
1528.542, 369.8856
1530.470, 365.4447
1532.399, 360.4347
1534.327, 355.8801
1536.255, 356.2970
1538.184, 363.9364
1540.112, 369.0806
1542.041, 368.3489
1543.969, 366.6013
1545.898, 366.0794
1547.826, 366.4779
1549.755, 366.8165
1551.683, 366.8079
1553.612, 368.8702
1555.540, 376.3202
1557.469, 381.8352
1559.397, 381.2149
1561.326, 376.8913
1563.254, 371.7193
1565.182, 365.6840
1567.111, 361.4319
1569.039, 359.9601
1570.968, 358.9106
1572.896, 357.3573
1574.825, 355.7984
1576.753, 355.2300
1578.682, 355.3662
1580.610, 353.2099
1582.539, 346.4686
1584.467, 343.5606
1586.396, 350.0252
1588.324, 358.1981
1590.253, 364.1297
1592.181, 367.4095
1594.109, 365.5755
1596.038, 356.7005
1597.966, 351.5014
1599.895, 354.2088
1601.823, 358.3731
1603.752, 362.5184
1605.680, 365.3899
1607.609, 363.4580
1609.537, 356.1959
1611.466, 352.8867
1613.394, 357.0386
1615.323, 360.7813
1617.251, 359.8884
1619.180, 358.3751
1621.108, 361.0101
1623.036, 367.0852
1624.965, 368.6534
1626.893, 362.8786
1628.822, 359.4727
1630.750, 364.5279
1632.679, 368.4695
1634.607, 363.9438
1636.536, 355.0965
1638.464, 353.4113
1640.393, 360.7110
1642.321, 364.5428
1644.250, 361.1378
1646.178, 357.7059
1648.107, 354.7233
1650.035, 354.1003
1651.964, 360.7189
1653.892, 373.9525
1655.820, 376.0082
1657.749, 360.0749
1659.677, 348.8783
1661.606, 349.7229
1663.534, 353.7467
1665.463, 358.3021
1667.391, 362.4634
1669.320, 363.1634
1671.248, 359.4054
1673.177, 359.2864
1675.105, 367.8411
1677.034, 372.7776
1678.962, 367.3497
1680.891, 359.4304
1682.819, 355.0556
1684.747, 354.0955
1686.676, 356.4255
1688.604, 364.5945
1690.533, 367.4685
1692.461, 356.9629
1694.390, 348.9575
1696.318, 352.5030
1698.247, 360.8546
1700.175, 364.6010
1702.104, 363.7469
1704.032, 362.8174
1705.961, 361.4356
1707.889, 361.4359
1709.818, 366.0467
1711.746, 369.1897
1713.674, 366.0684
1715.603, 359.5074
1717.531, 355.3974
1719.460, 353.7458
1721.388, 354.7318
1723.317, 360.1161
1725.245, 364.4951
1727.174, 366.2691
1729.102, 366.2254
1731.031, 364.6581
1732.959, 361.7685
1734.888, 357.1982
1736.816, 350.2642
1738.745, 348.0428
1740.673, 354.1617
1742.601, 360.2310
1744.530, 363.4116
1746.458, 364.5541
1748.387, 363.4472
1750.315, 360.9136
1752.244, 359.7450
1754.172, 359.9834
1756.101, 362.3375
1758.029, 370.5500
1759.958, 374.5685
1761.886, 364.9678
1763.815, 353.0105
1765.743, 350.7829
1767.672, 355.4797
1769.600, 355.7479
1771.528, 349.8836
1773.457, 347.8339
1775.385, 354.5346
1777.314, 360.3260
1779.242, 359.8458
1781.171, 357.1479
1783.099, 355.5219
1785.028, 355.1195
1786.956, 357.4892
1788.885, 363.8900
1790.813, 366.9148
1792.742, 361.8013
1794.670, 358.3306
1796.599, 362.8957
1798.527, 368.4926
1800.455, 366.7265
1802.384, 359.7906
1804.312, 358.3583
1806.241, 364.3583
1808.169, 368.6286
1810.098, 372.2956
1812.026, 371.9340
1813.955, 362.1432
1815.883, 351.9412
1817.812, 348.3937
1819.740, 350.7352
1821.669, 357.1035
1823.597, 369.9916
1825.526, 378.6337
1827.454, 382.0069
1829.382, 382.5445
1831.311, 378.6252
1833.239, 374.0735
1835.168, 370.3091
1837.096, 368.1865
1839.025, 370.7893
1840.953, 379.6002
1842.882, 381.8487
1844.810, 373.1660
1846.739, 366.9969
1848.667, 368.6584
1850.596, 369.8917
1852.524, 365.1367
1854.453, 359.1609
1856.381, 359.0936
1858.309, 363.9682
1860.238, 366.1753
1862.166, 365.1543
1864.095, 363.5463
1866.023, 361.7599
1867.952, 359.5967
1869.880, 355.9814
1871.809, 352.7816
1873.737, 350.5386
1875.666, 350.0898
1877.594, 355.1245
1879.523, 365.9075
1881.451, 371.2656
1883.380, 367.0098
1885.308, 364.7794
1887.236, 372.2533
1889.165, 377.5298
1891.093, 370.6802
1893.022, 359.7104
1894.950, 356.0776
1896.879, 359.1929
1898.807, 362.0360
1900.736, 365.5341
1902.664, 366.4737
1904.593, 361.9516
1906.521, 358.7947
1908.450, 360.6852
1910.378, 362.9283
1912.307, 360.6084
1914.235, 356.4467
1916.163, 356.9786
1918.092, 362.8690
1920.020, 367.8379
1921.949, 372.5908
1923.877, 374.5248
1925.806, 371.5584
1927.734, 367.9706
1929.663, 364.3905
1931.591, 361.8123
1933.520, 363.0463
1935.448, 365.6517
1937.377, 360.3200
1939.305, 347.0268
1941.234, 345.4398
1943.162, 362.5082
1945.090, 374.7935
1947.019, 373.3850
1948.947, 369.5865
1950.876, 368.3910
1952.804, 368.0928
1954.733, 366.1115
1956.661, 363.5117
1958.590, 364.7591
1960.518, 371.1209
1962.447, 374.4995
1964.375, 373.7073
1966.304, 371.6730
1968.232, 365.9245
1970.161, 362.4169
1972.089, 365.9964
1974.017, 371.2814
1975.946, 371.7541
1977.874, 369.2195
1979.803, 371.2692
1981.731, 378.9016
1983.660, 381.2814
1985.588, 375.9676
1987.517, 371.1186
1989.445, 367.5612
1991.374, 366.1622
1993.302, 368.8257
1995.231, 372.3697
1997.159, 373.7903
1999.088, 374.1432
2001.016, 376.1834
2002.944, 379.7350
2004.873, 380.4615
2006.801, 376.7995
2008.730, 374.7863
2010.658, 376.8017
2012.587, 378.5748
2014.515, 378.7825
2016.444, 378.3297
2018.372, 377.2165
2020.301, 376.2002
2022.229, 376.1972
2024.158, 377.2783
2026.086, 381.7433
2028.015, 392.1178
2029.943, 394.2370
2031.871, 381.5060
2033.800, 373.1627
2035.728, 377.7996
2037.657, 382.5755
2039.585, 380.1348
2041.514, 375.6174
2043.442, 372.9631
2045.371, 372.2072
2047.299, 374.0658
2049.228, 378.3716
2051.156, 381.3067
2053.084, 381.7834
2055.013, 383.7234
2056.941, 390.7779
2058.870, 394.8312
2060.798, 391.8037
2062.727, 387.3195
2064.656, 383.6207
2066.584, 381.3398
2068.512, 381.0657
2070.441, 382.8916
2072.369, 388.7906
2074.298, 399.4658
2076.226, 402.6917
2078.155, 395.2997
2080.083, 390.9196
2082.012, 395.0002
2083.940, 396.8128
2085.869, 388.0792
2087.797, 380.0988
2089.726, 381.9323
2091.654, 387.8091
2093.583, 391.4731
2095.511, 392.5791
2097.439, 388.5151
2099.368, 377.5751
2101.296, 373.1751
2103.225, 379.1043
2105.153, 384.8029
2107.082, 392.8541
2109.010, 396.4214
2110.939, 388.0577
2112.867, 381.6679
2114.796, 388.7545
2116.724, 398.7238
2118.653, 398.6755
2120.581, 392.6258
2122.510, 390.7582
2124.438, 392.6952
2126.366, 391.5623
2128.295, 385.5315
2130.223, 383.3698
2132.152, 389.4802
2134.080, 394.0506
2136.009, 392.2136
2137.937, 392.1628
2139.866, 401.5438
2141.794, 410.3253
2143.723, 408.3691
2145.651, 400.8872
2147.580, 396.3324
2149.508, 394.5356
2151.437, 394.8968
2153.365, 397.4541
2155.293, 399.0986
2157.222, 399.7701
2159.150, 398.0455
2161.079, 389.9371
2163.007, 386.2052
2164.936, 394.9373
2166.864, 403.3411
2168.793, 403.8664
2170.721, 401.1346
2172.650, 398.1110
2174.578, 395.9878
2176.507, 398.6742
2178.435, 405.4017
2180.364, 406.4087
2182.292, 401.2392
2184.220, 397.2294
2186.149, 394.7151
2188.077, 394.9971
2190.006, 401.2644
2191.934, 404.0932
2193.863, 395.5799
2195.791, 388.6640
2197.720, 392.1108
2199.648, 398.1313
2201.577, 399.7104
2203.505, 398.7299
2205.434, 397.6874
2207.362, 396.9384
2209.291, 399.5612
2211.219, 405.7388
2213.147, 408.0686
2215.076, 405.5356
2217.004, 403.7998
2218.933, 403.5113
2220.861, 404.8792
2222.790, 411.4542
2224.718, 414.4704
2226.647, 408.1468
2228.575, 399.6533
2230.504, 391.6273
2232.432, 385.9949
2234.361, 385.1463
2236.289, 388.3964
2238.218, 395.5994
2240.146, 405.9294
2242.074, 412.9827
2244.003, 416.6238
2245.931, 414.9304
2247.860, 406.2012
2249.788, 400.9933
2251.717, 403.7744
2253.645, 404.5152
2255.574, 397.7947
2257.502, 392.6640
2259.431, 392.7816
2261.359, 395.4238
2263.288, 401.2373
2265.216, 406.4734
2267.145, 405.8042
2269.073, 402.3460
2271.001, 402.6200
2272.930, 405.4649
2274.858, 406.3305
2276.787, 405.2225
2278.715, 404.8631
2280.644, 405.7440
2282.572, 405.5731
2284.501, 401.1829
2286.429, 400.5840
2288.358, 408.1259
2290.286, 413.8999
2292.215, 416.3358
2294.143, 415.5501
2296.072, 409.1193
2298.000, 402.4559
2299.928, 398.9870
2301.857, 397.8054
2303.785, 399.0615
2305.714, 401.2819
2307.642, 400.8143
2309.571, 398.4447
2311.499, 398.8573
2313.428, 402.3705
2315.356, 404.6397
2317.285, 396.3114
2319.213, 406.7462
2321.142, 412.6030
2323.070, 414.1278
2324.999, 398.3460
2326.927, 404.9122
2328.855, 402.5223
2330.784, 399.7651
2332.712, 409.4767
2334.641, 396.2121
2336.569, 405.7259
2338.498, 406.1469
2340.426, 410.7295
2342.355, 406.3007
2344.283, 404.6553
2346.212, 412.0240
2348.140, 414.4016
2350.069, 407.0347
2351.997, 410.5145
2353.926, 415.2363
2355.854, 417.8530
2357.782, 417.2498
2359.711, 417.6758
2361.639, 419.1110
2363.568, 422.0157
2365.496, 430.0596
2367.425, 430.3295
2369.353, 413.2649
2371.282, 401.9794
2373.210, 412.2189
2375.139, 420.9901
2377.067, 410.3247
2378.996, 400.6727
2380.924, 414.9012
2382.853, 430.6631
2384.781, 417.8798
2386.709, 394.4712
2388.638, 389.5361
2390.566, 397.5133
2392.495, 406.0042
2394.423, 414.1898
2396.352, 418.6981
2398.280, 419.5250
2400.209, 418.3947
2402.137, 414.8924
2404.066, 411.3402
2405.994, 406.6279
2407.923, 404.8596
2409.851, 407.0728
2411.780, 409.5506
2413.708, 411.6697
2415.636, 413.9737
2417.565, 418.0196
2419.493, 420.0166
2421.422, 417.4295
2423.350, 413.9282
2425.279, 409.5291
2427.207, 407.1155
2429.136, 409.5678
2431.064, 414.0826
2432.993, 420.3910
2434.921, 425.1272
2436.850, 421.5622
2438.778, 414.8626
2440.707, 414.7114
2442.635, 419.1616
2444.563, 422.7909
2446.492, 425.4108
2448.420, 424.3796
2450.349, 419.6390
2452.277, 416.6169
2454.206, 415.3906
2456.134, 416.7255
2458.063, 421.1982
2459.991, 423.9119
2461.920, 424.8258
2463.848, 422.2678
2465.777, 411.0661
2467.705, 405.0773
2469.634, 409.1591
2471.562, 412.0136
2473.490, 409.9998
2475.419, 408.6541
2477.347, 410.4912
2479.276, 412.9284
2481.204, 415.9455
2483.133, 417.4326
2485.061, 413.9449
2486.990, 410.7821
2488.918, 414.0677
2490.847, 418.0746
2492.775, 417.3956
2494.704, 413.8136
2496.632, 407.3165
2498.561, 400.9530
2500.489, 399.5392
2502.417, 402.2804
2504.346, 408.4744
2506.274, 416.9419
2508.203, 424.0791
2510.131, 429.1932
2512.060, 424.8794
2513.988, 412.7090
2515.917, 408.4608
2517.845, 413.2523
2519.774, 415.0698
2521.702, 413.5681
2523.631, 407.5653
2525.559, 392.9702
2527.488, 389.3099
2529.416, 400.0874
2531.344, 410.1140
2533.273, 418.5109
2535.201, 421.2818
2537.130, 413.8772
2539.058, 408.7203
2540.987, 411.2400
2542.915, 411.4443
2544.844, 404.6017
2546.772, 399.6509
2548.701, 398.6186
2550.629, 400.5117
2552.558, 408.5937
2554.486, 414.0464
2556.415, 408.9804
2558.343, 404.6439
2560.271, 410.1079
2562.200, 415.9022
2564.128, 414.2825
2566.057, 411.7780
2567.985, 414.7379
2569.914, 417.6230
2571.842, 412.1284
2573.771, 406.6785
2575.699, 414.8663
2577.628, 425.8118
2579.556, 422.0228
2581.485, 412.2988
2583.413, 412.2993
2585.342, 416.3618
2587.270, 413.5836
2589.198, 407.1471
2591.127, 403.1365
2593.055, 401.9034
2594.984, 406.7078
2596.912, 415.2388
2598.841, 414.2182
2600.769, 407.1012
2602.698, 411.7128
2604.626, 425.8853
2606.555, 432.6176
2608.483, 431.8926
2610.412, 424.4716
2612.340, 409.4111
2614.269, 407.7596
2616.197, 419.1831
2618.125, 421.4889
2620.054, 413.3662
2621.982, 411.9853
2623.911, 421.3270
2625.839, 421.0945
2627.768, 405.0550
2629.696, 405.3578
2631.625, 426.3444
2633.553, 433.8821
2635.482, 422.4754
2637.410, 415.5269
2639.339, 417.6151
2641.267, 419.8045
2643.196, 421.1584
2645.124, 423.3793
2647.052, 427.5816
2648.981, 428.1209
2650.909, 423.0073
2652.838, 419.0944
2654.766, 419.0857
2656.695, 417.3481
2658.623, 409.8942
2660.552, 406.8996
2662.480, 412.1900
2664.409, 414.1220
2666.337, 409.5492
2668.266, 404.0289
2670.194, 396.8046
2672.123, 393.0210
2674.051, 395.4878
2675.979, 398.5260
2677.908, 400.4160
2679.836, 404.7693
2681.765, 414.9819
2683.693, 421.6693
2685.622, 418.2835
2687.550, 416.6213
2689.479, 421.7154
2691.407, 425.8292
2693.336, 427.8494
2695.264, 427.2128
2697.193, 422.4005
2699.121, 417.6982
2701.050, 412.4204
2702.978, 411.1555
2704.906, 420.7449
2706.835, 425.7154
2708.763, 418.8349
2710.692, 413.4782
2712.620, 413.8726
2714.549, 417.2253
2716.477, 427.8712
2718.406, 432.5520
2720.334, 418.8486
2722.263, 411.2815
2724.191, 421.1505
2726.120, 428.2643
2728.048, 423.5177
2729.977, 418.1295
2731.905, 416.4281
2733.833, 414.6920
2735.762, 410.8376
2737.690, 408.4316
2739.619, 408.8314
2741.547, 409.8603
2743.476, 411.0465
2745.404, 412.1023
2747.333, 414.2777
2749.261, 413.9140
2751.190, 408.3661
2753.118, 403.4739
2755.047, 399.1782
2756.975, 399.5037
2758.904, 410.5069
2760.832, 418.4041
2762.760, 418.7316
2764.689, 417.3363
2766.617, 414.7781
2768.546, 411.8757
2770.474, 407.8016
2772.403, 406.0558
2774.331, 409.4236
2776.260, 411.8244
2778.188, 411.7834
2780.117, 411.8515
2782.045, 411.8191
2783.974, 414.5604
2785.902, 423.7908
2787.831, 427.8249
2789.759, 418.3182
2791.688, 416.3838
2793.616, 426.3480
2795.544, 431.0415
2797.473, 427.2842
2799.401, 421.2262
2801.330, 411.2749
2803.258, 406.4404
2805.187, 408.6631
2807.115, 409.8728
2809.044, 409.5404
2810.972, 409.8936
2812.901, 411.3818
2814.829, 412.3584
2816.758, 412.4729
2818.686, 413.1122
2820.615, 414.1893
2822.543, 418.3928
2824.471, 425.6614
2826.400, 428.0257
2828.328, 425.0037
2830.257, 420.4556
2832.185, 414.3737
2834.114, 411.3958
2836.042, 411.0258
2837.971, 410.2329
2839.899, 408.8910
2841.828, 405.7328
2843.756, 401.7761
2845.685, 402.2391
2847.613, 406.0554
2849.542, 409.6575
2851.470, 413.6663
2853.398, 422.3487
2855.327, 430.9279
2857.255, 426.9474
2859.184, 417.1396
2861.112, 412.1461
2863.041, 410.7928
2864.969, 412.1908
2866.898, 415.3513
2868.826, 422.3527
2870.755, 426.7515
2872.683, 417.2875
2874.612, 407.1735
2876.540, 407.7302
2878.469, 411.3870
2880.397, 414.8314
2882.325, 416.1101
2884.254, 411.2825
2886.182, 407.8530
2888.111, 409.5345
2890.039, 412.9580
2891.968, 418.0586
2893.896, 422.1024
2895.825, 425.1268
2897.753, 424.8079
2899.682, 419.1594
2901.610, 414.2156
2903.539, 411.0204
2905.467, 410.1885
2907.396, 412.7380
2909.324, 414.9082
2911.252, 416.3053
2913.181, 418.4782
2915.109, 422.4442
2917.038, 422.3998
2918.966, 416.9886
2920.895, 413.7524
2922.823, 412.6669
2924.752, 413.8464
2926.680, 416.8593
2928.609, 416.0826
2930.537, 412.7982
2932.466, 418.3112
2934.394, 428.7258
2936.323, 428.4102
2938.251, 423.0490
2940.179, 425.8997
2942.108, 431.7295
2944.036, 431.5360
2945.965, 428.2910
2947.893, 424.9422
2949.822, 421.7102
2951.750, 417.2123
2953.679, 415.0467
2955.607, 418.7325
2957.536, 425.1844
2959.464, 436.7284
2961.393, 443.0208
2963.321, 434.1492
2965.250, 426.7202
2967.178, 427.4999
2969.106, 428.5425
2971.035, 428.6483
2972.963, 428.2324
2974.892, 426.9706
2976.820, 426.4581
2978.749, 427.0105
2980.677, 427.1521
2982.606, 426.7545
2984.534, 428.1222
2986.463, 431.4786
2988.391, 428.8553
2990.320, 421.0985
2992.248, 417.5967
2994.177, 417.6968
2996.105, 419.6793
2998.033, 422.9845
2999.962, 426.3406
3001.890, 430.3916
3003.819, 441.3029
3005.747, 447.5441
3007.676, 429.0149
3009.604, 411.2596
3011.533, 419.3140
3013.461, 430.1966
3015.390, 431.7271
3017.318, 431.9748
3019.247, 436.6162
3021.175, 437.1347
3023.104, 427.5379
3025.032, 420.6289
3026.960, 417.6748
3028.889, 418.5792
3030.817, 424.3636
3032.746, 428.7947
3034.674, 431.3340
3036.603, 435.3119
3038.531, 440.1771
3040.460, 440.3506
3042.388, 436.7574
3044.317, 432.9644
3046.245, 429.0893
3048.174, 424.3555
3050.102, 420.6074
3052.031, 419.7266
3053.959, 421.7505
3055.887, 430.2994
3057.816, 436.7532
3059.744, 434.2574
3061.673, 430.4034
3063.601, 426.3656
3065.530, 426.8145
3067.458, 435.7540
3069.387, 444.3896
3071.315, 453.2018
3073.244, 451.5411
3075.172, 430.7488
3077.101, 424.8189
3079.029, 434.3706
3080.958, 436.4496
3082.886, 432.7312
3084.814, 440.4395
3086.743, 453.2368
3088.671, 446.2281
3090.600, 432.0678
3092.528, 434.2993
3094.457, 440.8595
3096.385, 439.0708
3098.314, 435.5239
3100.242, 434.0721
3102.171, 434.1730
3104.099, 436.7711
3106.028, 438.7624
3107.956, 438.1235
3109.885, 439.5201
3111.813, 443.9264
3113.741, 448.0601
3115.670, 451.6469
3117.598, 453.9802
3119.527, 454.9536
3121.455, 449.9513
3123.384, 441.9733
3125.312, 442.5312
3127.241, 446.8279
3129.169, 444.6670
3131.098, 441.7662
3133.026, 446.6681
3134.955, 451.0931
3136.883, 447.6304
3138.812, 444.3501
3140.740, 444.6983
3142.668, 446.4545
3144.597, 450.2355
3146.525, 451.0108
3148.454, 444.5519
3150.382, 445.8792
3152.311, 454.8287
3154.239, 459.8008
3156.168, 460.1342
3158.096, 453.3990
3160.025, 443.8377
3161.953, 442.6080
3163.882, 445.5123
3165.810, 449.1670
3167.739, 451.6811
3169.667, 449.3606
3171.595, 448.8548
3173.524, 454.2643
3175.452, 458.8013
3177.381, 460.9189
3179.309, 460.0017
3181.238, 455.7070
3183.166, 450.0399
3185.095, 443.4291
3187.023, 447.8450
3188.952, 460.0875
3190.880, 462.4821
3192.809, 459.3073
3194.737, 458.0374
3196.666, 457.0410
3198.594, 454.7040
3200.522, 451.3783
3202.451, 444.0039
3204.379, 442.5227
3206.308, 457.5230
3208.236, 465.7628
3210.165, 463.7946
3212.093, 459.0338
3214.022, 452.1080
3215.950, 444.1357
3217.879, 436.5703
3219.807, 443.8198
3221.736, 457.3321
3223.664, 459.2816
3225.593, 457.0605
3227.521, 459.0212
3229.449, 460.9928
3231.378, 457.7146
3233.306, 459.1748
3235.235, 476.2065
3237.163, 484.0403
3239.092, 479.0679
3241.020, 473.6918
3242.949, 469.1850
3244.877, 470.7638
3246.806, 475.9301
3248.734, 467.8250
3250.663, 456.7841
3252.591, 461.5807
3254.520, 470.7233
3256.448, 476.3708
3258.376, 476.3000
3260.305, 463.3867
3262.233, 457.9059
3264.162, 470.0695
3266.090, 478.3563
3268.019, 481.5448
3269.947, 479.4602
3271.876, 472.8847
3273.804, 463.3174
3275.733, 456.4694
3277.661, 472.8830
3279.590, 491.9179
3281.518, 489.4899
3283.447, 483.0332
3285.375, 481.4833
3287.303, 480.2487
3289.232, 477.3604
3291.160, 475.5299
3293.089, 474.7936
3295.017, 478.3538
3296.946, 485.3744
3298.874, 487.6766
3300.803, 486.9980
3302.731, 486.5437
3304.660, 487.1107
3306.588, 491.6439
3308.517, 494.1034
3310.445, 489.3378
3312.374, 484.9972
3314.302, 482.9747
3316.230, 480.4630
3318.159, 476.3999
3320.087, 476.7715
3322.016, 480.8134
3323.944, 486.5335
3325.873, 491.5067
3327.801, 490.5962
3329.730, 487.6151
3331.658, 483.4014
3333.587, 482.3947
3335.515, 491.3541
3337.444, 493.1507
3339.372, 484.4074
3341.301, 478.7572
3343.229, 477.4035
3345.157, 480.1147
3347.086, 484.7433
3349.014, 484.4043
3350.943, 482.7817
3352.871, 484.2505
3354.800, 485.9490
3356.728, 486.3611
3358.657, 486.5203
3360.585, 483.8373
3362.514, 490.1184
3364.442, 505.3149
3366.371, 506.1339
3368.299, 496.2447
3370.228, 490.4436
3372.156, 487.3482
3374.084, 482.7791
3376.013, 483.1072
3377.941, 498.4929
3379.870, 508.5730
3381.798, 507.8140
3383.727, 504.0912
3385.655, 497.7189
3387.584, 496.0192
3389.512, 498.5693
3391.441, 506.9111
3393.369, 514.4931
3395.298, 509.4666
3397.226, 503.8716
3399.155, 506.1474
3401.083, 506.6364
3403.011, 499.1889
3404.940, 496.3515
3406.868, 498.3125
3408.797, 496.1662
3410.725, 492.3757
3412.654, 498.5437
3414.582, 507.0405
3416.511, 509.2639
3418.439, 508.8047
3420.368, 505.0189
3422.296, 504.9312
3424.225, 510.3769
3426.153, 514.9426
3428.082, 518.0507
3430.010, 520.0214
3431.938, 520.8639
3433.867, 521.6403
3435.795, 520.0612
3437.724, 508.0956
3439.652, 503.4146
3441.581, 516.3741
3443.509, 525.9728
3445.438, 529.2064
3447.366, 526.2350
3449.295, 519.4136
3451.223, 520.4378
3453.152, 523.3746
3455.080, 515.8420
3457.009, 509.9688
3458.937, 515.8239
3460.865, 519.6115
3462.794, 517.7697
3464.722, 518.2998
3466.651, 521.7188
3468.579, 521.7014
3470.508, 520.2924
3472.436, 524.4861
3474.365, 527.1118
3476.293, 516.6516
3478.222, 513.8375
3480.150, 528.4482
3482.079, 531.7854
3484.007, 517.5034
3485.936, 518.3810
3487.864, 527.9632
3489.792, 525.6224
3491.721, 520.3985
3493.649, 520.5254
3495.578, 525.4175
3497.506, 539.2918
3499.435, 543.2839
3501.363, 533.7098
3503.292, 522.0993
3505.220, 513.2266
3507.149, 530.0895
3509.077, 548.8408
3511.006, 530.8309
3512.934, 516.6086
3514.863, 531.6148
3516.791, 543.6178
3518.719, 548.9189
3520.648, 547.8068
3522.576, 542.2620
3524.505, 539.7780
3526.433, 539.4459
3528.362, 541.3417
3530.290, 542.4592
3532.219, 542.5771
3534.147, 536.2289
3536.076, 521.7355
3538.004, 524.2058
3539.933, 539.4199
3541.861, 549.5792
3543.790, 552.7329
3545.718, 539.5824
3547.646, 531.7573
3549.575, 539.0486
3551.503, 546.5507
3553.432, 552.0927
3555.360, 550.6757
3557.289, 545.9713
3559.217, 550.8021
3561.146, 556.7548
3563.074, 555.0305
3565.003, 551.2574
3566.931, 545.6076
3568.860, 545.2552
3570.788, 550.6107
3572.717, 552.5970
3574.645, 551.7310
3576.573, 547.1199
3578.502, 543.7601
3580.430, 547.4352
3582.359, 546.3252
3584.287, 530.9483
3586.216, 533.9827
3588.144, 551.5909
3590.073, 555.9700
3592.001, 555.3586
3593.930, 565.1946
3595.858, 571.9276
3597.787, 564.2870
3599.715, 563.2928
3601.644, 571.2519
3603.572, 567.6358
3605.500, 556.5628
3607.429, 550.8181
3609.357, 549.1652
3611.286, 551.2150
3613.214, 555.0934
3615.143, 560.7391
3617.071, 565.2256
3619.000, 568.0604
3620.928, 566.5261
3622.857, 565.0746
3624.785, 575.9489
3626.714, 580.8679
3628.642, 561.5265
3630.571, 552.9859
3632.499, 559.2960
3634.427, 571.1522
3636.356, 582.3853
3638.284, 569.2626
3640.213, 555.6924
3642.141, 562.9111
3644.070, 571.6863
3645.998, 578.5168
3647.927, 578.2619
3649.855, 572.9858
3651.784, 576.7210
3653.712, 581.6071
3655.641, 576.9922
3657.569, 573.4457
3659.498, 574.8090
3661.426, 575.9415
3663.354, 576.2122
3665.283, 576.9862
3667.211, 576.5377
3669.140, 569.2570
3671.068, 565.6016
3672.997, 571.5937
3674.925, 580.1091
3676.854, 590.5071
3678.782, 590.6061
3680.711, 584.8434
3682.639, 580.3181
3684.568, 580.9142
3686.496, 593.6358
3688.425, 600.6537
3690.353, 597.9584
3692.281, 590.4337
3694.210, 582.1639
3696.138, 587.5424
3698.067, 593.8508
3699.995, 588.0182
3701.924, 585.7093
3703.852, 591.3102
3705.781, 588.7844
3707.709, 582.7427
3709.638, 599.0184
3711.566, 613.8803
3713.495, 597.4365
3715.423, 590.3210
3717.352, 604.1781
3719.280, 610.2728
3721.208, 608.5997
3723.137, 601.3945
3725.065, 596.2473
3726.994, 605.7195
3728.922, 608.2593
3730.851, 596.5894
3732.779, 599.7908
3734.708, 612.8088
3736.636, 603.4272
3738.565, 591.1580
3740.493, 595.0895
3742.422, 599.1544
3744.350, 599.3776
3746.279, 601.9266
3748.207, 606.3660
3750.135, 611.0840
3752.064, 614.7271
3753.992, 616.7684
3755.921, 615.1626
3757.849, 608.7221
3759.778, 611.2062
3761.706, 617.4687
3763.635, 603.1849
3765.563, 592.9930
3767.492, 615.7463
3769.420, 626.2032
3771.349, 616.0718
3773.277, 604.1895
3775.206, 595.1374
3777.134, 601.2104
3779.063, 609.5566
3780.991, 612.6294
3782.919, 614.5743
3784.848, 615.7628
3786.776, 615.0703
3788.705, 614.4302
3790.633, 619.7089
3792.562, 621.0015
3794.490, 610.1024
3796.419, 612.8874
3798.347, 629.6661
3800.276, 634.4064
3802.204, 633.6851
3804.133, 636.8346
3806.061, 634.6472
3807.990, 623.2722
3809.918, 617.5121
3811.846, 618.0134
3813.775, 626.4821
3815.703, 633.5246
3817.632, 630.1533
3819.560, 624.8282
3821.489, 618.8958
3823.417, 621.5631
3825.346, 629.6784
3827.274, 640.8376
3829.203, 645.9478
3831.131, 633.9273
3833.060, 630.2199
3834.988, 635.0093
3836.917, 631.6121
3838.845, 626.8446
3840.773, 629.7927
3842.702, 635.8011
3844.630, 646.4659
3846.559, 646.6010
3848.487, 639.8032
3850.416, 638.6138
3852.344, 640.4503
3854.273, 643.5248
3856.201, 647.9295
3858.130, 653.8926
3860.058, 660.1213
3861.987, 664.7012
3863.915, 662.9488
3865.844, 662.2055
3867.772, 666.6996
3869.700, 660.2597
3871.629, 646.0473
3873.557, 644.1000
3875.486, 647.8701
3877.414, 655.5042
3879.343, 658.4347
3881.271, 654.4529
3883.200, 656.2079
3885.128, 660.7749
3887.057, 665.9342
3888.985, 667.6031
3890.914, 663.6122
3892.842, 658.2066
3894.771, 654.2125
3896.699, 662.6047
3898.627, 669.0401
3900.556, 654.1127
3902.484, 660.7817
3904.413, 691.7206
3906.341, 675.6949
3908.270, 645.8314
3910.198, 655.2240
3912.127, 667.0839
3914.055, 670.8391
3915.984, 670.5807
3917.912, 667.2446
3919.841, 668.8133
3921.769, 671.1556
3923.698, 668.2014
3925.626, 666.4413
3927.554, 666.0554
3929.483, 676.5385
3931.411, 687.2986
3933.340, 676.6033
3935.268, 666.7363
3937.197, 673.3990
3939.125, 675.2654
3941.054, 672.0822
3942.982, 686.5132
3944.911, 691.1763
3946.839, 672.0925
3948.768, 667.2358
3950.696, 678.1177
3952.625, 681.6930
3954.553, 678.8062
3956.481, 674.8076
3958.410, 682.1262
3960.338, 690.5291
3962.267, 683.3608
3964.195, 682.3917
3966.124, 692.8930
3968.052, 701.5305
3969.981, 702.4488
3971.909, 694.6841
3973.838, 688.1022
3975.766, 696.8867
3977.695, 706.9751
3979.623, 709.1193
3981.552, 699.0176
3983.480, 690.5500
3985.408, 695.6088
3987.337, 697.8055
3989.265, 698.6877
3991.194, 702.5185
3993.122, 701.9066
3995.051, 695.7091
3996.979, 700.8216
3998.908, 707.5687
4000.836, 701.4172
4002.765, 702.7765
4004.693, 710.0437
4006.622, 710.4567
4008.550, 719.6498
4010.479, 727.4664
4012.407, 719.8683
4014.335, 713.4828
4016.264, 716.4097
4018.192, 718.5609
4020.121, 714.1797
4022.049, 711.8867
4023.978, 721.5360
4025.906, 728.2155
4027.835, 726.6371
4029.763, 726.8765
4031.692, 731.9878
4033.620, 733.2762
4035.549, 731.4012
4037.477, 724.9656
4039.406, 726.4098
4041.334, 735.5197
4043.262, 728.1453
4045.191, 721.7197
4047.119, 729.3715
4049.048, 730.6624
4050.976, 727.4042
4052.905, 739.5285
4054.833, 750.4348
4056.762, 737.5236
4058.690, 731.6483
4060.619, 742.7324
4062.547, 742.2009
4064.476, 738.4126
4066.404, 749.3522
4068.333, 750.6655
4070.261, 737.8760
4072.189, 734.4836
4074.118, 740.8286
4076.046, 761.8438
4077.975, 771.7380
4079.903, 765.1722
4081.832, 758.2867
4083.760, 753.0211
4085.689, 751.5763
4087.617, 750.8866
4089.546, 749.5852
4091.474, 755.7781
4093.403, 763.1765
4095.331, 749.6500
4097.260, 742.5414
4099.188, 760.5513
4101.117, 769.1409
4103.045, 769.8983
4104.974, 758.7083
4106.902, 753.9853
4108.831, 768.2991
4110.759, 769.9572
4112.688, 763.2988
4114.616, 760.1690
4116.544, 762.1110
4118.473, 776.2062
4120.401, 774.4564
4122.330, 760.6144
4124.258, 779.5698
4126.187, 796.7565
4128.115, 784.9359
4130.043, 778.8439
4131.972, 778.2592
4133.900, 785.2205
4135.829, 791.4390
4137.757, 792.4562
4139.686, 788.9483
4141.614, 771.7715
4143.543, 787.5282
4145.471, 813.3483
4147.400, 806.7742
4149.328, 800.4501
4151.257, 807.4318
4153.185, 804.8173
4155.114, 802.3248
4157.042, 813.7849
4158.971, 813.8798
4160.899, 792.1782
4162.828, 799.0560
4164.756, 816.4219
4166.685, 811.1967
4168.613, 801.8099
4170.542, 797.0233
4172.470, 802.6387
4174.398, 810.9199
4176.327, 808.1054
4178.255, 813.2486
4180.184, 834.9465
4182.112, 836.8590
4184.041, 823.5150
4185.969, 830.2894
4187.897, 838.4556
4189.826, 834.1833
4191.754, 834.3859
4193.683, 833.3177
4195.611, 830.4323
4197.540, 829.5234
4199.468, 827.3106
4201.397, 826.1838
4203.325, 831.0184
4205.254, 846.3884
4207.182, 853.8601
4209.111, 856.2515
4211.039, 851.7033
4212.968, 844.3760
4214.896, 859.1600
4216.825, 867.6216
4218.753, 859.6810
4220.682, 859.3045
4222.610, 861.1717
4224.539, 859.7823
4226.467, 857.7676
4228.396, 852.1503
4230.324, 866.3198
4232.252, 885.2823
4234.181, 881.7086
4236.109, 869.8178
4238.038, 851.8005
4239.966, 856.1195
4241.895, 871.1691
4243.823, 883.3734
4245.751, 891.9913
4247.680, 897.0432
4249.608, 896.1887
4251.537, 890.9771
4253.465, 878.9488
4255.394, 875.2914
4257.322, 882.5817
4259.251, 899.2189
4261.179, 914.6592
4263.108, 918.8413
4265.036, 921.1063
4266.965, 922.3190
4268.893, 916.0721
4270.822, 909.6461
4272.750, 908.2484
4274.679, 907.1501
4276.607, 905.7463
4278.536, 901.5142
4280.464, 900.1542
4282.393, 904.4752
4284.321, 911.7905
4286.250, 921.1628
4288.178, 936.7233
4290.106, 940.4105
4292.035, 924.7449
4293.963, 921.1165
4295.892, 925.7928
4297.820, 933.7700
4299.749, 942.3128
4301.677, 950.4373
4303.605, 942.2731
4305.534, 934.0179
4307.462, 943.4839
4309.391, 951.0605
4311.319, 954.7420
4313.248, 963.2022
4315.176, 970.9962
4317.105, 974.3938
4319.033, 981.2972
4320.962, 988.3959
4322.890, 980.2716
4324.819, 971.8842
4326.747, 968.5028
4328.676, 972.9937
4330.604, 978.4265
4332.533, 969.5596
4334.461, 970.0728
4336.390, 983.8514
4338.318, 989.6368
4340.247, 988.0379
4342.175, 971.6620
4344.104, 980.6823
4346.032, 1007.321
4347.960, 990.2974
4349.889, 969.7853
4351.817, 971.2885
4353.746, 974.1372
4355.674, 979.0978
4357.603, 992.0482
4359.531, 999.6575
4361.459, 996.0764
4363.388, 1004.940
4365.316, 1014.938
4367.245, 1009.430
4369.173, 1013.703
4371.102, 1027.523
4373.030, 1021.095
4374.959, 1015.206
4376.887, 1022.533
4378.816, 1024.938
4380.744, 1021.823
4382.673, 1008.454
4384.601, 1006.295
4386.530, 1019.923
4388.458, 1031.652
4390.387, 1037.267
4392.315, 1030.599
4394.244, 1027.445
4396.172, 1030.162
4398.101, 1048.033
4400.029, 1051.780
4401.958, 1024.394
4403.886, 1021.703
4405.814, 1034.256
4407.743, 1050.304
4409.671, 1050.383
4411.600, 1033.125
4413.528, 1036.154
4415.457, 1045.864
4417.385, 1056.357
4419.313, 1051.738
4421.242, 1038.947
4423.170, 1034.469
4425.099, 1037.942
4427.027, 1049.301
4428.956, 1066.576
4430.884, 1073.598
4432.813, 1049.333
4434.741, 1049.009
4436.670, 1066.737
4438.598, 1060.653
4440.527, 1057.415
4442.455, 1066.762
4444.384, 1055.115
4446.312, 1041.510
4448.241, 1050.582
4450.169, 1065.741
4452.098, 1081.171
4454.026, 1077.436
4455.955, 1073.948
4457.883, 1080.330
4459.812, 1089.161
4461.740, 1092.811
4463.668, 1077.270
4465.597, 1069.676
4467.525, 1072.139
4469.454, 1071.181
4471.382, 1077.008
4473.311, 1094.412
4475.239, 1100.695
4477.167, 1097.905
4479.096, 1085.288
4481.024, 1084.524
4482.953, 1095.142
4484.881, 1098.958
4486.810, 1100.619
4488.738, 1101.916
4490.667, 1103.337
4492.595, 1105.880
4494.524, 1114.015
4496.452, 1108.535
4498.381, 1092.875
4500.309, 1091.231
4502.238, 1093.521
4504.166, 1095.769
4506.095, 1101.379
4508.023, 1102.896
4509.952, 1084.704
4511.880, 1091.187
4513.809, 1112.945
4515.737, 1102.750
4517.666, 1099.728
4519.594, 1117.684
4521.522, 1105.364
4523.451, 1093.805
4525.379, 1107.739
4527.308, 1121.530
4529.236, 1127.972
4531.165, 1108.422
4533.093, 1109.881
4535.021, 1135.899
4536.950, 1126.061
4538.878, 1115.802
4540.807, 1130.338
4542.735, 1143.504
4544.664, 1148.200
4546.592, 1127.922
4548.521, 1125.499
4550.449, 1140.861
4552.378, 1154.185
4554.306, 1159.344
4556.235, 1155.249
4558.163, 1160.443
4560.092, 1159.752
4562.020, 1124.656
4563.949, 1142.142
4565.877, 1179.544
4567.806, 1154.649
4569.734, 1139.346
4571.663, 1145.661
4573.591, 1157.607
4575.520, 1173.091
4577.448, 1191.791
4579.376, 1163.154
4581.305, 1129.545
4583.233, 1144.375
4585.162, 1149.617
4587.090, 1146.778
4589.019, 1153.877
4590.947, 1150.508
4592.875, 1134.841
4594.804, 1131.918
4596.732, 1142.181
4598.661, 1166.387
4600.589, 1174.756
4602.518, 1169.888
4604.446, 1146.673
4606.375, 1146.003
4608.303, 1162.365
4610.232, 1181.681
4612.160, 1182.781
4614.089, 1167.936
4616.017, 1189.063
4617.946, 1198.206
4619.874, 1172.460
4621.803, 1183.092
4623.731, 1196.042
4625.660, 1168.378
4627.588, 1159.513
4629.517, 1165.031
4631.445, 1172.127
4633.374, 1182.099
4635.302, 1191.127
4637.230, 1176.535
4639.159, 1172.628
4641.087, 1192.451
4643.016, 1207.149
4644.944, 1206.425
4646.873, 1179.351
4648.801, 1167.921
4650.729, 1168.634
4652.658, 1176.693
4654.586, 1190.537
4656.515, 1203.307
4658.443, 1194.239
4660.372, 1196.495
4662.300, 1213.743
4664.229, 1226.365
4666.157, 1215.808
4668.086, 1178.891
4670.014, 1198.302
4671.943, 1222.187
4673.871, 1206.828
4675.800, 1199.248
4677.728, 1198.151
4679.657, 1199.169
4681.585, 1213.740
4683.514, 1229.568
4685.442, 1211.159
4687.371, 1199.956
4689.299, 1202.289
4691.228, 1211.417
4693.156, 1212.073
4695.084, 1198.426
4697.013, 1211.767
4698.941, 1222.368
4700.870, 1214.764
4702.798, 1210.760
4704.727, 1211.280
4706.655, 1218.382
4708.583, 1219.021
4710.512, 1219.063
4712.440, 1231.137
4714.369, 1230.622
4716.297, 1220.746
4718.226, 1213.333
4720.154, 1220.634
4722.083, 1238.566
4724.011, 1225.781
4725.940, 1218.336
4727.868, 1226.876
4729.797, 1237.077
4731.725, 1242.645
4733.654, 1240.089
4735.582, 1252.728
4737.511, 1253.126
4739.439, 1211.016
4741.368, 1208.530
4743.296, 1229.411
4745.225, 1259.842
4747.153, 1256.091
4749.082, 1237.954
4751.010, 1249.929
4752.938, 1260.444
4754.867, 1264.649
4756.795, 1258.665
4758.724, 1256.136
4760.652, 1257.149
4762.581, 1244.209
4764.509, 1247.264
4766.438, 1272.900
4768.366, 1266.232
4770.294, 1258.859
4772.223, 1262.959
4774.151, 1267.478
4776.080, 1269.183
4778.008, 1262.416
4779.937, 1286.650
4781.865, 1301.733
4783.794, 1274.061
4785.722, 1273.107
4787.651, 1284.856
4789.579, 1291.006
4791.508, 1284.066
4793.436, 1277.141
4795.365, 1293.950
4797.293, 1287.351
4799.222, 1270.954
4801.150, 1285.494
4803.079, 1286.115
4805.007, 1274.554
4806.936, 1270.340
4808.864, 1277.683
4810.792, 1291.511
4812.721, 1296.137
4814.649, 1290.234
4816.578, 1278.835
4818.506, 1296.578
4820.435, 1319.339
4822.363, 1335.229
4824.292, 1306.656
4826.220, 1292.574
4828.148, 1315.377
4830.077, 1278.967
4832.005, 1266.029
4833.934, 1306.159
4835.862, 1309.485
4837.791, 1313.269
4839.719, 1343.612
4841.648, 1335.697
4843.576, 1321.596
4845.505, 1320.422
4847.433, 1324.985
4849.362, 1325.159
4851.290, 1310.293
4853.219, 1322.187
4855.147, 1338.884
4857.076, 1342.292
4859.004, 1340.400
4860.933, 1339.450
4862.861, 1346.354
4864.790, 1340.665
4866.718, 1334.641
4868.646, 1341.830
4870.575, 1359.529
4872.503, 1368.939
4874.432, 1344.545
4876.360, 1339.940
4878.289, 1345.943
4880.217, 1346.741
4882.146, 1345.479
4884.074, 1344.120
4886.002, 1344.819
4887.931, 1347.567
4889.859, 1351.192
4891.788, 1352.591
4893.716, 1362.780
4895.645, 1373.098
4897.573, 1368.939
4899.502, 1365.861
4901.430, 1363.305
4903.359, 1357.663
4905.287, 1348.603
4907.216, 1343.329
4909.144, 1358.029
4911.073, 1346.333
4913.001, 1328.669
4914.930, 1345.635
4916.858, 1359.543
4918.787, 1364.752
4920.715, 1353.484
4922.644, 1354.055
4924.572, 1363.164
4926.500, 1376.448
4928.429, 1366.197
4930.357, 1349.201
4932.286, 1352.362
4934.214, 1347.844
4936.143, 1348.289
4938.071, 1374.143
4940.000, 1392.681
4941.928, 1398.316
4943.856, 1383.099
4945.785, 1383.233
4947.713, 1387.634
4949.642, 1383.174
4951.570, 1372.901
4953.499, 1367.824
4955.427, 1379.896
4957.356, 1371.113
4959.284, 1362.058
4961.213, 1379.020
4963.141, 1369.358
4965.070, 1372.297
4966.998, 1416.851
4968.927, 1403.352
4970.855, 1385.554
4972.784, 1405.919
4974.712, 1391.622
4976.641, 1373.557
4978.569, 1369.250
4980.498, 1386.221
4982.426, 1396.361
4984.354, 1389.258
4986.283, 1397.297
4988.211, 1409.761
4990.140, 1420.278
4992.068, 1404.255
4993.997, 1404.262
4995.925, 1424.086
4997.854, 1412.671
4999.782, 1407.989
5001.710, 1418.323
5003.639, 1438.692
5005.567, 1433.906
5007.496, 1412.824
5009.424, 1422.379
5011.353, 1454.117
5013.281, 1483.156
5015.210, 1459.551
5017.138, 1430.355
5019.067, 1411.418
5020.995, 1422.377
5022.924, 1419.491
5024.852, 1416.126
5026.781, 1436.055
5028.709, 1440.560
5030.638, 1431.010
5032.566, 1399.542
5034.495, 1422.363
5036.423, 1443.691
5038.352, 1428.562
5040.280, 1415.779
5042.208, 1422.608
5044.137, 1452.829
5046.065, 1440.250
5047.994, 1427.140
5049.922, 1429.213
5051.851, 1446.031
5053.779, 1456.186
5055.708, 1454.343
5057.636, 1431.855
5059.564, 1437.215
5061.493, 1459.023
5063.421, 1451.532
5065.350, 1439.668
5067.278, 1433.243
5069.207, 1441.908
5071.135, 1456.204
5073.064, 1463.860
5074.992, 1451.489
5076.921, 1456.097
5078.849, 1459.493
5080.778, 1449.196
5082.706, 1440.573
5084.635, 1437.015
5086.563, 1439.109
5088.492, 1444.912
5090.420, 1447.510
5092.349, 1446.383
5094.277, 1442.282
5096.206, 1462.950
5098.134, 1488.856
5100.063, 1462.716
5101.991, 1453.049
5103.919, 1455.403
5105.848, 1454.064
5107.776, 1445.486
5109.705, 1437.675
5111.633, 1436.387
5113.562, 1450.927
5115.490, 1452.727
5117.418, 1435.087
5119.347, 1473.178
5121.275, 1474.619
5123.204, 1430.104
5125.132, 1436.852
5127.061, 1436.185
5128.989, 1431.553
5130.918, 1458.736
5132.846, 1458.486
5134.775, 1451.012
5136.703, 1471.181
5138.632, 1456.835
5140.560, 1434.643
5142.489, 1423.266
5144.417, 1448.357
5146.346, 1474.775
5148.274, 1486.500
5150.203, 1462.884
5152.131, 1455.545
5154.060, 1462.507
5155.988, 1449.597
5157.917, 1436.704
5159.845, 1429.693
5161.773, 1432.379
5163.702, 1446.089
5165.630, 1457.986
5167.559, 1460.273
5169.487, 1477.548
5171.416, 1475.773
5173.344, 1450.766
5175.272, 1468.520
5177.201, 1472.560
5179.129, 1462.216
5181.058, 1461.359
5182.986, 1469.062
5184.915, 1473.078
5186.843, 1460.340
5188.772, 1446.806
5190.700, 1444.173
5192.629, 1457.082
5194.557, 1443.727
5196.486, 1451.413
5198.414, 1475.414
5200.343, 1451.355
5202.271, 1457.419
5204.200, 1474.642
5206.128, 1461.021
5208.057, 1437.327
5209.985, 1428.533
5211.914, 1450.643
5213.842, 1433.628
5215.771, 1448.996
5217.699, 1493.355
5219.627, 1458.983
5221.556, 1434.479
5223.484, 1433.069
5225.413, 1456.332
5227.341, 1481.399
5229.270, 1487.564
5231.198, 1462.337
5233.126, 1469.992
5235.055, 1473.629
5236.983, 1465.730
5238.912, 1474.182
5240.840, 1454.005
5242.769, 1427.919
5244.697, 1446.160
5246.626, 1440.572
5248.554, 1437.770
5250.483, 1455.547
5252.411, 1469.254
5254.340, 1485.074
5256.268, 1498.351
5258.197, 1483.249
5260.125, 1484.765
5262.054, 1494.249
5263.982, 1494.512
5265.911, 1493.433
5267.839, 1488.196
5269.768, 1478.175
5271.696, 1466.418
5273.625, 1462.602
5275.553, 1467.974
5277.481, 1485.791
5279.410, 1485.837
5281.338, 1480.920
5283.267, 1483.139
5285.195, 1497.011
5287.124, 1490.870
5289.052, 1469.659
5290.980, 1497.814
5292.909, 1499.787
5294.837, 1479.554
5296.766, 1451.281
5298.694, 1459.227
5300.623, 1488.795
5302.551, 1523.782
5304.480, 1485.255
5306.408, 1480.446
5308.337, 1500.862
5310.265, 1490.991
5312.194, 1485.361
5314.122, 1493.444
5316.051, 1515.902
5317.979, 1498.244
5319.908, 1490.281
5321.836, 1497.543
5323.765, 1499.119
5325.693, 1488.649
5327.622, 1492.298
5329.550, 1526.689
5331.479, 1511.779
5333.407, 1495.675
5335.335, 1497.185
5337.264, 1525.899
5339.192, 1539.367
5341.121, 1539.074
5343.049, 1529.291
5344.978, 1537.893
5346.906, 1537.989
5348.834, 1528.019
5350.763, 1537.895
5352.691, 1513.065
5354.620, 1502.079
5356.548, 1560.507
5358.477, 1525.871
5360.405, 1492.091
5362.334, 1493.112
5364.262, 1521.873
5366.191, 1524.212
5368.119, 1515.138
5370.048, 1515.696
5371.976, 1514.926
5373.905, 1525.279
5375.833, 1541.554
5377.762, 1534.236
5379.690, 1526.776
5381.619, 1520.609
5383.547, 1513.085
5385.476, 1541.037
5387.404, 1555.622
5389.333, 1550.537
5391.261, 1546.006
5393.189, 1548.696
5395.118, 1558.494
5397.046, 1571.676
5398.975, 1547.569
5400.903, 1546.398
5402.832, 1560.754
5404.760, 1538.998
5406.688, 1536.196
5408.617, 1544.605
5410.545, 1555.344
5412.474, 1553.749
5414.402, 1554.154
5416.331, 1548.924
5418.259, 1523.616
5420.188, 1532.884
5422.116, 1539.410
5424.045, 1530.147
5425.973, 1523.483
5427.902, 1538.059
5429.830, 1552.360
5431.759, 1544.836
5433.687, 1554.226
5435.616, 1562.222
5437.544, 1560.579
5439.473, 1541.696
5441.401, 1544.226
5443.330, 1553.486
5445.258, 1557.437
5447.187, 1548.275
5449.115, 1561.734
5451.043, 1560.902
5452.972, 1481.607
5454.900, 1472.348
5456.829, 1513.785
5458.757, 1569.790
5460.686, 1572.052
5462.614, 1555.602
5464.542, 1559.482
5466.471, 1596.439
5468.399, 1564.617
5470.328, 1553.042
5472.256, 1561.092
5474.185, 1554.940
5476.113, 1574.265
5478.042, 1594.128
5479.970, 1599.029
5481.899, 1569.862
5483.827, 1560.009
5485.756, 1566.079
5487.684, 1576.342
5489.613, 1553.568
5491.541, 1564.061
5493.470, 1585.347
5495.398, 1572.735
5497.327, 1574.563
5499.255, 1581.502
5501.184, 1587.744
5503.112, 1591.400
5505.041, 1577.948
5506.969, 1568.461
5508.897, 1573.286
5510.826, 1584.494
5512.754, 1573.677
5514.683, 1565.205
5516.611, 1582.506
5518.540, 1577.255
5520.468, 1580.111
5522.396, 1588.716
5524.325, 1582.240
5526.253, 1589.402
5528.182, 1598.691
5530.110, 1606.515
5532.039, 1620.065
5533.967, 1606.452
5535.896, 1590.530
5537.824, 1589.650
5539.753, 1608.857
5541.681, 1609.168
5543.610, 1595.611
5545.538, 1579.143
5547.467, 1591.224
5549.395, 1592.137
5551.324, 1588.400
5553.252, 1606.609
5555.181, 1602.815
5557.109, 1600.488
5559.038, 1601.706
5560.966, 1593.666
5562.895, 1599.757
5564.823, 1622.232
5566.751, 1645.430
5568.680, 1624.106
5570.608, 1589.128
5572.537, 1580.000
5574.465, 1607.207
5576.394, 1611.035
5578.322, 1628.717
5580.250, 1635.927
5582.179, 1613.649
5584.107, 1625.452
5586.036, 1623.508
5587.964, 1611.757
5589.893, 1604.271
5591.821, 1592.643
5593.750, 1598.822
5595.678, 1616.487
5597.607, 1630.772
5599.535, 1633.235
5601.464, 1632.828
5603.392, 1626.914
5605.321, 1600.565
5607.249, 1621.348
5609.178, 1633.017
5611.106, 1632.181
5613.035, 1672.140
5614.963, 1670.733
5616.892, 1663.039
5618.820, 1660.563
5620.749, 1646.908
5622.677, 1634.770
5624.605, 1625.933
5626.534, 1622.322
5628.462, 1627.514
5630.391, 1651.631
5632.319, 1665.935
5634.248, 1660.810
5636.176, 1665.475
5638.104, 1666.163
5640.033, 1652.658
5641.961, 1629.243
5643.890, 1650.442
5645.818, 1645.497
5647.747, 1642.806
5649.675, 1661.342
5651.604, 1672.956
5653.532, 1689.339
5655.461, 1695.034
5657.389, 1681.708
5659.318, 1661.026
5661.246, 1676.791
5663.175, 1685.948
5665.103, 1667.047
5667.032, 1693.584
5668.960, 1694.644
5670.889, 1675.609
5672.817, 1652.654
5674.746, 1659.458
5676.674, 1684.672
5678.603, 1692.527
5680.531, 1670.847
5682.459, 1673.812
5684.388, 1689.905
5686.316, 1698.319
5688.245, 1691.829
5690.173, 1693.356
5692.102, 1710.057
5694.030, 1714.692
5695.958, 1697.838
5697.887, 1683.968
5699.815, 1708.923
5701.744, 1718.868
5703.672, 1695.748
5705.601, 1688.380
5707.529, 1660.268
5709.458, 1650.609
5711.386, 1672.845
5713.315, 1716.653
5715.243, 1691.491
5717.172, 1688.213
5719.100, 1710.712
5721.029, 1661.471
5722.957, 1655.891
5724.886, 1668.371
5726.814, 1688.889
5728.743, 1722.501
5730.671, 1716.954
5732.600, 1710.258
5734.528, 1703.060
5736.457, 1680.933
5738.385, 1695.208
5740.313, 1712.494
5742.242, 1714.221
5744.170, 1693.849
5746.099, 1672.091
5748.027, 1701.378
5749.956, 1728.701
5751.884, 1710.681
5753.813, 1728.865
5755.741, 1706.581
5757.669, 1696.225
5759.598, 1720.956
5761.526, 1692.478
5763.455, 1680.486
5765.383, 1693.773
5767.312, 1717.408
5769.240, 1714.507
5771.169, 1701.583
5773.097, 1695.327
5775.026, 1701.330
5776.954, 1718.907
5778.883, 1706.183
5780.811, 1699.724
5782.740, 1702.296
5784.668, 1706.105
5786.597, 1727.837
5788.525, 1746.912
5790.454, 1733.847
5792.382, 1688.664
5794.311, 1718.080
5796.239, 1708.864
5798.167, 1705.919
5800.096, 1722.636
5802.024, 1700.598
5803.953, 1689.057
5805.881, 1701.605
5807.810, 1727.575
5809.738, 1747.766
5811.667, 1721.293
5813.595, 1703.441
5815.523, 1702.448
5817.452, 1710.845
5819.380, 1715.992
5821.309, 1743.099
5823.237, 1747.891
5825.166, 1719.109
5827.094, 1710.774
5829.023, 1704.954
5830.951, 1706.696
5832.880, 1703.585
5834.808, 1676.116
5836.737, 1675.177
5838.665, 1704.423
5840.594, 1717.820
5842.522, 1689.069
5844.451, 1704.336
5846.379, 1698.188
5848.308, 1692.915
5850.236, 1700.886
5852.165, 1711.569
5854.093, 1689.196
5856.021, 1698.387
5857.950, 1722.662
5859.878, 1714.849
5861.807, 1743.801
5863.735, 1738.246
5865.664, 1732.380
5867.592, 1747.038
5869.521, 1737.375
5871.449, 1713.667
5873.377, 1721.472
5875.306, 1744.323
5877.234, 1730.944
5879.163, 1755.495
5881.091, 1752.440
5883.020, 1729.555
5884.948, 1712.100
5886.877, 1733.259
5888.805, 1696.443
5890.734, 1687.986
5892.662, 1710.779
5894.591, 1709.681
5896.519, 1721.580
5898.448, 1739.140
5900.376, 1756.528
5902.305, 1762.078
5904.233, 1723.618
5906.162, 1683.269
5908.090, 1679.612
5910.019, 1703.840
5911.947, 1723.113
5913.875, 1709.573
5915.804, 1724.221
5917.732, 1739.294
5919.661, 1740.291
5921.589, 1775.635
5923.518, 1768.517
5925.446, 1755.280
5927.375, 1740.908
5929.303, 1717.645
5931.231, 1745.970
5933.160, 1721.358
5935.088, 1724.859
5937.017, 1769.888
5938.945, 1759.386
5940.874, 1745.362
5942.802, 1746.856
5944.731, 1764.953
5946.659, 1783.995
5948.588, 1719.598
5950.516, 1726.322
5952.445, 1749.598
5954.373, 1759.861
5956.302, 1754.752
5958.230, 1740.599
5960.159, 1759.132
5962.087, 1749.556
5964.016, 1717.276
5965.944, 1768.565
5967.873, 1772.829
5969.801, 1771.969
5971.729, 1761.560
5973.658, 1736.361
5975.586, 1732.982
5977.515, 1760.146
5979.443, 1767.859
5981.372, 1759.320
5983.300, 1762.101
5985.229, 1799.373
5987.157, 1782.665
5989.085, 1760.201
5991.014, 1753.005
5992.942, 1748.445
5994.871, 1774.265
5996.799, 1763.949
5998.728, 1751.669
6000.656, 1758.680
6002.585, 1766.369
6004.513, 1777.880
6006.442, 1768.861
6008.370, 1758.897
6010.299, 1760.600
6012.227, 1753.402
6014.156, 1749.326
6016.084, 1752.410
6018.013, 1756.020
6019.941, 1759.050
6021.870, 1783.757
6023.798, 1795.590
6025.727, 1777.669
6027.655, 1761.078
6029.583, 1773.128
6031.512, 1770.849
6033.440, 1760.999
6035.369, 1766.509
6037.297, 1780.599
6039.226, 1784.957
6041.154, 1774.856
6043.083, 1774.628
6045.011, 1788.446
6046.939, 1794.615
6048.868, 1772.831
6050.796, 1765.853
6052.725, 1777.423
6054.653, 1804.383
6056.582, 1824.370
6058.510, 1815.708
6060.439, 1814.141
6062.367, 1817.925
6064.296, 1809.563
6066.224, 1785.990
6068.153, 1760.570
6070.081, 1796.543
6072.010, 1807.569
6073.938, 1780.416
6075.867, 1756.467
6077.795, 1779.482
6079.724, 1795.754
6081.652, 1795.658
6083.581, 1794.108
6085.509, 1787.420
6087.438, 1768.537
6089.366, 1776.202
6091.294, 1755.981
6093.223, 1760.318
6095.151, 1790.733
6097.080, 1817.671
6099.008, 1813.271
6100.937, 1815.456
6102.865, 1789.735
6104.793, 1777.857
6106.722, 1807.284
6108.650, 1788.071
6110.579, 1784.428
6112.507, 1779.924
6114.436, 1778.985
6116.364, 1791.113
6118.293, 1816.543
6120.221, 1835.380
6122.150, 1798.144
6124.078, 1773.881
6126.007, 1793.745
6127.935, 1808.406
6129.864, 1794.413
6131.792, 1782.207
6133.721, 1794.457
6135.649, 1804.961
6137.578, 1774.161
6139.506, 1800.917
6141.435, 1805.952
6143.363, 1801.483
6145.292, 1807.491
6147.220, 1825.288
6149.148, 1814.250
6151.077, 1815.095
6153.005, 1800.598
6154.934, 1802.696
6156.862, 1824.572
6158.791, 1788.277
6160.719, 1790.847
6162.647, 1798.491
6164.576, 1806.654
6166.504, 1811.983
6168.433, 1804.453
6170.361, 1772.835
6172.290, 1767.839
6174.218, 1783.016
6176.147, 1799.287
6178.075, 1805.287
6180.004, 1811.697
6181.932, 1842.878
6183.861, 1822.304
6185.789, 1807.487
6187.718, 1826.646
6189.646, 1823.563
6191.575, 1813.505
6193.503, 1805.905
6195.432, 1790.929
6197.360, 1792.866
6199.289, 1834.193
6201.217, 1840.962
6203.146, 1797.633
6205.074, 1799.467
6207.002, 1819.731
6208.931, 1821.288
6210.859, 1804.837
6212.788, 1798.549
6214.716, 1813.138
6216.645, 1812.510
6218.573, 1806.245
6220.501, 1817.311
6222.430, 1820.309
6224.358, 1844.055
6226.287, 1814.607
6228.215, 1800.419
6230.144, 1825.400
6232.072, 1838.313
6234.001, 1822.385
6235.929, 1823.930
6237.858, 1813.043
6239.786, 1796.816
6241.715, 1790.795
6243.643, 1792.655
6245.572, 1830.123
6247.500, 1813.319
6249.429, 1799.278
6251.357, 1802.842
6253.286, 1800.035
6255.214, 1783.279
6257.143, 1795.704
6259.071, 1792.379
6261.000, 1790.099
6262.928, 1801.761
6264.856, 1816.483
6266.785, 1803.902
6268.713, 1814.773
6270.642, 1833.773
6272.570, 1825.785
6274.499, 1802.559
6276.427, 1813.161
6278.355, 1802.499
6280.284, 1794.782
6282.212, 1801.724
6284.141, 1804.761
6286.069, 1803.029
6287.998, 1829.771
6289.926, 1809.255
6291.855, 1826.357
6293.783, 1810.827
6295.712, 1802.858
6297.640, 1829.858
6299.569, 1822.680
6301.497, 1830.260
6303.426, 1810.451
6305.354, 1806.599
6307.283, 1816.287
6309.211, 1824.040
6311.140, 1834.949
6313.068, 1797.270
6314.997, 1823.391
6316.925, 1827.119
6318.854, 1815.043
6320.782, 1815.382
6322.710, 1809.055
6324.639, 1794.380
6326.567, 1811.516
6328.496, 1803.047
6330.424, 1792.712
6332.353, 1801.919
6334.281, 1805.580
6336.209, 1828.389
6338.138, 1834.248
6340.066, 1849.282
6341.995, 1836.231
6343.923, 1803.228
6345.852, 1813.015
6347.780, 1824.939
6349.709, 1795.621
6351.637, 1817.695
6353.566, 1839.642
6355.494, 1826.539
6357.423, 1801.976
6359.351, 1822.192
6361.280, 1807.414
6363.208, 1808.056
6365.137, 1808.730
6367.065, 1802.896
6368.994, 1798.679
6370.922, 1799.658
6372.851, 1805.210
6374.779, 1805.652
6376.708, 1814.545
6378.636, 1820.294
6380.564, 1809.168
6382.493, 1784.510
6384.421, 1770.086
6386.350, 1782.757
6388.278, 1797.670
6390.207, 1810.328
6392.135, 1819.198
6394.063, 1821.702
6395.992, 1825.585
6397.920, 1809.865
6399.849, 1805.820
6401.777, 1808.574
6403.706, 1805.176
6405.634, 1797.932
6407.563, 1805.292
6409.491, 1831.731
6411.420, 1822.117
6413.348, 1809.529
6415.277, 1809.188
6417.205, 1811.932
6419.134, 1805.314
6421.062, 1794.149
6422.991, 1805.434
6424.919, 1788.842
##END=



