##NAMES=Tellurobismuthite
##RRUFFID=R070158
##IDEAL CHEMISTRY=Bi_2_Te_3_
##LOCALITY=Boliden, Skelleftea, Vasterbotten, Sweden
##OWNER=RRUFF
##SOURCE=James Shigley
##DESCRIPTION=Bright silver sectile metallic plates associated with yellow gold
##STATUS=The identification of this mineral is not yet confirmed
##URL=https://www.rruff.net/odr/rruff_sample/R070158
##FILETYPE=Raman RAW
##RAMAN WAVELENGTH=785

115.6763, 417.1587
117.6048, 517.7908
119.5332, 675.3864
121.4617, 891.6600
123.3902, 1162.514
125.3186, 1540.951
127.2471, 1935.563
129.1756, 2248.179
131.1040, 2475.877
133.0325, 2665.831
134.9610, 2795.811
136.8894, 2965.767
138.8179, 3232.434
140.7464, 3521.400
142.6748, 3830.690
144.6033, 4124.415
146.5318, 4296.707
148.4602, 4352.633
150.3887, 4370.856
152.3172, 4347.119
154.2456, 4318.829
156.1741, 4289.188
158.1026, 4268.182
160.0310, 4277.916
161.9595, 4304.201
163.8880, 4296.257
165.8164, 4246.391
167.7449, 4194.125
169.6734, 4158.171
171.6018, 4107.246
173.5303, 4016.574
175.4588, 3913.269
177.3872, 3833.950
179.3157, 3774.193
181.2442, 3702.519
183.1726, 3613.952
185.1011, 3517.976
187.0296, 3403.844
188.9580, 3295.944
190.8865, 3210.151
192.8150, 3137.029
194.7434, 3063.522
196.6719, 2989.785
198.6004, 2925.445
200.5288, 2872.092
202.4573, 2823.509
204.3858, 2787.917
206.3142, 2746.669
208.2427, 2681.622
210.1712, 2607.427
212.0996, 2548.671
214.0281, 2507.425
215.9566, 2467.302
217.8850, 2426.585
219.8135, 2390.974
221.7420, 2366.122
223.6704, 2341.671
225.5989, 2310.331
227.5274, 2275.165
229.4558, 2244.725
231.3843, 2219.702
233.3128, 2186.435
235.2412, 2141.262
237.1697, 2102.403
239.0982, 2076.888
241.0266, 2056.896
242.9551, 2040.724
244.8836, 2029.929
246.8120, 2026.117
248.7405, 2025.126
250.6690, 2011.007
252.5974, 1978.397
254.5259, 1956.346
256.4544, 1961.630
258.3828, 1964.644
260.3113, 1955.272
262.2398, 1939.494
264.1682, 1921.530
266.0967, 1902.404
268.0252, 1884.046
269.9536, 1866.741
271.8821, 1847.240
273.8106, 1826.703
275.7390, 1802.318
277.6675, 1769.216
279.5960, 1735.668
281.5244, 1711.991
283.4529, 1691.661
285.3814, 1659.627
287.3098, 1612.342
289.2383, 1570.710
291.1668, 1535.068
293.0952, 1505.626
295.0237, 1487.981
296.9522, 1469.646
298.8806, 1442.341
300.8091, 1411.273
302.7376, 1380.860
304.6660, 1351.419
306.5945, 1329.902
308.5230, 1320.338
310.4514, 1303.446
312.3799, 1274.542
314.3084, 1245.253
316.2368, 1217.740
318.1653, 1194.347
320.0938, 1177.779
322.0222, 1166.384
323.9507, 1157.652
325.8792, 1151.219
327.8076, 1140.315
329.7361, 1124.256
331.6646, 1107.652
333.5930, 1090.906
335.5215, 1074.723
337.4500, 1060.078
339.3784, 1045.317
341.3069, 1028.042
343.2354, 1010.573
345.1638, 997.8405
347.0923, 989.0295
349.0208, 980.2530
350.9492, 972.2859
352.8777, 962.4813
354.8062, 946.8654
356.7346, 932.2296
358.6631, 921.8259
360.5916, 915.1385
362.5201, 914.4378
364.4485, 916.0613
366.3770, 909.2616
368.3055, 892.8767
370.2339, 879.7742
372.1624, 876.0726
374.0909, 867.5695
376.0193, 848.7349
377.9478, 830.5173
379.8763, 814.9793
381.8047, 805.8216
383.7332, 806.4125
385.6617, 811.8900
387.5901, 813.7896
389.5186, 811.4320
391.4471, 805.4486
393.3755, 796.0568
395.3040, 788.0162
397.2325, 779.8557
399.1609, 772.5048
401.0894, 767.6424
403.0179, 762.6031
404.9464, 757.0391
406.8748, 753.0922
408.8033, 752.5100
410.7318, 753.4194
412.6602, 746.5822
414.5887, 731.5096
416.5172, 718.3176
418.4456, 707.1964
420.3741, 702.3464
422.3026, 711.7978
424.2310, 719.4342
426.1595, 712.5774
428.0880, 699.8585
430.0164, 694.4479
431.9449, 695.8712
433.8734, 696.4368
435.8018, 694.4039
437.7303, 688.6174
439.6588, 679.1296
441.5872, 670.8961
443.5157, 664.1035
445.4442, 659.4551
447.3726, 659.9006
449.3011, 659.6411
451.2296, 651.2490
453.1580, 640.2072
455.0865, 635.2372
457.0150, 634.1633
458.9434, 634.2952
460.8719, 635.0048
462.8004, 635.4328
464.7288, 638.1130
466.6573, 636.5408
468.5858, 623.3283
470.5142, 613.7160
472.4427, 616.1561
474.3712, 615.0106
476.2996, 599.2354
478.2281, 586.2970
480.1566, 585.3821
482.0850, 588.2206
484.0135, 589.7313
485.9420, 591.9036
487.8704, 589.3437
489.7989, 578.5173
491.7274, 570.4340
493.6558, 567.5536
495.5843, 566.2119
497.5128, 565.0505
499.4412, 555.1064
501.3697, 536.6008
503.2982, 533.5126
505.2266, 546.4064
507.1551, 555.3109
509.0836, 549.4089
511.0120, 537.9244
512.9405, 534.1242
514.8690, 534.8533
516.7974, 531.4669
518.7259, 525.2610
520.6544, 522.0084
522.5828, 520.5680
524.5113, 518.2931
526.4398, 513.0159
528.3682, 510.9280
530.2967, 518.3643
532.2252, 520.8985
534.1536, 513.5285
536.0821, 510.0997
538.0106, 515.2576
539.9390, 518.6570
541.8675, 512.7928
543.7960, 501.6383
545.7244, 494.5230
547.6529, 493.8584
549.5814, 494.7979
551.5098, 491.8681
553.4383, 485.0103
555.3668, 478.2752
557.2952, 474.9671
559.2237, 479.3827
561.1522, 486.6074
563.0806, 482.8600
565.0091, 472.7485
566.9376, 470.8365
568.8660, 474.2869
570.7945, 477.0799
572.7230, 479.9933
574.6514, 484.2049
576.5799, 486.2285
578.5084, 478.9237
580.4368, 463.4548
582.3653, 458.4787
584.2938, 466.2276
586.2222, 472.9728
588.1507, 476.0706
590.0792, 478.1329
592.0076, 477.0669
593.9361, 473.9082
595.8646, 472.2353
597.7930, 469.7363
599.7215, 462.7453
601.6500, 459.4324
603.5784, 468.8010
605.5069, 478.6557
607.4354, 475.6194
609.3638, 468.4771
611.2923, 463.0205
613.2208, 453.1076
615.1492, 447.7958
617.0777, 458.3514
619.0062, 471.7086
620.9346, 471.3735
622.8631, 461.6295
624.7916, 456.8115
626.7200, 453.9160
628.6485, 441.6627
630.5770, 432.1221
632.5054, 439.3775
634.4339, 450.9039
636.3624, 456.0681
638.2908, 451.9628
640.2193, 436.5452
642.1478, 424.8673
644.0762, 427.7702
646.0047, 431.6037
647.9332, 425.2365
649.8616, 422.8143
651.7901, 430.9839
653.7186, 435.4763
655.6470, 434.2551
657.5755, 432.2573
659.5040, 430.1990
661.4324, 431.3113
663.3609, 430.1009
665.2894, 422.8026
667.2178, 414.9997
669.1463, 411.8421
671.0748, 414.1631
673.0032, 419.5067
674.9317, 421.8399
676.8602, 418.0753
678.7886, 417.2026
680.7171, 423.4464
682.6456, 425.3684
684.5740, 421.5516
686.5025, 420.7538
688.4310, 416.1311
690.3594, 404.9186
692.2879, 405.7145
694.2164, 415.5352
696.1448, 408.4326
698.0733, 395.9511
700.0018, 403.6240
701.9302, 416.7194
703.8587, 415.5530
705.7872, 410.6297
707.7156, 409.0297
709.6441, 407.2019
711.5726, 405.0075
713.5010, 400.6326
715.4295, 403.3351
717.3580, 415.7879
719.2864, 421.0941
721.2149, 414.8868
723.1434, 410.7613
725.0718, 414.2970
727.0003, 416.8027
728.9288, 414.6698
730.8572, 409.2498
732.7857, 397.1732
734.7142, 389.6248
736.6426, 395.9181
738.5711, 403.4172
740.4996, 404.1801
742.4280, 400.7636
744.3565, 394.2495
746.2850, 390.7798
748.2134, 396.5602
750.1419, 403.4885
752.0704, 405.7357
753.9988, 408.0023
755.9273, 406.0196
757.8558, 396.6321
759.7843, 391.4384
761.7128, 392.6686
763.6412, 395.3604
765.5697, 396.7617
767.4982, 390.4140
769.4266, 377.4472
771.3551, 370.3125
773.2836, 370.7922
775.2120, 374.1954
777.1405, 380.2029
779.0690, 382.8447
780.9974, 378.8842
782.9259, 376.2835
784.8544, 381.2531
786.7828, 382.3071
788.7113, 370.8643
790.6398, 366.9561
792.5682, 379.9189
794.4967, 387.6940
796.4252, 383.8994
798.3536, 377.5895
800.2821, 369.4901
802.2106, 363.8860
804.1390, 362.6484
806.0675, 362.0570
807.9960, 361.8900
809.9244, 363.2944
811.8529, 368.4114
813.7814, 368.7244
815.7098, 355.7943
817.6383, 344.0551
819.5668, 343.5518
821.4952, 348.1589
823.4237, 356.3130
825.3522, 363.4947
827.2806, 364.0280
829.2091, 360.4137
831.1376, 351.6783
833.0660, 343.6234
834.9945, 351.0921
836.9230, 365.4526
838.8514, 366.2005
840.7799, 358.2560
842.7084, 355.0314
844.6368, 355.3705
846.5653, 356.5574
848.4938, 357.7837
850.4222, 351.9319
852.3507, 341.5132
854.2792, 342.8989
856.2076, 354.2674
858.1361, 359.8685
860.0646, 359.2944
861.9930, 354.2889
863.9215, 345.3746
865.8500, 343.4392
867.7784, 348.8794
869.7069, 354.4040
871.6354, 361.5211
873.5638, 358.8583
875.4923, 339.6534
877.4208, 336.6853
879.3492, 360.4490
881.2777, 369.2965
883.2062, 353.5402
885.1346, 345.8581
887.0631, 353.5667
888.9916, 356.7042
890.9200, 349.1328
892.8485, 348.0442
894.7770, 358.0871
896.7054, 363.2507
898.6339, 362.6205
900.5624, 357.7676
902.4908, 346.4623
904.4193, 340.1263
906.3478, 340.5388
908.2762, 342.0605
910.2047, 344.7144
912.1332, 347.8560
914.0616, 353.4378
915.9901, 356.2452
917.9186, 350.7189
919.8470, 345.6434
921.7755, 346.2477
923.7040, 348.0712
925.6324, 347.1873
927.5609, 347.3257
929.4894, 354.5510
931.4178, 360.1077
933.3463, 358.1904
935.2748, 352.8086
937.2032, 341.9351
939.1317, 337.9395
941.0602, 349.5259
942.9886, 356.9601
944.9171, 354.4697
946.8456, 353.6670
948.7740, 354.1031
950.7025, 354.2929
952.6310, 355.7349
954.5594, 354.3510
956.4879, 354.0290
958.4164, 362.2207
960.3448, 371.0512
962.2733, 371.1452
964.2018, 368.0968
966.1302, 364.7250
968.0587, 358.8432
969.9872, 352.3172
971.9156, 341.1314
973.8441, 333.4060
975.7726, 342.3202
977.7010, 357.3669
979.6295, 366.5087
981.5580, 365.8911
983.4865, 355.2596
985.4149, 347.8339
987.3434, 350.9291
989.2719, 355.3879
991.2003, 355.7545
993.1288, 356.7725
995.0573, 364.6776
996.9857, 367.8343
998.9142, 354.4072
1000.843, 347.3455
1002.771, 359.2635
1004.700, 364.6784
1006.628, 357.2480
1008.557, 353.7019
1010.485, 354.2990
1012.413, 355.0498
1014.342, 358.9040
1016.270, 364.7088
1018.199, 369.3059
1020.127, 367.9516
1022.056, 360.2576
1023.984, 354.0037
1025.913, 350.7717
1027.841, 345.9593
1029.770, 338.9326
1031.698, 342.5866
1033.627, 360.2843
1035.555, 367.3045
1037.484, 360.1239
1039.412, 357.9457
1041.340, 358.4937
1043.269, 356.1401
1045.197, 359.9454
1047.126, 364.0418
1049.054, 355.7846
1050.983, 351.6729
1052.911, 363.9860
1054.840, 365.1778
1056.768, 343.1753
1058.697, 330.8654
1060.625, 340.1024
1062.554, 347.6910
1064.482, 344.6649
1066.411, 338.9873
1068.339, 334.6764
1070.267, 337.9202
1072.196, 349.2507
1074.124, 352.6856
1076.053, 345.1457
1077.981, 344.7020
1079.910, 353.1653
1081.838, 352.2229
1083.767, 346.0696
1085.695, 351.6909
1087.624, 360.4403
1089.552, 361.2796
1091.481, 359.1081
1093.409, 354.2510
1095.338, 348.8312
1097.266, 351.4488
1099.194, 356.6594
1101.123, 355.2959
1103.051, 352.6050
1104.980, 353.1858
1106.908, 353.8686
1108.837, 353.3813
1110.765, 354.0710
1112.694, 353.2488
1114.622, 347.6901
1116.551, 343.4573
1118.479, 341.0857
1120.408, 338.3560
1122.336, 345.8202
1124.265, 359.9152
1126.193, 360.8450
1128.121, 355.2771
1130.050, 356.8659
1131.978, 359.1983
1133.907, 353.3803
1135.835, 340.4234
1137.764, 336.9441
1139.692, 344.3496
1141.621, 349.9943
1143.549, 356.0779
1145.478, 360.0030
1147.406, 360.0970
1149.335, 359.2907
1151.263, 354.3877
1153.192, 347.6521
1155.120, 342.4829
1157.048, 338.5494
1158.977, 334.5195
1160.905, 333.6924
1162.834, 338.5594
1164.762, 344.0139
1166.691, 345.3172
1168.619, 344.7054
1170.548, 345.1581
1172.476, 343.8169
1174.405, 341.5403
1176.333, 339.6671
1178.262, 339.1792
1180.190, 341.6764
1182.119, 344.6229
1184.047, 353.8688
1185.975, 359.0169
1187.904, 346.2038
1189.832, 339.6504
1191.761, 348.7986
1193.689, 355.0630
1195.618, 356.9527
1197.546, 354.9388
1199.475, 344.5455
1201.403, 340.2423
1203.332, 346.8146
1205.260, 346.5625
1207.189, 338.2274
1209.117, 345.1236
1211.046, 364.5463
1212.974, 363.8416
1214.902, 348.2373
1216.831, 345.3625
1218.759, 351.4079
1220.688, 352.9498
1222.616, 350.9946
1224.545, 352.0623
1226.473, 353.2667
1228.402, 348.5278
1230.330, 346.7349
1232.259, 355.7879
1234.187, 363.5735
1236.116, 366.0811
1238.044, 362.6329
1239.973, 348.9378
1241.901, 344.2885
1243.829, 352.3928
1245.758, 359.1283
1247.686, 364.0594
1249.615, 359.0050
1251.543, 344.8620
1253.472, 343.1158
1255.400, 349.5499
1257.329, 345.9536
1259.257, 339.6997
1261.186, 343.0442
1263.114, 347.2314
1265.043, 341.3120
1266.971, 338.1533
1268.900, 353.3841
1270.828, 365.6309
1272.756, 360.8948
1274.685, 352.6907
1276.613, 342.1160
1278.542, 339.6397
1280.470, 348.6785
1282.399, 358.1368
1284.327, 369.9608
1286.256, 369.2422
1288.184, 357.3033
1290.113, 361.7972
1292.041, 375.7106
1293.970, 369.7690
1295.898, 357.3013
1297.827, 365.9687
1299.755, 376.1828
1301.683, 367.8693
1303.612, 358.0732
1305.540, 356.2767
1307.469, 354.1358
1309.397, 345.5628
1311.326, 349.4582
1313.254, 375.1239
1315.183, 384.3664
1317.111, 371.2235
1319.040, 362.3497
1320.968, 358.0692
1322.897, 361.7725
1324.825, 368.0189
1326.754, 358.2974
1328.682, 345.2921
1330.610, 348.5829
1332.539, 354.3864
1334.467, 350.7466
1336.396, 348.3961
1338.324, 351.0952
1340.253, 357.6228
1342.181, 369.1785
1344.110, 373.9608
1346.038, 370.2398
1347.967, 364.4119
1349.895, 357.0402
1351.824, 345.9365
1353.752, 335.6222
1355.681, 337.9475
1357.609, 348.1856
1359.537, 367.3119
1361.466, 381.1454
1363.394, 374.2031
1365.323, 367.6041
1367.251, 369.9047
1369.180, 369.4249
1371.108, 363.4545
1373.037, 359.8083
1374.965, 359.2843
1376.894, 363.5528
1378.822, 368.1009
1380.751, 350.1472
1382.679, 328.7061
1384.608, 338.8675
1386.536, 355.8170
1388.464, 359.5093
1390.393, 358.5341
1392.321, 355.0729
1394.250, 350.8765
1396.178, 344.2225
1398.107, 346.4014
1400.035, 358.0462
1401.964, 364.6349
1403.892, 366.0396
1405.821, 364.6846
1407.749, 358.8434
1409.678, 338.7312
1411.606, 323.4151
1413.535, 333.4950
1415.463, 345.1146
1417.391, 347.9992
1419.320, 350.3094
1421.248, 353.6164
1423.177, 355.9656
1425.105, 357.3407
1427.034, 351.8756
1428.962, 342.3402
1430.891, 335.5475
1432.819, 332.7032
1434.748, 338.4847
1436.676, 342.3153
1438.605, 334.8503
1440.533, 331.0511
1442.462, 336.7698
1444.390, 343.2839
1446.318, 351.0219
1448.247, 346.4893
1450.175, 332.6675
1452.104, 321.2131
1454.032, 314.6337
1455.961, 318.3008
1457.889, 327.1188
1459.818, 341.5920
1461.746, 350.7245
1463.675, 350.2871
1465.603, 345.4772
1467.532, 336.1917
1469.460, 336.0627
1471.389, 342.4642
1473.317, 339.1479
1475.245, 333.9116
1477.174, 341.9868
1479.102, 350.3035
1481.031, 350.7457
1482.959, 347.1517
1484.888, 338.1956
1486.816, 344.2137
1488.745, 367.3978
1490.673, 355.8058
1492.602, 323.8227
1494.530, 329.0636
1496.459, 345.3954
1498.387, 335.2406
1500.316, 326.2339
1502.244, 335.7596
1504.173, 344.7419
1506.101, 350.4275
1508.030, 340.7947
1509.958, 319.7002
1511.886, 335.4262
1513.815, 365.2341
1515.743, 358.7996
1517.672, 343.0215
1519.600, 342.5276
1521.529, 340.4355
1523.457, 329.3295
1525.386, 321.3106
1527.314, 317.6660
1529.243, 322.8255
1531.171, 332.0609
1533.100, 327.5099
1535.028, 320.6766
1536.957, 326.5555
1538.885, 333.3116
1540.813, 333.0016
1542.742, 336.8673
1544.670, 348.0172
1546.599, 347.4334
1548.527, 337.4546
1550.456, 331.4104
1552.384, 328.8781
1554.313, 329.4161
1556.241, 331.9683
1558.170, 338.1884
1560.098, 341.4264
1562.027, 339.7805
1563.955, 337.9830
1565.884, 335.4926
1567.812, 323.2314
1569.740, 311.1817
1571.669, 316.9332
1573.597, 323.8603
1575.526, 320.7214
1577.454, 320.3443
1579.383, 328.3318
1581.311, 327.5228
1583.240, 320.1208
1585.168, 322.5490
1587.097, 329.7024
1589.025, 339.9690
1590.954, 340.3788
1592.882, 317.9413
1594.811, 307.1273
1596.739, 317.4118
1598.667, 321.7147
1600.596, 321.9781
1602.524, 332.0866
1604.453, 340.2733
1606.381, 327.6309
1608.310, 319.8539
1610.238, 329.4414
1612.167, 327.1349
1614.095, 308.4924
1616.024, 301.6440
1617.952, 304.9984
1619.881, 321.7958
1621.809, 333.9579
1623.738, 319.7942
1625.666, 317.5520
1627.594, 339.2478
1629.523, 337.7942
1631.451, 314.0209
1633.380, 303.7408
1635.308, 301.8102
1637.237, 302.5623
1639.165, 305.5847
1641.094, 312.7479
1643.022, 312.2506
1644.951, 303.2732
1646.879, 308.7492
1648.808, 320.1500
1650.736, 313.5791
1652.665, 302.9667
1654.593, 293.2782
1656.521, 300.0596
1658.450, 329.8625
1660.378, 334.0559
1662.307, 317.0780
1664.235, 306.5512
1666.164, 303.9269
1668.092, 317.6400
1670.021, 325.8785
1671.949, 315.6736
1673.878, 317.6053
1675.806, 329.7963
1677.735, 311.2641
1679.663, 285.5025
1681.592, 288.0515
1683.520, 299.1885
1685.448, 313.8874
1687.377, 321.6727
1689.305, 321.8478
1691.234, 308.6759
1693.162, 290.4928
1695.091, 280.3702
1697.019, 278.9342
1698.948, 292.2082
1700.876, 302.1973
1702.805, 307.1163
1704.733, 297.6424
1706.662, 282.3687
1708.590, 288.3888
1710.519, 292.4028
1712.447, 274.0634
1714.375, 267.2605
1716.304, 281.6807
1718.232, 292.5536
1720.161, 299.5647
1722.089, 299.8123
1724.018, 299.0600
1725.946, 302.3611
1727.875, 300.5831
1729.803, 291.0685
1731.732, 278.4887
1733.660, 268.9755
1735.589, 285.9750
1737.517, 301.3474
1739.446, 297.8169
1741.374, 289.9302
1743.302, 280.5496
1745.231, 290.2119
1747.159, 304.8210
1749.088, 283.4567
1751.016, 269.0670
1752.945, 288.7938
1754.873, 293.5221
1756.802, 277.4814
1758.730, 278.9081
1760.659, 286.9933
1762.587, 278.2129
1764.516, 274.9476
1766.444, 289.2294
1768.373, 292.1967
1770.301, 282.5653
1772.229, 271.8884
1774.158, 266.1295
1776.086, 275.6990
1778.015, 288.2369
1779.943, 302.2668
1781.872, 294.8950
1783.800, 273.5496
1785.729, 271.9436
1787.657, 275.8213
1789.586, 271.5263
1791.514, 270.2787
1793.443, 274.0277
1795.371, 279.0870
1797.300, 282.1878
1799.228, 275.8253
1801.156, 268.2085
1803.085, 259.2187
1805.013, 267.8241
1806.942, 291.6481
1808.870, 289.0490
1810.799, 275.1083
1812.727, 265.7141
1814.656, 259.0810
1816.584, 255.1208
1818.513, 251.0754
1820.441, 248.1685
1822.370, 251.9959
1824.298, 260.8000
1826.227, 279.5629
1828.155, 283.0257
1830.083, 268.4530
1832.012, 258.5895
1833.940, 253.2216
1835.869, 250.9197
1837.797, 252.8613
1839.726, 262.2581
1841.654, 264.3835
1843.583, 260.0100
1845.511, 249.7206
1847.440, 244.5635
1849.368, 252.2376
1851.297, 257.7598
1853.225, 259.6660
1855.154, 274.5963
1857.082, 286.9785
1859.010, 272.6958
1860.939, 261.5262
1862.867, 261.7511
1864.796, 256.4970
1866.724, 250.6987
1868.653, 265.3201
1870.581, 277.1143
1872.510, 274.2733
1874.438, 272.0674
1876.367, 270.2406
1878.295, 251.3963
1880.224, 235.6829
1882.152, 246.4748
1884.081, 252.0366
1886.009, 248.3127
1887.938, 257.6644
1889.866, 266.1947
1891.794, 249.8150
1893.723, 239.8493
1895.651, 244.2299
1897.580, 249.6111
1899.508, 252.0884
1901.437, 252.7204
1903.365, 251.0257
1905.294, 243.3282
1907.222, 234.5546
1909.151, 228.1035
1911.079, 228.4943
1913.008, 228.5705
1914.936, 226.1803
1916.865, 225.5934
1918.793, 227.9760
1920.721, 230.8040
1922.650, 230.1762
1924.578, 223.4305
1926.507, 219.2341
1928.435, 219.4312
1930.364, 215.0733
1932.292, 212.7106
1934.221, 222.8836
1936.149, 231.7591
1938.078, 238.6304
1940.006, 235.4709
1941.935, 228.0301
1943.863, 223.2638
1945.792, 218.5544
1947.720, 216.4208
1949.648, 214.8195
1951.577, 216.3698
1953.505, 239.0214
1955.434, 249.6325
1957.362, 234.0763
1959.291, 225.8571
1961.219, 220.6918
1963.148, 218.2262
1965.076, 219.8515
1967.005, 221.1024
1968.933, 220.5010
1970.862, 221.3202
1972.790, 229.8640
1974.719, 229.3171
1976.647, 211.0876
1978.575, 205.6847
1980.504, 206.7242
1982.432, 190.3243
1984.361, 187.9358
1986.289, 208.6823
1988.218, 219.4841
1990.146, 222.4607
1992.075, 217.3072
1994.003, 211.3218
1995.932, 207.3527
1997.860, 209.4224
1999.789, 214.7518
2001.717, 211.7095
2003.646, 205.7567
2005.574, 201.9410
2007.502, 199.8308
2009.431, 199.0773
2011.359, 207.9711
2013.288, 213.6162
2015.216, 211.6544
2017.145, 210.5494
2019.073, 207.2938
2021.002, 193.1046
2022.930, 190.4106
2024.859, 201.3807
2026.787, 203.2720
2028.716, 199.7973
2030.644, 190.5964
2032.573, 187.5281
2034.501, 191.4668
2036.429, 192.3369
2038.358, 192.9044
2040.286, 199.3369
2042.215, 202.3840
2044.143, 200.1498
2046.072, 181.8081
2048.000, 164.4793
2049.929, 165.3746
2051.857, 173.3853
2053.786, 184.4417
2055.714, 195.1494
2057.643, 199.7336
2059.571, 192.8823
2061.500, 187.8705
2063.428, 186.1779
2065.356, 192.3234
2067.285, 195.5389
2069.213, 189.9815
2071.142, 172.9580
2073.070, 158.8036
2074.999, 173.4294
2076.927, 183.8235
2078.856, 182.0236
2080.784, 178.2481
2082.713, 174.7368
2084.641, 174.1289
2086.570, 177.9319
2088.498, 183.4530
2090.427, 181.2300
2092.355, 171.5524
2094.283, 152.1347
2096.212, 158.4714
2098.140, 179.4504
2100.069, 181.3241
2101.997, 175.4842
2103.926, 165.6060
2105.854, 154.8060
2107.783, 150.8604
2109.711, 172.1434
2111.640, 186.6370
2113.568, 189.1884
2115.497, 181.7775
2117.425, 173.9485
2119.354, 174.5011
2121.282, 171.3930
2123.210, 166.2395
2125.139, 166.6888
2127.067, 165.0298
2128.996, 158.3605
2130.924, 158.8589
2132.853, 162.7040
2134.781, 168.5671
2136.710, 169.3790
2138.638, 165.1072
2140.567, 164.7418
2142.495, 164.0486
2144.424, 156.5455
2146.352, 159.2951
2148.281, 165.4258
2150.209, 146.0619
2152.137, 141.2926
2154.066, 166.7470
2155.994, 156.0515
2157.923, 140.0719
2159.851, 150.4282
2161.780, 156.1375
2163.708, 156.9422
2165.637, 163.5866
2167.565, 168.0767
2169.494, 166.3643
2171.422, 156.6066
2173.351, 148.0030
2175.279, 143.2210
2177.208, 142.5923
2179.136, 148.7100
2181.064, 142.0339
2182.993, 135.9799
2184.921, 147.7085
2186.850, 149.6447
2188.778, 144.8439
2190.707, 145.6577
2192.635, 149.0142
2194.564, 152.3982
2196.492, 157.5486
2198.421, 155.3457
2200.349, 141.6769
2202.278, 144.1259
2204.206, 153.3884
2206.135, 148.9788
2208.063, 148.1768
2209.991, 157.4952
2211.920, 153.9874
2213.848, 149.9327
2215.777, 156.3341
2217.705, 139.4079
2219.634, 120.7026
2221.562, 129.8599
2223.491, 135.6042
2225.419, 138.9418
2227.348, 138.7371
2229.276, 137.8924
2231.205, 141.2970
2233.133, 132.3009
2235.062, 124.7902
2236.990, 144.8018
2238.918, 144.1709
2240.847, 129.6595
2242.775, 125.6978
2244.704, 120.5677
2246.632, 116.2823
2248.561, 115.0809
2250.489, 109.8857
2252.418, 106.3507
2254.346, 113.7196
2256.275, 123.9276
2258.203, 115.8995
2260.132, 116.6763
2262.060, 128.0426
2263.989, 130.9280
2265.917, 127.9435
2267.845, 120.6262
2269.774, 115.9783
2271.702, 113.5188
2273.631, 121.5652
2275.559, 130.1012
2277.488, 133.8929
2279.416, 127.6788
2281.345, 113.9275
2283.273, 106.1249
2285.202, 110.1991
2287.130, 114.0674
2289.059, 119.3871
2290.987, 119.2255
2292.916, 118.3922
2294.844, 115.9562
2296.772, 104.8770
2298.701, 93.80901
2300.629, 109.7024
2302.558, 116.9521
2304.486, 109.0766
2306.415, 124.4840
2308.343, 134.7475
2310.272, 118.1786
2312.200, 114.0711
2314.129, 120.2230
2316.057, 120.2212
2317.986, 110.7175
2319.914, 98.38528
2321.843, 104.3895
2323.771, 106.5471
2325.699, 95.78775
2327.628, 87.16585
2329.556, 93.18131
2331.485, 113.6681
2333.413, 111.0669
2335.342, 97.76549
2337.270, 98.55052
2339.199, 101.2355
2341.127, 97.73058
2343.056, 94.72153
2344.984, 91.19752
2346.913, 95.32404
2348.841, 108.3751
2350.770, 109.9612
2352.698, 96.57420
2354.626, 85.93289
2356.555, 85.27589
2358.483, 100.0657
2360.412, 95.08223
2362.340, 86.12496
2364.269, 94.63209
2366.197, 106.8630
2368.126, 106.3647
2370.054, 87.19633
2371.983, 87.02624
2373.911, 99.13371
2375.840, 93.60963
2377.768, 97.13654
2379.697, 99.87885
2381.625, 87.86481
2383.553, 90.50898
2385.482, 97.30576
2387.410, 96.46777
2389.339, 98.58772
2391.267, 93.61750
2393.196, 88.45528
2395.124, 92.92804
2397.053, 103.0488
2398.981, 94.87212
2400.910, 85.62370
2402.838, 79.41808
2404.767, 92.45536
2406.695, 106.5655
2408.624, 93.31178
2410.552, 88.42220
2412.480, 83.22188
2414.409, 92.12888
2416.337, 96.78034
2418.266, 89.16458
2420.194, 70.15979
2422.123, 71.03049
2424.051, 86.49786
2425.980, 78.07406
2427.908, 80.24858
2429.837, 98.08849
2431.765, 93.93363
2433.694, 81.84301
2435.622, 79.85046
2437.551, 91.58075
2439.479, 91.98022
2441.407, 71.51308
2443.336, 72.82829
2445.264, 81.65520
2447.193, 90.24284
2449.121, 78.64818
2451.050, 69.40081
2452.978, 83.79443
2454.907, 76.44466
2456.835, 66.77804
2458.764, 71.64475
2460.692, 77.95777
2462.621, 83.37566
2464.549, 68.62247
2466.478, 59.86980
2468.406, 64.96945
2470.334, 75.23859
2472.263, 78.60761
2474.191, 73.65843
2476.120, 62.94476
2478.048, 64.39201
2479.977, 68.03747
2481.905, 68.49751
2483.834, 66.57160
2485.762, 64.61097
2487.691, 80.88873
2489.619, 83.42423
2491.548, 75.92226
2493.476, 81.65109
2495.405, 81.65958
2497.333, 74.41109
2499.261, 65.74535
2501.190, 68.64501
2503.118, 80.50310
2505.047, 72.66425
2506.975, 69.38122
2508.904, 78.23492
2510.832, 74.89394
2512.761, 70.97688
2514.689, 73.98190
2516.618, 70.48594
2518.546, 64.04323
2520.475, 61.15203
2522.403, 65.49763
2524.332, 68.62008
2526.260, 70.52560
2528.188, 69.66203
2530.117, 70.72656
2532.045, 75.14267
2533.974, 76.06299
2535.902, 73.63712
2537.831, 68.16441
2539.759, 67.24727
2541.688, 70.19115
2543.616, 73.64841
2545.545, 68.28233
2547.473, 60.65717
2549.402, 54.57043
2551.330, 57.51385
2553.259, 57.19522
2555.187, 51.77794
2557.115, 54.06694
2559.044, 53.76611
2560.972, 48.39937
2562.901, 44.88868
2564.829, 41.33929
2566.758, 38.88152
2568.686, 43.78349
2570.615, 52.69348
2572.543, 63.27589
2574.472, 59.06008
2576.400, 53.01275
2578.329, 50.78203
2580.257, 49.18792
2582.186, 42.15196
2584.114, 38.21419
2586.042, 59.64377
2587.971, 69.34115
2589.899, 67.99586
2591.828, 65.25656
2593.756, 67.95924
2595.685, 70.45078
2597.613, 60.76895
2599.542, 58.81472
2601.470, 60.41108
2603.399, 61.19071
2605.327, 52.41631
2607.256, 40.57556
2609.184, 46.17398
2611.113, 48.40487
2613.041, 48.40318
2614.969, 62.11446
2616.898, 69.03780
2618.826, 64.79343
2620.755, 49.71580
2622.683, 55.65332
2624.612, 64.73864
2626.540, 60.66661
2628.469, 49.75821
2630.397, 39.89784
2632.326, 45.19154
2634.254, 40.01633
2636.183, 37.57545
2638.111, 54.19198
2640.040, 47.31770
2641.968, 41.78532
2643.896, 50.79103
2645.825, 43.99931
2647.753, 32.83723
2649.682, 20.74069
2651.610, 29.75877
2653.539, 32.43845
2655.467, 38.54593
2657.396, 43.82287
2659.324, 30.21958
2661.253, 18.57754
2663.181, 33.54392
2665.110, 34.66431
2667.038, 36.49846
2668.967, 43.58929
2670.895, 42.58707
2672.823, 41.84935
2674.752, 20.20476
2676.680, 29.53055
2678.609, 38.83125
2680.537, 26.54255
2682.466, 32.88995
2684.394, 41.17904
2686.323, 36.64400
2688.251, 36.14556
2690.180, 26.54718
2692.108, 30.36346
2694.037, 59.49357
2695.965, 61.14825
2697.894, 38.91077
2699.822, 38.36113
2701.750, 48.73564
2703.679, 38.81976
2705.607, 35.97331
2707.536, 37.39802
2709.464, 31.34327
2711.393, 33.05778
2713.321, 36.28865
2715.250, 42.92575
2717.178, 59.94418
2719.107, 59.69981
2721.035, 43.08831
2722.964, 36.23582
2724.892, 33.85730
2726.821, 43.70208
2728.749, 43.38883
2730.677, 33.93809
2732.606, 31.54559
2734.534, 23.49784
2736.463, 22.04115
2738.391, 35.83090
2740.320, 39.19215
2742.248, 32.20522
2744.177, 24.19105
2746.105, 28.13448
2748.034, 17.03444
2749.962, 9.293417
2751.891, 30.44426
2753.819, 36.82951
2755.748, 28.77435
2757.676, 33.03594
2759.604, 28.08563
2761.533, 18.31326
2763.461, 24.74751
2765.390, 20.14747
2767.318, 30.14807
2769.247, 27.87755
2771.175, 22.11111
2773.104, 29.02237
2775.032, 20.56598
2776.961, 19.70181
2778.889, 26.66390
2780.818, 23.89243
2782.746, 19.91190
2784.675, 27.80572
2786.603, 35.82834
2788.531, 36.77969
2790.460, 37.75780
2792.388, 29.62816
2794.317, 19.34564
2796.245, 24.14294
2798.174, 25.69728
2800.102, 26.81929
2802.031, 32.48835
2803.959, 37.23072
2805.888, 32.94718
2807.816, 23.75693
2809.745, 26.55369
2811.673, 29.54025
2813.602, 29.03034
2815.530, 28.35099
2817.458, 25.11956
2819.387, 25.84031
2821.315, 28.81783
2823.244, 13.77649
2825.172, 13.96612
2827.101, 19.74568
2829.029, 28.09576
2830.958, 38.26687
2832.886, 36.93197
2834.815, 30.21033
2836.743, 16.40438
2838.672, 11.48799
2840.600, 16.07556
2842.529, 21.68167
2844.457, 23.33557
2846.385, 17.34536
2848.314, 13.20619
2850.242, 16.24859
2852.171, 31.85548
2854.099, 22.84226
2856.028, 2.013351
2857.956, 8.769848
2859.885, 2.278450
2861.813, 11.92155
2863.742, 22.79441
2865.670, 23.68642
2867.599, 16.32456
2869.527, 0.7221943
2871.456, 16.55734
2873.384, 34.66735
2875.313, 37.13632
2877.241, 27.24007
2879.169, 20.60881
2881.098, 17.29205
2883.026, 24.94438
2884.955, 19.24531
2886.883, 17.11697
2888.812, 21.46770
2890.740, 17.14478
2892.669, 14.65423
2894.597, 25.12994
2896.526, 30.58959
2898.454, 36.86471
2900.383, 35.89454
2902.311, 21.18738
2904.240, 8.589579
2906.168, 16.46182
2908.096, 23.06948
2910.025, 24.91035
2911.953, 23.47065
2913.882, 11.17252
2915.810, 5.837022
2917.739, 21.07813
2919.667, 23.03169
2921.596, 19.34830
2923.524, 10.83970
2925.453, 6.328068
2927.381, 15.02984
2929.310, 33.60519
2931.238, 21.39309
2933.167, 8.318507
2935.095, 0.3353878
2937.023, -8.064867
2938.952, 9.522349
2940.880, 18.81753
2942.809, 15.51467
2944.737, -1.199525
2946.666, 2.553834
2948.594, 2.509257
2950.523, -1.214344
2952.451, -1.630479
2954.380, 7.557244
2956.308, 7.590773
2958.237, -0.3887159
2960.165, 17.04327
2962.094, 11.81219
2964.022, -1.168732
2965.950, -2.485096
2967.879, 2.505473
2969.807, 16.66168
2971.736, 29.71367
2973.664, 12.60004
2975.593, 11.14645
2977.521, 10.88778
2979.450, 7.242992
2981.378, 7.367462
2983.307, 24.44726
2985.235, 39.68497
2987.164, 27.73987
2989.092, 19.66781
2991.021, 20.68703
2992.949, 23.74605
2994.878, 20.83489
2996.806, 17.40091
2998.735, 12.25576
3000.663, 6.965443
3002.592, 6.520864
3004.520, 3.715528
3006.448, 5.468354
3008.377, 16.39724
3010.305, 11.49479
3012.234, -1.336111
3014.162, -10.06179
3016.091, 1.080950
3018.019, 14.12105
3019.948, 1.954966
3021.876, -21.56819
3023.805, 12.95956
3025.733, 1.616240
3027.662, -15.95020
3029.590, -12.87409
3031.519, -7.581956
3033.447, -0.9898900
3035.375, 2.819509
3037.304, 1.650614
3039.232, 6.878488
3041.161, -2.931143
3043.089, -14.17418
3045.018, 1.046829
3046.946, -6.281281
3048.875, -10.19429
3050.803, -4.023374
3052.732, 5.076233
3054.660, 4.016155
3056.589, 2.623678
3058.517, 7.260498
3060.446, 10.01273
3062.374, -0.9023111
3064.302, -3.213077
3066.231, 10.81808
3068.159, 21.44123
3070.088, 13.41062
3072.016, 3.565548
3073.945, 0.2161679
3075.873, 7.917966
3077.802, 16.32055
3079.730, 13.59484
3081.659, 5.115894
3083.587, 8.366560
3085.516, 6.726501
3087.444, -0.8373017
3089.373, -7.388376
3091.301, 4.862284
3093.229, 10.96718
3095.158, 10.41201
3097.086, 11.71210
3099.015, 17.64091
3100.943, 15.27188
3102.872, -0.6934407
3104.800, -6.073892
3106.729, -5.979762
3108.657, -17.18027
3110.586, -22.37149
3112.514, -2.559841
3114.443, 14.27682
3116.371, 13.77523
3118.300, 0.5165918
3120.228, -7.570257
3122.156, -6.753697
3124.085, -3.596796
3126.013, -0.3874801
3127.942, 1.321112
3129.870, -3.646896
3131.799, -12.05464
3133.727, -12.27505
3135.656, 1.082456
3137.584, 11.45069
3139.513, 12.95580
3141.441, 8.915365
3143.370, 1.770435
3145.298, 2.841712
3147.227, 12.84485
3149.155, 22.53314
3151.083, 30.08447
3153.012, 9.520421
3154.940, -7.4948162E-02
3156.869, -5.581534
3158.797, -0.5686134
3160.726, 11.28439
3162.654, 15.72880
3164.583, 16.98262
3166.511, 24.77365
3168.440, 16.52000
3170.368, 15.47036
3172.297, 11.02586
3174.225, 4.367344
3176.154, 0.7000751
3178.082, 3.050809
3180.010, 12.10762
3181.939, 18.38774
3183.867, 18.94544
3185.796, 1.164808
3187.724, -8.977693
3189.653, 1.905741
3191.581, -13.88695
3193.510, -8.922032
3195.438, -4.110586
3197.367, -12.83863
3199.295, -8.304159
3201.224, 3.533196
3203.152, 2.579249
3205.081, -14.28771
3207.009, -19.33363
3208.938, -7.521009
3210.866, -7.391098
3212.794, -11.58932
3214.723, 3.440578
3216.651, 7.968289
3218.580, 6.055736
3220.508, -0.6339267
3222.437, -6.210849
3224.365, 12.17059
3226.294, 7.721809
3228.222, -2.514996
3230.151, -1.191794
3232.079, -0.4832571
3234.008, 4.565984
3235.936, 1.651359
3237.865, -0.8333970
3239.793, 14.05352
3241.721, 18.78631
3243.650, 18.21989
3245.578, 20.35013
3247.507, 25.80349
3249.435, 13.01234
3251.364, 11.98978
3253.292, 9.275607
3255.221, -0.5979743
3257.149, 11.22409
3259.078, 17.89718
3261.006, 20.82123
3262.935, 21.83686
3264.863, 16.39712
3266.792, 15.51267
3268.720, 18.32285
3270.648, 12.14991
3272.577, 2.071163
3274.505, -10.30547
3276.434, -7.906747
3278.362, -9.443956
3280.291, -14.69500
3282.219, -2.659694
3284.148, -1.088451
3286.076, -13.64181
3288.005, -25.47157
3289.933, -11.77035
3291.862, 2.321238
3293.790, 7.740086
3295.719, 0.4204089
3297.647, -18.48810
3299.575, -17.15901
3301.504, -6.344800
3303.432, -6.339230
3305.361, -15.13942
3307.289, -22.37444
3309.218, -2.865001
3311.146, -1.510816
3313.075, -9.090842
3315.003, -9.245564
3316.932, 24.96809
3318.860, 12.07045
3320.789, -5.987546
3322.717, -11.36305
3324.646, -14.31774
3326.574, -3.789623
3328.502, 9.608528
3330.431, 10.81058
3332.359, -0.6527008
3334.288, -10.13644
3336.216, 5.132890
3338.145, 16.59593
3340.073, 13.53023
3342.002, 2.995716
3343.930, 14.97612
3345.859, 9.482503
3347.787, 9.375259
3349.716, 13.55002
3351.644, -6.445601
3353.573, -4.401256
3355.501, 3.901543
3357.429, 4.666939
3359.358, -0.5606646
3361.286, 1.801891
3363.215, 0.9338916
3365.143, -0.2892913
3367.072, -13.73003
3369.000, -40.67146
3370.929, -9.439960
3372.857, -9.674740
3374.786, -4.870489
3376.714, 7.332892
3378.643, 9.702525
3380.571, 4.453279
3382.500, 1.671802
3384.428, -0.4749347
3386.356, -5.396480
3388.285, -9.885335
3390.213, -28.85967
3392.142, -28.22150
3394.070, -7.742363
3395.999, 10.75593
3397.927, -11.46870
3399.856, -6.376933
3401.784, -0.7640870
3403.713, 11.48690
3405.641, 21.61692
3407.570, -24.35661
3409.498, 3.634028
3411.427, 18.25835
3413.355, 15.67826
3415.283, 10.23157
3417.212, -3.871780
3419.140, 20.91217
3421.069, 5.853065
3422.997, -7.022491
3424.926, 20.23027
3426.854, 35.61421
3428.783, 14.06212
3430.711, 15.75386
3432.640, 14.47555
3434.568, -4.736721
3436.497, 25.46379
3438.425, 8.603656
3440.354, -8.397890
3442.282, -8.441919
3444.210, 3.439893
3446.139, 12.52596
3448.067, -11.93262
3449.996, -17.61149
3451.924, -12.50109
3453.853, -13.16055
3455.781, -17.61826
3457.710, 0.5109630
3459.638, -1.338610
3461.567, -14.55122
3463.495, -21.54935
3465.424, -13.97749
3467.352, 7.199907
3469.281, 4.105538
3471.209, -26.10287
3473.137, -48.06077
3475.066, -18.67246
3476.994, -12.67979
3478.923, -6.776453
3480.851, -0.1035337
3482.780, -9.493583
3484.708, -41.42107
3486.637, -2.481578
3488.565, -10.31856
3490.494, 4.062414
3492.422, 16.54933
3494.351, -1.089760
3496.279, 25.23781
3498.208, 12.46418
3500.136, -7.949858
3502.064, -19.52941
3503.993, -17.58526
3505.921, -2.866159
3507.850, -13.59373
3509.778, -2.553928
3511.707, 1.281909
3513.635, 1.128036
3515.564, 15.90521
3517.492, -7.064224
3519.421, -13.80118
3521.349, -10.84181
3523.278, -2.486039
3525.206, 5.114021
3527.135, -2.373403
3529.063, -24.11424
3530.991, -13.67309
3532.920, -18.65901
3534.848, -29.42880
3536.777, -4.449099
3538.705, 9.982788
3540.634, -13.44212
3542.562, -3.947669
3544.491, 6.611719
3546.419, -8.644889
3548.348, -12.16472
3550.276, -20.05938
3552.205, -3.183369
3554.133, 7.793840
3556.062, 0.8943267
3557.990, -13.99496
3559.918, -18.48118
3561.847, 1.106225
3563.775, -4.708104
3565.704, -22.80514
3567.632, -22.77745
3569.561, 8.981655
3571.489, -0.2965779
3573.418, -21.49379
3575.346, -10.44712
3577.275, 11.87721
3579.203, 12.03084
3581.132, -31.39414
3583.060, 4.152155
3584.989, -5.707841
3586.917, 19.65739
3588.845, 34.90858
3590.774, -1.887792
3592.702, 2.279499
3594.631, 10.77309
3596.559, 1.879465
3598.488, 3.306619
3600.416, 15.52039
3602.345, 19.06873
3604.273, -4.1278340E-02
3606.202, 32.81476
3608.130, 2.621257
3610.059, -18.90771
3611.987, -9.838311
3613.916, -3.130709
3615.844, -25.29029
3617.772, -24.90464
3619.701, -9.879906
3621.629, 0.8314394
3623.558, -6.577454
3625.486, -29.75843
3627.415, -43.55959
3629.343, -24.01151
3631.272, -30.67257
3633.200, -5.474575
3635.129, 18.41157
3637.057, 4.010862
3638.986, 1.255514
3640.914, 15.98199
3642.843, -9.429630
3644.771, -13.60633
3646.699, -3.951393
3648.628, 0.9401650
3650.556, 14.87310
3652.485, -3.120866
3654.413, 20.79660
3656.342, 9.200587
3658.270, -14.71353
3660.199, -10.52307
3662.127, 22.45356
3664.056, 5.314771
3665.984, 18.78097
3667.913, 14.89399
3669.841, 17.27849
3671.770, 24.23380
3673.698, 18.77004
3675.626, 9.991562
3677.555, 18.03688
3679.483, -1.124058
3681.412, 3.727229
3683.340, 10.81523
3685.269, 1.451221
3687.197, -6.766888
3689.126, -16.82897
3691.054, -24.20760
3692.983, -20.11121
3694.911, -21.42653
3696.840, -15.10728
3698.768, 4.756712
3700.697, 2.494081
3702.625, 0.9743760
3704.553, -15.82897
3706.482, -20.92407
3708.410, -38.71906
3710.339, -43.72371
3712.267, -3.255162
3714.196, 7.351673
3716.124, -5.518841
3718.053, 25.96423
3719.981, 21.88697
3721.910, 0.3149820
3723.838, -4.819345
3725.767, -4.5335378E-02
3727.695, -8.796769
3729.624, 15.97943
3731.552, -1.769495
3733.480, -7.336962
3735.409, 7.861998
3737.337, 20.97618
3739.266, 19.82610
3741.194, 24.96811
3743.123, 2.317439
3745.051, 0.1773247
3746.980, -6.309898
3748.908, -14.81386
3750.837, -15.71430
3752.765, -7.423614
3754.694, 18.78607
3756.622, 13.98348
3758.551, 2.371183
3760.479, -22.08445
3762.407, -12.29184
3764.336, -4.135894
3766.264, -35.80133
3768.193, 12.78899
3770.121, -19.20194
3772.050, -26.20682
3773.978, -25.71515
3775.907, -17.05388
3777.835, -16.80882
3779.764, -28.86578
3781.692, -19.49632
3783.621, 10.13031
3785.549, -13.14430
3787.478, -21.75971
3789.406, -16.34224
3791.334, 2.153935
3793.263, 7.101375
3795.191, -19.32880
3797.120, 21.14482
3799.048, -0.1597472
3800.977, -36.97732
3802.905, -23.57846
3804.834, -12.14204
3806.762, -16.11431
3808.691, -18.56971
3810.619, -19.63504
3812.548, 9.9907015E-03
3814.476, 14.47347
3816.405, 35.46949
3818.333, 21.03254
3820.261, -0.2183052
3822.190, 10.59430
3824.118, 34.08585
3826.047, 15.63531
3827.975, 20.18529
3829.904, -16.82391
3831.832, 3.396008
3833.761, 8.536993
3835.689, -3.562703
3837.618, -1.160097
3839.546, 0.7412810
3841.475, -29.75521
3843.403, 26.42728
3845.332, 9.286092
3847.260, 10.55446
3849.188, -25.06265
3851.117, -20.96630
3853.045, -9.859466
3854.974, -21.59810
3856.902, -8.195945
3858.831, -4.245725
3860.759, -36.04392
3862.688, -45.18055
3864.616, -10.12151
3866.545, -6.733823
3868.473, -7.689617
3870.402, -0.2382818
3872.330, 0.1708536
3874.259, 20.71314
3876.187, 5.502887
3878.115, -9.117075
3880.044, -28.87073
3881.972, -12.02979
3883.901, -3.239609
3885.829, -1.613000
3887.758, 11.19724
3889.686, 27.03071
3891.615, 29.19840
3893.543, -10.79883
3895.472, -10.36398
3897.400, -2.499480
3899.329, -11.40155
3901.257, -7.649872
3903.186, 15.48610
3905.114, 30.32454
3907.042, 22.98104
3908.971, 17.84175
3910.899, -22.45552
3912.828, -10.19570
3914.756, -4.846991
3916.685, -2.043771
3918.613, -6.107650
3920.542, -3.910712
3922.470, 0.5591689
3924.399, 0.1330186
3926.327, 4.874800
3928.256, -45.94733
3930.184, 5.979859
3932.113, -18.43855
3934.041, -15.58107
3935.969, -18.52702
3937.898, -19.97699
3939.826, -16.43227
3941.755, -8.278263
3943.683, 5.333742
3945.612, 0.5035329
3947.540, -4.579518
3949.469, -20.55649
3951.397, 6.845029
3953.326, -15.53655
3955.254, -18.45766
3957.183, -14.81520
3959.111, -3.576841
3961.040, 11.44500
3962.968, 5.064293
3964.896, -3.805192
3966.825, -2.326235
3968.753, 3.6049519E-02
3970.682, -3.161109
3972.610, -5.957281
3974.539, 1.977672
3976.467, 30.87249
3978.396, 33.77960
3980.324, 0.9871981
3982.253, -7.142077
3984.181, 28.11476
3986.110, -25.20720
3988.038, 0.1777429
3989.967, -20.39453
3991.895, -9.026074
3993.823, 26.82542
3995.752, 11.24232
3997.680, -2.713232
3999.609, -8.478647
4001.537, -18.76594
4003.466, -17.47442
4005.394, -5.493715
4007.323, -11.71029
4009.251, -5.875878
4011.180, -20.58582
4013.108, 0.6134212
4015.037, 4.730189
4016.965, 5.341918
4018.894, 1.276870
4020.822, -17.48877
4022.750, -24.49022
4024.679, -18.94969
4026.607, -14.68928
4028.536, 7.708195
4030.464, 1.994497
4032.393, 15.22667
4034.321, -15.51018
4036.250, -1.883998
4038.178, -4.932971
4040.107, 14.48512
4042.035, -0.2959881
4043.964, -13.22120
4045.892, -1.082416
4047.821, 1.054631
4049.749, -14.11251
4051.677, -6.362616
4053.606, 30.06815
4055.534, 23.23575
4057.463, -30.85394
4059.391, -11.56189
4061.320, -4.880136
4063.248, -1.502074
4065.177, -9.342449
4067.105, -9.303802
4069.034, -7.801457
4070.962, 6.722473
4072.891, 13.56444
4074.819, -8.211143
4076.748, -22.71998
4078.676, -18.28426
4080.604, -6.034038
4082.533, -33.17680
4084.461, 2.526910
4086.390, -10.70632
4088.318, -14.23108
4090.247, -17.33783
4092.175, -25.08714
4094.104, 5.348473
4096.032, -0.3143217
4097.961, -14.65992
4099.889, -9.968855
4101.818, -2.289170
4103.746, 6.304878
4105.675, -19.25745
4107.603, -17.17957
4109.532, 9.129654
4111.460, -21.66075
4113.389, 1.219266
4115.317, -7.214797
4117.246, 3.113328
4119.174, -11.22240
4121.103, 8.802196
4123.031, 11.10920
4124.959, 20.70115
4126.888, 2.083387
4128.816, -3.246267
4130.745, 15.98751
4132.673, -5.361350
4134.602, -24.28343
4136.530, 3.459899
4138.458, -8.247257
4140.387, -6.375367
4142.315, -16.73822
4144.244, 1.660676
4146.172, -21.13127
4148.101, -6.380710
4150.029, -0.9190966
4151.958, -23.44837
4153.886, -22.95362
4155.815, -21.40745
4157.743, -11.19941
4159.672, 17.27320
4161.600, -12.80325
4163.529, -42.10705
4165.457, -14.40485
4167.386, 8.095323
4169.314, 8.453456
4171.243, -21.69256
4173.171, 3.197094
4175.100, 5.978855
4177.028, 26.49061
4178.957, -20.41308
4180.885, 1.037149
4182.813, 1.462728
4184.742, -10.53611
4186.670, 22.51786
4188.599, 6.208650
4190.527, -15.86698
4192.456, -4.780559
4194.384, 21.56449
4196.313, 17.65542
4198.241, 2.634438
4200.169, -12.39136
4202.098, -8.700729
4204.026, 4.511731
4205.955, -2.206864
4207.883, -4.341157
4209.812, 11.30118
4211.740, 9.531615
4213.669, 0.8437350
4215.597, -6.355876
4217.526, -31.21694
4219.454, 3.041939
4221.383, -9.506495
4223.311, -13.42735
4225.240, -4.735096
4227.168, 12.73543
4229.097, -8.623051
4231.025, 9.907537
4232.954, -15.61831
4234.882, -37.22496
4236.811, -13.99219
4238.739, -23.07284
4240.667, 2.689666
4242.596, 13.87244
4244.524, 4.099298
4246.453, -16.64281
4248.381, -26.59084
4250.310, 13.95855
4252.238, 5.419934
4254.167, -22.68195
4256.095, -5.957180
4258.023, 0.2430522
4259.952, 19.22390
4261.880, 22.37947
4263.809, 8.001043
4265.737, -3.159957
4267.666, -33.81250
4269.594, -31.80502
4271.523, -31.82893
4273.451, 8.058731
4275.380, 6.802735
4277.308, 3.8161411E-04
4279.237, 10.63677
4281.165, 2.134341
4283.094, -23.89931
4285.022, -23.54851
4286.951, -8.953805
4288.879, -2.674215
4290.808, -3.043817
4292.736, -13.11163
4294.665, -18.45088
4296.593, -3.468328
4298.521, -33.14248
4300.450, -46.38884
4302.378, -0.5493911
4304.307, 12.88821
4306.235, -19.06007
##END=



