##NAMES=Tennantite-(Fe)
##RRUFFID=R110024
##IDEAL CHEMISTRY=Cu_6_(Cu_4_Fe_2_)As_4_S_13_
##LOCALITY=Quiruvilca, La Libertad Department, Peru
##OWNER=RRUFF
##SOURCE=William Pinch
##DESCRIPTION=Black metallic tetrahedral crystals associated with pinkish grey famatinite, R110022, on pyrite
##STATUS=The identification of this mineral has been confirmed only by single crystal X-ray diffraction
##URL=https://www.rruff.net/odr/rruff_sample/R110024
##DIFFRACTION SAMPLE DESCRIPTION=Single crystal, powder profile is calculated
##CELL PARAMETERS=a: 10.238 b: 10.238 c: 10.238 alpha: 90 beta: 90 gamma: 90 volume: 1073 crystal system: cubic
##FILETYPE=Raman RAW
##RAMAN WAVELENGTH=532

163.6683, 8.377470
165.5968, 8.115477
167.5252, 8.628907
169.4537, 10.70713
171.3822, 13.04170
173.3106, 14.44971
175.2391, 14.35386
177.1676, 14.35487
179.0960, 14.83275
181.0245, 15.42259
182.9530, 15.55131
184.8814, 15.14960
186.8099, 14.46729
188.7384, 13.71720
190.6668, 12.58256
192.5953, 11.73381
194.5238, 11.32638
196.4522, 11.26658
198.3807, 11.22029
200.3092, 11.21967
202.2376, 11.18003
204.1661, 10.98242
206.0946, 10.42198
208.0230, 10.04766
209.9515, 10.09224
211.8800, 10.51320
213.8084, 10.83415
215.7369, 11.08492
217.6654, 11.19207
219.5938, 11.05922
221.5223, 10.57314
223.4508, 10.23178
225.3792, 10.20784
227.3077, 10.50227
229.2362, 10.65703
231.1646, 10.45533
233.0931, 10.28728
235.0216, 10.40640
236.9500, 10.97560
238.8785, 11.48350
240.8070, 11.77535
242.7354, 11.90943
244.6639, 12.19571
246.5924, 12.79297
248.5208, 13.34765
250.4493, 13.72028
252.3778, 13.71765
254.3062, 13.81605
256.2347, 14.00928
258.1632, 14.26025
260.0916, 14.52380
262.0201, 14.87587
263.9486, 15.16919
265.8770, 15.37388
267.8055, 15.47303
269.7340, 15.64212
271.6624, 15.74806
273.5909, 15.89098
275.5194, 16.29347
277.4478, 17.23432
279.3763, 18.19721
281.3048, 18.98661
283.2332, 19.61580
285.1617, 20.40627
287.0902, 21.63807
289.0186, 22.99728
290.9471, 24.09229
292.8756, 24.61231
294.8040, 25.18511
296.7325, 26.09905
298.6610, 27.31884
300.5894, 28.52144
302.5179, 29.50198
304.4464, 30.38919
306.3748, 31.35472
308.3033, 32.51478
310.2318, 33.43644
312.1602, 33.97806
314.0887, 34.20378
316.0172, 34.24075
317.9456, 33.91172
319.8741, 33.48752
321.8026, 33.15805
323.7310, 32.96188
325.6595, 33.06560
327.5880, 33.40284
329.5164, 33.82020
331.4449, 34.20924
333.3734, 34.83275
335.3018, 35.33667
337.2303, 35.45388
339.1588, 35.17063
341.0872, 35.14466
343.0157, 35.51793
344.9442, 35.89859
346.8727, 35.96212
348.8011, 35.69519
350.7296, 35.29336
352.6581, 34.76553
354.5865, 34.23338
356.5150, 34.12119
358.4435, 34.51227
360.3719, 35.16082
362.3004, 35.91991
364.2289, 36.72366
366.1573, 37.79081
368.0858, 39.23230
370.0143, 41.13607
371.9427, 43.79340
373.8712, 47.39998
375.7997, 50.05413
377.7281, 51.43189
379.6566, 51.78884
381.5851, 51.22248
383.5135, 49.15332
385.4420, 46.16570
387.3705, 42.25338
389.2989, 37.44469
391.2274, 32.66035
393.1559, 28.18002
395.0843, 24.18151
397.0128, 20.80938
398.9413, 18.62937
400.8697, 16.92165
402.7982, 15.47964
404.7267, 14.18330
406.6551, 13.24971
408.5836, 12.81739
410.5121, 12.59620
412.4405, 12.47802
414.3690, 12.26109
416.2975, 12.01607
418.2259, 11.97867
420.1544, 12.12971
422.0829, 12.32666
424.0113, 12.48301
425.9398, 12.42278
427.8683, 12.00187
429.7967, 11.44735
431.7252, 11.20122
433.6537, 11.36694
435.5821, 11.51777
437.5106, 11.43637
439.4391, 10.92013
441.3675, 10.56441
443.2960, 10.56287
445.2245, 10.74205
447.1529, 10.81733
449.0814, 10.77316
451.0099, 10.79290
452.9383, 10.90676
454.8668, 10.95843
456.7953, 10.89897
458.7237, 10.87314
460.6522, 10.90384
462.5807, 10.96213
464.5091, 10.93964
466.4376, 10.96739
468.3661, 11.08932
470.2945, 11.13502
472.2230, 10.89032
474.1515, 10.48598
476.0799, 10.22601
478.0084, 10.20311
479.9369, 10.28160
481.8653, 10.28314
483.7938, 10.18222
485.7223, 10.09348
487.6507, 10.07243
489.5792, 10.05177
491.5077, 10.00908
493.4361, 10.05023
495.3646, 10.12205
497.2931, 10.17131
499.2215, 10.04879
501.1500, 9.912559
503.0785, 9.745529
505.0069, 9.706759
506.9354, 9.851460
508.8639, 10.28233
510.7923, 10.55268
512.7208, 10.51498
514.6493, 10.25741
516.5778, 10.07416
518.5062, 9.979542
520.4347, 10.00060
522.3632, 10.19972
524.2916, 10.56771
526.2201, 10.70743
528.1486, 10.57685
530.0770, 10.43205
532.0055, 10.43629
533.9340, 10.39589
535.8624, 10.28528
537.7909, 10.06007
539.7194, 9.854981
541.6478, 9.701619
543.5763, 9.740785
545.5048, 9.873068
547.4332, 10.18389
549.3617, 10.45450
551.2902, 10.57466
553.2186, 10.43758
555.1471, 10.36073
557.0756, 10.44861
559.0040, 10.62224
560.9325, 10.75539
562.8610, 10.82616
564.7894, 10.88308
566.7179, 10.94432
568.6464, 11.05936
570.5748, 11.12127
572.5033, 11.10783
574.4318, 11.05392
576.3602, 10.96038
578.2887, 10.80409
580.2172, 10.76108
582.1456, 10.95329
584.0741, 11.24405
586.0026, 11.46801
587.9310, 11.57536
589.8595, 11.71374
591.7880, 11.99941
593.7164, 12.28884
595.6449, 12.37677
597.5734, 12.06270
599.5018, 11.82637
601.4303, 11.84382
603.3588, 12.13751
605.2872, 12.32148
607.2157, 12.23006
609.1442, 12.15775
611.0726, 12.30742
613.0011, 12.70988
614.9296, 12.95168
616.8580, 12.81448
618.7865, 12.63035
620.7150, 12.67356
622.6434, 12.94507
624.5719, 13.10340
626.5004, 12.99693
628.4288, 12.84837
630.3573, 12.81483
632.2858, 13.02315
634.2142, 13.10344
636.1427, 12.82085
638.0712, 12.47358
639.9996, 12.57635
641.9281, 13.35032
643.8566, 13.83778
645.7850, 13.44796
647.7135, 12.60869
649.6420, 12.24866
651.5704, 12.83820
653.4989, 13.38657
655.4274, 13.72023
657.3558, 13.85797
659.2843, 13.89285
661.2128, 13.72209
663.1412, 13.60917
665.0697, 13.68285
666.9982, 13.93450
668.9266, 14.11887
670.8551, 14.26105
672.7836, 14.33519
674.7120, 14.21312
676.6405, 13.92106
678.5690, 13.79713
680.4974, 14.12501
682.4259, 14.45106
684.3544, 14.56867
686.2828, 14.36452
688.2113, 14.20336
690.1398, 14.11744
692.0682, 14.12368
693.9967, 14.04769
695.9252, 13.76783
697.8536, 13.59729
699.7821, 13.76003
701.7106, 14.13089
703.6390, 14.36604
705.5675, 14.33764
707.4960, 14.27948
709.4244, 14.23692
711.3529, 14.23826
713.2814, 14.20642
715.2098, 14.08436
717.1383, 14.04851
719.0668, 14.21431
720.9952, 14.40373
722.9237, 14.49812
724.8522, 14.58347
726.7806, 14.68451
728.7091, 14.79507
730.6376, 14.71507
732.5660, 14.54072
734.4945, 14.21020
736.4230, 14.13240
738.3514, 14.30628
740.2799, 14.45562
742.2084, 14.53923
744.1368, 14.53484
746.0653, 14.58120
747.9938, 14.80481
749.9222, 15.09554
751.8507, 15.22261
753.7792, 15.05587
755.7076, 14.84231
757.6361, 14.58537
759.5646, 14.24058
761.4930, 14.06528
763.4215, 14.17544
765.3500, 14.39523
767.2784, 14.53632
769.2069, 14.53076
771.1354, 14.48030
773.0638, 14.39014
774.9923, 14.36547
776.9208, 14.36826
778.8492, 14.16604
780.7777, 13.99712
782.7062, 13.97367
784.6346, 14.06895
786.5631, 14.01677
788.4916, 13.87759
790.4200, 13.75419
792.3485, 13.53576
794.2770, 13.33107
796.2054, 13.63764
798.1339, 14.51454
800.0624, 14.95426
801.9908, 14.64310
803.9193, 14.22512
805.8478, 14.29253
807.7762, 14.64459
809.7047, 14.88365
811.6332, 14.89983
813.5616, 14.92524
815.4901, 14.91510
817.4186, 14.68151
819.3470, 14.59145
821.2755, 14.84865
823.2040, 15.29849
825.1324, 15.45214
827.0609, 15.24599
828.9894, 15.09807
830.9178, 15.27046
832.8463, 15.50282
834.7748, 15.38080
836.7032, 14.80424
838.6317, 14.35132
840.5602, 14.21209
842.4886, 14.44032
844.4171, 14.90255
846.3456, 15.40554
848.2740, 15.68528
850.2025, 15.53109
852.1310, 15.07576
854.0594, 14.61006
855.9879, 14.71074
857.9164, 15.08391
859.8448, 15.48224
861.7733, 15.58653
863.7018, 15.39917
865.6302, 15.23584
867.5587, 15.31345
869.4872, 15.65794
871.4156, 15.97454
873.3441, 16.14548
875.2726, 16.33989
877.2010, 16.43497
879.1295, 16.22160
881.0580, 15.73223
882.9865, 15.32854
884.9149, 15.49342
886.8434, 15.93087
888.7719, 16.51185
890.7003, 16.89904
892.6288, 16.83969
894.5573, 16.60818
896.4857, 16.58128
898.4142, 16.72630
900.3427, 16.83660
902.2711, 16.78394
904.1996, 16.58863
906.1281, 16.70757
908.0565, 17.16667
909.9850, 17.62693
911.9135, 17.63355
913.8419, 17.61114
915.7704, 17.63434
917.6989, 17.30566
919.6273, 16.88391
921.5558, 16.81595
923.4843, 17.25714
925.4127, 17.61444
927.3412, 17.84232
929.2697, 17.94642
931.1981, 17.90552
933.1266, 17.62836
935.0551, 17.49211
936.9835, 17.74433
938.9120, 18.18355
940.8405, 18.41114
942.7689, 18.15766
944.6974, 17.59625
946.6259, 17.22037
948.5543, 17.36484
950.4828, 17.92065
952.4113, 18.66125
954.3397, 18.85714
956.2682, 18.69473
958.1967, 18.46866
960.1251, 18.39395
962.0536, 18.52564
963.9821, 18.74183
965.9105, 18.88302
967.8390, 18.96042
969.7675, 18.89276
971.6959, 18.63430
973.6244, 18.31811
975.5529, 18.24894
977.4813, 18.50137
979.4098, 18.96785
981.3383, 19.49638
983.2667, 19.70931
985.1952, 19.42470
987.1237, 19.00010
989.0521, 18.79189
990.9806, 19.01077
992.9091, 19.44910
994.8375, 19.86632
996.7660, 19.68482
998.6945, 19.42317
1000.623, 19.45322
1002.551, 19.64952
1004.480, 19.80975
1006.408, 19.83109
1008.337, 19.80724
1010.265, 19.74800
1012.194, 19.76897
1014.122, 19.87116
1016.051, 19.87896
1017.979, 19.66345
1019.908, 19.70389
1021.836, 19.96190
1023.765, 20.27096
1025.693, 20.37454
1027.621, 20.47100
1029.550, 20.90050
1031.478, 21.17864
1033.407, 21.06151
1035.335, 20.83158
1037.264, 20.71049
1039.192, 20.61843
1041.121, 20.50497
1043.049, 20.57686
1044.978, 20.73479
1046.906, 20.89782
1048.835, 20.90028
1050.763, 20.82430
1052.692, 20.89050
1054.620, 20.95768
1056.548, 20.93132
1058.477, 20.97808
1060.405, 21.30293
1062.334, 21.59342
1064.262, 21.82859
1066.191, 22.05282
1068.119, 22.16203
1070.048, 22.03272
1071.976, 21.94726
1073.905, 21.95745
1075.833, 21.94897
1077.762, 21.92074
1079.690, 21.85971
1081.619, 21.84527
1083.547, 22.01048
1085.475, 22.27984
1087.404, 22.37531
1089.332, 22.16976
1091.261, 22.06357
1093.189, 22.25112
1095.118, 22.42813
1097.046, 22.34877
1098.975, 22.09720
1100.903, 22.11363
1102.832, 22.65999
1104.760, 23.09756
1106.689, 23.06962
1108.617, 22.74780
1110.546, 22.59513
1112.474, 22.70630
1114.402, 23.01978
1116.331, 23.60509
1118.259, 23.87907
1120.188, 23.77940
1122.116, 23.42829
1124.045, 23.35716
1125.973, 23.67523
1127.902, 23.96012
1129.830, 24.05673
1131.759, 23.99814
1133.687, 24.02499
1135.616, 24.24534
1137.544, 24.42854
1139.473, 24.44938
1141.401, 24.36843
1143.329, 24.30479
1145.258, 24.18836
1147.186, 24.24352
1149.115, 24.77454
1151.043, 25.23616
1152.972, 25.07711
1154.900, 24.36839
1156.829, 23.97169
1158.757, 24.00442
1160.686, 24.19544
1162.614, 24.65205
1164.543, 25.15848
1166.471, 25.26876
1168.400, 24.74777
1170.328, 24.50632
1172.256, 25.00634
1174.185, 25.66857
1176.113, 25.98615
1178.042, 25.87056
1179.970, 25.71733
1181.899, 25.41307
1183.827, 25.24105
1185.756, 25.34508
1187.684, 25.57511
1189.613, 25.67881
1191.541, 25.62453
1193.470, 25.57880
1195.398, 25.58137
1197.327, 25.61709
1199.255, 25.62984
1201.183, 25.61268
1203.112, 25.78573
1205.040, 26.48821
1206.969, 26.98899
1208.897, 26.92684
1210.826, 26.46496
1212.754, 26.07891
1214.683, 25.79839
1216.611, 25.56125
1218.540, 25.30330
1220.468, 25.14386
1222.397, 25.21244
1224.325, 25.50822
1226.254, 25.85307
1228.182, 26.28407
1230.110, 26.65912
1232.039, 26.94211
1233.967, 27.12519
1235.896, 27.13899
1237.824, 26.90411
1239.753, 26.70985
1241.681, 26.60798
1243.610, 26.64856
1245.538, 26.82223
1247.467, 27.05221
1249.395, 27.24747
1251.324, 27.49563
1253.252, 27.61942
1255.181, 27.49704
1257.109, 27.27079
1259.037, 27.11801
1260.966, 27.08153
1262.894, 27.09084
1264.823, 27.09083
1266.751, 27.11758
1268.680, 27.18742
1270.608, 27.35473
1272.537, 27.68832
1274.465, 28.27682
1276.394, 28.69669
1278.322, 28.73994
1280.251, 28.67147
1282.179, 28.68975
1284.108, 28.79955
1286.036, 28.65325
1287.964, 27.82866
1289.893, 27.36199
1291.821, 27.72498
1293.750, 28.38364
1295.678, 28.75328
1297.607, 28.82593
1299.535, 28.86347
1301.464, 28.87977
1303.392, 28.90184
1305.321, 28.90048
1307.249, 28.85923
1309.178, 28.93158
1311.106, 29.19711
1313.035, 29.38510
1314.963, 29.35750
1316.891, 29.30338
1318.820, 29.35728
1320.748, 29.36183
1322.677, 29.30810
1324.605, 29.31446
1326.534, 29.29644
1328.462, 29.02983
1330.391, 28.80156
1332.319, 29.08978
1334.248, 30.05136
1336.176, 30.31758
1338.105, 29.36711
1340.033, 28.67851
1341.962, 28.87169
1343.890, 29.43107
1345.818, 29.66184
1347.747, 29.65433
1349.675, 29.56718
1351.604, 29.12858
1353.532, 28.84424
1355.461, 29.17795
1357.389, 29.85104
1359.318, 30.11913
1361.246, 29.87483
1363.175, 29.91054
1365.103, 30.67044
1367.032, 31.34395
1368.960, 31.41002
1370.889, 31.09398
1372.817, 31.04282
1374.745, 31.28914
1376.674, 31.28758
1378.602, 30.92995
1380.531, 30.63983
1382.459, 30.62833
1384.388, 30.71073
1386.316, 30.66902
1388.245, 30.27185
1390.173, 30.09934
1392.102, 30.51155
1394.030, 31.10305
1395.959, 31.39849
1397.887, 31.25102
1399.816, 31.14057
1401.744, 31.15227
1403.672, 31.16210
1405.601, 31.09318
1407.529, 31.05406
1409.458, 31.16520
1411.386, 31.33666
1413.315, 31.54067
1415.243, 32.03490
1417.172, 32.47008
1419.100, 32.47024
1421.029, 32.27642
1422.957, 32.35108
1424.886, 32.75390
1426.814, 32.82468
1428.743, 32.11469
1430.671, 31.58766
1432.599, 31.79391
1434.528, 32.28946
1436.456, 32.43421
1438.385, 32.09061
1440.313, 31.98576
1442.242, 32.32515
1444.170, 32.61334
1446.099, 32.79593
1448.027, 32.86010
1449.956, 32.73468
1451.884, 32.31034
1453.813, 31.92371
1455.741, 31.72283
1457.670, 31.68779
1459.598, 31.84148
1461.526, 32.01307
1463.455, 32.00007
1465.383, 31.77530
1467.312, 31.74803
1469.240, 32.24549
1471.169, 32.53385
1473.097, 31.99708
1475.026, 31.34873
1476.954, 31.57290
1478.883, 32.54441
1480.811, 32.90123
1482.740, 32.07029
1484.668, 31.40329
1486.597, 31.75962
1488.525, 32.46454
1490.453, 32.88536
1492.382, 32.98833
1494.310, 32.98510
1496.239, 32.88471
1498.167, 32.79765
1500.096, 32.69489
1502.024, 32.60265
1503.953, 32.53354
1505.881, 32.53736
1507.810, 32.79407
1509.738, 33.45526
1511.667, 33.68059
1513.595, 33.15942
1515.524, 32.69180
1517.452, 32.67496
1519.380, 32.95426
1521.309, 33.11816
1523.237, 33.01634
1525.166, 33.06173
1527.094, 33.60808
1529.023, 34.05704
1530.951, 34.04553
1532.880, 33.70980
1534.808, 33.33479
1536.737, 32.89388
1538.665, 32.70359
1540.594, 32.80870
1542.522, 32.99360
1544.451, 33.47074
1546.379, 33.94378
1548.307, 33.88068
1550.236, 33.20988
1552.164, 32.79772
1554.093, 32.86044
1556.021, 32.88763
1557.950, 32.65352
1559.878, 32.44346
1561.807, 32.55599
1563.735, 32.92504
1565.664, 33.15970
1567.592, 33.20255
1569.521, 33.11901
1571.449, 32.85871
1573.378, 32.58167
1575.306, 32.35199
1577.234, 32.24474
1579.163, 32.37022
1581.091, 32.73176
1583.020, 33.09974
1584.948, 33.55495
1586.877, 33.76031
1588.805, 33.28428
1590.734, 32.75908
1592.662, 32.84934
1594.591, 33.41859
1596.519, 33.71437
1598.448, 33.63932
1600.376, 33.45744
1602.305, 33.03347
1604.233, 32.80626
1606.161, 33.10415
1608.090, 33.68460
1610.018, 34.12690
1611.947, 34.46648
1613.875, 34.41798
1615.804, 33.62034
1617.732, 32.94650
1619.661, 32.78531
1621.589, 32.90937
1623.518, 33.15077
1625.446, 33.49602
1627.375, 33.79006
1629.303, 34.08306
1631.232, 34.16096
1633.160, 33.65684
1635.089, 33.24850
1637.017, 33.43158
1638.945, 33.92007
1640.874, 34.07820
1642.802, 33.87339
1644.731, 33.54396
1646.659, 32.95056
1648.588, 32.50663
1650.516, 32.29330
1652.445, 32.29918
1654.373, 32.63474
1656.302, 33.22808
1658.230, 33.51506
1660.159, 33.34771
1662.087, 33.28211
1664.016, 33.50675
1665.944, 33.70198
1667.872, 33.69712
1669.801, 33.62913
1671.729, 33.79265
1673.658, 34.25428
1675.586, 34.05159
1677.515, 32.53330
1679.443, 31.62329
1681.372, 31.95221
1683.300, 32.58111
1685.229, 33.18651
1687.157, 33.66891
1689.086, 33.77686
1691.014, 33.42451
1692.943, 33.11160
1694.871, 32.84496
1696.799, 32.62395
1698.728, 32.34856
1700.656, 32.21535
1702.585, 32.53888
1704.513, 33.11380
1706.442, 33.17536
1708.370, 32.44449
1710.299, 32.24577
1712.227, 33.18418
1714.156, 33.90707
1716.084, 34.06064
1718.013, 33.89021
1719.941, 33.46954
1721.870, 32.88037
1723.798, 32.50016
1725.726, 32.31921
1727.655, 32.39412
1729.583, 33.05649
1731.512, 33.52976
1733.440, 33.46946
1735.369, 33.24074
1737.297, 33.20989
1739.226, 33.31875
1741.154, 33.16093
1743.083, 32.57470
1745.011, 32.30904
1746.940, 32.70368
1748.868, 33.04750
1750.797, 33.11120
1752.725, 33.03354
1754.653, 32.84906
1756.582, 32.61020
1758.510, 32.69855
1760.439, 33.28189
1762.367, 33.39657
1764.296, 32.56681
1766.224, 31.86392
1768.153, 31.65167
1770.081, 31.69355
1772.010, 31.90182
1773.938, 32.20961
1775.867, 32.33003
1777.795, 32.23092
1779.724, 32.20409
1781.652, 32.35883
1783.580, 32.43117
1785.509, 32.20241
1787.437, 31.98348
1789.366, 32.00244
1791.294, 32.18515
1793.223, 32.45739
1795.151, 32.82580
1797.080, 32.71125
1799.008, 31.76589
1800.937, 31.13394
1802.865, 31.54027
1804.794, 31.91005
1806.722, 31.30201
1808.651, 30.36905
1810.579, 30.13423
1812.507, 30.52856
1814.436, 30.84439
1816.364, 31.04027
1818.293, 31.09462
1820.221, 30.81550
1822.150, 30.65983
1824.078, 31.03045
1826.007, 31.51868
1827.935, 31.68776
1829.864, 31.58251
1831.792, 31.30593
1833.721, 30.79157
1835.649, 30.53842
1837.578, 30.68652
1839.506, 30.98081
1841.434, 31.64755
1843.363, 32.12541
1845.291, 31.73980
1847.220, 30.90663
1849.148, 30.61885
1851.077, 30.95882
1853.005, 31.12854
1854.934, 31.04325
1856.862, 30.93729
1858.791, 30.84916
1860.719, 30.73570
1862.648, 30.45894
1864.576, 30.23156
1866.505, 30.43341
1868.433, 30.96208
1870.361, 31.08190
1872.290, 30.41537
1874.218, 30.26135
1876.147, 31.22737
1878.075, 31.83137
1880.004, 31.49819
1881.932, 31.02703
1883.861, 31.01011
1885.789, 31.15055
1887.718, 30.78292
1889.646, 29.90844
1891.575, 29.81409
1893.503, 30.89406
1895.432, 31.35303
1897.360, 30.51532
1899.288, 29.71012
1901.217, 29.35891
1903.145, 29.31555
1905.074, 29.72887
1907.002, 30.28553
1908.931, 30.25969
1910.859, 29.68801
1912.788, 29.19197
1914.716, 28.78585
1916.645, 28.58439
1918.573, 28.70798
1920.502, 28.87389
1922.430, 29.01012
1924.359, 29.08296
1926.287, 29.05432
1928.215, 28.94577
1930.144, 28.72397
1932.072, 28.37314
1934.001, 28.45939
1935.929, 29.32176
1937.858, 29.89384
1939.786, 29.97226
1941.715, 29.82470
1943.643, 29.27014
1945.572, 28.79100
1947.500, 29.02751
1949.429, 29.60530
1951.357, 29.51976
1953.286, 28.67118
1955.214, 28.18934
1957.143, 28.20789
1959.071, 28.27550
1961.000, 28.34302
1962.928, 28.46306
1964.856, 28.74726
1966.785, 28.99466
1968.713, 29.15744
1970.642, 29.14368
1972.570, 28.59159
1974.499, 27.63141
1976.427, 27.30019
1978.356, 27.74855
1980.284, 28.05047
1982.213, 28.01115
1984.141, 27.91278
1986.070, 27.72523
1987.998, 27.65311
1989.927, 28.07690
1991.855, 28.50313
1993.783, 28.09199
1995.712, 27.10987
1997.640, 26.79808
1999.569, 27.33194
2001.497, 27.65844
2003.426, 27.65929
2005.354, 27.63495
2007.283, 27.52287
2009.211, 27.50708
2011.140, 27.77281
2013.068, 28.04850
2014.997, 28.11017
2016.925, 28.01759
2018.854, 27.87796
2020.782, 27.69414
2022.710, 27.47073
2024.639, 27.16507
2026.567, 27.11793
2028.496, 27.51007
2030.424, 27.80692
2032.353, 27.79194
2034.281, 27.71614
2036.210, 27.75588
2038.138, 27.77081
2040.067, 27.54639
2041.995, 27.20885
2043.924, 27.11839
2045.852, 27.27140
2047.781, 27.16496
2049.709, 26.57242
2051.637, 26.32679
2053.566, 26.77583
2055.494, 27.13581
2057.423, 27.31593
2059.351, 27.27463
2061.280, 26.82764
2063.208, 26.29088
2065.137, 25.96751
2067.065, 25.83570
2068.994, 25.87085
2070.922, 26.06478
2072.851, 26.19111
2074.779, 26.21086
2076.708, 26.36080
2078.636, 26.80525
2080.564, 27.02481
2082.493, 26.74163
2084.421, 26.34819
2086.350, 25.91271
2088.278, 25.59891
2090.207, 25.70719
2092.135, 25.98951
2094.064, 25.89611
2095.992, 25.46257
2097.921, 25.18268
2099.849, 25.09262
2101.778, 25.03521
2103.706, 24.97457
2105.635, 25.00320
2107.563, 25.24958
2109.491, 25.42205
2111.420, 25.31666
2113.348, 25.23849
2115.277, 25.43926
2117.205, 25.74468
2119.134, 25.99762
2121.062, 26.16005
2122.991, 26.05894
2124.919, 25.71026
2126.848, 25.53062
2128.776, 25.60245
2130.705, 25.58159
2132.633, 25.27160
2134.562, 25.10551
2136.490, 25.39368
2138.418, 25.53540
2140.347, 24.99657
2142.275, 24.49747
2144.204, 24.80988
2146.132, 25.41453
2148.061, 25.49539
2149.989, 25.15762
2151.918, 24.73846
2153.846, 24.26005
2155.775, 24.39794
2157.703, 25.36997
2159.632, 25.70326
2161.560, 24.77756
2163.489, 24.12369
2165.417, 24.37535
2167.345, 24.71652
2169.274, 24.86810
2171.202, 24.91469
2173.131, 24.91604
2175.059, 24.85803
2176.988, 24.66418
2178.916, 24.40615
2180.845, 24.33484
2182.773, 24.44491
2184.702, 24.47659
2186.630, 24.40933
2188.559, 24.42354
2190.487, 24.59894
2192.416, 24.60424
2194.344, 24.22074
2196.272, 23.93220
2198.201, 23.92774
2200.129, 24.05832
2202.058, 24.40075
2203.986, 24.68492
2205.915, 24.61682
2207.843, 24.33548
2209.772, 23.99599
2211.700, 23.65204
2213.629, 23.59861
2215.557, 23.83864
2217.486, 24.01755
2219.414, 24.11274
2221.343, 24.26879
2223.271, 24.57626
2225.199, 24.67975
2227.128, 24.37976
2229.056, 24.06839
2230.985, 23.77502
2232.913, 23.65125
2234.842, 23.99949
2236.770, 24.33394
2238.699, 24.09184
2240.627, 23.63405
2242.556, 23.54754
2244.484, 23.71656
2246.413, 23.73697
2248.341, 23.62336
2250.270, 23.51411
2252.198, 23.40943
2254.126, 23.45066
2256.055, 23.70470
2257.983, 23.85729
2259.912, 23.75148
2261.840, 23.72687
2263.769, 24.03638
2265.697, 24.19699
2267.626, 23.96415
2269.554, 23.59762
2271.483, 23.12847
2273.411, 22.73654
2275.340, 22.59938
2277.268, 22.66144
2279.197, 23.06216
2281.125, 23.52938
2283.053, 23.02485
2284.982, 21.73461
2286.910, 21.45559
2288.839, 22.43035
2290.767, 22.99827
2292.696, 22.82346
2294.624, 22.79214
2296.553, 23.16535
2298.481, 23.26425
2300.410, 22.71860
2302.338, 22.36802
2304.267, 22.62797
2306.195, 22.90629
2308.124, 22.92548
2310.052, 22.81316
2311.980, 22.56052
2313.909, 22.32135
2315.837, 22.37893
2317.766, 22.52659
2319.694, 22.21325
2321.623, 21.62234
2323.551, 21.62201
2325.480, 22.21903
2327.408, 22.81728
2329.337, 23.43116
2331.265, 23.76465
2333.194, 23.79338
2335.122, 23.50529
2337.051, 22.72221
2338.979, 22.17297
2340.907, 22.17457
2342.836, 22.20712
2344.764, 22.22111
2346.693, 22.12554
2348.621, 21.73679
2350.550, 21.40125
2352.478, 21.42869
2354.407, 21.49689
2356.335, 21.09025
2358.264, 20.74846
2360.192, 21.34791
2362.121, 22.38264
2364.049, 23.00015
2365.978, 23.20557
2367.906, 22.88561
2369.834, 22.07001
2371.763, 21.48959
2373.691, 21.12287
2375.620, 21.21274
2377.548, 21.87302
2379.477, 22.21570
2381.405, 22.10767
2383.334, 21.84983
2385.262, 21.33383
2387.191, 21.11241
2389.119, 21.62734
2391.048, 22.00867
2392.976, 21.83964
2394.905, 21.71390
2396.833, 22.05371
2398.761, 22.30834
2400.690, 22.07721
2402.618, 21.69687
2404.547, 21.41369
2406.475, 21.13965
2408.404, 20.69330
2410.332, 20.25196
2412.261, 20.13318
2414.189, 20.24135
2416.118, 20.37230
2418.046, 20.50739
2419.975, 20.45226
2421.903, 20.23936
2423.832, 20.58081
2425.760, 21.46420
2427.688, 21.78159
2429.617, 21.39370
2431.545, 21.19642
2433.474, 21.44823
2435.402, 21.36434
2437.331, 20.24011
2439.259, 19.92253
2441.188, 21.14865
2443.116, 21.99933
2445.045, 22.05167
2446.973, 21.81711
2448.902, 21.25442
2450.830, 20.81173
2452.759, 20.67509
2454.687, 20.74921
2456.615, 21.34922
2458.544, 21.69651
2460.472, 20.81905
2462.401, 19.85129
2464.329, 19.95100
2466.258, 20.45886
2468.186, 20.78010
2470.115, 20.87229
2472.043, 20.44103
2473.972, 20.74066
2475.900, 20.06146
2477.829, 20.74125
2479.757, 20.93846
2481.686, 20.71276
2483.614, 20.37228
2485.542, 19.95932
2487.471, 20.09058
2489.399, 20.72700
2491.328, 20.84384
2493.256, 20.31732
2495.185, 20.32884
2497.113, 21.34002
2499.042, 21.60229
2500.970, 20.57925
2502.899, 20.29568
2504.827, 21.23016
2506.756, 21.51847
2508.684, 20.58918
2510.613, 19.98216
2512.541, 20.21120
2514.469, 20.50479
2516.398, 20.99195
2518.326, 20.98233
2520.255, 19.66437
2522.183, 18.75174
2524.112, 18.93084
2526.040, 19.44302
2527.969, 20.30629
2529.897, 20.89902
2531.826, 20.74058
2533.754, 20.34335
2535.683, 19.77734
2537.611, 19.43324
2539.540, 19.91819
2541.468, 20.45629
2543.396, 20.10612
2545.325, 19.63485
2547.253, 19.89971
2549.182, 20.45416
2551.110, 20.94587
2553.039, 21.22608
2554.967, 20.76556
2556.896, 20.11392
2558.824, 20.59091
2560.753, 21.60508
2562.681, 21.66291
2564.610, 21.09110
2566.538, 20.64301
2568.467, 20.33560
2570.395, 20.24282
2572.323, 20.30874
2574.252, 20.19605
2576.180, 19.92880
2578.109, 19.78595
2580.037, 19.78090
2581.966, 20.27676
2583.894, 21.17536
2585.823, 20.92694
2587.751, 19.37317
2589.680, 19.00437
2591.608, 20.12165
2593.537, 20.73128
2595.465, 20.77801
2597.394, 20.69743
2599.322, 20.50190
2601.250, 20.17614
2603.179, 19.66156
2605.107, 19.43763
2607.036, 19.63470
2608.964, 19.94707
2610.893, 20.59172
2612.821, 20.60477
2614.750, 19.70202
2616.678, 19.21318
2618.607, 19.36262
2620.535, 19.80855
2622.464, 20.81145
2624.392, 21.31411
2626.321, 20.85114
2628.249, 20.44570
2630.177, 20.17530
2632.106, 19.94690
2634.034, 19.60104
2635.963, 19.80942
2637.891, 19.68442
2639.820, 19.36749
2641.748, 20.17091
2643.677, 19.05059
2645.605, 19.94011
2647.534, 20.58444
2649.462, 20.42784
2651.391, 20.18732
2653.319, 20.01940
2655.248, 19.93498
2657.176, 20.04369
2659.104, 20.06232
2661.033, 19.74715
2662.961, 19.62079
2664.890, 20.00895
2666.818, 20.17066
2668.747, 19.66561
2670.675, 19.23998
2672.604, 19.08650
2674.532, 19.20488
2676.461, 20.03111
2678.389, 20.40911
2680.318, 19.59386
2682.246, 19.09315
2684.175, 19.69428
2686.103, 20.30100
2688.031, 20.58665
2689.960, 20.59716
2691.888, 20.04835
2693.817, 19.72047
2695.745, 20.11017
2697.674, 20.26950
2699.602, 19.57638
2701.531, 19.06957
2703.459, 19.28360
2705.388, 19.61292
2707.316, 19.93746
2709.245, 20.16578
2711.173, 20.22958
2713.102, 20.27427
2715.030, 20.35733
2716.958, 20.42255
2718.887, 20.43581
2720.815, 20.44526
2722.744, 20.62028
2724.672, 20.51642
2726.601, 19.69586
2728.529, 19.29602
2730.458, 19.97571
2732.386, 20.59595
2734.315, 20.75746
2736.243, 20.78628
2738.172, 20.72573
2740.100, 20.61145
2742.029, 20.41517
2743.957, 20.25512
2745.885, 20.18054
2747.814, 20.12150
2749.742, 20.02142
2751.671, 20.00882
2753.599, 20.16817
2755.528, 20.28296
2757.456, 20.33315
2759.385, 20.24509
2761.313, 19.78251
2763.242, 19.71873
2765.170, 20.52378
2767.099, 21.16416
2769.027, 21.61042
2770.956, 21.70704
2772.884, 21.39889
2774.813, 20.85909
2776.741, 19.83683
2778.669, 19.46934
2780.598, 20.13840
2782.526, 20.74836
2784.455, 21.34713
2786.383, 21.17618
2788.312, 20.01162
2790.240, 19.33321
2792.169, 19.42487
2794.097, 19.59445
2796.026, 19.88500
2797.954, 19.87500
2799.883, 20.05132
2801.811, 19.68412
2803.740, 20.32841
2805.668, 20.14386
2807.596, 20.46283
2809.525, 20.42324
2811.453, 20.30017
2813.382, 20.21465
2815.310, 20.01742
2817.239, 19.94896
2819.167, 19.78632
2821.096, 19.68457
2823.024, 19.45816
2824.953, 19.15610
2826.881, 18.90947
2828.810, 19.33084
2830.738, 19.15772
2832.667, 19.89067
2834.595, 19.40143
2836.523, 19.40149
2838.452, 19.60033
2840.380, 19.32403
2842.309, 19.11067
2844.237, 19.93608
2846.166, 20.88920
2848.094, 20.81293
2850.023, 20.41165
2851.951, 20.30998
2853.880, 20.31694
2855.808, 20.38090
2857.737, 20.36478
2859.665, 20.05497
2861.594, 19.80040
2863.522, 19.89314
2865.450, 19.97721
2867.379, 19.89609
2869.307, 19.78513
2871.236, 19.48087
2873.164, 19.52963
2875.093, 20.55569
2877.021, 21.12656
2878.950, 20.80215
2880.878, 20.57016
2882.807, 20.72427
2884.735, 20.75224
2886.664, 20.32297
2888.592, 20.31546
2890.521, 20.91198
2892.449, 20.96120
2894.377, 20.32996
2896.306, 19.75058
2898.234, 19.24940
2900.163, 19.24430
2902.091, 19.75066
2904.020, 20.15136
2905.948, 20.43542
2907.877, 20.48600
2909.805, 20.60743
2911.734, 20.40178
2913.662, 20.49797
2915.591, 20.38708
2917.519, 20.19529
2919.448, 20.18572
2921.376, 20.25915
2923.304, 20.38206
2925.233, 20.40023
2927.161, 19.78762
2929.090, 19.41285
2931.018, 20.47093
2932.947, 21.35342
2934.875, 20.79797
2936.804, 19.97085
2938.732, 19.08343
2940.661, 18.81450
2942.589, 19.72047
2944.518, 20.45626
2946.446, 20.53483
2948.375, 20.41274
2950.303, 20.04099
2952.231, 19.80004
2954.160, 19.73604
2956.088, 19.68399
2958.017, 19.58511
2959.945, 19.82125
2961.874, 20.48115
2963.802, 20.81904
2965.731, 20.86108
2967.659, 20.85731
2969.588, 20.80791
2971.516, 20.61871
2973.445, 20.38377
2975.373, 20.47214
2977.302, 20.65655
2979.230, 20.47909
2981.158, 20.14228
2983.087, 19.66429
2985.015, 19.42101
2986.944, 20.23281
2988.872, 20.79593
2990.801, 19.94124
2992.729, 19.23748
2994.658, 19.86027
2996.586, 20.20203
2998.515, 19.35464
3000.443, 18.95631
3002.372, 19.40979
3004.300, 19.95889
3006.229, 20.68916
3008.157, 20.66796
3010.085, 19.68973
3012.014, 19.37249
3013.942, 19.72055
3015.871, 19.72537
3017.799, 19.45115
3019.728, 19.75845
3021.656, 20.38618
3023.585, 20.39220
3025.513, 20.05282
3027.442, 19.80028
3029.370, 19.57363
3031.299, 19.15451
3033.227, 18.90335
3035.156, 19.26228
3037.084, 19.67629
3039.012, 19.77781
3040.941, 19.93245
3042.869, 20.44624
3044.798, 20.74722
3046.726, 20.72018
3048.655, 20.49408
3050.583, 19.96356
3052.512, 19.74824
3054.440, 19.92408
3056.369, 20.13028
3058.297, 20.33964
3060.226, 20.24462
3062.154, 19.97427
3064.083, 20.15902
3066.011, 20.60462
3067.939, 21.11743
3069.868, 21.28712
3071.796, 20.08582
3073.725, 18.96371
3075.653, 19.56530
3077.582, 20.31308
3079.510, 20.35746
3081.439, 20.35059
3083.367, 20.52255
3085.296, 20.79016
3087.224, 20.79400
3089.153, 20.83783
3091.081, 20.95348
3093.010, 20.73238
3094.938, 20.79623
3096.866, 20.74236
3098.795, 20.58724
3100.723, 20.52773
3102.652, 20.46279
3104.580, 20.03622
3106.509, 19.56556
3108.437, 19.43669
3110.366, 19.65476
3112.294, 20.60818
3114.223, 21.26310
3116.151, 20.75774
3118.080, 20.22818
3120.008, 20.01554
3121.937, 19.90613
3123.865, 19.86057
3125.793, 19.93898
3127.722, 19.94542
3129.650, 20.26563
3131.579, 20.12005
3133.507, 20.16567
3135.436, 20.28057
3137.364, 19.91811
3139.293, 19.38551
3141.221, 19.19980
3143.150, 19.26349
3145.078, 19.55715
3147.007, 19.92713
3148.935, 20.44321
3150.864, 20.67447
3152.792, 20.81425
3154.720, 20.90304
3156.649, 20.66745
3158.577, 20.68638
3160.506, 20.14539
3162.434, 19.78089
3164.363, 19.59324
3166.291, 19.31267
3168.220, 19.39743
3170.148, 19.55261
3172.077, 19.80901
3174.005, 20.32226
3175.934, 20.82471
3177.862, 21.52628
3179.791, 21.83418
3181.719, 21.32515
3183.647, 20.70953
3185.576, 20.01802
3187.504, 19.80337
3189.433, 20.36159
3191.361, 20.24302
3193.290, 19.48984
3195.218, 18.81077
3197.147, 18.38248
3199.075, 19.11910
3201.004, 18.74603
3202.932, 19.73348
3204.861, 19.21000
3206.789, 19.98079
3208.718, 20.62241
3210.646, 20.42570
3212.574, 19.86875
3214.503, 20.19014
3216.431, 20.19510
3218.360, 19.98489
3220.288, 20.45228
3222.217, 20.06217
3224.145, 19.48122
3226.074, 19.00943
3228.002, 19.71168
3229.931, 20.68522
3231.859, 20.70714
3233.788, 20.37983
3235.716, 19.91707
3237.645, 19.56745
3239.573, 19.44100
3241.501, 19.36520
3243.430, 19.28884
3245.358, 19.42910
3247.287, 19.83211
3249.215, 19.66587
3251.144, 19.25852
3253.072, 20.18745
3255.001, 21.41242
3256.929, 21.08138
3258.858, 20.31115
3260.786, 19.78771
3262.715, 19.58431
3264.643, 20.02737
3266.572, 20.21598
3268.500, 19.98767
3270.428, 19.54723
3272.357, 18.90431
3274.285, 19.29360
3276.214, 20.41567
3278.142, 20.67230
3280.071, 20.49731
3281.999, 20.60818
3283.928, 20.61845
3285.856, 19.96490
3287.785, 19.48544
3289.713, 19.56203
3291.642, 19.67431
3293.570, 19.68876
3295.499, 19.80931
3297.427, 20.03144
3299.355, 20.22459
3301.284, 20.37854
3303.212, 20.63209
3305.141, 20.66176
3307.069, 19.68158
3308.998, 18.84196
3310.926, 18.99209
3312.855, 19.42332
3314.783, 20.12316
3316.712, 20.20341
3318.640, 19.32965
3320.569, 19.21119
3322.497, 19.78088
3324.426, 20.50437
3326.354, 20.91789
3328.282, 19.61742
3330.211, 18.31506
3332.139, 18.82081
3334.068, 19.58697
3335.996, 20.28190
3337.925, 20.36968
3339.853, 19.59322
3341.782, 19.37979
3343.710, 19.73524
3345.639, 19.96799
3347.567, 20.04250
3349.496, 19.82069
3351.424, 19.50049
3353.353, 19.12417
3355.281, 18.99772
3357.209, 19.54107
3359.138, 19.82771
3361.066, 19.68308
3362.995, 19.38863
3364.923, 18.97749
3366.852, 19.17761
3368.780, 19.59811
3370.709, 18.95550
3372.637, 19.57840
3374.566, 19.20444
3376.494, 20.09325
3378.423, 20.36568
3380.351, 20.31363
3382.280, 19.93443
3384.208, 19.37592
3386.136, 18.71218
3388.065, 18.76399
3389.993, 19.13678
3391.922, 18.60539
3393.850, 18.21759
3395.779, 19.28404
3397.707, 20.15710
3399.636, 19.96711
3401.564, 19.56523
3403.493, 18.99784
3405.421, 18.87373
3407.350, 19.15127
3409.278, 19.45387
3411.207, 19.62834
3413.135, 19.16366
3415.063, 18.86469
3416.992, 19.84793
3418.920, 20.20210
3420.849, 19.19623
3422.777, 18.54301
3424.706, 18.45225
3426.634, 18.98639
3428.563, 19.72113
3430.491, 19.13458
3432.420, 18.31714
3434.348, 18.66422
3436.277, 19.21195
3438.205, 19.68936
3440.134, 19.82670
3442.062, 19.53009
3443.990, 19.12727
3445.919, 18.73733
3447.847, 19.02218
3449.776, 19.61258
3451.704, 20.16001
3453.633, 20.20840
3455.561, 18.98551
3457.490, 18.11217
3459.418, 17.98651
3461.347, 18.06278
3463.275, 18.30505
3465.204, 18.93867
3467.132, 19.61214
3469.061, 19.16581
3470.989, 18.67632
3472.917, 19.23632
3474.846, 19.61408
3476.774, 19.39979
3478.703, 19.25945
3480.631, 19.28827
3482.560, 19.45187
3484.488, 19.56677
3486.417, 18.76438
3488.345, 18.07815
3490.274, 18.89780
3492.202, 19.49806
3494.131, 19.19195
3496.059, 19.06492
3497.988, 19.30086
3499.916, 19.32323
3501.844, 19.35062
3503.773, 20.37197
3505.701, 21.20086
3507.630, 20.06590
3509.558, 19.16210
3511.487, 19.47109
3513.415, 19.49336
3515.344, 19.07986
3517.272, 19.56556
3519.201, 20.43822
3521.129, 20.19256
3523.058, 19.55741
3524.986, 19.14513
3526.915, 18.74164
3528.843, 17.96444
3530.771, 18.11619
3532.700, 18.06132
3534.628, 19.15726
3536.557, 18.65963
3538.485, 19.00922
3540.414, 19.50221
3542.342, 19.73973
3544.271, 19.61868
3546.199, 19.77205
3548.128, 19.59599
3550.056, 19.40520
3551.985, 19.09930
3553.913, 18.43252
3555.842, 17.94204
3557.770, 17.93573
3559.698, 19.19965
3561.627, 19.68025
3563.555, 19.01220
3565.484, 18.71879
3567.412, 18.77352
3569.341, 18.39718
3571.269, 18.22657
3573.198, 19.47869
3575.126, 20.16675
3577.055, 19.18994
3578.983, 18.68487
3580.912, 18.93569
3582.840, 18.49182
3584.769, 17.79116
3586.697, 17.93789
3588.625, 18.44490
3590.554, 19.18375
3592.482, 19.72787
3594.411, 20.02104
3596.339, 19.61457
3598.268, 19.86045
3600.196, 19.07757
3602.125, 19.79569
3604.053, 19.61094
3605.982, 19.87256
3607.910, 19.82994
3609.839, 19.47387
3611.767, 19.61808
3613.696, 18.86097
3615.624, 18.93806
3617.552, 19.06396
3619.481, 19.18988
3621.409, 19.32166
3623.338, 19.32911
3625.266, 19.15764
3627.195, 19.08708
3629.123, 19.13079
3631.052, 19.49380
3632.980, 19.72890
3634.909, 19.19642
3636.837, 18.68176
3638.766, 18.30582
3640.694, 18.82940
3642.623, 18.71923
3644.551, 19.94184
3646.479, 19.29132
3648.408, 19.53677
3650.336, 19.74714
3652.265, 19.49221
3654.193, 19.34952
3656.122, 19.40325
3658.050, 19.70834
3659.979, 20.01330
3661.907, 19.85056
3663.836, 19.56959
3665.764, 19.46455
3667.693, 18.91202
3669.621, 17.67402
3671.550, 17.23761
3673.478, 17.48845
3675.406, 18.44535
3677.335, 19.29765
3679.263, 19.46931
3681.192, 19.19311
3683.120, 19.67000
3685.049, 18.72335
3686.977, 19.70858
3688.906, 19.41055
3690.834, 18.95047
3692.763, 19.25192
3694.691, 19.69604
3696.620, 20.20584
3698.548, 20.40601
3700.477, 20.29762
3702.405, 19.70559
3704.333, 19.13172
3706.262, 19.07662
3708.190, 18.94626
3710.119, 18.56160
3712.047, 19.30650
3713.976, 19.05544
3715.904, 20.13130
3717.833, 19.29314
3719.761, 19.42201
3721.690, 19.62803
3723.618, 19.73569
3725.547, 20.04041
3727.475, 19.96070
3729.404, 20.19043
3731.332, 19.82500
3733.260, 19.50808
3735.189, 19.39927
3737.117, 19.26841
3739.046, 19.45390
3740.974, 19.26034
3742.903, 19.32109
3744.831, 19.36654
3746.760, 19.09372
3748.688, 19.03449
3750.617, 19.25421
3752.545, 19.51220
3754.474, 19.75183
3756.402, 19.79810
3758.331, 19.89940
3760.259, 20.38671
3762.188, 20.48628
3764.116, 20.14796
3766.044, 19.61048
3767.973, 19.10428
3769.901, 19.02504
3771.830, 19.14492
3773.758, 19.56112
3775.687, 19.58432
3777.615, 19.29732
3779.544, 19.76051
3781.472, 20.00977
3783.401, 18.13848
3785.329, 17.09563
3787.258, 18.62361
3789.186, 19.35088
3791.115, 19.41735
3793.043, 19.49242
3794.971, 19.27292
3796.900, 19.46794
3798.828, 19.27691
3800.757, 19.41409
3802.685, 19.44748
3804.614, 18.85359
3806.542, 19.83139
3808.471, 20.46938
3810.399, 19.65252
3812.328, 18.75617
3814.256, 18.02589
3816.185, 19.06455
3818.113, 20.47747
3820.042, 20.39401
3821.970, 20.16662
3823.898, 20.20015
3825.827, 20.27632
3827.755, 20.32936
3829.684, 20.11023
3831.612, 19.84414
3833.541, 19.49493
3835.469, 19.87200
3837.398, 21.00207
3839.326, 20.18100
3841.255, 20.65482
3843.183, 19.60933
3845.112, 20.45060
3847.040, 20.20482
3848.969, 19.99512
3850.897, 19.86181
3852.825, 19.56334
3854.754, 19.55101
3856.682, 20.54204
3858.611, 20.83526
3860.539, 20.02527
3862.468, 19.50819
3864.396, 19.42129
3866.325, 19.28557
3868.253, 19.39186
3870.182, 19.89561
3872.110, 19.84174
3874.039, 20.70883
3875.967, 20.85200
3877.896, 20.61167
3879.824, 19.90174
3881.752, 19.89434
3883.681, 19.64287
3885.609, 19.28440
3887.538, 19.57673
3889.466, 19.17915
3891.395, 19.36393
3893.323, 20.23283
3895.252, 20.56717
3897.180, 20.42724
3899.109, 20.25269
3901.037, 20.32305
3902.966, 20.96402
3904.894, 21.25519
3906.823, 21.19426
3908.751, 21.37672
3910.679, 21.34185
3912.608, 21.30611
3914.536, 21.38035
3916.465, 21.06876
3918.393, 21.30987
3920.322, 20.97686
3922.250, 20.69583
3924.179, 20.57563
3926.107, 20.41772
3928.036, 20.68068
3929.964, 20.38977
3931.893, 20.61603
3933.821, 20.84723
3935.750, 20.61183
3937.678, 20.52318
3939.606, 20.79792
3941.535, 21.03060
3943.463, 21.08078
3945.392, 21.23549
3947.320, 20.77925
3949.249, 21.29638
3951.177, 21.30819
3953.106, 21.19362
3955.034, 21.81525
3956.963, 21.99668
3958.891, 20.89817
3960.820, 20.62088
3962.748, 20.93717
3964.677, 21.24153
3966.605, 21.38771
3968.533, 21.29490
3970.462, 21.08908
3972.390, 20.85968
3974.319, 21.12924
3976.247, 21.35626
3978.176, 21.06680
3980.104, 21.05773
3982.033, 21.51135
3983.961, 21.72803
3985.890, 21.64412
3987.818, 21.25661
3989.747, 20.73924
3991.675, 20.23455
3993.604, 20.94983
3995.532, 21.72002
3997.460, 20.80375
3999.389, 20.51945
4001.317, 21.80574
4003.246, 22.18698
4005.174, 21.82652
4007.103, 21.77063
4009.031, 21.81838
4010.960, 21.97868
4012.888, 21.98626
4014.817, 21.61019
4016.745, 21.36689
4018.674, 21.32110
4020.602, 21.36315
4022.531, 21.40864
4024.459, 21.38839
4026.387, 20.96499
4028.316, 20.69387
4030.244, 21.67580
4032.173, 22.31652
4034.101, 22.04419
4036.030, 21.85412
4037.958, 22.13507
4039.887, 22.45946
4041.815, 22.09906
4043.744, 22.33725
4045.672, 22.14176
4047.601, 22.23977
4049.529, 21.97177
4051.458, 21.74248
4053.386, 22.06618
4055.314, 21.59900
4057.243, 21.11584
4059.171, 22.10293
4061.100, 22.47402
4063.028, 21.60801
4064.957, 20.87083
4066.885, 21.14729
4068.814, 22.22157
4070.742, 22.69077
4072.671, 22.71946
4074.599, 22.86842
4076.528, 22.64621
4078.456, 22.60646
4080.385, 22.54484
4082.313, 22.16475
4084.241, 22.12875
4086.170, 23.00951
4088.098, 23.12457
4090.027, 22.98569
4091.955, 22.85097
4093.884, 22.33103
4095.812, 22.16096
4097.741, 22.57769
4099.669, 22.18585
4101.598, 23.00510
4103.526, 22.21484
4105.455, 22.76179
4107.383, 23.26061
4109.312, 23.29559
4111.240, 22.82433
4113.168, 22.63571
4115.097, 22.59630
4117.025, 22.79928
4118.954, 22.65219
4120.882, 23.02125
4122.811, 22.66643
4124.739, 23.06929
4126.668, 23.23379
4128.596, 23.15359
4130.525, 22.96867
4132.453, 22.60418
4134.382, 23.00573
4136.310, 23.41530
4138.239, 23.20263
4140.167, 23.63598
4142.096, 22.89580
4144.024, 23.78331
4145.953, 23.79265
4147.881, 23.27076
4149.810, 23.85941
4151.738, 24.39512
4153.667, 23.98048
4155.595, 23.38754
4157.523, 22.91471
4159.452, 22.92856
4161.380, 22.86111
4163.309, 22.96579
4165.237, 23.39404
4167.166, 23.77609
4169.094, 23.76660
4171.022, 23.60306
4172.951, 23.80124
4174.879, 23.79090
4176.808, 23.36253
4178.736, 23.50386
4180.665, 23.49523
4182.593, 22.14584
4184.522, 21.75476
4186.450, 22.81974
4188.379, 24.22287
4190.307, 25.22495
4192.236, 24.90754
4194.164, 24.18498
4196.093, 23.18060
4198.021, 23.45024
4199.950, 24.08881
4201.878, 23.89276
4203.807, 23.78363
4205.735, 23.91353
4207.664, 25.41743
4209.592, 26.60505
4211.521, 25.50241
4213.449, 24.89273
4215.377, 25.02228
4217.306, 24.26702
4219.234, 24.07042
4221.163, 23.48528
4223.091, 23.58247
4225.020, 22.85120
4226.948, 23.74035
4228.876, 24.98708
4230.805, 24.73707
4232.733, 24.70795
4234.662, 24.88140
4236.590, 24.67361
4238.519, 24.35886
4240.447, 24.00724
4242.376, 24.12586
4244.304, 24.48340
4246.233, 24.66693
4248.161, 24.50306
4250.090, 23.86250
4252.018, 24.45287
4253.947, 25.24566
4255.875, 24.54872
4257.804, 24.36617
4259.732, 25.12291
4261.661, 24.74800
4263.589, 24.41375
4265.518, 25.49388
4267.446, 25.70663
4269.375, 24.93456
4271.303, 24.07658
4273.231, 23.97309
4275.160, 23.34757
4277.088, 25.01839
4279.017, 23.25702
4280.945, 25.02314
4282.874, 26.44191
4284.802, 25.97645
4286.730, 25.39489
4288.659, 25.05417
4290.587, 25.60994
4292.516, 26.04587
4294.444, 26.13388
4296.373, 26.22522
4298.301, 26.25078
4300.230, 25.84596
4302.158, 26.15631
4304.087, 25.70900
4306.015, 25.84565
4307.944, 25.61603
4309.872, 24.26987
4311.801, 25.10783
4313.729, 24.08307
4315.658, 24.76093
4317.586, 23.62774
4319.515, 24.44897
4321.443, 25.70883
4323.372, 26.36593
4325.300, 26.37003
4327.229, 26.67621
4329.157, 25.85713
4331.085, 26.09571
4333.014, 25.77284
4334.942, 25.00183
4336.871, 25.72021
4338.799, 27.01738
4340.728, 26.20944
4342.656, 25.91259
4344.584, 26.78547
4346.513, 26.60496
4348.441, 26.07072
4350.370, 26.06383
4352.298, 25.91411
4354.227, 25.51374
4356.155, 25.60593
4358.084, 25.39242
4360.012, 25.36277
4361.941, 25.40842
4363.869, 25.42163
4365.798, 25.23943
4367.726, 25.63501
4369.655, 25.79888
4371.583, 25.90558
4373.512, 25.81026
4375.440, 25.06821
4377.369, 25.13842
4379.297, 25.84352
4381.226, 26.62041
4383.154, 26.84340
4385.083, 26.19144
4387.011, 25.48667
4388.939, 25.07750
4390.868, 25.43873
4392.796, 26.04817
4394.725, 26.69233
4396.653, 26.85377
4398.582, 26.18002
4400.510, 24.40898
4402.438, 23.87503
4404.367, 24.31899
4406.295, 25.67886
4408.224, 26.20831
4410.152, 25.89582
4412.081, 26.49099
4414.009, 26.74141
4415.938, 25.78684
4417.866, 25.05105
4419.795, 25.01598
4421.723, 26.99624
4423.652, 27.83670
4425.580, 26.99504
4427.509, 26.30330
4429.437, 25.85691
4431.366, 25.19771
4433.294, 25.28017
4435.223, 24.45705
4437.151, 24.51845
4439.080, 24.81335
4441.008, 25.18838
4442.937, 25.36260
4444.865, 25.65382
4446.793, 26.33529
4448.722, 26.14837
4450.650, 25.70117
4452.579, 26.43222
4454.507, 26.89731
4456.436, 26.79774
4458.364, 25.92451
4460.292, 25.20937
4462.221, 25.41594
4464.149, 24.83010
4466.078, 24.20690
4468.006, 25.15858
4469.935, 25.90980
4471.863, 26.14660
4473.792, 25.72821
4475.720, 25.24751
4477.649, 24.95426
4479.577, 25.21205
4481.506, 25.65285
4483.434, 25.97970
4485.363, 25.53282
4487.291, 24.64355
4489.220, 24.61339
4491.148, 25.38835
4493.077, 26.93770
4495.005, 26.77109
4496.934, 25.85235
4498.862, 24.85144
4500.791, 24.79045
4502.719, 25.33644
4504.647, 25.62698
4506.576, 25.39615
4508.504, 25.65552
4510.433, 25.04681
4512.361, 25.54558
4514.290, 25.41937
4516.218, 25.21725
4518.146, 25.33107
4520.075, 25.16711
4522.003, 24.93264
4523.932, 25.20441
4525.860, 24.26441
4527.789, 24.57843
4529.717, 24.04531
4531.646, 25.83484
4533.574, 24.41852
4535.503, 25.20903
4537.431, 25.41285
4539.360, 25.30413
4541.288, 26.21526
4543.217, 26.61140
4545.145, 26.33957
4547.074, 26.06847
4549.002, 26.16596
4550.931, 25.60793
4552.859, 26.25009
4554.788, 25.08473
4556.716, 24.57907
4558.645, 25.15320
4560.573, 26.04988
4562.501, 24.77666
4564.430, 25.18357
4566.358, 25.19808
4568.287, 26.35496
4570.215, 25.25520
4572.144, 25.72476
4574.072, 25.58365
4576.000, 25.44700
4577.929, 26.31697
4579.857, 26.71049
4581.786, 26.57781
4583.714, 25.72323
4585.643, 25.70107
4587.571, 26.40904
4589.500, 24.90618
4591.428, 23.98935
4593.357, 24.75992
4595.285, 24.18762
4597.214, 23.79008
4599.142, 25.43862
4601.071, 26.50196
4602.999, 26.89285
4604.928, 26.65030
4606.856, 25.48393
4608.785, 23.90752
4610.713, 23.80282
4612.642, 24.67536
4614.570, 26.16608
4616.499, 26.36139
4618.427, 26.04724
4620.355, 25.60228
4622.284, 25.68368
4624.212, 25.71415
4626.141, 24.98351
4628.069, 24.53143
4629.998, 24.63166
4631.926, 26.00976
4633.854, 26.74880
4635.783, 26.64783
4637.711, 26.70104
4639.640, 25.59420
4641.568, 26.11905
4643.497, 24.26745
4645.425, 26.00351
4647.354, 26.05938
4649.282, 24.85631
4651.211, 24.07246
4653.139, 25.92786
4655.068, 26.16169
4656.996, 25.38181
4658.925, 25.03417
4660.853, 24.92297
4662.782, 24.98467
4664.710, 25.25219
4666.639, 25.07076
4668.567, 24.57241
4670.496, 26.04681
4672.424, 26.82028
4674.353, 25.42783
4676.281, 25.01517
4678.209, 24.73203
4680.138, 23.94571
4682.066, 23.91796
4683.995, 24.45781
4685.923, 25.60797
4687.852, 25.61304
4689.780, 25.14687
4691.708, 25.98091
4693.637, 26.12513
4695.565, 25.69276
4697.494, 26.21745
4699.422, 26.02480
4701.351, 25.08994
4703.279, 25.29287
4705.208, 25.64028
4707.136, 25.72999
4709.065, 25.28197
4710.993, 25.28654
4712.922, 25.33262
4714.850, 25.94538
4716.779, 25.38068
4718.707, 25.71636
4720.636, 25.44856
4722.564, 25.15638
4724.493, 25.72182
4726.421, 26.32157
4728.350, 26.54599
4730.278, 25.51050
4732.207, 24.84732
4734.135, 24.85896
4736.063, 26.08824
4737.992, 26.45017
4739.920, 25.92009
4741.849, 26.78595
4743.777, 26.97665
4745.706, 26.16039
4747.634, 25.62524
4749.563, 25.33473
4751.491, 25.25984
4753.419, 24.83185
4755.348, 24.79124
4757.276, 24.45693
4759.205, 24.43341
4761.133, 24.68152
4763.062, 24.17243
4764.990, 25.29339
4766.919, 26.20346
4768.847, 24.99273
4770.776, 24.48417
4772.704, 24.55494
4774.633, 24.98264
4776.561, 24.92689
4778.490, 24.65818
4780.418, 24.73144
4782.347, 24.68664
4784.275, 24.59696
4786.204, 24.76221
4788.132, 24.84285
4790.061, 24.81287
4791.989, 24.60581
4793.917, 24.88464
4795.846, 25.54862
4797.774, 25.96138
4799.703, 25.80649
4801.631, 25.13290
4803.560, 24.07497
4805.488, 24.18943
4807.417, 25.60073
4809.345, 25.84225
4811.273, 25.11823
4813.202, 23.85917
4815.130, 24.79207
4817.059, 25.59330
4818.987, 25.32310
4820.916, 25.23892
4822.844, 25.30759
4824.773, 25.49821
4826.701, 25.85633
4828.630, 25.75329
4830.558, 24.80093
4832.487, 24.70242
4834.415, 24.97275
4836.344, 25.33197
4838.272, 25.18568
4840.201, 25.01779
4842.129, 25.20204
4844.058, 24.95035
4845.986, 24.43006
4847.915, 23.73198
4849.843, 24.00742
4851.771, 24.54356
4853.700, 24.80837
4855.628, 24.51320
4857.557, 24.53015
4859.485, 25.58502
4861.414, 24.98308
4863.342, 24.45193
4865.271, 25.81534
4867.199, 24.62135
4869.127, 23.24488
4871.056, 23.75760
4872.984, 23.85790
4874.913, 23.77460
4876.841, 23.80346
4878.770, 23.74714
4880.698, 24.06681
4882.627, 24.28655
4884.555, 24.56783
4886.484, 24.91125
4888.412, 25.23934
4890.341, 25.32125
4892.269, 25.50885
4894.198, 26.35756
4896.126, 25.39755
4898.055, 24.32375
4899.983, 24.50288
4901.912, 24.64203
4903.840, 24.64256
4905.769, 24.92073
4907.697, 25.14277
4909.625, 25.34676
4911.554, 25.21049
4913.482, 25.31475
4915.411, 24.92823
4917.339, 24.92156
4919.268, 24.65625
4921.196, 24.60079
4923.125, 24.58694
4925.053, 24.46354
4926.981, 24.67346
4928.910, 24.50045
4930.838, 24.67318
4932.767, 24.98892
4934.695, 25.33885
4936.624, 25.91341
4938.552, 25.11204
4940.481, 26.02899
4942.409, 25.00540
4944.338, 26.72267
4946.266, 26.13598
4948.195, 25.62162
4950.123, 25.50009
4952.052, 24.95781
4953.980, 24.75353
4955.909, 24.18344
4957.837, 24.14476
4959.766, 23.73957
4961.694, 24.46986
4963.623, 25.78234
4965.551, 25.14438
4967.479, 24.36490
4969.408, 24.11764
4971.336, 25.77520
4973.265, 25.90297
4975.193, 24.83424
4977.122, 23.78791
4979.050, 23.84354
4980.979, 24.13286
4982.907, 22.88121
4984.835, 23.67083
4986.764, 24.85165
4988.692, 24.39948
4990.621, 24.03543
4992.549, 23.97866
4994.478, 24.34836
4996.406, 24.62294
4998.335, 24.92551
5000.263, 25.31154
5002.192, 24.38180
5004.120, 24.25303
5006.049, 24.06890
5007.977, 23.90293
5009.906, 23.97997
5011.834, 24.10986
5013.763, 24.89883
5015.691, 25.18084
5017.620, 24.84059
5019.548, 24.26361
5021.477, 24.38181
5023.405, 24.84226
5025.333, 23.96053
5027.262, 24.80156
5029.190, 26.28938
5031.119, 25.98793
5033.047, 26.08077
5034.976, 26.09710
5036.904, 25.05984
5038.833, 24.86309
5040.761, 24.87702
5042.689, 24.61405
5044.618, 24.58347
5046.546, 24.85538
5048.475, 25.38259
5050.403, 23.72637
5052.332, 22.51170
5054.260, 22.56181
5056.189, 23.22649
5058.117, 23.59852
5060.046, 23.68788
5061.974, 24.34459
5063.903, 23.65680
5065.831, 22.77745
5067.760, 24.55978
5069.688, 24.46395
5071.617, 23.46164
5073.545, 22.98678
5075.474, 22.89335
5077.402, 22.84905
5079.331, 23.08097
5081.259, 23.55691
5083.188, 24.46545
5085.116, 24.98301
5087.044, 24.30617
5088.973, 23.63751
5090.901, 23.29158
5092.830, 22.98191
5094.758, 23.69996
5096.687, 24.58934
5098.615, 23.80802
5100.543, 24.51014
5102.472, 22.79180
5104.400, 24.45496
5106.329, 23.96219
5108.257, 23.26257
5110.186, 23.65102
5112.114, 23.96200
5114.043, 23.73043
5115.971, 23.24891
5117.900, 25.03926
5119.828, 25.21222
5121.757, 23.91626
5123.685, 23.27202
5125.614, 23.03748
5127.542, 23.45552
5129.471, 23.11539
5131.399, 23.24311
5133.328, 23.28563
5135.256, 23.44689
5137.185, 23.80284
5139.113, 24.24915
5141.042, 24.63049
5142.970, 24.17737
5144.898, 23.79282
5146.827, 23.68829
5148.755, 23.43264
5150.684, 23.40112
5152.612, 23.42435
5154.541, 23.52642
5156.469, 24.00598
5158.397, 24.31122
5160.326, 24.18949
5162.254, 24.08382
5164.183, 24.20674
5166.111, 24.35545
5168.040, 24.60083
5169.968, 23.55859
5171.897, 24.79992
5173.825, 24.76454
5175.754, 23.77360
5177.682, 23.01351
5179.611, 23.29812
5181.539, 23.05345
5183.468, 23.29838
5185.396, 24.30479
5187.325, 25.57331
5189.253, 25.71203
5191.182, 24.92042
5193.110, 23.89015
5195.039, 23.37631
5196.967, 23.28885
5198.896, 23.50598
5200.824, 24.31806
5202.752, 23.81493
5204.681, 24.29435
5206.609, 23.41812
5208.538, 24.41745
5210.466, 24.54451
5212.395, 24.22987
5214.323, 24.29604
5216.251, 24.10808
5218.180, 23.99537
5220.108, 23.29922
5222.037, 23.47963
5223.965, 23.07663
5225.894, 22.12769
5227.822, 22.41572
5229.751, 23.35445
5231.679, 23.65996
5233.608, 23.27266
5235.536, 23.14398
5237.465, 23.80140
5239.393, 23.23396
5241.322, 22.91596
5243.250, 23.16112
5245.179, 23.50145
5247.107, 24.16641
5249.036, 24.32294
5250.964, 22.57147
5252.893, 23.89559
5254.821, 24.37049
5256.750, 22.81653
5258.678, 24.57212
5260.606, 25.01375
5262.535, 24.05189
5264.463, 22.98193
5266.392, 24.02866
5268.320, 25.14491
5270.249, 24.80962
5272.177, 24.52283
5274.105, 24.07265
5276.034, 23.50658
5277.962, 22.98802
5279.891, 23.40822
5281.819, 23.88508
5283.748, 23.25215
5285.676, 23.27558
5287.605, 23.35489
5289.533, 23.22355
5291.462, 22.63654
5293.390, 22.70348
5295.319, 23.33712
5297.247, 24.44684
5299.176, 23.08307
5301.104, 22.44976
5303.033, 23.82829
5304.961, 23.19329
5306.890, 23.73519
5308.818, 24.65469
5310.747, 23.52658
5312.675, 23.64644
5314.604, 24.09286
5316.532, 24.10029
5318.460, 23.02982
5320.389, 22.63516
5322.317, 22.84689
5324.246, 22.73440
5326.174, 22.97626
5328.103, 23.32630
5330.031, 23.58377
5331.959, 23.86594
5333.888, 23.74877
5335.816, 23.27847
5337.745, 22.61443
5339.673, 22.55948
5341.602, 22.22211
5343.530, 21.22603
5345.459, 22.03049
5347.387, 21.58626
5349.316, 20.81636
5351.244, 22.67260
5353.173, 21.87393
5355.101, 22.09722
5357.030, 22.13573
5358.958, 22.04860
5360.887, 22.46665
5362.815, 22.76844
5364.744, 22.74976
5366.672, 23.24583
5368.601, 23.54519
5370.529, 23.78811
5372.458, 24.05593
5374.386, 23.92417
5376.314, 23.41361
5378.243, 22.10663
5380.171, 22.80434
5382.100, 22.61594
5384.028, 21.17014
5385.957, 21.65934
5387.885, 22.16361
5389.813, 21.80980
5391.742, 19.96630
5393.670, 22.62743
5395.599, 23.21812
5397.527, 21.45510
5399.456, 22.19014
5401.384, 21.55554
5403.313, 20.95374
5405.241, 21.52482
5407.170, 22.98459
5409.098, 22.95804
5411.027, 22.35220
5412.955, 23.66522
5414.884, 23.55577
5416.812, 22.48645
5418.741, 21.22362
5420.669, 22.01856
5422.598, 22.41622
5424.526, 21.61597
5426.455, 22.39252
5428.383, 20.92560
5430.312, 22.47064
5432.240, 23.06044
5434.168, 22.22996
5436.097, 22.56526
5438.025, 22.94379
5439.954, 22.67841
5441.882, 21.64584
5443.811, 21.32687
5445.739, 21.94227
5447.667, 23.28850
5449.596, 21.21987
5451.524, 21.05590
5453.453, 22.77105
5455.381, 22.26654
5457.310, 20.92569
5459.238, 20.40202
5461.167, 21.30564
5463.095, 22.58499
5465.024, 22.68539
5466.952, 21.99511
5468.881, 21.24878
5470.809, 22.08207
5472.738, 21.67972
5474.666, 20.56276
5476.595, 21.65610
5478.523, 21.84136
5480.452, 21.76143
5482.380, 21.86638
5484.309, 21.72939
5486.237, 22.00269
5488.166, 21.90103
5490.094, 21.91741
5492.022, 21.80261
5493.951, 21.47637
5495.879, 21.30241
5497.808, 21.54561
5499.736, 23.09392
##END=



