##NAMES=Terlinguaite
##RRUFFID=R060492
##IDEAL CHEMISTRY=Hg_2_OCl
##LOCALITY=Mariposa mine, Terlingua Mining District, Brewster County, Texas, USA
##OWNER=RRUFF
##SOURCE=Michael Scott
##DESCRIPTION=Pale green colored mass showing perfect cleavage
##STATUS=The identification of this mineral has been confirmed by single-crystal X-ray diffraction
##URL=https://www.rruff.net/odr/rruff_sample/R060492
##DIFFRACTION SAMPLE DESCRIPTION=Single crystal, powder profile is calculated
##CELL PARAMETERS=a: 11.959 b: 5.91 c: 9.472 alpha: 90 beta: 105.58 gamma: 90 volume: 644.9 crystal system: monoclinic
##FILETYPE=Raman Processed
##RAMAN WAVELENGTH=780

84.59180, 8780.476
86.52026, 10164.79
88.44873, 11913.27
90.37720, 14086.96
92.30566, 16711.59
94.23413, 18748.55
96.16260, 20952.40
98.09106, 23026.44
100.0195, 23934.57
101.9480, 23961.96
103.8765, 23091.30
105.8049, 20718.43
107.7334, 18359.83
109.6619, 16166.42
111.5903, 14209.31
113.5188, 12551.59
115.4473, 11149.43
117.3757, 10023.58
119.3042, 9215.934
121.2327, 8591.254
123.1611, 8136.591
125.0896, 7834.485
127.0181, 7644.687
128.9465, 7561.866
130.8750, 7620.708
132.8035, 7811.536
134.7319, 8161.402
136.6604, 8652.173
138.5889, 9337.302
140.5173, 10234.56
142.4458, 11340.41
144.3743, 12685.33
146.3027, 14447.65
148.2312, 16211.27
150.1597, 18292.20
152.0881, 20018.48
154.0166, 20986.88
155.9451, 21215.29
157.8735, 20693.42
159.8020, 18930.46
161.7305, 17096.16
163.6589, 15086.67
165.5874, 13194.49
167.5159, 11568.70
169.4443, 10190.14
171.3728, 9033.447
173.3013, 8172.909
175.2297, 7424.271
177.1582, 6797.420
179.0867, 6275.135
181.0151, 5858.169
182.9436, 5533.247
184.8721, 5290.585
186.8005, 5140.337
188.7290, 5057.970
190.6575, 5065.904
192.5859, 5098.752
194.5144, 5164.567
196.4429, 5218.617
198.3713, 5222.838
200.2998, 5175.828
202.2283, 5064.352
204.1567, 4873.785
206.0852, 4671.505
208.0137, 4460.097
209.9421, 4259.926
211.8706, 4080.850
213.7991, 3922.973
215.7275, 3789.337
217.6560, 3680.436
219.5845, 3585.419
221.5129, 3509.738
223.4414, 3436.831
225.3699, 3361.988
227.2983, 3283.916
229.2268, 3200.698
231.1553, 3111.930
233.0837, 3016.875
235.0122, 2910.616
236.9407, 2813.558
238.8691, 2731.512
240.7976, 2661.882
242.7261, 2602.194
244.6545, 2554.698
246.5830, 2527.798
248.5115, 2521.769
250.4399, 2519.586
252.3684, 2521.715
254.2969, 2521.537
256.2253, 2512.980
258.1538, 2503.675
260.0823, 2499.927
262.0107, 2502.966
263.9392, 2517.334
265.8677, 2541.418
267.7961, 2584.497
269.7246, 2649.364
271.6531, 2732.070
273.5815, 2834.207
275.5100, 2952.300
277.4385, 3087.939
279.3669, 3238.388
281.2954, 3369.687
283.2239, 3498.952
285.1523, 3563.704
287.0808, 3557.597
289.0093, 3481.785
290.9377, 3309.751
292.8662, 3074.213
294.7947, 2831.483
296.7231, 2579.577
298.6516, 2355.684
300.5801, 2165.540
302.5085, 2003.817
304.4370, 1872.865
306.3655, 1767.523
308.2939, 1689.485
310.2224, 1632.750
312.1509, 1587.928
314.0793, 1556.001
316.0078, 1531.161
317.9363, 1515.201
319.8647, 1502.304
321.7932, 1492.366
323.7217, 1483.820
325.6501, 1474.561
327.5786, 1465.682
329.5071, 1461.097
331.4355, 1463.301
333.3640, 1463.484
335.2925, 1457.357
337.2209, 1455.194
339.1494, 1460.975
341.0779, 1470.754
343.0063, 1481.500
344.9348, 1493.435
346.8633, 1507.440
348.7917, 1523.842
350.7202, 1541.470
352.6487, 1560.365
354.5771, 1580.349
356.5056, 1599.450
358.4341, 1622.229
360.3625, 1650.898
362.2910, 1685.400
364.2195, 1725.976
366.1479, 1773.549
368.0764, 1822.907
370.0049, 1873.866
371.9333, 1927.154
373.8618, 1988.640
375.7903, 2044.530
377.7188, 2095.397
379.6472, 2131.873
381.5757, 2138.468
383.5042, 2114.317
385.4326, 2070.693
387.3611, 2006.896
389.2896, 1929.427
391.2180, 1833.162
393.1465, 1734.493
395.0750, 1635.430
397.0034, 1541.817
398.9319, 1458.876
400.8604, 1386.519
402.7888, 1325.048
404.7173, 1274.079
406.6458, 1230.336
408.5742, 1194.489
410.5027, 1162.981
412.4312, 1134.660
414.3596, 1110.099
416.2881, 1090.230
418.2166, 1074.187
420.1450, 1060.958
422.0735, 1050.361
424.0020, 1041.703
425.9304, 1035.558
427.8589, 1028.046
429.7874, 1017.403
431.7158, 1006.489
433.6443, 994.7571
435.5728, 984.4090
437.5012, 978.7184
439.4297, 975.4092
441.3582, 968.9935
443.2866, 959.7943
445.2151, 951.7023
447.1436, 944.7726
449.0720, 940.0809
451.0005, 939.8857
452.9290, 939.0424
454.8574, 934.6769
456.7859, 929.5364
458.7144, 926.0212
460.6428, 923.9209
462.5713, 923.3759
464.4998, 924.4417
466.4282, 924.0345
468.3567, 920.8157
470.2852, 918.1586
472.2136, 915.6709
474.1421, 914.7555
476.0706, 917.1649
477.9990, 920.3499
479.9275, 920.5861
481.8560, 920.2494
483.7844, 924.4305
485.7129, 933.3550
487.6414, 944.5656
489.5698, 957.4347
491.4983, 973.6925
493.4268, 997.6996
495.3552, 1019.277
497.2837, 1035.390
499.2122, 1047.292
501.1406, 1052.329
503.0691, 1055.875
504.9976, 1066.333
506.9260, 1083.697
508.8545, 1109.165
510.7830, 1140.123
512.7114, 1187.135
514.6399, 1252.684
516.5684, 1329.546
518.4968, 1420.787
520.4253, 1515.618
522.3538, 1627.046
524.2822, 1723.088
526.2107, 1774.418
528.1392, 1779.891
530.0676, 1728.079
531.9961, 1610.904
533.9246, 1486.999
535.8530, 1350.667
537.7815, 1230.554
539.7100, 1131.938
541.6384, 1050.504
543.5669, 987.0366
545.4954, 937.7408
547.4238, 904.5129
549.3523, 881.8694
551.2808, 862.6967
553.2092, 846.9336
555.1377, 834.6971
557.0662, 825.9006
558.9946, 818.5917
560.9231, 812.9481
562.8516, 807.3844
564.7800, 802.3518
566.7085, 795.7233
568.6370, 785.3867
570.5654, 774.8535
572.4939, 766.4427
574.4224, 759.2358
576.3508, 752.1143
578.2793, 745.0353
580.2078, 737.7980
582.1362, 730.4341
584.0647, 723.2239
585.9932, 715.9499
587.9216, 710.2433
589.8501, 708.2281
591.7786, 704.7401
593.7070, 696.6645
595.6355, 689.1567
597.5640, 685.1752
599.4924, 683.0046
601.4209, 681.1088
603.3494, 679.5976
605.2778, 678.8752
607.2063, 678.7119
609.1348, 677.8447
611.0632, 676.0724
612.9917, 674.7093
614.9202, 674.8777
616.8486, 673.3631
618.7771, 667.5811
620.7056, 663.3148
622.6340, 664.7321
624.5625, 665.5352
626.4910, 659.8250
628.4194, 652.7923
630.3479, 651.2582
632.2764, 652.1437
634.2048, 648.9971
636.1333, 642.0629
638.0618, 635.2659
639.9902, 628.1314
641.9187, 623.4077
643.8472, 623.4626
645.7756, 621.9289
647.7041, 617.6887
649.6326, 612.9359
651.5610, 607.4142
653.4895, 602.7073
655.4180, 600.6406
657.3464, 598.8796
659.2749, 595.4528
661.2034, 590.9901
663.1318, 586.0357
665.0603, 580.9476
666.9888, 577.7505
668.9172, 576.6406
670.8457, 575.5271
672.7742, 574.3416
674.7026, 573.3936
676.6311, 573.0261
678.5596, 571.7738
680.4880, 568.8744
682.4165, 565.9083
684.3450, 563.2064
686.2734, 561.1575
688.2019, 560.6108
690.1304, 560.1717
692.0588, 558.0275
693.9873, 555.4718
695.9158, 555.0831
697.8442, 556.1723
699.7727, 555.6555
701.7012, 553.6165
703.6296, 553.7545
705.5581, 556.2233
707.4866, 558.2532
709.4150, 559.9389
711.3435, 558.9540
713.2720, 553.8171
715.2004, 548.5534
717.1289, 544.0624
719.0574, 540.3126
720.9858, 538.0985
722.9143, 535.6677
724.8428, 531.1057
726.7712, 526.5501
728.6997, 524.7786
730.6282, 524.2126
732.5566, 521.5502
734.4851, 517.9616
736.4136, 517.3556
738.3420, 519.0427
740.2705, 519.4119
742.1990, 518.2678
744.1274, 516.2326
746.0559, 512.9758
747.9844, 510.9232
749.9128, 511.4757
751.8413, 510.9542
753.7698, 507.4677
755.6982, 505.0128
757.6267, 505.5729
759.5552, 506.0414
761.4836, 504.9216
763.4121, 503.3721
765.3406, 501.9298
767.2690, 500.6933
769.1975, 500.0062
771.1260, 499.3725
773.0544, 497.5782
774.9829, 495.5396
776.9114, 495.9723
778.8398, 498.1100
780.7683, 497.4815
782.6968, 493.8580
784.6252, 491.9077
786.5537, 492.2140
788.4822, 492.3260
790.4106, 492.2849
792.3391, 492.0264
794.2676, 491.6884
796.1960, 490.9589
798.1245, 489.5717
800.0530, 488.2726
801.9814, 486.8087
803.9099, 486.3378
805.8384, 488.1504
807.7668, 489.8423
809.6953, 490.0640
811.6238, 489.5249
813.5522, 488.0819
815.4807, 486.7713
817.4092, 486.7520
819.3376, 487.3504
821.2661, 487.9584
823.1946, 488.2751
825.1230, 487.4427
827.0515, 485.7702
828.9800, 484.3446
830.9084, 483.2011
832.8369, 482.6837
834.7654, 482.8437
836.6938, 482.1583
838.6223, 480.5436
840.5508, 479.9023
842.4792, 480.4095
844.4077, 481.3875
846.3362, 483.0566
848.2646, 483.0007
850.1931, 480.0200
852.1216, 478.1329
854.0500, 479.2177
855.9785, 479.3474
857.9070, 476.6909
859.8354, 474.0503
861.7639, 472.1681
863.6924, 470.7855
865.6208, 469.9497
867.5493, 469.3714
869.4778, 469.6015
871.4063, 469.1132
873.3347, 465.7855
875.2632, 462.2357
877.1917, 461.4958
879.1201, 461.4166
881.0486, 459.1821
882.9771, 456.1840
884.9055, 454.4375
886.8340, 453.4452
888.7625, 453.0533
890.6909, 452.3232
892.6194, 448.2039
894.5479, 442.2649
896.4763, 439.4931
898.4048, 439.2183
900.3333, 437.8724
902.2617, 435.5621
904.1902, 434.3251
906.1187, 434.2260
908.0471, 433.0612
909.9756, 430.6476
911.9041, 427.8981
913.8325, 424.3696
915.7610, 422.5824
917.6895, 423.5373
919.6179, 423.6092
921.5464, 422.3875
923.4749, 420.9386
925.4033, 419.5086
927.3318, 417.3880
929.2603, 413.6161
931.1887, 411.2151
933.1172, 411.3142
935.0457, 411.1312
936.9741, 410.0059
938.9026, 408.7877
940.8311, 407.3924
942.7595, 406.6224
944.6880, 407.1361
946.6165, 407.4391
948.5449, 407.0392
950.4734, 406.2258
952.4019, 404.9500
954.3303, 403.6157
956.2588, 402.3243
958.1873, 401.1669
960.1157, 400.3124
962.0442, 399.3972
963.9727, 397.6940
965.9011, 396.5990
967.8296, 397.5092
969.7581, 398.4218
971.6865, 398.4308
973.6150, 397.5836
975.5435, 394.8792
977.4719, 392.5929
979.4004, 392.9046
981.3289, 393.8792
983.2573, 394.2108
985.1858, 394.1222
987.1143, 393.8637
989.0427, 393.2407
990.9712, 391.8634
992.8997, 390.2098
994.8281, 388.3770
996.7566, 386.9348
998.6851, 386.5831
1000.614, 386.9099
1002.542, 387.8114
1004.470, 388.7456
1006.399, 389.2764
1008.327, 389.2349
1010.256, 388.0677
1012.184, 386.5227
1014.113, 385.5517
1016.041, 384.8251
1017.970, 383.4731
1019.898, 382.5060
1021.827, 383.9187
1023.755, 386.0192
1025.684, 386.0376
1027.612, 385.7303
1029.541, 387.8173
1031.469, 390.7136
1033.397, 392.5034
1035.326, 393.5674
1037.254, 394.7106
1039.183, 395.1628
1041.111, 393.3956
1043.040, 390.8441
1044.968, 388.7173
1046.897, 387.4691
1048.825, 388.2268
1050.754, 389.6849
1052.682, 389.4702
1054.611, 389.7339
1056.539, 394.5668
1058.468, 399.8923
1060.396, 401.2230
1062.324, 400.0495
1064.253, 396.0356
1066.181, 392.5489
1068.110, 392.5837
1070.038, 395.7982
1071.967, 401.8568
1073.895, 410.9066
1075.824, 425.2846
1077.752, 440.2134
1079.681, 453.8155
1081.609, 462.9557
1083.538, 465.7374
1085.466, 461.8489
1087.395, 448.5576
1089.323, 431.6053
1091.251, 411.6575
1093.180, 394.3019
1095.108, 384.3656
1097.037, 376.9050
1098.965, 369.5163
1100.894, 362.8150
1102.822, 356.7969
1104.751, 352.1155
1106.679, 349.2476
1108.608, 347.5811
1110.536, 347.8926
1112.465, 347.7169
1114.393, 345.1201
1116.322, 343.4852
1118.250, 344.6150
1120.178, 345.5491
1122.107, 345.7436
1124.035, 345.0650
1125.964, 342.8740
1127.892, 341.1559
1129.821, 340.2752
1131.749, 340.1392
1133.678, 341.3754
1135.606, 341.3738
1137.535, 339.0262
1139.463, 338.0462
1141.392, 339.6154
1143.320, 339.2290
1145.249, 335.9155
1147.177, 333.6985
1149.105, 332.9856
1151.034, 332.7032
1152.962, 332.8001
1154.891, 333.3968
1156.819, 334.4808
1158.748, 334.3306
1160.676, 332.9648
1162.605, 331.2318
1164.533, 329.4245
1166.462, 330.1504
1168.390, 332.4987
1170.319, 331.9800
1172.247, 329.7147
1174.176, 329.0904
1176.104, 329.4704
1178.032, 329.7800
1179.961, 329.8431
1181.889, 329.1457
1183.818, 328.2501
1185.746, 328.0200
1187.675, 327.7638
1189.603, 326.7360
1191.532, 325.5099
1193.460, 324.3610
1195.389, 323.3698
1197.317, 322.5729
1199.246, 321.9458
1201.174, 321.4032
1203.103, 321.1910
1205.031, 321.5334
1206.959, 321.9814
1208.888, 322.7859
1210.816, 322.1273
1212.745, 318.9473
1214.673, 317.5394
1216.602, 318.9997
1218.530, 319.7133
1220.459, 319.1713
1222.387, 318.3482
1224.316, 317.3344
1226.244, 317.5283
1228.173, 318.7867
1230.101, 318.6179
1232.030, 317.2994
1233.958, 316.5689
1235.886, 316.2309
1237.815, 315.8456
1239.743, 315.3272
1241.672, 314.3808
1243.600, 313.3285
1245.529, 312.3936
1247.457, 311.8841
1249.386, 312.9099
1251.314, 313.4081
1253.243, 310.7033
1255.171, 308.7196
1257.100, 310.3118
1259.028, 311.7924
1260.957, 311.9426
1262.885, 311.5543
1264.813, 309.9550
1266.742, 309.7356
1268.670, 312.0503
1270.599, 312.4663
1272.527, 310.3612
1274.456, 308.9043
1276.384, 308.2330
1278.313, 308.1937
1280.241, 308.7216
1282.170, 309.5595
1284.098, 310.5101
1286.027, 310.9574
1287.955, 311.1119
1289.884, 311.3658
1291.812, 311.5262
1293.740, 311.3750
1295.669, 311.0737
1297.597, 311.0574
1299.526, 310.3134
1301.454, 307.1767
1303.383, 305.7957
1305.311, 308.7994
1307.240, 310.5683
1309.168, 309.5176
1311.097, 308.1126
1313.025, 306.5305
1314.954, 305.4859
1316.882, 305.0435
1318.811, 305.1534
1320.739, 305.6545
1322.667, 304.8121
1324.596, 303.4040
1326.524, 304.1070
1328.453, 305.4170
1330.381, 304.6089
1332.310, 303.3983
1334.238, 303.1845
1336.167, 303.6961
1338.095, 305.4731
1340.024, 306.7144
1341.952, 306.9982
1343.881, 306.0296
1345.809, 303.3246
1347.738, 301.8579
1349.666, 302.1031
1351.594, 302.4644
1353.523, 302.6933
1355.451, 301.2788
1357.380, 298.8657
1359.308, 298.1906
1361.237, 298.4388
1363.165, 297.8051
1365.094, 297.3652
1367.022, 299.1263
1368.951, 300.5283
1370.879, 299.4582
1372.808, 297.8408
1374.736, 295.8227
1376.665, 294.7188
1378.593, 295.1421
1380.521, 295.5064
1382.450, 295.7829
1384.378, 295.2622
1386.307, 294.0731
1388.235, 294.2687
1390.164, 295.1533
1392.092, 293.8071
1394.021, 292.1237
1395.949, 293.2853
1397.878, 294.9890
1399.806, 295.6717
1401.735, 295.5319
1403.663, 294.0123
1405.592, 293.1198
1407.520, 293.7765
1409.448, 294.2642
1411.377, 294.4987
1413.305, 294.0763
1415.234, 293.0107
1417.162, 291.7657
1419.091, 290.6450
1421.019, 290.8905
1422.948, 291.8047
1424.876, 292.7648
1426.805, 293.2811
1428.733, 292.6318
1430.662, 292.3020
1432.590, 293.3150
1434.519, 293.1880
1436.447, 291.0735
1438.375, 289.4604
1440.304, 288.6377
1442.232, 288.8032
1444.161, 289.6592
1446.089, 289.8528
1448.018, 289.5952
1449.946, 289.0904
1451.875, 288.6207
1453.803, 288.7066
1455.732, 288.5027
1457.660, 287.2622
1459.589, 286.4174
1461.517, 286.3533
1463.446, 286.2792
1465.374, 286.0805
1467.302, 284.5667
1469.231, 282.2567
1471.159, 281.7544
1473.088, 282.0996
1475.016, 281.5029
1476.945, 281.0085
1478.873, 282.2661
1480.802, 282.7804
1482.730, 280.1035
1484.659, 279.1961
1486.587, 281.3484
1488.516, 283.0455
1490.444, 284.0578
1492.373, 283.0023
1494.301, 280.6217
1496.229, 278.6814
1498.158, 277.6114
1500.086, 278.8925
1502.015, 279.6562
1503.943, 276.7620
1505.872, 275.3811
1507.800, 278.6910
1509.729, 279.6138
1511.657, 277.1633
1513.586, 276.5249
1515.514, 277.3336
1517.443, 278.0342
1519.371, 278.1826
1521.300, 276.2257
1523.228, 274.6193
1525.156, 275.3226
1527.085, 275.9381
1529.013, 275.5754
1530.942, 275.4200
1532.870, 275.8113
1534.799, 273.9356
1536.727, 270.6691
1538.656, 271.4205
1540.584, 273.6717
1542.513, 273.5179
1544.441, 272.4441
1546.370, 270.7422
1548.298, 270.1667
1550.227, 271.4755
1552.155, 272.2430
1554.083, 272.1244
1556.012, 271.4650
1557.940, 270.5152
1559.869, 269.7168
1561.797, 269.5646
1563.726, 271.6548
1565.654, 273.2010
1567.583, 272.0315
1569.511, 271.1580
1571.440, 271.1978
1573.368, 270.3190
1575.297, 268.6363
1577.225, 268.6410
1579.154, 269.0965
1581.082, 266.7565
1583.010, 264.4415
1584.939, 265.2170
1586.867, 265.8366
1588.796, 264.5307
1590.724, 264.4227
1592.653, 265.8170
1594.581, 265.0116
1596.510, 262.7205
1598.438, 261.2645
1600.367, 260.5978
1602.295, 261.0805
1604.224, 261.5763
1606.152, 261.5182
1608.081, 261.3183
1610.009, 260.8793
1611.938, 261.3218
1613.866, 262.2673
1615.794, 261.1705
1617.723, 259.2354
1619.651, 257.4491
1621.580, 256.8398
1623.508, 258.6305
1625.437, 259.6168
1627.365, 259.0120
1629.294, 257.5714
1631.222, 255.5876
1633.151, 254.2864
1635.079, 253.9710
1637.008, 256.3007
1638.936, 257.7225
1640.865, 256.0609
1642.793, 254.9377
1644.721, 255.1653
1646.650, 255.5892
1648.578, 255.7740
1650.507, 253.0899
1652.435, 250.2470
1654.364, 251.8672
1656.292, 253.1624
1658.221, 251.6757
1660.149, 250.8121
1662.078, 251.0716
1664.006, 251.4484
1665.935, 251.4140
1667.863, 248.7552
1669.792, 246.1805
1671.720, 247.6275
1673.648, 248.1926
1675.577, 245.4036
1677.505, 244.8376
1679.434, 246.7022
1681.362, 247.1965
1683.291, 246.6294
1685.219, 245.3733
1687.148, 244.5588
1689.076, 246.0035
1691.005, 245.9404
1692.933, 242.7405
1694.862, 242.6025
1696.790, 244.8586
1698.719, 244.9345
1700.647, 243.9410
1702.575, 242.7387
1704.504, 242.0735
1706.432, 242.8715
1708.361, 242.8941
1710.289, 241.9870
1712.218, 240.1426
1714.146, 238.3226
1716.075, 239.2801
1718.003, 240.5810
1719.932, 240.7646
1721.860, 240.6436
1723.789, 240.3629
1725.717, 240.0164
1727.646, 239.6527
1729.574, 238.2294
1731.502, 238.7274
1733.431, 245.7134
1735.359, 251.8714
1737.288, 255.5392
1739.216, 252.3537
1741.145, 243.3633
1743.073, 239.1147
1745.002, 237.6886
1746.930, 237.3772
1748.859, 236.8951
1750.787, 235.6875
1752.716, 234.7315
1754.644, 234.1693
1756.573, 234.1365
1758.501, 234.1314
1760.429, 232.9352
1762.358, 232.0287
1764.286, 232.3915
1766.215, 232.4109
1768.143, 231.9355
1770.072, 232.0298
1772.000, 232.0985
1773.929, 230.5452
1775.857, 229.1753
1777.786, 229.6202
1779.714, 229.3320
1781.643, 228.0869
1783.571, 227.7068
1785.500, 227.9938
1787.428, 229.2522
1789.356, 229.3440
1791.285, 225.0110
1793.213, 223.9583
1795.142, 227.2279
1797.070, 227.8400
1798.999, 226.6598
1800.927, 224.7785
1802.856, 223.6531
1804.784, 224.6867
1806.713, 225.0241
1808.641, 224.3315
1810.570, 223.5825
1812.498, 223.1559
1814.427, 224.5068
1816.355, 224.8168
1818.283, 222.1745
1820.212, 221.5340
1822.140, 223.1869
1824.069, 221.7026
1825.997, 219.7685
1827.926, 222.7415
1829.854, 223.7553
1831.783, 220.0170
1833.711, 218.6328
1835.640, 219.6217
1837.568, 218.9307
1839.497, 217.9985
1841.425, 219.1727
1843.354, 218.7650
1845.282, 215.8802
1847.210, 214.5578
1849.139, 214.3178
1851.067, 212.5051
1852.996, 211.2232
1854.924, 212.6836
1856.853, 213.5689
1858.781, 213.4803
1860.710, 212.5240
1862.638, 211.5493
1864.567, 212.4070
1866.495, 212.8627
1868.424, 211.5426
1870.352, 211.0060
1872.281, 211.1726
1874.209, 210.5132
1876.137, 209.9094
1878.066, 210.7868
1879.994, 210.7753
1881.923, 209.2188
1883.851, 207.2424
1885.780, 205.6910
1887.708, 207.6721
1889.637, 208.6571
1891.565, 204.6397
1893.494, 203.0108
1895.422, 204.0538
1897.351, 204.5941
1899.279, 204.6927
1901.208, 204.4446
1903.136, 203.7821
1905.064, 202.5527
1906.993, 201.5744
1908.921, 200.9195
1910.850, 200.8561
1912.778, 201.1595
1914.707, 202.0822
1916.635, 200.9725
1918.564, 198.1416
1920.492, 198.0539
1922.421, 198.7928
1924.349, 198.6904
1926.278, 197.9928
1928.206, 196.7574
1930.135, 196.5754
1932.063, 196.7609
1933.991, 195.7258
1935.920, 195.1088
1937.848, 195.4822
1939.777, 196.2994
1941.705, 197.2391
1943.634, 197.7681
1945.562, 197.4841
1947.491, 195.6322
1949.419, 194.5641
1951.348, 194.1990
1953.276, 191.7647
1955.205, 189.4426
1957.133, 190.0213
1959.062, 190.5050
1960.990, 190.3417
1962.918, 189.1682
1964.847, 187.9371
1966.775, 188.2900
1968.704, 188.7608
1970.632, 189.1264
1972.561, 187.6320
1974.489, 185.3741
1976.418, 185.4591
1978.346, 185.4173
1980.275, 183.1177
1982.203, 183.5679
1984.132, 185.9317
1986.060, 185.4145
1987.989, 184.4071
1989.917, 184.5139
1991.845, 183.8857
1993.774, 182.6078
1995.702, 183.3260
1997.631, 184.2173
1999.559, 183.9520
2001.488, 182.9981
2003.416, 181.5176
2005.345, 180.6816
2007.273, 180.2969
2009.202, 180.3940
2011.130, 179.8560
2013.059, 178.5702
2014.987, 179.6690
2016.916, 181.1177
2018.844, 180.0388
2020.772, 177.9405
2022.701, 175.2392
2024.629, 175.6969
2026.558, 177.2561
2028.486, 176.9128
2030.415, 176.0582
2032.343, 175.0379
2034.272, 175.2070
2036.200, 175.4921
2038.129, 173.5705
2040.057, 172.4927
2041.986, 173.0542
2043.914, 172.8851
2045.843, 172.4002
2047.771, 172.6981
2049.699, 172.3374
2051.628, 170.7277
2053.556, 171.3250
2055.485, 172.4526
2057.413, 171.1772
2059.342, 169.8345
2061.270, 169.1296
2063.199, 168.5464
2065.127, 168.0979
2067.056, 167.7965
2068.984, 167.7166
2070.913, 168.0121
2072.841, 166.8359
2074.770, 165.4765
2076.698, 165.7993
2078.626, 166.1145
2080.555, 165.9666
2082.483, 165.6917
2084.412, 165.1008
2086.340, 163.7678
2088.269, 162.7970
2090.197, 162.4674
2092.126, 162.9998
2094.054, 163.4818
2095.983, 162.9315
2097.911, 162.5478
2099.840, 162.3527
2101.768, 160.8269
2103.697, 159.1378
2105.625, 158.0443
2107.553, 158.0218
2109.482, 158.6551
2111.410, 157.7927
2113.339, 156.8326
2115.267, 156.7215
2117.196, 155.6351
2119.124, 154.3275
2121.053, 155.7078
2122.981, 156.5745
2124.910, 155.5108
2126.838, 153.9845
2128.767, 152.8926
2130.695, 154.1477
2132.624, 155.0474
2134.552, 154.9100
2136.480, 152.5489
2138.409, 150.5050
2140.337, 152.8069
2142.266, 153.3455
2144.194, 151.4763
2146.123, 152.0263
2148.051, 152.4928
2149.980, 150.6087
2151.908, 149.5633
2153.837, 149.2946
2155.765, 148.2721
2157.694, 147.7327
2159.622, 148.5102
2161.551, 147.6141
2163.479, 145.9635
2165.407, 145.2225
2167.336, 145.4563
2169.264, 146.7026
2171.193, 147.6391
2173.121, 147.7111
2175.050, 145.9843
2176.978, 145.4621
2178.907, 146.1431
2180.835, 145.6014
2182.764, 144.7793
2184.692, 144.1711
2186.621, 143.3900
2188.549, 142.6956
2190.478, 143.0762
2192.406, 142.4946
2194.334, 140.6543
2196.263, 141.0237
2198.191, 141.9769
2200.120, 141.9509
2202.048, 141.4122
2203.977, 140.4017
2205.905, 138.4192
2207.834, 137.2878
2209.762, 138.2217
2211.691, 137.1369
2213.619, 135.7363
2215.548, 137.4933
2217.476, 137.7736
2219.405, 136.0580
2221.333, 136.1387
2223.261, 136.2581
2225.190, 135.1344
2227.118, 133.3036
2229.047, 131.8000
2230.975, 133.6574
2232.904, 134.3875
2234.832, 132.5297
2236.761, 133.4510
2238.689, 134.4725
2240.618, 133.2726
2242.546, 132.3809
2244.475, 131.9705
2246.403, 131.5454
2248.332, 131.8047
2250.260, 132.9543
2252.188, 131.5534
2254.117, 129.3280
2256.045, 127.7583
2257.974, 127.9009
2259.902, 129.1153
2261.831, 128.6416
2263.759, 128.6292
2265.688, 129.6946
2267.616, 127.8609
2269.545, 125.6912
2271.473, 126.6637
2273.402, 125.9818
2275.330, 124.2210
2277.259, 125.1313
2279.187, 124.9184
2281.115, 122.4985
2283.044, 123.2144
2284.972, 124.6012
2286.901, 124.0580
2288.829, 123.6394
2290.758, 123.3147
2292.686, 122.6662
2294.615, 121.7331
2296.543, 120.5471
2298.472, 120.9306
2300.400, 121.4747
2302.329, 121.0214
2304.257, 120.9305
2306.186, 120.6087
2308.114, 118.1241
2310.042, 117.8594
2311.971, 120.1261
2313.899, 118.9052
2315.828, 117.1787
2317.756, 116.4307
2319.685, 115.9629
2321.613, 115.8226
2323.542, 116.1692
2325.470, 116.7424
2327.399, 117.1410
2329.327, 116.0114
2331.256, 114.2783
2333.184, 112.4349
2335.113, 113.7585
2337.041, 114.9518
2338.969, 113.5449
2340.898, 113.1322
2342.826, 113.2512
2344.755, 112.3182
2346.683, 112.4862
2348.612, 113.4112
2350.540, 112.0958
2352.469, 111.1039
2354.397, 111.3188
2356.326, 111.5995
2358.254, 111.2134
2360.183, 108.7916
2362.111, 108.5873
2364.040, 109.4609
2365.968, 109.1328
2367.896, 108.9707
2369.825, 108.9762
2371.753, 107.9331
2373.682, 107.0793
2375.610, 106.8778
2377.539, 107.9458
2379.467, 108.0503
2381.396, 104.7878
2383.324, 104.8739
2385.253, 106.1096
2387.181, 105.0380
2389.110, 104.4117
2391.038, 104.3042
2392.967, 103.4709
2394.895, 103.0877
2396.823, 103.4002
2398.752, 103.6135
2400.680, 103.3486
2402.609, 102.4400
2404.537, 103.0041
2406.466, 103.2212
2408.394, 101.3079
2410.323, 100.0440
2412.251, 99.53225
2414.180, 99.65695
2416.108, 100.2055
2418.037, 100.7785
2419.965, 100.1774
2421.894, 99.28734
2423.822, 98.41861
2425.750, 97.78558
2427.679, 97.82653
2429.607, 98.74085
2431.536, 97.75523
2433.464, 96.07229
2435.393, 94.13493
2437.321, 95.13976
2439.250, 96.92568
2441.178, 96.46545
2443.107, 95.87637
2445.035, 95.07958
2446.964, 92.87627
2448.892, 92.35372
2450.821, 93.23660
2452.749, 91.54967
2454.677, 91.08227
2456.606, 92.78032
2458.534, 93.35215
2460.463, 92.98342
2462.391, 91.68287
2464.320, 90.50942
2466.248, 89.73938
2468.177, 89.51909
2470.105, 89.88386
2472.034, 90.23901
2473.962, 89.99857
2475.891, 89.76052
2477.819, 89.66206
2479.748, 90.01692
2481.676, 89.59244
2483.604, 88.55807
2485.533, 87.43433
2487.461, 86.77007
2489.390, 86.63964
2491.318, 87.19160
2493.247, 87.18797
2495.175, 86.41142
2497.104, 84.92718
2499.032, 84.32177
2500.961, 84.78520
2502.889, 82.75863
2504.818, 81.72412
2506.746, 83.33237
2508.675, 84.94534
2510.603, 85.06576
2512.531, 81.95145
2514.460, 82.82043
2516.388, 83.88818
2518.317, 81.08292
2520.245, 81.05776
2522.174, 82.06352
2524.102, 82.19189
2526.031, 82.51308
2527.959, 82.44202
2529.888, 81.04885
2531.816, 80.40366
2533.745, 80.26195
2535.673, 79.91100
2537.602, 80.06203
2539.530, 80.12943
2541.458, 78.38418
2543.387, 78.41429
2545.315, 79.77931
2547.244, 80.48833
2549.172, 80.16965
2551.101, 79.08657
2553.029, 77.96489
2554.958, 77.06479
2556.886, 76.60792
2558.815, 77.52922
2560.743, 77.28431
2562.672, 75.96079
2564.600, 75.83974
2566.529, 75.93418
2568.457, 75.90822
2570.385, 75.49520
2572.314, 75.00942
2574.242, 74.45647
2576.171, 73.13103
2578.099, 72.54428
2580.028, 72.84850
2581.956, 72.86179
2583.885, 72.45838
2585.813, 71.78931
2587.742, 72.46567
2589.670, 72.87499
2591.599, 72.60466
2593.527, 72.30128
2595.456, 71.65561
2597.384, 70.60884
2599.313, 69.09007
2601.241, 68.49753
2603.169, 68.99844
2605.098, 68.63074
2607.026, 68.38926
2608.955, 68.49319
2610.883, 68.33418
2612.812, 68.55356
2614.740, 68.99121
2616.669, 67.78745
2618.597, 66.49161
2620.526, 65.73756
2622.454, 66.34717
2624.383, 67.06885
2626.311, 67.37101
2628.240, 66.71089
2630.168, 65.09149
2632.096, 63.27805
2634.025, 63.56026
2635.953, 63.88997
2637.882, 64.04263
2639.810, 64.70770
2641.739, 65.04569
2643.667, 64.87431
2645.596, 63.80276
2647.524, 63.78686
2649.453, 64.02708
2651.381, 62.40438
2653.310, 60.70307
2655.238, 59.83726
2657.167, 61.20345
2659.095, 60.83830
2661.023, 59.72210
2662.952, 59.49046
2664.880, 59.34661
2666.809, 59.29736
2668.737, 59.43933
2670.666, 59.14499
2672.594, 59.03549
2674.523, 59.58676
2676.451, 58.68472
2678.380, 57.73358
2680.308, 57.58925
2682.237, 57.66926
2684.165, 57.44998
2686.094, 56.84414
2688.022, 56.98120
2689.950, 57.09941
2691.879, 56.91644
2693.807, 56.56338
2695.736, 55.98783
2697.664, 55.37789
2699.593, 55.49895
2701.521, 55.35856
2703.450, 54.97110
2705.378, 54.96358
2707.307, 54.41024
2709.235, 53.69155
2711.164, 53.61480
2713.092, 53.79293
2715.021, 53.81030
2716.949, 53.08995
2718.877, 53.07015
2720.806, 52.84237
2722.734, 51.49375
2724.663, 51.07979
2726.591, 51.19939
2728.520, 51.58919
2730.448, 50.77039
2732.377, 50.48947
2734.305, 51.08441
2736.234, 50.82770
2738.162, 50.32431
2740.091, 49.73323
2742.019, 48.95560
2743.948, 48.98259
2745.876, 49.05187
2747.804, 47.53331
2749.733, 47.64020
2751.661, 48.39801
2753.590, 48.69962
2755.518, 48.61379
2757.447, 48.01611
2759.375, 46.96193
2761.304, 46.75087
2763.232, 46.78264
2765.161, 46.75938
2767.089, 46.40001
2769.018, 46.07524
2770.946, 45.82891
2772.875, 45.51936
2774.803, 45.53510
2776.731, 45.54080
2778.660, 45.19447
2780.588, 43.50989
2782.517, 42.37620
2784.445, 43.35019
2786.374, 44.13518
2788.302, 44.07023
2790.231, 43.17735
2792.159, 43.76398
2794.088, 43.87124
2796.016, 43.34772
2797.945, 42.76036
2799.873, 42.58678
2801.802, 42.49902
2803.730, 42.09798
2805.658, 41.86500
2807.587, 41.47892
2809.515, 40.84105
2811.444, 41.31905
2813.372, 40.16848
2815.301, 37.86766
2817.229, 39.57978
2819.158, 40.40310
2821.086, 40.28179
2823.015, 40.53597
2824.943, 40.41170
2826.872, 39.80512
2828.800, 38.66833
2830.729, 37.53151
2832.657, 37.52416
2834.585, 38.35500
2836.514, 36.40340
2838.442, 36.56475
2840.371, 37.87451
2842.299, 37.38847
2844.228, 35.81983
2846.156, 34.88844
2848.085, 36.03839
2850.013, 35.84666
2851.942, 35.58708
2853.870, 35.68537
2855.799, 35.95935
2857.727, 35.52182
2859.656, 34.69440
2861.584, 34.05584
2863.512, 34.88208
2865.441, 35.16054
2867.369, 33.92274
2869.298, 33.44637
2871.226, 33.61869
2873.155, 33.91271
2875.083, 32.81829
2877.012, 32.46250
2878.940, 32.63374
2880.869, 32.86359
2882.797, 32.81968
2884.726, 32.95504
2886.654, 33.24784
2888.583, 32.56147
2890.511, 32.46439
2892.439, 32.51347
2894.368, 31.19508
2896.296, 31.61321
2898.225, 31.80895
2900.153, 30.51616
2902.082, 30.86507
2904.010, 30.80456
2905.939, 30.24028
2907.867, 30.06930
2909.796, 30.11954
2911.724, 29.96568
2913.653, 29.31815
2915.581, 28.55507
2917.510, 28.11832
2919.438, 28.14592
2921.366, 28.76879
2923.295, 28.76669
2925.223, 28.39779
2927.152, 28.04951
2929.080, 28.73129
2931.009, 28.80205
2932.937, 28.12478
2934.866, 28.16812
2936.794, 27.98143
2938.723, 27.74464
2940.651, 27.71149
2942.580, 27.00025
2944.508, 26.79697
2946.437, 26.94205
2948.365, 25.71706
2950.293, 25.32545
2952.222, 25.40324
2954.150, 25.38023
2956.079, 25.22803
2958.007, 25.66990
2959.936, 26.34336
2961.864, 25.69119
2963.793, 25.60574
2965.721, 25.66532
2967.650, 25.39583
2969.578, 25.80461
2971.507, 25.39715
2973.435, 24.42719
2975.364, 24.06514
2977.292, 23.98776
2979.220, 24.46323
2981.149, 25.30136
2983.077, 23.80301
2985.006, 23.01104
2986.934, 22.84703
2988.863, 22.38110
2990.791, 22.57787
2992.720, 22.76699
2994.648, 22.59844
2996.577, 21.70388
2998.505, 21.95556
3000.434, 22.38269
3002.362, 21.96564
3004.291, 21.20342
3006.219, 20.99803
3008.147, 21.09228
3010.076, 20.31961
3012.004, 21.09335
3013.933, 21.91451
3015.861, 21.93290
3017.790, 21.56909
3019.718, 20.92567
3021.647, 20.13934
3023.575, 19.27925
3025.504, 20.47275
3027.432, 20.54011
3029.361, 19.57366
3031.289, 19.86186
3033.218, 19.31781
3035.146, 18.98876
3037.074, 19.40456
3039.003, 19.86509
3040.931, 19.71571
3042.860, 19.36558
3044.788, 19.23906
3046.717, 18.99657
3048.645, 18.53918
3050.574, 18.15978
3052.502, 18.49391
3054.431, 17.26706
3056.359, 16.67112
3058.288, 17.16224
3060.216, 17.42678
3062.145, 17.14867
3064.073, 16.93730
3066.001, 17.16153
3067.930, 17.30571
3069.858, 16.87895
3071.787, 16.31986
3073.715, 16.13560
3075.644, 17.06360
3077.572, 17.66967
3079.501, 17.43972
3081.429, 16.17855
3083.358, 15.75886
3085.286, 15.66749
3087.215, 15.85155
3089.143, 17.07284
3091.072, 16.03577
3093.000, 15.28745
3094.928, 16.03656
3096.857, 16.52841
3098.785, 16.30686
3100.714, 15.83343
3102.642, 15.46628
3104.571, 14.76635
3106.499, 15.73282
3108.428, 16.35777
3110.356, 14.58725
3112.285, 15.66476
3114.213, 14.89219
3116.142, 13.35925
3118.070, 14.30610
3119.999, 13.79874
3121.927, 13.66442
3123.855, 14.05011
3125.784, 14.34560
3127.712, 13.93790
3129.641, 13.78415
3131.569, 13.78227
3133.498, 12.88174
3135.426, 13.08703
3137.355, 13.13832
3139.283, 12.82234
3141.212, 13.26646
3143.140, 13.57001
3145.069, 13.81329
3146.997, 13.86368
3148.926, 12.95426
3150.854, 12.37173
3152.782, 12.50695
3154.711, 12.94843
3156.639, 11.52058
3158.568, 12.16143
3160.496, 12.37934
3162.425, 11.42241
3164.353, 12.08805
3166.282, 13.42906
3168.210, 13.45396
3170.139, 11.85055
3172.067, 11.38243
3173.996, 11.42289
3175.924, 11.33496
3177.853, 10.93758
3179.781, 10.81439
3181.709, 11.27868
3183.638, 11.64958
3185.566, 11.53723
3187.495, 11.06863
3189.423, 10.63773
3191.352, 10.21559
3193.280, 9.859377
3195.209, 9.894006
3197.137, 10.26319
3199.066, 10.41062
3200.994, 10.33733
3202.923, 10.87210
3204.851, 10.47355
3206.780, 10.29758
3208.708, 10.55778
3210.636, 10.46294
3212.565, 9.407748
3214.493, 9.560912
3216.422, 10.55215
3218.350, 10.13832
3220.279, 9.617360
3222.207, 9.509933
3224.136, 9.596606
3226.064, 9.295614
3227.993, 9.628169
3229.921, 9.191192
3231.850, 8.450754
3233.778, 8.340155
3235.707, 7.752888
3237.635, 8.123585
3239.563, 8.740189
3241.492, 8.781833
3243.420, 8.546572
3245.349, 8.637780
3247.277, 8.551354
3249.206, 8.056034
3251.134, 7.723669
3253.063, 8.175386
3254.991, 8.802883
3256.920, 9.195232
3258.848, 9.216266
3260.777, 8.902267
3262.705, 8.386011
3264.634, 8.030644
3266.562, 8.288773
3268.490, 7.404481
3270.419, 7.039695
3272.347, 7.259638
3274.276, 7.642446
3276.204, 8.443795
3278.133, 7.989934
3280.061, 7.666873
3281.990, 8.137650
3283.918, 7.080194
3285.847, 6.638313
3287.775, 7.108100
3289.704, 7.763843
3291.632, 7.192125
3293.561, 6.414939
3295.489, 6.475596
3297.417, 7.081355
3299.346, 7.503039
3301.274, 6.920741
3303.203, 7.086919
3305.131, 6.987100
3307.060, 6.250271
3308.988, 6.723959
3310.917, 7.535571
3312.845, 6.910266
3314.774, 5.749708
3316.702, 6.561197
3318.631, 7.264437
3320.559, 6.359806
3322.488, 5.638002
3324.416, 6.537230
3326.344, 6.100760
3328.273, 7.160853
3330.201, 7.640228
3332.130, 6.851140
3334.058, 5.977226
3335.987, 5.873481
3337.915, 6.613211
3339.844, 6.580729
3341.772, 4.735437
3343.701, 5.735360
3345.629, 6.426049
3347.558, 6.305971
3349.486, 5.797558
3351.415, 5.776644
3353.343, 5.583836
3355.271, 5.769969
3357.200, 5.523901
3359.128, 4.485621
3361.057, 5.790883
3362.985, 5.676937
3364.914, 5.289159
3366.842, 5.283186
3368.771, 5.438294
3370.699, 5.004068
3372.628, 5.200424
3374.556, 5.241750
3376.485, 4.588165
3378.413, 4.674299
3380.342, 4.944792
3382.270, 5.030091
3384.198, 5.144951
3386.127, 5.682444
3388.055, 4.677170
3389.984, 5.147908
3391.912, 5.734009
3393.841, 5.604427
3395.769, 5.361712
3397.698, 4.814489
3399.626, 5.029460
3401.555, 5.424829
3403.483, 5.254074
3405.412, 4.217083
3407.340, 4.893572
3409.269, 4.875560
3411.197, 4.322169
3413.125, 4.524511
3415.054, 5.449239
3416.982, 5.083694
3418.911, 5.037321
3420.839, 5.436124
3422.768, 4.981212
3424.696, 4.882521
3426.625, 5.008615
3428.553, 5.197256
3430.482, 4.965671
3432.410, 3.312126
3434.339, 4.085365
3436.267, 4.617259
3438.196, 4.506312
3440.124, 4.294916
3442.052, 4.930254
3443.981, 4.352188
3445.909, 3.847867
3447.838, 3.897040
3449.766, 4.327525
3451.695, 4.465204
3453.623, 4.254201
3455.552, 4.375506
##END=



