##NAMES=Terrywallaceite
##RRUFFID=R100007
##IDEAL CHEMISTRY=AgPb(Sb,Bi)_3_S_6_
##LOCALITY=Level 390, Vein 14, Mina Herminia, Julcani District, Huancavelica, Peru
##OWNER=RRUFF
##SOURCE=William Pinch
##DESCRIPTION=Lath-shaped black crystals with striations parallel to the c-axis. Associated with barite, quartz, pyrite, gustavite, and tetrahedrite.
##STATUS=The identification of this mineral is confirmed by single-crystal X-ray diffraction and chemical analysis
##URL=https://www.rruff.net/odr/rruff_sample/R100007
##MEASURED CHEMISTRY=Ag_1.02_Pb_0.87_Sb_1.53_Bi_1.47_(S_5.94_As_0.06_)
##DIFFRACTION SAMPLE DESCRIPTION=Single crystal, powder profile is calculated
##CELL PARAMETERS=a: 6.9764 b: 19.351 c: 8.387 alpha: 90 beta: 107.519 gamma: 90 volume: 1079.71 crystal system: monoclinic
##FILETYPE=Raman RAW
##RAMAN WAVELENGTH=780

82.74634, 0.0000000E+00
84.67480, 167.8548
86.60327, 167.8600
88.53174, 168.5774
90.46021, 169.0614
92.38867, 169.2851
94.31714, 168.4347
96.24561, 152.2734
98.17407, 136.9329
100.1025, 124.7127
102.0310, 115.6290
103.9595, 108.1511
105.8879, 101.3760
107.8164, 95.49632
109.7449, 90.77543
111.6733, 86.90577
113.6018, 84.10569
115.5303, 82.65956
117.4587, 81.57256
119.3872, 80.70068
121.3157, 79.83402
123.2441, 78.45058
125.1726, 76.63633
127.1011, 75.64827
129.0295, 76.56786
130.9580, 76.96230
132.8865, 75.77021
134.8149, 74.07787
136.7434, 73.13538
138.6719, 72.81200
140.6003, 72.35784
142.5288, 71.43729
144.4573, 70.75930
146.3857, 70.61301
148.3142, 70.63236
150.2427, 70.41487
152.1711, 70.05514
154.0996, 69.98784
156.0281, 70.37679
157.9565, 70.87167
159.8850, 71.49073
161.8135, 72.14358
163.7419, 72.79269
165.6704, 73.42188
167.5989, 73.99695
169.5273, 74.64182
171.4558, 74.94624
173.3843, 74.56236
175.3127, 74.19731
177.2412, 74.28699
179.1697, 74.62804
181.0981, 74.89165
183.0266, 75.02170
184.9551, 75.22925
186.8835, 75.78427
188.8120, 76.06638
190.7405, 75.51867
192.6689, 74.79187
194.5974, 74.61721
196.5259, 75.06361
198.4543, 75.49537
200.3828, 76.22392
202.3113, 76.35860
204.2397, 75.24007
206.1682, 73.88462
208.0967, 73.01408
210.0252, 72.55701
211.9536, 72.15565
213.8821, 72.02504
215.8106, 71.23096
217.7390, 69.07106
219.6675, 67.10787
221.5960, 66.31278
223.5244, 66.12802
225.4529, 65.62099
227.3814, 64.71120
229.3098, 63.99051
231.2383, 63.51542
233.1668, 63.09873
235.0952, 62.81526
237.0237, 62.42871
238.9522, 61.54052
240.8806, 60.31583
242.8091, 59.89307
244.7376, 60.40351
246.6660, 60.69075
248.5945, 60.48514
250.5230, 60.02317
252.4514, 59.31858
254.3799, 58.49217
256.3083, 57.71375
258.2368, 56.98426
260.1653, 56.28564
262.0938, 55.59747
264.0222, 55.00658
265.9507, 54.58143
267.8792, 54.21234
269.8076, 54.07689
271.7361, 53.89355
273.6646, 52.75904
275.5930, 50.66121
277.5215, 49.00255
279.4500, 48.47700
281.3784, 47.67188
283.3069, 46.01415
285.2354, 44.04635
287.1638, 42.12617
289.0923, 40.33297
291.0208, 38.97606
292.9492, 38.17187
294.8777, 37.22271
296.8062, 35.57159
298.7346, 34.29423
300.6631, 34.27210
302.5916, 34.45453
304.5200, 33.28380
306.4485, 31.21651
308.3770, 30.10776
310.3054, 30.69391
312.2339, 30.52221
314.1624, 28.56071
316.0908, 26.74883
318.0193, 26.08482
319.9478, 25.91285
321.8762, 25.44123
323.8047, 24.72592
325.7332, 24.20877
327.6616, 24.19907
329.5901, 23.81565
331.5186, 22.32011
333.4471, 21.26401
335.3755, 21.80237
337.3040, 22.84767
339.2325, 23.31995
341.1609, 23.22576
343.0894, 22.74716
345.0179, 21.21017
346.9463, 20.41668
348.8748, 21.02012
350.8033, 21.54855
352.7317, 21.30273
354.6602, 20.72841
356.5887, 20.16768
358.5171, 19.64194
360.4456, 19.36158
362.3741, 19.35903
364.3025, 19.58853
366.2310, 20.42615
368.1595, 20.85320
370.0879, 20.01934
372.0164, 18.99087
373.9449, 18.68823
375.8733, 18.92062
377.8018, 18.91278
379.7303, 18.55237
381.6587, 18.48449
383.5872, 18.93911
385.5157, 19.14461
387.4441, 18.43765
389.3726, 17.86768
391.3011, 18.34748
393.2295, 19.29809
395.1580, 19.58522
397.0865, 19.16573
399.0149, 18.53859
400.9434, 17.58373
402.8719, 16.93639
404.8003, 16.83992
406.7288, 16.96473
408.6573, 17.34745
410.5857, 17.71245
412.5142, 17.68842
414.4427, 17.37069
416.3711, 17.24438
418.2996, 17.31692
420.2281, 17.29554
422.1565, 17.10647
424.0850, 16.89382
426.0135, 16.62993
427.9419, 16.44031
429.8704, 16.49397
431.7989, 16.62474
433.7273, 16.50396
435.6558, 16.19428
437.5843, 15.99887
439.5127, 15.94566
441.4412, 15.93723
443.3697, 15.99157
445.2981, 16.03355
447.2266, 15.91556
449.1551, 15.90233
451.0835, 16.41162
453.0120, 17.08150
454.9405, 17.21891
456.8689, 16.87478
458.7974, 16.41409
460.7259, 15.78924
462.6543, 15.30338
464.5828, 14.98247
466.5113, 14.82531
468.4397, 14.83731
470.3682, 15.01089
472.2967, 15.51275
474.2251, 16.09053
476.1536, 16.27726
478.0821, 16.09014
480.0105, 16.01923
481.9390, 16.24105
483.8675, 16.23196
485.7959, 15.48663
487.7244, 15.18442
489.6529, 16.43908
491.5813, 17.49865
493.5098, 16.52623
495.4383, 14.82467
497.3667, 14.32310
499.2952, 14.97985
501.2237, 15.36205
503.1521, 15.42206
505.0806, 15.27363
507.0091, 14.73379
508.9375, 14.30759
510.8660, 14.01940
512.7944, 14.00020
514.7229, 14.71773
516.6514, 15.44500
518.5798, 15.19164
520.5083, 14.25529
522.4368, 14.00521
524.3652, 14.65200
526.2937, 14.77065
528.2222, 14.17986
530.1506, 13.65181
532.0791, 13.28237
534.0076, 13.07269
535.9360, 13.15818
537.8645, 13.26128
539.7930, 13.10090
541.7214, 13.28769
543.6499, 13.02481
545.5784, 13.47358
547.5068, 13.72553
549.4353, 13.77589
551.3638, 13.79567
553.2922, 13.84023
555.2207, 13.68690
557.1492, 13.04679
559.0776, 12.57384
561.0061, 12.64775
562.9346, 12.87127
564.8630, 13.04150
566.7915, 13.08657
568.7200, 12.72507
570.6484, 12.07489
572.5769, 12.02012
574.5054, 11.64563
576.4338, 11.19215
578.3624, 11.38662
580.2908, 10.64222
582.2193, 10.83635
584.1478, 11.25085
586.0762, 11.97538
588.0047, 12.48833
589.9332, 12.24644
591.8616, 11.67289
593.7901, 11.34414
595.7186, 11.20240
597.6470, 11.04907
599.5755, 10.89602
601.5040, 11.03763
603.4324, 11.64558
605.3609, 11.94452
607.2894, 11.58487
609.2178, 11.22983
611.1463, 10.87932
613.0748, 10.71260
615.0032, 11.03108
616.9317, 11.37326
618.8602, 11.12605
620.7886, 11.42093
622.7171, 10.91412
624.6456, 11.53996
626.5740, 11.87103
628.5025, 11.86968
630.4310, 11.68134
632.3594, 11.22943
634.2879, 10.75806
636.2164, 10.11559
638.1448, 9.711963
640.0733, 9.580436
642.0018, 9.789031
643.9302, 10.90511
645.8587, 11.84473
647.7872, 11.53232
649.7156, 10.59628
651.6441, 9.668045
653.5726, 8.911145
655.5010, 9.315031
657.4295, 11.08186
659.3580, 12.07486
661.2864, 12.14128
663.2149, 11.74261
665.1434, 10.36803
667.0718, 9.905192
669.0003, 11.68973
670.9288, 12.57418
672.8572, 9.988599
674.7857, 7.770926
676.7142, 8.822783
678.6426, 10.84306
680.5711, 11.84222
682.4996, 12.07278
684.4280, 11.77862
686.3565, 11.11625
688.2850, 11.13544
690.2134, 11.90450
692.1419, 12.07098
694.0704, 11.56631
695.9988, 10.89650
697.9273, 9.974106
699.8558, 9.507458
701.7842, 9.901282
703.7127, 10.29579
705.6412, 10.36181
707.5696, 10.33228
709.4981, 10.18925
711.4266, 10.12517
713.3550, 10.42282
715.2835, 10.80612
717.2120, 10.84272
719.1404, 10.66438
721.0689, 10.60797
722.9974, 10.65096
724.9258, 10.73279
726.8543, 10.84048
728.7828, 10.71852
730.7112, 10.30080
732.6397, 10.04800
734.5682, 10.06766
736.4966, 10.14941
738.4251, 10.34224
740.3536, 10.44683
742.2820, 10.20994
744.2105, 10.16194
746.1390, 10.70079
748.0674, 11.32619
749.9959, 11.90727
751.9244, 12.17809
753.8528, 11.48164
755.7813, 10.52181
757.7098, 10.44334
759.6382, 10.95460
761.5667, 11.46201
763.4952, 11.90871
765.4236, 11.95131
767.3521, 11.53831
769.2806, 11.38248
771.2090, 11.64985
773.1375, 11.74739
775.0660, 11.33232
776.9944, 11.30632
778.9229, 12.08015
780.8514, 12.64110
782.7798, 12.83444
784.7083, 12.72210
786.6368, 12.07661
788.5652, 11.47329
790.4937, 11.17295
792.4222, 11.09546
794.3506, 11.37650
796.2791, 11.66085
798.2076, 11.51230
800.1360, 11.21460
802.0645, 11.30351
803.9930, 11.55635
805.9214, 11.25308
807.8499, 10.54853
809.7784, 10.40933
811.7068, 10.83658
813.6353, 11.18386
815.5638, 11.46149
817.4922, 11.52987
819.4207, 11.32602
821.3492, 11.33550
823.2776, 11.69456
825.2061, 11.74005
827.1346, 11.17960
829.0630, 11.00260
830.9915, 11.70802
832.9200, 12.17511
834.8484, 11.80368
836.7769, 11.50720
838.7054, 11.88540
840.6339, 12.15425
842.5623, 11.89004
844.4908, 11.47198
846.4193, 10.85633
848.3477, 10.52454
850.2762, 11.29013
852.2047, 12.25580
854.1331, 12.21241
856.0616, 11.69436
857.9901, 11.63174
859.9185, 11.76168
861.8470, 11.51673
863.7755, 10.94399
865.7039, 9.881405
867.6324, 8.653561
869.5609, 8.969137
871.4893, 10.54161
873.4178, 10.92969
875.3463, 10.07953
877.2747, 9.648052
879.2032, 9.777534
881.1317, 10.06238
883.0601, 10.58413
884.9886, 10.52097
886.9171, 9.289043
888.8455, 9.008112
890.7740, 10.95185
892.7025, 11.77971
894.6309, 10.31534
896.5594, 9.171912
898.4879, 8.565125
900.4163, 8.614589
902.3448, 10.21958
904.2733, 11.11783
906.2017, 9.889706
908.1302, 8.804078
910.0587, 8.971808
911.9871, 9.320399
913.9156, 9.291421
915.8441, 9.270638
917.7725, 9.703585
919.7010, 9.969853
921.6295, 9.440488
923.5579, 8.759839
925.4864, 8.418631
927.4149, 8.231395
929.3433, 7.906542
931.2718, 7.762049
933.2003, 8.445918
935.1287, 9.279204
937.0572, 9.295184
938.9857, 8.859496
940.9141, 8.404141
942.8426, 8.053775
944.7711, 8.109274
946.6995, 8.447282
948.6280, 8.836144
950.5565, 9.224730
952.4849, 9.535564
954.4134, 9.695220
956.3419, 9.302782
958.2703, 8.484943
960.1988, 7.826035
962.1273, 7.342766
964.0557, 7.272256
965.9842, 7.544339
967.9127, 7.292888
969.8411, 7.597367
971.7696, 7.808180
973.6981, 7.892134
975.6265, 8.317586
977.5550, 8.131801
979.4835, 8.149179
981.4119, 8.373411
983.3404, 8.132818
985.2689, 7.423732
987.1973, 7.061086
989.1258, 7.104737
991.0543, 7.703952
992.9827, 8.872631
994.9112, 9.433625
996.8397, 9.274372
998.7681, 8.585320
1000.697, 7.310527
1002.625, 6.763656
1004.554, 7.150591
1006.482, 7.435574
1008.410, 7.485190
1010.339, 7.717412
1012.267, 8.216311
1014.196, 8.635476
1016.124, 8.939046
1018.053, 9.229852
1019.981, 9.658827
1021.910, 9.439285
1023.838, 8.159916
1025.767, 7.479620
1027.695, 7.798427
1029.624, 7.787223
1031.552, 7.038247
1033.480, 6.922070
1035.409, 8.080812
1037.337, 8.385394
1039.266, 7.001874
1041.194, 6.584455
1043.123, 7.812622
1045.051, 8.514292
1046.980, 8.716569
1048.908, 8.267163
1050.837, 8.191407
1052.765, 7.931983
1054.694, 7.034784
1056.622, 7.418981
1058.551, 6.660964
1060.479, 6.614693
1062.407, 7.627511
1064.336, 8.078711
1066.264, 7.720468
1068.193, 7.837928
1070.121, 7.799494
1072.050, 7.490616
1073.978, 7.620370
1075.907, 6.975290
1077.835, 6.848327
1079.764, 6.620430
1081.692, 6.227640
1083.621, 6.584029
1085.549, 6.541479
1087.478, 6.647055
1089.406, 7.137132
1091.335, 7.007987
1093.263, 7.591968
1095.192, 7.826284
1097.120, 7.686052
1099.048, 7.000733
1100.977, 7.363233
1102.905, 6.203597
1104.834, 7.535751
1106.762, 8.221949
1108.691, 8.300680
1110.619, 7.886183
1112.548, 7.195674
1114.476, 7.193941
1116.405, 7.612953
1118.333, 7.580157
1120.262, 7.233462
1122.190, 6.786011
1124.119, 6.389394
1126.047, 6.401299
1127.975, 6.697712
1129.904, 7.344645
1131.832, 7.885081
1133.761, 7.144383
1135.689, 7.913116
1137.618, 7.022356
1139.546, 8.153280
1141.475, 7.780293
1143.403, 7.125228
1145.332, 7.572038
1147.260, 8.153873
1149.189, 8.016646
1151.117, 7.663549
1153.046, 7.296133
1154.974, 7.106303
1156.902, 7.358109
1158.831, 7.606619
1160.759, 7.755826
1162.688, 7.596932
1164.616, 6.488424
1166.545, 6.106771
1168.473, 7.908197
1170.402, 8.678377
1172.330, 6.749529
1174.259, 5.493659
1176.187, 5.898439
1178.116, 6.430315
1180.044, 6.957585
1181.973, 7.093681
1183.901, 6.628644
1185.829, 6.499557
1187.758, 6.844796
1189.686, 7.196696
1191.615, 7.573329
1193.543, 7.531559
1195.472, 7.660205
1197.400, 7.013591
1199.329, 7.343186
1201.257, 7.092997
1203.186, 6.449920
1205.114, 6.334021
1207.043, 6.602428
1208.971, 6.915736
1210.900, 7.213256
1212.828, 7.461217
1214.756, 7.513269
1216.685, 6.873154
1218.613, 6.251504
1220.542, 6.675275
1222.470, 7.192263
1224.399, 6.878084
1226.327, 6.499441
1228.256, 6.436255
1230.184, 6.634137
1232.113, 7.469564
1234.041, 7.869791
1235.970, 7.017958
1237.898, 6.648768
1239.827, 7.402150
1241.755, 7.741019
1243.683, 7.235918
1245.612, 7.333480
1247.540, 8.295155
1249.469, 8.759108
1251.397, 8.636091
1253.326, 8.225821
1255.254, 7.586985
1257.183, 6.972296
1259.111, 6.522432
1261.040, 6.996540
1262.968, 6.763145
1264.897, 7.695384
1266.825, 7.198595
1268.754, 7.411591
1270.682, 7.746233
1272.610, 7.641711
1274.539, 7.389243
1276.467, 7.135078
1278.396, 6.926166
1280.324, 6.741746
1282.253, 6.646742
1284.181, 6.661699
1286.110, 6.854591
1288.038, 7.303399
1289.967, 7.716603
1291.895, 8.125492
1293.824, 8.340437
1295.752, 8.287958
1297.681, 8.093948
1299.609, 7.772294
1301.537, 7.291313
1303.466, 6.783740
1305.394, 7.082886
1307.323, 7.765456
1309.251, 7.473468
1311.180, 7.124558
1313.108, 8.712977
1315.037, 10.29388
1316.965, 9.918753
1318.894, 8.901366
1320.822, 7.399606
1322.751, 6.517777
1324.679, 6.804086
1326.608, 7.582603
1328.536, 8.952375
1330.464, 9.202302
1332.393, 9.281792
1334.321, 7.577621
1336.250, 8.256029
1338.178, 7.733311
1340.107, 6.294864
1342.035, 6.426630
1343.964, 7.551572
1345.892, 8.453105
1347.821, 8.968159
1349.749, 8.526027
1351.678, 7.993283
1353.606, 8.456475
1355.535, 8.773263
1357.463, 7.931874
1359.391, 7.307512
1361.320, 7.465752
1363.248, 7.777692
1365.177, 8.270497
1367.105, 8.623971
1369.034, 8.770589
1370.962, 8.445104
1372.891, 7.748815
1374.819, 7.315254
1376.748, 7.115189
1378.676, 6.941809
1380.605, 6.965863
1382.533, 7.820877
1384.462, 8.450955
1386.390, 7.421768
1388.318, 6.745975
1390.247, 7.902510
1392.175, 8.677493
1394.104, 8.102413
1396.032, 7.847020
1397.961, 8.384210
1399.889, 8.882583
1401.818, 9.194773
1403.746, 9.246589
1405.675, 9.159818
1407.603, 9.165555
1409.532, 9.118371
1411.460, 8.665729
1413.389, 7.962020
1415.317, 6.809073
1417.245, 6.328672
1419.174, 7.474204
1421.102, 8.489595
1423.031, 8.657110
1424.959, 8.497904
1426.888, 8.277382
1428.816, 7.946622
1430.745, 7.414958
1432.673, 7.423498
1434.602, 7.841776
1436.530, 8.516850
1438.459, 8.986871
1440.387, 7.942174
1442.316, 7.049433
1444.244, 8.232000
1446.172, 8.943726
1448.101, 8.035997
1450.029, 7.233759
1451.958, 6.770842
1453.886, 7.043292
1455.815, 7.963206
1457.743, 8.227597
1459.672, 8.047574
1461.600, 8.250481
1463.529, 8.466554
1465.457, 7.829139
1467.386, 7.278409
1469.314, 7.825326
1471.243, 8.291900
1473.171, 8.187603
1475.099, 7.979894
1477.028, 7.609268
1478.956, 7.720253
1480.885, 8.364126
1482.813, 7.942404
1484.742, 8.347654
1486.670, 7.432758
1488.599, 8.480183
1490.527, 8.084858
1492.456, 7.709991
1494.384, 8.694483
1496.313, 9.380464
1498.241, 8.997406
1500.170, 8.590896
1502.098, 8.281491
1504.026, 8.160906
1505.955, 8.199987
1507.883, 7.728261
1509.812, 7.922489
1511.740, 7.462055
1513.669, 8.022246
1515.597, 8.136495
1517.526, 8.068691
1519.454, 7.872104
1521.383, 7.993030
1523.311, 8.581240
1525.240, 8.877896
1527.168, 8.724172
1529.097, 8.332156
1531.025, 7.990297
1532.953, 7.615081
1534.882, 7.104472
1536.810, 6.122439
1538.739, 5.708513
1540.667, 6.796416
1542.596, 7.924568
1544.524, 8.674325
1546.453, 8.435643
1548.381, 8.817051
1550.310, 7.294564
1552.238, 8.196317
1554.167, 7.622073
1556.095, 6.620166
1558.024, 7.619329
1559.952, 8.769938
1561.880, 8.629725
1563.809, 8.467684
1565.737, 8.565537
1567.666, 8.270633
1569.594, 7.868541
1571.523, 7.739125
1573.451, 7.513745
1575.380, 7.298202
1577.308, 7.316245
1579.237, 7.506242
1581.165, 7.960378
1583.094, 7.785496
1585.022, 8.917950
1586.951, 7.752738
1588.879, 7.287465
1590.807, 7.449898
1592.736, 7.846654
1594.664, 8.082727
1596.593, 7.713775
1598.521, 7.494162
1600.450, 7.814743
1602.378, 7.855423
1604.307, 7.576585
1606.235, 7.596170
1608.164, 7.711549
1610.092, 7.280745
1612.021, 6.897269
1613.949, 7.457472
1615.878, 7.841525
1617.806, 7.428432
1619.734, 7.459086
1621.663, 8.311095
1623.591, 8.209239
1625.520, 8.446041
1627.448, 7.643318
1629.377, 8.403735
1631.305, 7.864868
1633.234, 7.359393
1635.162, 7.146083
1637.091, 7.638000
1639.019, 7.285496
1640.948, 7.359961
1642.876, 7.380080
1644.805, 7.186193
1646.733, 7.471030
1648.661, 7.279644
1650.590, 7.462113
1652.518, 8.017396
1654.447, 8.080256
1656.375, 7.961913
1658.304, 7.826643
1660.232, 7.697154
1662.161, 7.411189
1664.089, 7.428055
1666.018, 7.224726
1667.946, 7.472620
1669.875, 7.452505
1671.803, 7.658410
1673.732, 8.128015
1675.660, 7.632930
1677.589, 6.712756
1679.517, 6.176201
1681.445, 6.210394
1683.374, 7.581042
1685.302, 8.510609
1687.231, 8.059371
1689.159, 7.737521
1691.088, 7.776801
1693.016, 7.874043
1694.945, 7.912695
1696.873, 8.252240
1698.802, 8.539814
1700.730, 8.673144
1702.659, 8.416953
1704.587, 8.611303
1706.516, 7.543413
1708.444, 8.344430
1710.372, 7.930285
1712.301, 7.161955
1714.229, 7.749282
1716.158, 8.198663
1718.086, 7.618025
1720.015, 6.984931
1721.943, 6.336751
1723.872, 6.913733
1725.800, 8.212110
1727.729, 7.995074
1729.657, 7.034469
1731.586, 6.179430
1733.514, 6.354881
1735.443, 6.245729
1737.371, 7.857484
1739.299, 7.126830
1741.228, 7.341306
1743.156, 7.932105
1745.085, 7.048894
1747.013, 6.326459
1748.942, 6.502604
1750.870, 6.981114
1752.799, 7.730966
1754.727, 7.813632
1756.656, 7.477128
1758.584, 7.557180
1760.513, 7.954358
1762.441, 8.181418
1764.370, 7.518218
1766.298, 6.871824
1768.226, 7.164076
1770.155, 7.522507
1772.083, 7.895610
1774.012, 7.716326
1775.940, 7.875696
1777.869, 7.791602
1779.797, 7.582590
1781.726, 7.452991
1783.654, 6.961318
1785.583, 6.596890
1787.511, 6.447164
1789.440, 6.492642
1791.368, 6.956373
1793.297, 7.134711
1795.225, 8.173512
1797.153, 7.967437
1799.082, 8.773463
1801.010, 9.228649
1802.939, 8.421096
1804.867, 7.638627
1806.796, 7.494273
1808.724, 8.099025
1810.653, 8.235057
1812.581, 7.503160
1814.510, 7.180664
1816.438, 7.216023
1818.367, 7.247717
1820.295, 7.264049
1822.224, 6.834295
1824.152, 6.359482
1826.080, 5.810738
1828.009, 5.828130
1829.937, 6.959105
1831.866, 7.773495
1833.794, 7.924213
1835.723, 7.401866
1837.651, 6.633391
1839.580, 6.510995
1841.508, 7.191231
1843.437, 6.800322
1845.365, 7.890539
1847.294, 7.100007
1849.222, 7.567136
1851.151, 8.016090
1853.079, 7.730389
1855.007, 7.654993
1856.936, 7.477486
1858.864, 6.785075
1860.793, 6.318013
1862.721, 6.636389
1864.650, 7.022281
1866.578, 7.081530
1868.507, 6.810596
1870.435, 6.291503
1872.364, 7.088939
1874.292, 8.251196
1876.221, 7.838779
1878.149, 7.320803
1880.078, 6.994748
1882.006, 6.775302
1883.934, 7.017236
1885.863, 6.828309
1887.791, 6.594083
1889.720, 7.125846
1891.648, 7.226120
1893.577, 6.616355
1895.505, 6.842999
1897.434, 7.470710
1899.362, 7.074018
1901.291, 6.643166
1903.219, 7.287482
1905.148, 7.451879
1907.076, 6.935790
1909.005, 6.626879
1910.933, 6.963041
1912.861, 7.107193
1914.790, 6.967409
1916.718, 7.213395
1918.647, 7.359564
1920.575, 7.402084
1922.504, 7.021719
1924.432, 6.544240
1926.361, 7.367178
1928.289, 8.015779
1930.218, 7.641548
1932.146, 7.064176
1934.075, 6.624285
1936.003, 6.655115
1937.932, 7.442372
1939.860, 7.836392
1941.788, 7.023246
1943.717, 6.478389
1945.645, 6.938106
1947.574, 7.427209
1949.502, 7.670061
1951.431, 7.396573
1953.359, 7.823549
1955.288, 7.050843
1957.216, 7.929855
1959.145, 8.064278
1961.073, 7.582878
1963.002, 7.302732
1964.930, 6.912070
1966.859, 6.529810
1968.787, 6.708554
1970.715, 6.933670
1972.644, 6.949631
1974.572, 6.930400
1976.501, 7.412939
1978.429, 8.205797
1980.358, 7.573382
1982.286, 7.080797
1984.215, 7.456149
1986.143, 6.802799
1988.072, 6.476297
1990.000, 7.225523
1991.929, 8.006942
1993.857, 7.879715
1995.786, 7.304131
1997.714, 7.236833
1999.642, 7.133146
2001.571, 6.884814
2003.499, 6.959998
2005.428, 6.882704
2007.356, 6.213185
2009.285, 6.571317
2011.213, 6.412840
2013.142, 7.345738
2015.070, 6.656921
2016.999, 7.108294
2018.927, 7.402061
2020.856, 7.260491
2022.784, 7.471451
2024.713, 7.283819
2026.641, 6.746613
2028.569, 7.444361
2030.498, 7.801843
2032.426, 6.906577
2034.355, 6.289069
2036.283, 6.523268
2038.212, 7.218516
2040.140, 7.519279
2042.069, 7.074881
2043.997, 6.799972
2045.926, 6.761460
2047.854, 6.574452
2049.782, 6.703232
2051.711, 6.847051
2053.639, 6.470203
2055.568, 6.379695
2057.497, 6.427972
2059.425, 6.271001
2061.354, 6.425228
2063.282, 6.261744
2065.210, 6.733855
2067.139, 6.716679
2069.067, 6.927969
2070.996, 6.839861
2072.924, 6.290271
2074.853, 6.463310
2076.781, 6.435829
2078.710, 6.430175
2080.638, 6.600995
2082.567, 6.809455
2084.495, 6.598703
2086.424, 6.661608
2088.352, 7.163814
2090.281, 6.778028
2092.209, 6.543847
2094.137, 6.965376
2096.066, 7.023871
2097.994, 6.771450
2099.923, 5.933141
2101.851, 5.823123
2103.780, 6.559889
2105.708, 7.151590
2107.637, 8.103047
2109.565, 7.925952
2111.494, 6.647701
2113.422, 5.519146
2115.351, 4.786838
2117.279, 5.190957
2119.208, 6.738730
2121.136, 7.679526
2123.064, 6.133497
2124.993, 5.700705
2126.921, 7.022616
2128.850, 7.169805
2130.778, 6.238555
2132.707, 5.893221
2134.635, 6.165350
2136.564, 6.656790
2138.492, 7.027377
2140.421, 6.881200
2142.349, 6.904482
2144.278, 7.431457
2146.206, 7.513910
2148.135, 6.625297
2150.063, 5.951009
2151.991, 5.782792
2153.920, 6.584603
2155.848, 7.580169
2157.777, 7.643609
2159.705, 6.920704
2161.634, 6.598362
2163.562, 6.017815
2165.491, 5.607059
2167.419, 6.003587
2169.348, 6.034465
2171.276, 5.387034
2173.205, 6.346011
2175.133, 7.033147
2177.062, 7.058848
2178.990, 7.011456
2180.918, 6.505687
2182.847, 6.195306
2184.775, 6.592580
2186.704, 6.898469
2188.632, 7.026448
2190.561, 7.394605
2192.489, 7.486556
2194.418, 7.178676
2196.346, 6.582875
2198.275, 5.918972
2200.203, 6.582777
2202.132, 7.002999
2204.060, 6.137084
2205.989, 5.713222
2207.917, 6.124076
2209.845, 5.851327
2211.774, 5.918958
2213.702, 6.963237
2215.631, 7.447930
2217.559, 6.782722
2219.488, 6.097936
2221.416, 6.312088
2223.345, 6.637212
2225.273, 5.904409
2227.202, 5.462149
2229.130, 5.938082
2231.059, 6.599280
2232.987, 6.627855
2234.916, 6.887326
2236.844, 5.814345
2238.772, 6.866344
2240.701, 6.277695
2242.629, 6.014149
2244.558, 6.629769
2246.486, 6.585986
2248.415, 6.488477
2250.343, 6.336072
2252.272, 6.611053
2254.200, 7.153714
2256.129, 6.345500
2258.057, 5.410266
2259.986, 6.047392
2261.914, 6.559415
2263.843, 6.766984
2265.771, 6.854783
2267.699, 6.470968
2269.628, 6.635972
2271.556, 5.971769
2273.485, 6.444111
2275.413, 6.471082
2277.342, 6.139800
2279.270, 6.364431
2281.199, 6.259537
2283.127, 6.278890
2285.056, 6.401444
2286.984, 6.322862
2288.913, 6.647119
2290.841, 6.610647
2292.770, 6.935753
2294.698, 6.659963
2296.626, 6.575197
2298.555, 6.476082
2300.483, 6.170968
2302.412, 5.935937
2304.340, 5.857943
2306.269, 5.842611
2308.197, 6.007038
2310.126, 6.051794
2312.054, 5.547893
2313.983, 6.252998
2315.911, 6.366869
2317.840, 5.991483
2319.768, 6.442106
2321.697, 6.218192
2323.625, 6.057907
2325.553, 6.180585
2327.482, 5.885196
2329.410, 6.129667
2331.339, 5.606586
2333.267, 5.579713
2335.196, 5.656300
2337.124, 5.745487
2339.053, 5.833932
2340.981, 6.228210
2342.910, 6.480516
2344.838, 6.351480
2346.767, 6.833128
2348.695, 6.245480
2350.624, 5.920088
2352.552, 6.046889
2354.480, 5.535303
2356.409, 5.671629
2358.337, 6.578847
2360.266, 5.940458
2362.194, 4.777593
2364.123, 5.458416
2366.051, 6.030648
2367.980, 5.482315
2369.908, 5.941496
2371.837, 5.996303
2373.765, 5.383623
2375.694, 6.215319
2377.622, 6.769437
2379.551, 5.991385
2381.479, 6.072008
2383.407, 5.944927
2385.336, 5.288940
2387.264, 5.174188
2389.193, 5.452330
2391.121, 5.106013
2393.050, 5.191743
2394.978, 5.002244
2396.907, 5.203113
2398.835, 5.163558
2400.764, 5.359416
2402.692, 5.212556
2404.621, 4.416116
2406.549, 5.333826
2408.478, 6.004167
2410.406, 5.960263
2412.334, 4.781110
2414.263, 4.227999
2416.191, 5.289705
2418.120, 5.584138
2420.048, 5.501251
2421.977, 5.903969
2423.905, 5.301649
2425.834, 4.462557
2427.762, 3.797505
2429.691, 4.912259
2431.619, 6.084493
2433.548, 5.820808
2435.476, 5.907053
2437.405, 6.281732
2439.333, 6.355292
2441.261, 6.300260
2443.190, 5.688445
2445.118, 6.332001
2447.047, 6.511944
2448.975, 5.454133
2450.904, 5.475780
2452.832, 5.456771
2454.761, 5.145478
2456.689, 6.001589
2458.618, 6.340681
2460.546, 4.948335
2462.475, 4.286019
2464.403, 4.684613
2466.332, 5.762507
2468.260, 5.530972
2470.188, 4.940273
2472.117, 4.739252
2474.045, 5.299608
2475.974, 6.001839
2477.902, 5.059777
2479.831, 4.515685
2481.759, 4.441576
2483.688, 3.785670
2485.616, 3.753066
2487.545, 4.502459
2489.473, 5.270086
2491.402, 5.798242
2493.330, 5.707593
2495.259, 5.269172
2497.187, 5.416270
2499.115, 6.341121
2501.044, 5.179362
2502.972, 5.582084
2504.901, 4.205834
2506.829, 5.018943
2508.758, 5.243942
2510.686, 4.545208
2512.615, 4.497186
2514.543, 4.867681
2516.472, 5.352674
2518.400, 5.215276
2520.329, 4.671688
2522.257, 4.437179
2524.186, 5.199534
2526.114, 6.281956
2528.042, 5.596026
2529.971, 5.697275
2531.899, 6.668543
2533.828, 6.503936
2535.756, 5.968812
2537.685, 5.275809
2539.613, 5.698781
2541.542, 5.804232
2543.470, 5.432245
2545.399, 5.831625
2547.327, 6.020345
2549.256, 5.643161
2551.184, 5.014259
2553.113, 4.422395
2555.041, 3.714702
2556.969, 4.515068
2558.898, 5.258411
2560.826, 5.044456
2562.755, 4.378106
2564.683, 3.686752
2566.612, 4.508090
2568.540, 5.331714
2570.469, 5.441411
2572.397, 5.754950
2574.326, 5.776957
2576.254, 5.283350
2578.183, 5.489874
2580.111, 5.253814
2582.040, 4.580396
2583.968, 4.407592
2585.896, 4.710806
2587.825, 4.866414
2589.753, 4.845680
2591.682, 5.104838
2593.610, 4.925364
2595.539, 5.345845
2597.467, 5.407001
2599.396, 5.359578
2601.324, 4.396707
2603.253, 4.521595
2605.181, 4.937086
2607.110, 4.175660
2609.038, 4.464212
2610.967, 4.922202
2612.895, 4.102582
2614.823, 3.670754
2616.752, 3.689851
2618.680, 4.221653
2620.609, 4.725348
2622.537, 4.936892
2624.466, 4.998668
2626.394, 4.818861
2628.323, 4.572828
2630.251, 5.138224
2632.180, 5.278499
2634.108, 4.945058
2636.037, 4.564287
2637.965, 4.022286
2639.894, 3.774991
2641.822, 4.279810
2643.750, 4.677960
2645.679, 4.948939
2647.607, 4.724068
2649.536, 4.381896
2651.464, 4.366886
2653.393, 5.445147
2655.321, 4.406724
2657.250, 3.455580
2659.178, 4.527341
2661.107, 5.330429
2663.035, 5.419179
2664.964, 4.634517
2666.892, 4.627397
2668.821, 4.679674
2670.749, 4.435671
2672.677, 4.437066
2674.606, 4.334878
2676.534, 3.985794
2678.463, 3.887280
2680.391, 3.795628
2682.320, 3.682384
2684.248, 4.264124
2686.177, 5.419490
2688.105, 6.395693
2690.034, 4.591834
2691.962, 3.618416
2693.891, 3.828713
2695.819, 4.240010
2697.748, 4.173000
2699.676, 3.858751
2701.604, 3.933601
2703.533, 4.356299
2705.461, 4.832193
2707.390, 4.951694
2709.318, 5.067196
2711.247, 4.669518
2713.175, 4.861681
2715.104, 4.784043
2717.032, 4.969499
2718.961, 4.765175
2720.889, 4.986275
2722.818, 4.911067
2724.746, 4.180308
2726.675, 4.807454
2728.603, 4.916954
2730.531, 4.100403
2732.460, 4.822145
2734.388, 4.673118
2736.317, 3.705770
2738.245, 4.242445
2740.174, 4.638953
2742.102, 4.584966
2744.031, 3.668067
2745.959, 4.249594
2747.888, 4.952302
2749.816, 3.945170
2751.745, 4.346488
2753.673, 4.707769
2755.602, 4.053686
2757.530, 4.320530
2759.458, 3.158336
2761.387, 4.099197
2763.315, 3.818714
2765.244, 3.796429
2767.172, 4.116007
2769.101, 3.414605
2771.029, 2.395185
2772.958, 1.752041
2774.886, 3.796039
2776.815, 4.768664
2778.743, 4.653154
2780.672, 4.221591
2782.600, 4.307664
2784.529, 4.132963
2786.457, 3.973137
2788.385, 3.702592
2790.314, 3.593077
2792.242, 3.315349
2794.171, 3.365309
2796.099, 3.323706
2798.028, 3.326298
2799.956, 3.552445
2801.885, 3.463623
2803.813, 2.808990
2805.742, 1.131302
2807.670, 1.139097
2809.599, 2.209153
2811.527, 4.073195
2813.456, 3.064072
2815.384, 2.730522
2817.313, 4.478395
2819.241, 3.359439
2821.169, 3.043861
2823.098, 3.839134
2825.026, 3.515828
2826.955, 2.725293
2828.883, 2.584626
2830.812, 3.447428
2832.740, 4.479485
2834.669, 4.763826
2836.597, 4.078023
2838.526, 4.445610
2840.454, 4.455391
2842.383, 3.896331
2844.311, 4.420827
2846.240, 4.019187
2848.168, 3.176712
2850.096, 2.061843
2852.025, 2.086839
2853.953, 2.670439
2855.882, 3.216911
2857.810, 4.072674
2859.739, 4.333480
2861.667, 3.783653
2863.596, 3.235730
2865.524, 2.954211
2867.453, 2.887531
2869.381, 2.629322
2871.310, 2.941497
2873.238, 3.385388
2875.167, 3.506626
2877.095, 3.289510
2879.023, 3.105536
2880.952, 3.013682
2882.880, 3.154327
2884.809, 2.844512
2886.737, 2.608103
2888.666, 3.149164
2890.594, 3.042921
2892.523, 3.276877
2894.451, 3.878817
2896.380, 2.718135
2898.308, 2.070558
2900.237, 2.081850
2902.165, 2.183573
2904.094, 2.060985
2906.022, 2.384501
2907.950, 2.406249
2909.879, 2.754147
2911.807, 2.506439
2913.736, 2.185527
2915.664, 1.853932
2917.593, 2.065648
2919.521, 2.682268
2921.450, 3.551583
2923.378, 3.929803
2925.307, 3.713100
2927.235, 3.662214
2929.164, 3.564828
2931.092, 2.694320
2933.021, 2.939609
2934.949, 2.244097
2936.877, 2.899863
2938.806, 3.023041
2940.734, 2.984923
2942.663, 1.707039
2944.591, 1.172695
2946.520, 1.782326
2948.448, 2.944814
2950.377, 2.770951
2952.305, 2.362076
2954.234, 2.828962
2956.162, 2.137241
2958.091, 2.870327
2960.019, 2.431383
2961.948, 3.242485
2963.876, 2.252917
2965.804, 2.364315
2967.733, 3.063547
2969.661, 3.117733
2971.590, 3.440800
2973.518, 3.384352
2975.447, 2.704891
2977.375, 1.446687
2979.304, 1.594965
2981.232, 3.362270
2983.161, 2.134696
2985.089, 1.993635
2987.018, 2.362580
2988.946, 1.529102
2990.875, 3.169872
2992.803, 3.427721
2994.731, 1.947386
2996.660, 1.227062
2998.588, 1.705813
3000.517, 2.036462
3002.445, 2.053849
3004.374, 2.645657
3006.302, 2.090319
3008.231, 1.690197
3010.159, 2.609363
3012.088, 3.234677
3014.016, 3.073501
3015.945, 2.499274
3017.873, 1.912562
3019.802, 2.154465
3021.730, 2.513194
3023.658, 1.057334
3025.587, 2.339893
3027.515, 2.660850
3029.444, 1.833296
3031.372, 2.217384
3033.301, 2.471223
3035.229, 2.622225
3037.158, 2.924718
3039.086, 3.014240
3041.015, 2.036263
3042.943, 0.7723016
3044.872, 0.6768914
3046.800, 0.8936985
3048.729, 1.599384
3050.657, 2.804240
3052.585, 2.238642
3054.514, 0.9537683
3056.442, 0.8776996
3058.371, 1.898581
3060.299, 6.2765934E-02
3062.228, 0.9092403
3064.156, 2.337195
3066.085, 2.550766
3068.013, 2.543149
3069.942, 2.544745
3071.870, 1.829365
3073.799, 1.749596
3075.727, 1.800303
3077.656, 1.939730
3079.584, 1.399065
3081.512, 1.838703
3083.441, 1.772478
3085.369, 2.408974
3087.298, 2.195439
3089.226, 2.567721
3091.155, 2.956696
3093.083, 2.257603
3095.012, 2.353322
3096.940, 2.002919
3098.869, 1.728137
3100.797, 0.8599329
3102.726, 0.6134638
3104.654, 1.069466
3106.583, 1.585075
3108.511, 2.068169
3110.439, 2.223185
3112.368, 1.965693
3114.296, 2.478020
3116.225, 1.803089
3118.153, 1.907361
3120.082, 1.780429
3122.010, 1.709023
3123.939, 2.163353
3125.867, 0.4519884
3127.796, -0.7414740
3129.724, 0.1384207
3131.653, 0.8596790
3133.581, 0.6545639
3135.510, 1.095041
3137.438, 1.921972
3139.366, 1.886429
3141.295, 1.652524
3143.223, 2.370700
3145.152, 2.320786
3147.080, 2.141112
3149.009, 0.4466541
3150.937, 1.579660
3152.866, 0.8918628
3154.794, 0.4870819
3156.723, 0.8143435
3158.651, 1.134964
3160.580, 0.8928760
3162.508, 0.6690673
3164.437, 1.363428
3166.365, 1.474506
3168.293, 2.048654
3170.222, 2.014149
3172.150, 2.140720
3174.079, 1.785495
3176.007, 1.962622
3177.936, 1.705517
3179.864, 1.217560
3181.793, 1.252111
3183.721, 1.792922
3185.650, 1.266012
3187.578, 1.589224
3189.507, 2.322754
3191.435, 2.159795
3193.364, 0.8847743
3195.292, 0.5208157
3197.220, 0.6327922
3199.149, 0.9196116
3201.077, -0.7297304
3203.006, 1.086514
3204.934, 2.205066
3206.863, 1.158212
3208.791, 2.522488
3210.720, 1.019402
3212.648, 0.7255859
3214.577, 1.902435
3216.505, -0.6254761
3218.434, 0.3381861
3220.362, 1.333015
3222.291, 0.6328332
3224.219, -0.4111178
3226.147, 0.3611104
3228.076, 0.9642771
3230.004, 0.9598352
3231.933, 1.285607
3233.861, 0.5805818
3235.790, -0.6462706
3237.718, -1.225738
3239.647, 0.3129855
3241.575, 1.304678
3243.504, 0.6737856
3245.432, -0.3580726
3247.361, 0.2942212
3249.289, 0.6984808
3251.218, 0.1022428
3253.146, 0.2101214
3255.074, 1.706712
3257.003, -0.7257336
3258.931, 0.4120559
3260.860, 1.675098
3262.788, 0.5551804
3264.717, 0.5009578
3266.645, 0.6445305
3268.574, -8.2613058E-02
3270.502, -0.8882894
3272.431, -0.6795037
3274.359, 1.083382
3276.288, 0.1058424
3278.216, 0.8727334
3280.145, 2.977116
3282.073, -4.6086799E-02
3284.001, -0.5526043
3285.930, 1.007489
3287.858, 1.317154
3289.787, 0.6401632
3291.715, 0.1829634
3293.644, 0.3324343
3295.572, 0.2818301
3297.501, 0.7517118
3299.429, 0.5306274
3301.358, -5.0599799E-02
3303.286, -0.3286368
3305.215, 0.1337846
3307.143, 1.213420
3309.072, 2.573258
3311.000, 2.598481
3312.928, 3.159519
3314.857, 0.4070046
3316.785, 2.197319
3318.714, 1.169452
3320.642, -1.718472
3322.571, -1.407745
3324.499, -0.4376082
3326.428, 3.8813479E-02
3328.356, 0.4552059
3330.285, 0.9452084
3332.213, 1.061086
3334.142, 1.247908
3336.070, 1.142124
3337.999, 1.356462
3339.927, 1.217084
3341.855, 1.341213
3343.784, 1.043982
3345.712, 0.4253874
3347.641, 0.4817121
3349.569, 0.7958577
3351.498, 1.368128
3353.426, 1.777006
3355.355, 1.902770
3357.283, -0.5711146
3359.212, -0.7253310
3361.140, 0.6759733
3363.069, 1.962181
3364.997, 0.3714623
3366.926, 1.777640
3368.854, 2.058918
3370.782, 0.7060806
3372.711, -0.2627696
3374.639, 0.2162131
3376.568, 0.9714803
3378.496, 1.207327
3380.425, 0.8553518
3382.353, 0.7850560
3384.282, 1.000468
3386.210, 0.2973899
3388.139, 0.1190559
3390.067, 1.768215
3391.996, 1.022930
3393.924, 0.8366616
3395.853, 0.3199012
3397.781, -0.5686912
3399.709, -0.2690459
3401.638, 0.3132195
3403.566, 1.376453
3405.495, 1.053204
3407.423, -0.9467922
3409.352, 0.1498682
3411.280, -0.2350878
3413.209, -0.9186698
3415.137, -0.9315973
3417.066, 3.7149549E-02
3418.994, 0.9808118
3420.923, 1.261455
3422.851, 0.4677079
3424.780, -0.4015057
3426.708, 1.011423
3428.636, 2.007477
3430.565, 2.504891
3432.493, 1.424099
3434.422, 2.364911
3436.350, 0.7658922
3438.279, 2.123445
3440.207, 1.206671
3442.136, -0.5858839
3444.064, -1.202957
3445.993, 0.7679069
3447.921, 0.7338082
3449.850, -0.3230802
3451.778, -0.8758660
3453.707, 1.7464010E-02
3455.635, 0.3759076
3457.563, 1.446296
3459.492, 1.185842
3461.420, 1.551790
3463.349, 1.892594
3465.277, 1.269899
3467.206, 0.9108293
3469.134, 4.1514829E-02
3471.063, 3.6194913E-02
3472.991, -0.4462282
3474.920, 6.2087972E-02
3476.848, 0.5346793
3478.777, 0.9114648
3480.705, 0.9936684
3482.634, 1.269510
3484.562, 1.257217
3486.490, 1.424261
3488.419, 1.116275
3490.347, 0.9657251
3492.276, 0.3858882
3494.204, 0.4282571
3496.133, -0.7692364
3498.061, -1.305411
3499.990, -1.282206
3501.918, -0.9787266
3503.847, 0.8844884
3505.775, -0.5015264
3507.704, -0.7547035
3509.632, 0.7325005
3511.561, -1.752005
3513.489, -1.124889
3515.417, -0.6245985
3517.346, 0.3291073
3519.274, 1.019027
3521.203, -0.6374389
3523.131, 0.7974976
3525.060, 1.791691
3526.988, 6.2387440E-02
3528.917, -1.501232
3530.845, 1.268204
3532.774, 0.4809779
3534.702, 0.4570354
3536.631, -1.165988
3538.559, -2.569564
3540.488, -0.9307909
3542.416, 0.9673976
3544.344, -0.4893302
3546.273, -0.5330824
3548.201, 0.1607323
3550.130, 0.1057456
3552.058, 0.1359832
3553.987, 0.6239485
3555.915, -5.1580120E-02
3557.844, -0.1691120
3559.772, -0.3032975
3561.701, 0.2035694
3563.629, -0.2840128
3565.558, 0.5266410
3567.486, 8.0925718E-02
3569.415, -1.337841
3571.343, -1.237531
3573.271, -2.226465
3575.200, 1.460626
3577.128, 2.128646
3579.057, 2.4409959E-02
3580.985, -1.592426
3582.914, -2.577468
3584.842, -1.411486
3586.771, -1.168670
3588.699, -0.4816651
3590.628, -1.9191509E-02
3592.556, 0.3383743
3594.485, -0.5156096
3596.413, 0.9752534
3598.342, 0.3400003
3600.270, 0.3054339
3602.198, 2.340680
3604.127, 0.6230210
3606.055, -0.3296123
3607.984, 0.2306221
3609.912, 0.7875351
3611.841, 0.4667201
3613.769, -0.4216708
3615.698, -0.7491003
3617.626, -0.3758680
3619.555, -0.2917548
3621.483, -0.6122597
3623.412, -1.023815
3625.340, -1.196348
3627.269, 0.7946249
3629.197, 0.6832101
3631.125, 0.6661155
3633.054, 0.5138925
3634.982, -1.068331
3636.911, -0.4363487
3638.839, -0.6513042
3640.768, 0.6852165
3642.696, -0.6336133
3644.625, -1.852711
3646.553, -0.9850633
3648.482, -1.544034
3650.410, -0.2004843
3652.339, -0.6709667
3654.267, 6.8237670E-02
3656.196, 0.9954585
3658.124, -1.388739
3660.052, 1.525794
3661.981, 1.567502
3663.909, -0.3958318
3665.838, -1.089611
3667.766, -0.3588553
3669.695, -2.312506
3671.623, 0.7965545
3673.552, -1.419988
3675.480, -2.340209
3677.409, -0.2541971
3679.337, 1.825030
3681.266, -0.9328572
3683.194, -0.6062644
3685.123, 0.2963564
3687.051, 6.0361698E-02
3688.979, -0.6620232
3690.908, -0.8703975
3692.836, -0.4291762
3694.765, -0.5473927
3696.693, 1.056605
3698.622, -0.5092510
3700.550, -1.174234
3702.479, 0.2900996
3704.407, -1.557051
3706.336, -2.665030
3708.264, -1.174801
3710.193, 0.4972450
3712.121, 1.932877
3714.050, 2.277113
3715.978, 0.5331423
3717.906, 0.1545642
3719.835, 0.4522393
3721.763, 0.8787884
3723.692, 0.7907885
3725.620, 0.2934858
3727.549, -0.3374631
3729.477, -0.6168755
3731.406, 0.9111534
3733.334, -0.8785142
3735.263, -0.8992838
3737.191, 0.3194614
3739.120, -0.4977319
3741.048, -1.926761
3742.977, -0.5402964
3744.905, -1.252775
3746.833, -0.7588938
3748.762, -0.5604363
3750.690, -0.8443390
3752.619, -3.8314369E-02
3754.547, -9.2917949E-02
3756.476, -6.7661703E-02
3758.404, -0.1213534
3760.333, 5.6687292E-02
3762.261, -0.3876166
3764.190, 2.8808281E-02
3766.118, 8.5667141E-02
3768.047, 1.361048
3769.975, 0.2179883
3771.904, -1.392412
3773.832, -1.756711
3775.760, -0.8695527
3777.689, -3.7903280E-03
3779.617, -1.284885
3781.546, -1.545818
3783.474, -2.344067
3785.403, -1.211577
3787.331, -1.556922
3789.260, 0.2762265
3791.188, -1.263668
3793.117, -1.092602
3795.045, -1.383738
3796.974, -1.349910
3798.902, -1.153347
3800.831, -0.9621036
3802.759, -1.429361
3804.688, -2.389455
3806.616, 0.1295008
3808.544, -1.451022
3810.473, -0.4310043
3812.401, 1.8692531E-02
3814.330, 0.1494003
3816.258, 0.2673950
3818.187, -0.1826716
3820.115, 1.152810
3822.044, 0.4491381
3823.972, -1.193836
3825.901, -1.203411
3827.829, 0.4009106
3829.758, -9.6416129E-03
3831.686, -3.577289
3833.615, -1.428402
3835.543, -2.371952
3837.471, -1.110240
3839.400, -0.5915720
3841.328, -2.158883
3843.257, -3.879233
3845.185, -3.135101
3847.114, 0.7486159
3849.042, -0.3474624
3850.971, -0.9364893
3852.899, -2.253542
3854.828, -1.228878
3856.756, 1.008947
3858.685, 1.472826
3860.613, -0.1431561
3862.542, 0.1714998
3864.470, -1.728518
3866.398, 1.996174
3868.327, -1.040517
3870.255, -3.519578
3872.184, -1.002046
3874.112, 1.378077
3876.041, -1.315340
3877.969, -0.1137748
3879.898, 0.1327282
3881.826, -2.5522590E-02
3883.755, -0.6343163
3885.683, -2.074479
3887.612, -1.534474
3889.540, -2.087338
3891.469, 0.7761637
3893.397, -1.143647
3895.325, -1.579137
3897.254, 0.8108893
3899.182, -0.1173658
3901.111, -0.4839250
3903.039, 1.751324
3904.968, 2.558263
3906.896, -0.9118728
3908.825, 0.8572130
3910.753, -1.018158
3912.682, -1.454441
3914.610, -2.687908
3916.539, -1.289453
3918.467, 0.2800305
3920.396, -1.330898
3922.324, -1.553905
3924.252, -2.604372
3926.181, -1.758993
3928.109, -3.017846
3930.038, -1.075827
3931.966, -0.2978536
3933.895, -1.021921
3935.823, -0.7350399
3937.752, 0.2706356
3939.680, -0.1505022
3941.609, -0.3119552
3943.537, 1.463706
3945.466, -3.045019
3947.394, -4.149470
3949.323, -1.727130
3951.251, -0.1962619
3953.179, -0.8410981
3955.108, -2.283283
3957.036, -2.866477
3958.965, -0.9228702
3960.893, -0.7435271
3962.822, -0.9278303
3964.750, -1.064061
3966.679, -1.722848
3968.607, -1.466177
3970.536, -5.6837790E-02
3972.464, 8.1888013E-02
3974.393, -1.371524
3976.321, -1.394398
3978.250, -2.265268
3980.178, 0.4188234
3982.106, 0.8985014
3984.035, -0.8863317
3985.963, -2.284585
3987.892, -2.062109
3989.820, -1.466484
3991.749, -2.229699
3993.677, -1.372386
3995.606, -0.8315437
3997.534, -0.1046850
3999.463, 1.351813
4001.391, 0.3768092
4003.320, -1.224129
4005.248, -2.044067
4007.177, -1.489919
4009.105, -5.2495889E-02
4011.033, -1.350253
4012.962, -1.447679
4014.890, -0.2488355
4016.819, -1.367597
4018.747, -1.223164
4020.676, 0.9107955
4022.604, -0.1207356
4024.533, -1.738516
4026.461, -0.3373356
4028.390, -1.504795
4030.318, -0.9751624
4032.247, 0.5424353
4034.175, -1.649910
4036.104, -1.174767
4038.032, -0.5426058
4039.960, -0.3393374
4041.889, -0.5117053
4043.817, -0.7892386
4045.746, -0.4088230
4047.674, -1.051166
4049.603, -0.9418153
4051.531, -1.600654
4053.460, -1.433087
4055.388, -0.7737001
4057.317, -1.648350
4059.245, -0.3460664
4061.174, -0.3776055
4063.102, -1.760773
4065.031, -1.518226
4066.959, -0.8856329
4068.887, -1.234824
4070.816, -2.3753470E-02
4072.744, -0.4397666
4074.673, -1.073777
4076.601, -0.1721034
4078.530, -1.764238
4080.458, -0.9196488
4082.387, -0.2436560
4084.315, -1.398162
4086.244, -0.6723763
4088.172, -0.4273386
4090.101, -1.712924
4092.029, -9.2722531E-03
4093.958, -0.6711116
4095.886, 0.6780910
4097.814, -1.028822
4099.743, -1.594901
4101.671, -1.205751
4103.600, -0.7136899
4105.528, -0.2848651
4107.457, 6.4562432E-02
4109.385, 0.8693848
4111.314, 0.6033908
4113.242, -1.656389
4115.171, -1.955798
4117.099, -1.379344
4119.028, -1.819236
4120.956, -0.8430151
4122.885, -0.8162928
4124.813, -1.716381
4126.742, -1.496125
4128.670, -1.363049
4130.599, -2.278568
4132.527, -1.538563
4134.456, -2.187517
4136.384, -1.988856
4138.313, -2.305510
4140.241, -2.816218
4142.169, -2.540375
4144.098, -2.390630
4146.026, -2.228058
4147.955, -1.417919
4149.883, -0.7149791
4151.812, -9.4007939E-02
4153.740, -1.333751
4155.668, -1.945557
4157.597, 2.126362
4159.525, -1.615121
4161.454, -0.7011062
4163.382, 0.4512129
4165.311, -2.001554
4167.239, -2.507098
4169.168, 0.5072332
4171.096, -1.446268
4173.025, -0.3927430
4174.953, -0.8719898
4176.882, -2.232959
4178.810, -1.493409
4180.739, -1.734521
4182.667, -1.182118
4184.596, 0.7506128
4186.524, 0.1493407
4188.453, -0.3966232
4190.381, -1.607298
4192.310, -0.7706713
4194.238, 0.2991831
4196.167, -0.2648210
4198.095, 0.8463051
4200.023, -0.2645244
4201.952, -2.149154
4203.880, -0.7258887
4205.809, -0.3438725
4207.737, -2.106093
4209.666, -1.262180
4211.594, -0.6504917
4213.522, -8.5450718E-03
4215.451, -0.5161221
4217.379, -2.345216
4219.308, 0.3348937
4221.236, -1.501920
4223.165, -0.5976384
4225.093, 0.4873720
4227.022, -1.224152
4228.950, -2.061978
4230.879, -2.591453
4232.807, -0.7672824
4234.736, -0.5499952
4236.664, -3.325513
4238.593, -2.727540
4240.521, 0.8867950
4242.450, -0.5887200
4244.378, -2.258306
4246.307, 1.261225
4248.235, -5.768280
4250.164, 0.2697986
4252.092, -0.4412420
4254.021, -1.874544
4255.949, 1.901290
4257.877, -1.866536
4259.806, -1.946381
4261.734, -1.854484
4263.663, -1.258202
4265.591, -1.420710
4267.520, -1.477311
4269.448, -1.344924
4271.376, -1.057953
4273.305, -1.248996
4275.233, -1.265178
4277.162, -0.3250653
4279.090, -1.684822
4281.019, -1.047271
4282.947, -2.378083
4284.876, -2.336126
4286.804, 0.6317455
4288.733, -1.919873
4290.661, -0.3100026
4292.590, 1.344768
4294.518, -0.7793868
4296.447, 1.540845
4298.375, -0.8259555
4300.304, 2.5834801E-02
4302.232, 1.246565
4304.161, -0.6031252
4306.089, -1.784784
4308.018, -0.6785752
4309.946, -0.7256889
4311.875, -1.027559
4313.803, -0.9851897
4315.731, -1.618448
4317.660, -1.610121
4319.588, -1.458407
4321.517, -1.591057
4323.445, -1.386156
4325.374, -1.822287
4327.302, 8.5288927E-02
4329.230, -1.822688
4331.159, -0.4046899
4333.087, -1.348295
4335.016, -1.849033
4336.944, 0.4483707
4338.873, -0.9437001
4340.801, 0.4125463
4342.730, -1.980278
4344.658, -4.648379
4346.587, -5.4213509E-02
4348.515, -2.562860
4350.444, -1.983195
4352.372, -0.1699704
4354.301, -2.417317
4356.229, 1.024762
4358.158, -4.5690220E-02
4360.086, -3.459844
4362.015, 0.2271177
4363.943, 1.300575
4365.872, -0.8038425
4367.800, -1.244770
4369.729, -0.9436781
4371.657, -0.2194895
4373.585, -1.661486
4375.514, -2.794339
4377.442, -1.796644
4379.371, -0.1216962
##END=



