##NAMES=Terrywallaceite
##RRUFFID=R100007
##IDEAL CHEMISTRY=AgPb(Sb,Bi)_3_S_6_
##LOCALITY=Level 390, Vein 14, Mina Herminia, Julcani District, Huancavelica, Peru
##OWNER=RRUFF
##SOURCE=William Pinch
##DESCRIPTION=Lath-shaped black crystals with striations parallel to the c-axis. Associated with barite, quartz, pyrite, gustavite, and tetrahedrite.
##STATUS=The identification of this mineral is confirmed by single-crystal X-ray diffraction and chemical analysis
##URL=https://www.rruff.net/odr/rruff_sample/R100007
##MEASURED CHEMISTRY=Ag_1.02_Pb_0.87_Sb_1.53_Bi_1.47_(S_5.94_As_0.06_)
##DIFFRACTION SAMPLE DESCRIPTION=Single crystal, powder profile is calculated
##CELL PARAMETERS=a: 6.9764 b: 19.351 c: 8.387 alpha: 90 beta: 107.519 gamma: 90 volume: 1079.71 crystal system: monoclinic
##FILETYPE=Raman Processed
##RAMAN WAVELENGTH=532

132.7216, 92.69402
134.6501, 124.7997
136.5786, 163.2219
138.5070, 208.0755
140.4355, 253.2591
142.3640, 297.8564
144.2924, 343.4091
146.2209, 390.7304
148.1494, 440.0856
150.0779, 491.1166
152.0063, 545.6065
153.9348, 590.9980
155.8633, 609.4313
157.7917, 620.4881
159.7202, 629.5251
161.6487, 640.1051
163.5771, 653.3585
165.5056, 666.2024
167.4341, 678.5630
169.3625, 690.7131
171.2910, 700.8518
173.2195, 708.2257
175.1479, 714.6730
177.0764, 722.0197
179.0049, 730.6141
180.9333, 739.0236
182.8618, 747.4297
184.7903, 756.0651
186.7187, 762.5375
188.6472, 763.8409
190.5757, 764.6454
192.5041, 768.7175
194.4326, 778.6917
196.3611, 787.9273
198.2895, 794.9643
200.2180, 799.8248
202.1465, 803.9532
204.0749, 806.8137
206.0034, 809.1784
207.9319, 811.6476
209.8603, 813.7672
211.7888, 816.2688
213.7172, 819.4533
215.6457, 823.2650
217.5742, 827.3606
219.5026, 832.8491
221.4311, 837.7966
223.3596, 840.2571
225.2880, 839.4930
227.2165, 838.6457
229.1450, 838.5804
231.0734, 839.1805
233.0019, 839.1089
234.9304, 838.2079
236.8588, 837.1500
238.7873, 836.1290
240.7158, 835.2375
242.6442, 833.8224
244.5727, 832.6016
246.5012, 831.2418
248.4296, 827.4240
250.3581, 819.0120
252.2866, 810.1863
254.2150, 803.1329
256.1435, 799.1360
258.0720, 793.6021
260.0005, 785.8861
261.9289, 776.2061
263.8574, 765.7570
265.7859, 753.6859
267.7143, 741.8385
269.6428, 731.1020
271.5713, 722.4150
273.4997, 712.8273
275.4282, 701.9352
277.3567, 690.0485
279.2851, 677.9017
281.2136, 665.1973
283.1421, 652.9847
285.0705, 641.7512
286.9990, 631.5628
288.9275, 620.3463
290.8559, 606.6417
292.7844, 592.7239
294.7129, 580.5286
296.6413, 571.6602
298.5698, 562.7659
300.4983, 553.8157
302.4267, 544.8625
304.3552, 535.5782
306.2837, 525.3768
308.2121, 514.7758
310.1406, 504.5259
312.0691, 494.5848
313.9975, 485.8662
315.9260, 478.6297
317.8545, 472.2036
319.7829, 465.6120
321.7114, 458.0155
323.6399, 451.0622
325.5683, 445.5641
327.4968, 441.4773
329.4253, 437.5993
331.3537, 434.1118
333.2822, 430.8417
335.2106, 427.1595
337.1391, 422.5585
339.0676, 417.4647
340.9960, 411.8982
342.9245, 406.2392
344.8530, 401.6986
346.7814, 399.5178
348.7099, 398.0201
350.6384, 395.7102
352.5668, 391.8325
354.4953, 388.4631
356.4238, 387.0847
358.3522, 387.1906
360.2807, 387.5507
362.2092, 387.8082
364.1376, 387.8873
366.0661, 387.8540
367.9946, 387.6302
369.9230, 386.6712
371.8515, 384.2118
373.7800, 381.8628
375.7084, 380.5547
377.6369, 380.4278
379.5654, 379.9384
381.4938, 380.1091
383.4223, 381.0074
385.3508, 382.0228
387.2792, 381.6024
389.2077, 380.4178
391.1362, 378.9694
393.0646, 377.5768
394.9931, 376.9951
396.9216, 377.7995
398.8500, 378.9266
400.7785, 379.3742
402.7070, 377.3835
404.6354, 376.0678
406.5639, 376.8331
408.4924, 379.1387
410.4208, 380.7625
412.3493, 380.2377
414.2778, 378.9633
416.2062, 377.9257
418.1347, 377.8134
420.0632, 378.4882
421.9916, 379.8571
423.9201, 381.1559
425.8486, 381.8457
427.7770, 381.6967
429.7055, 382.0629
431.6340, 383.3699
433.5624, 385.0984
435.4909, 385.7154
437.4194, 384.9571
439.3478, 384.2205
441.2763, 383.9328
443.2048, 383.9159
445.1332, 383.6128
447.0617, 383.2497
448.9902, 383.0513
450.9186, 383.1194
452.8471, 383.2626
454.7756, 383.1523
456.7040, 383.0656
458.6325, 383.2262
460.5610, 383.8881
462.4894, 384.4387
464.4179, 384.7592
466.3464, 384.7694
468.2748, 384.5139
470.2033, 384.0875
472.1318, 384.1136
474.0602, 384.4633
475.9887, 384.9468
477.9172, 384.8511
479.8456, 384.9706
481.7741, 385.8987
483.7026, 386.8662
485.6310, 386.7327
487.5595, 385.4330
489.4880, 384.2828
491.4164, 383.2202
493.3449, 382.0153
495.2734, 381.1359
497.2018, 380.9688
499.1303, 380.9472
501.0588, 380.8429
502.9872, 380.8465
504.9157, 381.0986
506.8442, 381.4225
508.7726, 381.4008
510.7011, 380.7547
512.6296, 379.9130
514.5580, 379.2255
516.4865, 378.5029
518.4150, 377.7690
520.3434, 377.5465
522.2719, 377.7164
524.2004, 377.5320
526.1288, 376.8261
528.0573, 376.2587
529.9858, 376.2816
531.9142, 376.1463
533.8427, 375.7819
535.7712, 375.1356
537.6996, 374.5192
539.6281, 373.9036
541.5566, 373.9384
543.4850, 374.5033
545.4135, 375.4346
547.3420, 375.7806
549.2704, 375.5687
551.1989, 374.7153
553.1274, 374.0352
555.0558, 373.8642
556.9843, 373.7870
558.9128, 373.5304
560.8412, 373.0967
562.7697, 372.7641
564.6982, 372.7230
566.6266, 372.5440
568.5551, 372.0453
570.4836, 370.5880
572.4120, 369.4227
574.3405, 369.2846
576.2690, 370.0824
578.1974, 370.7537
580.1259, 371.0169
582.0544, 371.6288
583.9828, 372.1399
585.9113, 372.2525
587.8398, 372.0287
589.7682, 371.8846
591.6967, 371.5056
593.6252, 371.4471
595.5536, 372.2227
597.4821, 373.5299
599.4106, 374.2535
601.3391, 374.4325
603.2675, 374.8086
605.1960, 376.2264
607.1245, 376.6842
609.0529, 375.4295
610.9814, 373.0860
612.9099, 372.0097
614.8383, 373.6207
616.7668, 375.7784
618.6953, 376.5238
620.6237, 374.8224
622.5522, 373.8015
624.4807, 374.8601
626.4091, 377.4174
628.3376, 378.8417
630.2661, 378.2926
632.1945, 377.9732
634.1230, 379.3335
636.0515, 381.9303
637.9799, 383.1788
639.9084, 381.7842
641.8369, 380.1404
643.7653, 379.5513
645.6938, 379.9431
647.6223, 380.4341
649.5507, 381.1967
651.4792, 382.0122
653.4077, 382.4384
655.3361, 381.7621
657.2646, 381.4296
659.1931, 381.8350
661.1215, 382.7773
663.0500, 383.6301
664.9785, 384.2573
666.9069, 384.7773
668.8354, 385.4562
670.7639, 386.1697
672.6923, 386.4044
674.6208, 384.8664
676.5493, 384.0351
678.4777, 384.5326
680.4062, 386.1356
682.3347, 387.3983
684.2631, 388.3807
686.1916, 388.8734
688.1201, 388.8142
690.0485, 388.0067
691.9770, 387.3776
693.9055, 387.1524
695.8339, 387.1070
697.7624, 387.0024
699.6909, 387.0389
701.6193, 387.6377
703.5478, 389.2330
705.4763, 390.8449
707.4047, 392.2298
709.3332, 393.1044
711.2617, 393.5753
713.1901, 393.0776
715.1186, 392.8022
717.0471, 393.4208
718.9755, 394.7943
720.9040, 395.8172
722.8325, 395.9335
724.7609, 396.0443
726.6894, 396.8985
728.6179, 398.7660
730.5463, 399.5698
732.4748, 398.1635
734.4033, 396.8832
736.3317, 397.2665
738.2602, 399.2621
740.1887, 400.2819
742.1171, 398.7982
744.0456, 397.3213
745.9741, 397.3234
747.9025, 399.1573
749.8310, 400.3144
751.7595, 399.9742
753.6879, 399.6001
755.6164, 400.1386
757.5449, 401.7110
759.4733, 403.0715
761.4018, 404.2950
763.3303, 405.2743
765.2587, 405.5695
767.1872, 404.6303
769.1157, 404.5760
771.0441, 406.3789
772.9726, 408.7343
774.9011, 410.4363
776.8295, 411.2343
778.7580, 411.7755
780.6865, 411.8967
782.6149, 412.1793
784.5434, 413.1549
786.4719, 415.1763
788.4003, 415.9456
790.3288, 414.0349
792.2573, 411.4768
794.1857, 410.2363
796.1142, 410.8272
798.0427, 411.8853
799.9711, 413.7192
801.8996, 415.0465
803.8281, 415.0810
805.7565, 413.2798
807.6850, 412.1416
809.6135, 412.3659
811.5419, 413.4595
813.4704, 414.2839
815.3989, 414.5087
817.3273, 415.0770
819.2558, 416.6127
821.1843, 418.1205
823.1127, 419.0586
825.0412, 420.2176
826.9697, 421.3023
828.8981, 422.0837
830.8266, 422.4154
832.7551, 423.0922
834.6835, 424.4577
836.6120, 425.5205
838.5405, 425.7445
840.4689, 425.7275
842.3974, 426.0859
844.3259, 426.7951
846.2543, 427.0172
848.1828, 426.1826
850.1113, 425.2559
852.0397, 425.1630
853.9682, 426.0186
855.8967, 426.9284
857.8251, 427.6107
859.7536, 428.2631
861.6821, 429.2375
863.6105, 430.6828
865.5390, 431.0255
867.4675, 429.4804
869.3959, 427.8134
871.3244, 427.6105
873.2529, 428.4163
875.1813, 429.7029
877.1098, 432.1984
879.0383, 434.3894
880.9667, 434.9878
882.8952, 434.6974
884.8237, 434.8076
886.7521, 435.0265
888.6806, 434.5805
890.6091, 433.1063
892.5375, 432.3612
894.4660, 433.0848
896.3945, 436.1243
898.3229, 438.8994
900.2514, 440.6681
902.1799, 440.9051
904.1083, 440.5732
906.0368, 439.9564
907.9653, 439.8084
909.8937, 440.6087
911.8222, 441.3721
913.7507, 440.8453
915.6791, 439.3845
917.6076, 439.6740
919.5361, 444.2333
921.4645, 448.0816
923.3930, 448.3514
925.3215, 446.7718
927.2499, 447.1877
929.1784, 450.2553
931.1069, 452.0244
933.0353, 452.4809
934.9638, 453.5924
936.8923, 454.8917
938.8207, 455.5301
940.7492, 456.0443
942.6777, 457.1154
944.6061, 457.9024
946.5346, 458.8658
948.4631, 460.4695
950.3915, 462.0099
952.3200, 461.8004
954.2485, 461.0514
956.1769, 461.9856
958.1054, 464.9274
960.0339, 467.3880
961.9623, 467.8429
963.8908, 468.2552
965.8193, 469.5281
967.7477, 471.8966
969.6762, 473.9923
971.6047, 474.7168
973.5331, 473.3048
975.4616, 472.4975
977.3901, 473.8451
979.3185, 476.0207
981.2470, 477.5688
983.1755, 476.1530
985.1039, 473.7738
987.0324, 472.7654
988.9609, 473.8203
990.8893, 476.5675
992.8178, 478.7109
994.7463, 479.1455
996.6747, 478.7709
998.6032, 478.6806
1000.532, 478.9125
1002.460, 478.9415
1004.389, 478.5154
1006.317, 478.5196
1008.246, 479.6854
1010.174, 481.7237
1012.102, 483.4821
1014.031, 484.3115
1015.959, 485.0423
1017.888, 485.7284
1019.816, 485.7714
1021.745, 486.0059
1023.673, 487.7802
1025.602, 491.8288
1027.530, 494.9264
1029.459, 496.4060
1031.387, 497.5849
1033.316, 499.2186
1035.244, 500.2578
1037.172, 499.3323
1039.101, 497.8065
1041.029, 497.2315
1042.958, 497.8164
1044.886, 498.9730
1046.815, 500.2183
1048.743, 501.4894
1050.672, 502.2354
1052.600, 502.2298
1054.529, 501.8541
1056.457, 502.1861
1058.386, 504.7584
1060.314, 507.2416
1062.243, 508.4719
1064.171, 509.0114
1066.099, 509.5066
1068.028, 509.6073
1069.956, 509.0114
1071.885, 507.8819
1073.813, 507.5019
1075.742, 508.9117
1077.670, 512.2434
1079.599, 515.0959
1081.527, 516.3646
1083.456, 517.6906
1085.384, 519.5104
1087.313, 520.5970
1089.241, 522.7484
1091.170, 523.0716
1093.098, 523.9361
1095.026, 525.0491
1096.955, 525.1591
1098.883, 524.5901
1100.812, 524.5035
1102.740, 526.3414
1104.669, 528.7163
1106.597, 530.0015
1108.526, 530.9327
1110.454, 532.3660
1112.383, 534.2657
1114.311, 534.8300
1116.240, 534.7604
1118.168, 535.5014
1120.097, 537.0687
1122.025, 538.7021
1123.953, 540.4849
1125.882, 542.3263
1127.810, 543.4371
1129.739, 543.7079
1131.667, 543.6237
1133.596, 543.2274
1135.524, 543.5952
1137.453, 546.3375
1139.381, 549.7963
1141.310, 551.2576
1143.238, 550.2907
1145.167, 550.1448
1147.095, 552.3585
1149.024, 554.7465
1150.952, 556.9739
1152.880, 558.5399
1154.809, 558.5446
1156.737, 556.6785
1158.666, 555.5348
1160.594, 555.7413
1162.523, 556.8217
1164.451, 558.9841
1166.380, 562.3793
1168.308, 565.2650
1170.237, 566.9620
1172.165, 567.5537
1174.094, 567.6246
1176.022, 567.9929
1177.951, 568.6035
1179.879, 568.1318
1181.807, 568.6594
1183.736, 572.4348
1185.664, 577.0927
1187.593, 579.5189
1189.521, 579.4530
1191.450, 580.4097
1193.378, 584.6019
1195.307, 588.7053
1197.235, 588.2533
1199.164, 584.4879
1201.092, 582.8479
1203.021, 584.7374
1204.949, 586.5856
1206.878, 586.9202
1208.806, 586.8276
1210.734, 587.7341
1212.663, 590.2055
1214.591, 593.4677
1216.520, 597.7286
1218.448, 600.9327
1220.377, 603.6309
1222.305, 606.7316
1224.234, 608.4273
1226.162, 607.8430
1228.091, 607.5690
1230.019, 609.0120
1231.948, 611.1097
1233.876, 613.4369
1235.805, 615.9310
1237.733, 617.6284
1239.661, 617.7335
1241.590, 618.5678
1243.518, 620.8060
1245.447, 623.7203
1247.375, 626.4470
1249.304, 628.8083
1251.232, 630.8818
1253.161, 632.5941
1255.089, 634.8055
1257.018, 637.1835
1258.946, 638.9374
1260.875, 640.9357
1262.803, 643.7900
1264.732, 646.2236
1266.660, 647.1432
1268.589, 647.2047
1270.517, 648.0319
1272.445, 650.0305
1274.374, 652.3821
1276.302, 654.8995
1278.231, 657.4406
1280.159, 660.4288
1282.088, 663.3184
1284.016, 665.2676
1285.945, 665.3147
1287.873, 666.6680
1289.802, 670.6230
1291.730, 674.5306
1293.659, 676.9935
1295.587, 678.1382
1297.516, 679.0433
1299.444, 679.5096
1301.372, 680.3897
1303.301, 681.8156
1305.229, 683.5137
1307.158, 685.9124
1309.086, 689.1338
1311.015, 691.8973
1312.943, 693.7856
1314.872, 695.5141
1316.800, 697.6266
1318.729, 699.8147
1320.657, 701.4857
1322.586, 702.5043
1324.514, 703.8112
1326.443, 705.8182
1328.371, 707.7933
1330.299, 709.1558
1332.228, 710.2762
1334.156, 712.2894
1336.085, 716.7322
1338.013, 719.2862
1339.942, 717.6004
1341.870, 716.2064
1343.799, 718.4091
1345.727, 723.2818
1347.656, 726.4379
1349.584, 727.0219
1351.513, 728.1171
1353.441, 731.7233
1355.370, 735.2714
1357.298, 736.3731
1359.226, 735.5309
1361.155, 735.6660
1363.083, 737.6854
1365.012, 739.2590
1366.940, 738.5868
1368.869, 738.0000
1370.797, 739.8515
1372.726, 744.4232
1374.654, 747.6371
1376.583, 748.3275
1378.511, 748.7047
1380.440, 749.0198
1382.368, 749.7070
1384.297, 750.7164
1386.225, 751.4288
1388.153, 752.7756
1390.082, 755.5772
1392.010, 758.0706
1393.939, 759.9880
1395.867, 761.4218
1397.796, 761.4565
1399.724, 759.5473
1401.653, 758.5007
1403.581, 758.9755
1405.510, 760.2236
1407.438, 762.3321
1409.367, 764.7062
1411.295, 766.6630
1413.224, 768.2188
1415.152, 769.0734
1417.080, 768.6350
1419.009, 768.3636
1420.937, 769.0225
1422.866, 769.9135
1424.794, 770.3635
1426.723, 770.0054
1428.651, 769.3088
1430.580, 767.4619
1432.508, 767.0771
1434.437, 770.1991
1436.365, 774.6006
1438.294, 776.5566
1440.222, 774.5396
1442.151, 773.6862
1444.079, 775.0352
1446.007, 776.5475
1447.936, 777.2440
1449.864, 777.0738
1451.793, 776.7056
1453.721, 776.0068
1455.650, 775.9735
1457.578, 778.2263
1459.507, 780.0382
1461.435, 779.7691
1463.364, 778.1782
1465.292, 777.1307
1467.221, 777.0574
1469.149, 777.8226
1471.078, 779.5979
1473.006, 781.1762
1474.934, 781.8415
1476.863, 782.2883
1478.791, 783.4117
1480.720, 785.3702
1482.648, 786.0365
1484.577, 783.5105
1486.505, 782.0300
1488.434, 784.5411
1490.362, 788.8126
1492.291, 792.1663
1494.219, 794.3317
1496.148, 796.5876
1498.076, 799.2599
1500.005, 801.1980
1501.933, 800.6517
1503.861, 800.6983
1505.790, 804.7570
1507.718, 812.4090
1509.647, 816.7692
1511.575, 816.2869
1513.504, 816.4678
1515.432, 817.3963
1517.361, 818.8191
1519.289, 821.4615
1521.218, 825.6339
1523.146, 829.2574
1525.075, 830.4243
1527.003, 832.8209
1528.932, 837.6516
1530.860, 842.4117
1532.788, 845.7518
1534.717, 848.3344
1536.645, 850.9603
1538.574, 852.9355
1540.502, 855.3775
1542.431, 860.4355
1544.359, 864.3224
1546.288, 863.7344
1548.216, 861.9371
1550.145, 864.0875
1552.073, 869.8318
1554.002, 875.7002
1555.930, 883.0084
1557.859, 888.1145
1559.787, 887.4213
1561.715, 885.6498
1563.644, 887.6038
1565.572, 892.0705
1567.501, 894.2020
1569.429, 892.7047
1571.358, 892.5155
1573.286, 897.0995
1575.215, 901.2919
1577.143, 900.6828
1579.072, 897.8489
1581.000, 898.0763
1582.929, 901.7864
1584.857, 903.8636
1586.786, 902.6329
1588.714, 901.2093
1590.642, 900.7738
1592.571, 900.9402
1594.499, 901.5515
1596.428, 902.4915
1598.356, 902.8293
1600.285, 902.7728
1602.213, 901.1722
1604.142, 896.5472
1606.070, 891.4509
1607.999, 887.8217
1609.927, 884.8753
1611.856, 879.7402
1613.784, 871.4932
1615.713, 865.8353
1617.641, 865.6855
1619.569, 865.3275
1621.498, 863.5891
1623.426, 859.9799
1625.355, 852.9995
1627.283, 842.4373
1629.212, 834.9206
1631.140, 831.8879
1633.069, 829.1740
1634.997, 826.4625
1636.926, 823.5319
1638.854, 820.0109
1640.783, 816.2217
1642.711, 813.0000
1644.640, 810.6055
1646.568, 807.6818
1648.496, 803.5900
1650.425, 799.7392
1652.353, 796.5432
1654.282, 793.6398
1656.210, 790.8672
1658.139, 788.1998
1660.067, 785.1429
1661.996, 781.0646
1663.924, 778.0266
1665.853, 776.5437
1667.781, 775.5260
1669.710, 774.9014
1671.638, 774.2692
1673.567, 772.9628
1675.495, 770.9067
1677.423, 769.2569
1679.352, 767.7497
1681.280, 767.0270
1683.209, 767.9168
1685.137, 768.6825
1687.066, 768.1721
1688.994, 766.8526
1690.923, 765.8649
1692.851, 765.5460
1694.780, 764.0323
1696.708, 759.2410
1698.637, 756.5546
1700.565, 758.5902
1702.494, 761.4883
1704.422, 762.4499
1706.350, 762.2008
1708.279, 762.8016
1710.207, 764.5358
1712.136, 765.8441
1714.064, 766.7689
1715.993, 766.8284
1717.921, 765.0580
1719.850, 763.0386
1721.778, 761.7818
1723.707, 761.4352
1725.635, 762.6132
1727.564, 766.7714
1729.492, 769.1765
1731.421, 768.3470
1733.349, 767.9920
1735.277, 769.5728
1737.206, 771.4103
1739.134, 771.9084
1741.063, 771.3055
1742.991, 770.8479
1744.920, 770.4255
1746.848, 770.2845
1748.777, 770.7529
1750.705, 771.1025
1752.634, 770.5955
1754.562, 770.5142
1756.491, 772.6464
1758.419, 776.2021
1760.348, 777.8828
1762.276, 777.1544
1764.204, 776.5625
1766.133, 776.4258
1768.061, 776.1829
1769.990, 774.6118
1771.918, 773.9174
1773.847, 776.6411
1775.775, 781.3655
1777.704, 783.8156
1779.632, 783.4699
1781.561, 783.3210
1783.489, 783.0225
1785.418, 783.7222
1787.346, 787.5076
1789.275, 790.4625
1791.203, 789.6002
1793.131, 786.6074
1795.060, 784.4818
1796.988, 783.2463
1798.917, 784.1105
1800.845, 788.1724
1802.774, 791.6584
1804.702, 793.8723
1806.631, 794.9742
1808.559, 794.0511
1810.488, 792.6724
1812.416, 792.8836
1814.345, 794.5526
1816.273, 797.2007
1818.202, 801.3757
1820.130, 803.4648
1822.058, 801.6041
1823.987, 799.5442
1825.915, 798.5002
1827.844, 798.3943
1829.772, 799.7591
1831.701, 801.8870
1833.629, 802.6912
1835.558, 802.0842
1837.486, 801.8773
1839.415, 802.4425
1841.343, 803.1875
1843.272, 804.0582
1845.200, 804.8663
1847.129, 804.8941
1849.057, 804.9874
1850.985, 807.4539
1852.914, 811.8606
1854.842, 812.7574
1856.771, 808.4301
1858.699, 805.5670
1860.628, 806.9193
1862.556, 807.8976
1864.485, 805.1707
1866.413, 802.8020
1868.342, 805.7373
1870.270, 812.1563
1872.199, 815.8735
1874.127, 816.1156
1876.056, 816.5785
1877.984, 816.7273
1879.912, 817.6417
1881.841, 820.8312
1883.769, 823.0902
1885.698, 822.0512
1887.626, 819.7771
1889.555, 818.8018
1891.483, 819.1879
1893.412, 820.6736
1895.340, 823.9125
1897.269, 826.3831
1899.197, 827.4207
1901.126, 828.3170
1903.054, 828.9602
1904.983, 829.5994
1906.911, 830.1137
1908.839, 830.7022
1910.768, 832.1418
1912.696, 834.2399
1914.625, 835.2584
1916.553, 835.2321
1918.482, 834.2392
1920.410, 831.5449
1922.339, 829.7328
1924.267, 829.6498
1926.196, 830.8353
1928.124, 833.6198
1930.053, 837.0258
1931.981, 840.1277
1933.910, 842.6754
1935.838, 842.4943
1937.766, 838.5714
1939.695, 836.7230
1941.623, 839.6734
1943.552, 841.8684
1945.480, 840.1515
1947.409, 838.8272
1949.337, 842.1625
1951.266, 846.9385
1953.194, 847.1296
1955.123, 843.2433
1957.051, 842.7657
1958.980, 847.9637
1960.908, 851.2496
1962.837, 852.0732
1964.765, 851.8914
1966.693, 849.4855
1968.622, 847.9844
1970.550, 850.1900
1972.479, 853.4734
1974.407, 854.0792
1976.336, 855.5653
1978.264, 856.5170
1980.193, 856.0466
1982.121, 857.3763
1984.050, 856.0204
1985.978, 856.3021
1987.907, 861.1394
1989.835, 864.9968
1991.764, 864.2375
1993.692, 862.1868
1995.620, 861.8407
1997.549, 862.4493
1999.477, 861.5776
2001.406, 859.3610
2003.334, 861.3162
2005.263, 870.0268
2007.191, 875.3240
2009.120, 873.9935
2011.048, 872.3773
2012.977, 871.4532
2014.905, 871.5989
2016.834, 874.0768
2018.762, 877.1623
2020.691, 877.6642
2022.619, 876.5392
2024.547, 879.5940
2026.476, 879.3185
2028.404, 878.5504
2030.333, 882.4163
2032.261, 878.3582
2034.190, 882.5448
2036.118, 887.1531
2038.047, 889.4905
2039.975, 890.7487
2041.904, 892.1159
2043.832, 892.7902
2045.761, 890.7828
2047.689, 886.9147
2049.617, 885.0614
2051.546, 885.4358
2053.474, 886.3725
2055.403, 888.4730
2057.331, 889.8936
2059.260, 890.0066
2061.188, 890.1309
2063.117, 889.8422
2065.045, 890.6713
2066.974, 894.9489
2068.902, 900.2108
2070.831, 902.2058
2072.759, 901.3391
2074.688, 901.1989
2076.616, 901.8975
2078.544, 901.9213
2080.473, 900.8123
2082.401, 900.9207
2084.330, 903.3773
2086.258, 906.1183
2088.187, 909.0722
2090.115, 911.0938
2092.044, 910.5063
2093.972, 909.0630
2095.901, 908.8646
2097.829, 909.6400
2099.758, 910.7732
2101.686, 912.3693
2103.615, 913.7287
2105.543, 915.5639
2107.471, 916.2200
2109.400, 914.1996
2111.328, 913.5191
2113.257, 915.6605
2115.185, 918.1043
2117.114, 919.6281
2119.042, 920.7371
2120.971, 921.9686
2122.899, 922.8975
2124.828, 922.2682
2126.756, 920.8049
2128.685, 922.1274
2130.613, 926.6422
2132.542, 929.0955
2134.470, 928.3305
2136.398, 928.1523
2138.327, 929.0489
2140.255, 930.7233
2142.184, 932.9643
2144.112, 935.7864
2146.041, 941.0611
2147.969, 944.9533
2149.898, 941.6407
2151.826, 935.1168
2153.755, 934.3958
2155.683, 938.4816
2157.612, 940.0351
2159.540, 938.9455
2161.469, 937.2422
2163.397, 934.5303
2165.325, 934.2155
2167.254, 938.3828
2169.182, 942.0375
2171.111, 943.2204
2173.039, 943.9135
2174.968, 945.7790
2176.896, 946.9752
2178.825, 945.1038
2180.753, 941.9608
2182.682, 939.9807
2184.610, 939.3314
2186.539, 941.3770
2188.467, 946.1494
2190.396, 949.5124
2192.324, 951.1757
2194.252, 951.8927
2196.181, 951.0636
2198.109, 951.6213
2200.038, 956.2040
2201.966, 959.2497
2203.895, 956.9105
2205.823, 954.3094
2207.752, 954.9553
2209.680, 956.7354
2211.609, 957.2701
2213.537, 957.1824
2215.466, 957.6141
2217.394, 958.5296
2219.323, 960.0003
2221.251, 961.9807
2223.179, 966.5850
2225.108, 975.0892
2227.036, 977.9111
2228.965, 971.3671
2230.893, 966.6837
2232.822, 967.8183
2234.750, 969.9830
2236.679, 972.5797
2238.607, 974.2235
2240.536, 972.7139
2242.464, 971.0467
2244.393, 972.3624
2246.321, 975.2186
2248.250, 977.5397
2250.178, 979.2563
2252.106, 979.9629
2254.035, 979.8600
2255.963, 981.3217
2257.892, 981.5675
2259.820, 981.3333
2261.749, 982.9069
2263.677, 981.3312
2265.606, 982.1188
2267.534, 983.8257
2269.463, 986.8845
2271.391, 989.4525
2273.320, 990.6192
2275.248, 991.1415
2277.177, 991.4542
2279.105, 991.5646
2281.033, 991.0204
2282.962, 990.7367
2284.890, 993.0051
2286.819, 996.6012
2288.747, 997.6462
2290.676, 996.2829
2292.604, 994.7576
2294.533, 992.5121
2296.461, 992.6799
2298.390, 997.6996
2300.318, 999.9135
2302.247, 996.3688
2304.175, 995.7092
2306.104, 1002.019
2308.032, 1006.370
2309.960, 1003.433
2311.889, 1001.628
2313.817, 1007.939
2315.746, 1014.535
2317.674, 1014.105
2319.603, 1011.797
2321.531, 1013.491
2323.460, 1017.627
2325.388, 1022.243
2327.317, 1026.564
2329.245, 1026.911
2331.174, 1023.530
2333.102, 1021.684
2335.031, 1021.518
2336.959, 1021.654
2338.887, 1022.062
2340.816, 1022.677
2342.744, 1023.843
2344.673, 1024.270
2346.601, 1023.753
2348.530, 1022.273
2350.458, 1017.677
2352.387, 1015.115
2354.315, 1018.164
2356.244, 1021.897
2358.172, 1024.392
2360.101, 1025.740
2362.029, 1024.342
2363.958, 1023.280
2365.886, 1027.595
2367.814, 1033.775
2369.743, 1035.138
2371.671, 1032.825
2373.600, 1030.271
2375.528, 1027.641
2377.457, 1028.114
2379.385, 1031.883
2381.314, 1034.032
2383.242, 1034.249
2385.171, 1035.757
2387.099, 1039.620
2389.028, 1041.184
2390.956, 1037.698
2392.885, 1036.619
2394.813, 1042.436
2396.741, 1046.028
2398.670, 1042.431
2400.598, 1039.905
2402.527, 1042.016
2404.455, 1044.882
2406.384, 1047.093
2408.312, 1048.611
2410.241, 1049.791
2412.169, 1050.135
2414.098, 1047.929
2416.026, 1045.776
2417.955, 1048.335
2419.883, 1053.318
2421.812, 1055.567
2423.740, 1055.649
2425.668, 1054.878
2427.597, 1053.866
2429.525, 1058.344
2431.454, 1067.640
2433.382, 1070.916
2435.311, 1066.786
2437.239, 1064.233
2439.168, 1064.151
2441.096, 1064.811
2443.025, 1066.859
2444.953, 1068.371
2446.882, 1069.595
2448.810, 1069.160
2450.739, 1065.769
2452.667, 1063.430
2454.595, 1063.830
2456.524, 1064.842
2458.452, 1064.929
2460.381, 1066.412
2462.309, 1071.787
2464.238, 1077.005
2466.166, 1079.535
2468.095, 1081.023
2470.023, 1082.849
2471.952, 1084.070
2473.880, 1082.813
2475.809, 1081.331
2477.737, 1083.340
2479.666, 1082.408
2481.594, 1085.832
2483.522, 1083.264
2485.451, 1082.383
2487.379, 1083.021
2489.308, 1085.271
2491.236, 1088.550
2493.165, 1090.198
2495.093, 1090.283
2497.022, 1089.249
2498.950, 1086.883
2500.879, 1088.327
2502.807, 1089.445
2504.736, 1090.914
2506.664, 1095.357
2508.593, 1095.588
2510.521, 1100.195
2512.449, 1101.476
2514.378, 1096.768
2516.306, 1094.138
2518.235, 1096.327
2520.163, 1098.648
2522.092, 1100.853
2524.020, 1102.816
2525.949, 1104.864
2527.877, 1105.909
2529.806, 1104.295
2531.734, 1104.289
2533.663, 1110.245
2535.591, 1114.278
2537.520, 1111.104
2539.448, 1107.625
2541.376, 1106.966
2543.305, 1107.853
2545.233, 1109.689
2547.162, 1112.697
2549.090, 1119.854
2551.019, 1125.022
2552.947, 1120.024
2554.876, 1113.776
2556.804, 1115.736
2558.733, 1121.080
2560.661, 1125.094
2562.590, 1127.913
2564.518, 1129.072
2566.447, 1129.606
2568.375, 1131.381
2570.303, 1133.514
2572.232, 1133.770
2574.160, 1133.387
2576.089, 1136.268
2578.017, 1140.868
2579.946, 1142.431
2581.874, 1141.448
2583.803, 1137.871
2585.731, 1133.552
2587.660, 1137.154
2589.588, 1147.253
2591.517, 1153.198
2593.445, 1154.982
2595.374, 1152.457
2597.302, 1145.568
2599.230, 1141.764
2601.159, 1141.122
2603.087, 1144.462
2605.016, 1151.882
2606.944, 1156.849
2608.873, 1158.868
2610.801, 1159.402
2612.730, 1157.823
2614.658, 1157.329
2616.587, 1157.813
2618.515, 1160.254
2620.444, 1165.075
2622.372, 1167.587
2624.301, 1166.206
2626.229, 1166.841
2628.157, 1172.302
2630.086, 1173.286
2632.014, 1167.773
2633.943, 1166.475
2635.871, 1171.644
2637.800, 1175.452
2639.728, 1175.736
2641.657, 1176.835
2643.585, 1181.288
2645.514, 1182.434
2647.442, 1178.235
2649.371, 1175.182
2651.299, 1173.895
2653.228, 1175.467
2655.156, 1182.273
2657.084, 1186.571
2659.013, 1186.099
2660.941, 1184.106
2662.870, 1179.506
2664.798, 1176.510
2666.727, 1175.678
2668.655, 1176.454
2670.584, 1179.308
2672.512, 1182.044
2674.441, 1183.481
2676.369, 1185.908
2678.298, 1191.667
2680.226, 1195.013
2682.155, 1194.438
2684.083, 1192.827
2686.011, 1190.176
2687.940, 1188.502
2689.868, 1188.155
2691.797, 1189.338
2693.725, 1193.660
2695.654, 1196.706
2697.582, 1196.460
2699.511, 1198.184
2701.439, 1205.060
2703.368, 1209.955
2705.296, 1208.435
2707.225, 1208.290
2709.153, 1212.970
2711.082, 1215.847
2713.010, 1215.223
2714.938, 1214.082
2716.867, 1212.724
2718.795, 1212.539
2720.724, 1214.733
2722.652, 1217.038
2724.581, 1219.807
2726.509, 1221.253
2728.438, 1220.723
2730.366, 1219.668
2732.295, 1216.886
2734.223, 1217.354
2736.152, 1225.849
2738.080, 1230.941
2740.009, 1228.674
2741.937, 1228.883
2743.865, 1233.784
2745.794, 1238.799
2747.722, 1243.518
2749.651, 1246.463
2751.579, 1246.628
2753.508, 1246.364
2755.436, 1245.866
2757.365, 1245.229
2759.293, 1244.281
2761.222, 1244.699
2763.150, 1247.372
2765.079, 1249.778
2767.007, 1251.762
2768.936, 1252.729
2770.864, 1252.260
2772.792, 1252.061
2774.721, 1252.412
2776.649, 1251.670
2778.578, 1248.462
2780.506, 1249.497
2782.435, 1256.997
2784.363, 1258.420
2786.292, 1253.134
2788.220, 1250.057
2790.149, 1249.913
2792.077, 1250.857
2794.006, 1252.560
2795.934, 1256.491
2797.863, 1262.580
2799.791, 1265.028
2801.719, 1264.014
2803.648, 1262.856
2805.576, 1261.962
2807.505, 1264.214
2809.433, 1269.168
2811.362, 1270.596
2813.290, 1269.228
2815.219, 1267.618
2817.147, 1266.248
2819.076, 1266.330
2821.004, 1267.980
2822.933, 1273.438
2824.861, 1280.208
2826.790, 1281.372
2828.718, 1278.855
2830.646, 1274.898
2832.575, 1271.326
2834.503, 1271.568
2836.432, 1273.770
2838.360, 1275.289
2840.289, 1276.744
2842.217, 1279.637
2844.146, 1281.975
2846.074, 1280.070
2848.003, 1278.598
2849.931, 1283.119
2851.860, 1288.536
2853.788, 1292.155
2855.717, 1293.660
2857.645, 1291.159
2859.573, 1288.969
2861.502, 1290.888
2863.430, 1291.712
2865.359, 1286.875
2867.287, 1284.780
2869.216, 1290.624
2871.144, 1294.674
2873.073, 1290.694
2875.001, 1289.308
2876.930, 1294.830
2878.858, 1297.870
2880.787, 1296.198
2882.715, 1295.784
2884.644, 1298.181
2886.572, 1301.334
2888.500, 1305.863
2890.429, 1307.633
2892.357, 1305.994
2894.286, 1306.653
2896.214, 1310.037
2898.143, 1311.627
2900.071, 1311.158
2902.000, 1311.879
2903.928, 1313.512
2905.857, 1311.840
2907.785, 1313.929
2909.714, 1315.072
2911.642, 1316.273
2913.571, 1318.950
2915.499, 1320.000
2917.427, 1322.516
2919.356, 1325.106
2921.284, 1324.647
2923.213, 1323.873
2925.141, 1327.631
2927.070, 1331.131
2928.998, 1328.442
2930.927, 1325.292
2932.855, 1325.570
2934.784, 1327.388
2936.712, 1331.403
2938.641, 1334.317
2940.569, 1334.941
2942.498, 1333.600
2944.426, 1327.820
2946.354, 1325.768
2948.283, 1334.359
2950.211, 1337.224
2952.140, 1330.582
2954.068, 1326.992
2955.997, 1328.233
2957.925, 1330.094
2959.854, 1332.502
2961.782, 1333.225
2963.711, 1332.218
2965.639, 1331.546
2967.568, 1331.291
2969.496, 1331.881
2971.425, 1333.078
2973.353, 1334.143
2975.281, 1334.859
2977.210, 1333.564
2979.138, 1332.306
2981.067, 1334.286
2982.995, 1337.536
2984.924, 1340.691
2986.852, 1342.572
2988.781, 1340.682
2990.709, 1339.145
2992.638, 1340.604
2994.566, 1342.809
2996.495, 1346.387
2998.423, 1347.826
3000.352, 1345.746
3002.280, 1343.613
3004.208, 1341.649
3006.137, 1341.928
3008.065, 1343.029
3009.994, 1348.354
3011.922, 1349.474
3013.851, 1353.725
3015.779, 1360.736
3017.708, 1357.264
3019.636, 1345.822
3021.565, 1344.958
3023.493, 1350.884
3025.422, 1354.128
3027.350, 1355.322
3029.279, 1354.682
3031.207, 1353.425
3033.135, 1352.641
3035.064, 1352.437
3036.992, 1352.096
3038.921, 1353.387
3040.849, 1360.010
3042.778, 1363.573
3044.706, 1358.701
3046.635, 1357.512
3048.563, 1364.903
3050.492, 1369.621
3052.420, 1368.547
3054.349, 1367.152
3056.277, 1365.429
3058.206, 1365.675
3060.134, 1364.589
3062.063, 1367.024
3063.991, 1364.411
3065.919, 1363.778
3067.848, 1364.939
3069.776, 1369.935
3071.705, 1373.684
3073.633, 1364.898
3075.562, 1356.968
3077.490, 1365.904
3079.419, 1375.503
3081.347, 1377.235
3083.276, 1377.109
3085.204, 1377.539
3087.133, 1375.839
3089.061, 1369.859
3090.990, 1369.857
3092.918, 1379.639
3094.846, 1382.749
3096.775, 1377.603
3098.703, 1373.438
3100.632, 1370.722
3102.560, 1373.073
3104.489, 1378.423
3106.417, 1383.056
3108.346, 1385.374
3110.274, 1380.233
3112.203, 1374.283
3114.131, 1373.312
3116.060, 1374.116
3117.988, 1375.038
3119.917, 1376.683
3121.845, 1379.928
3123.773, 1381.840
3125.702, 1380.835
3127.630, 1379.901
3129.559, 1379.072
3131.487, 1378.898
3133.416, 1379.491
3135.344, 1382.452
3137.273, 1386.801
3139.201, 1388.068
3141.130, 1386.967
3143.058, 1382.846
3144.987, 1379.675
3146.915, 1382.771
3148.844, 1387.545
3150.772, 1392.033
3152.700, 1394.740
3154.629, 1394.189
3156.557, 1393.439
3158.486, 1393.254
3160.414, 1393.125
3162.343, 1393.177
3164.271, 1391.716
3166.200, 1388.812
3168.128, 1388.403
3170.057, 1390.218
3171.985, 1394.646
3173.914, 1398.881
3175.842, 1397.294
3177.771, 1394.375
3179.699, 1394.336
3181.627, 1395.446
3183.556, 1397.653
3185.484, 1399.158
3187.413, 1399.444
3189.341, 1398.719
3191.270, 1396.856
3193.198, 1395.374
3195.127, 1394.412
3197.055, 1397.466
3198.984, 1403.394
3200.912, 1405.786
3202.841, 1404.864
3204.769, 1398.120
3206.698, 1392.421
3208.626, 1398.427
3210.554, 1403.884
3212.483, 1400.550
3214.411, 1397.785
3216.340, 1400.098
3218.268, 1401.904
3220.197, 1402.924
3222.125, 1401.847
3224.054, 1398.594
3225.982, 1393.819
3227.911, 1401.447
3229.839, 1405.989
3231.768, 1407.612
3233.696, 1397.571
3235.625, 1402.592
3237.553, 1401.576
3239.481, 1400.313
3241.410, 1407.453
3243.338, 1399.109
3245.267, 1406.116
3247.195, 1406.995
3249.124, 1410.679
3251.052, 1408.289
3252.981, 1407.775
3254.909, 1413.337
3256.838, 1415.534
3258.766, 1412.446
3260.695, 1416.307
3262.623, 1407.751
3264.552, 1410.092
3266.480, 1417.134
3268.408, 1414.351
3270.337, 1418.324
3272.265, 1419.723
3274.194, 1409.430
3276.122, 1419.472
3278.051, 1420.720
3279.979, 1412.937
3281.908, 1422.283
3283.836, 1415.745
3285.765, 1414.877
3287.693, 1418.275
3289.622, 1417.226
3291.550, 1423.189
3293.479, 1422.396
3295.407, 1421.000
3297.335, 1422.237
3299.264, 1421.046
3301.192, 1423.632
3303.121, 1421.795
3305.049, 1424.659
3306.978, 1428.589
3308.906, 1424.358
3310.835, 1428.766
3312.763, 1419.778
3314.692, 1421.999
3316.620, 1423.013
3318.549, 1431.193
3320.477, 1422.269
3322.406, 1424.179
3324.334, 1430.702
3326.262, 1430.770
3328.191, 1433.537
3330.119, 1428.315
3332.048, 1430.598
3333.976, 1430.812
3335.905, 1437.661
3337.833, 1437.185
3339.762, 1434.593
3341.690, 1430.218
3343.619, 1426.813
3345.547, 1424.363
3347.476, 1427.042
3349.404, 1433.119
3351.333, 1434.250
3353.261, 1432.570
3355.189, 1430.016
3357.118, 1429.017
3359.046, 1432.284
3360.975, 1435.552
3362.903, 1437.532
3364.832, 1437.574
3366.760, 1435.336
3368.689, 1434.060
3370.617, 1433.934
3372.546, 1435.902
3374.474, 1438.498
3376.403, 1437.996
3378.331, 1438.289
3380.260, 1445.338
3382.188, 1449.242
3384.116, 1446.318
3386.045, 1441.795
3387.973, 1434.865
3389.902, 1437.101
3391.830, 1445.997
3393.759, 1447.815
3395.687, 1445.827
3397.616, 1443.696
3399.544, 1443.108
3401.473, 1446.336
3403.401, 1448.635
3405.330, 1447.425
3407.258, 1446.613
3409.187, 1446.465
3411.115, 1450.843
3413.043, 1457.517
3414.972, 1457.097
3416.900, 1453.406
3418.829, 1447.687
3420.757, 1446.986
3422.686, 1461.727
3424.614, 1470.286
3426.543, 1468.510
3428.471, 1461.814
3430.400, 1451.368
3432.328, 1452.858
3434.257, 1461.218
3436.185, 1466.549
3438.114, 1469.404
3440.042, 1468.019
3441.970, 1467.975
3443.899, 1471.810
3445.827, 1474.307
3447.756, 1474.663
3449.684, 1473.202
3451.613, 1470.238
3453.541, 1465.366
3455.470, 1461.886
3457.398, 1466.226
3459.327, 1471.229
3461.255, 1474.460
3463.184, 1474.664
3465.112, 1471.068
3467.041, 1469.845
3468.969, 1471.248
3470.897, 1473.543
3472.826, 1476.646
3474.754, 1482.355
3476.683, 1485.711
3478.611, 1480.955
3480.540, 1477.148
3482.468, 1476.265
3484.397, 1478.304
3486.325, 1483.310
3488.254, 1487.430
3490.182, 1489.477
3492.111, 1483.667
3494.039, 1478.804
3495.968, 1484.819
3497.896, 1488.588
3499.824, 1485.516
3501.753, 1485.214
3503.681, 1488.706
3505.610, 1493.650
3507.538, 1496.782
3509.467, 1487.422
3511.395, 1479.001
3513.324, 1486.347
3515.252, 1492.579
3517.181, 1492.196
3519.109, 1490.083
3521.038, 1486.851
3522.966, 1486.835
3524.895, 1488.821
3526.823, 1489.696
3528.751, 1491.294
3530.680, 1496.033
3532.608, 1499.071
3534.537, 1497.576
3536.465, 1496.362
3538.394, 1495.617
3540.322, 1496.831
3542.251, 1498.434
3544.179, 1496.114
3546.108, 1494.489
3548.036, 1497.186
3549.965, 1501.319
3551.893, 1507.106
3553.822, 1507.844
3555.750, 1504.059
3557.678, 1502.994
3559.607, 1503.985
3561.535, 1507.019
3563.464, 1509.512
3565.392, 1509.001
3567.321, 1509.939
3569.249, 1513.170
3571.178, 1511.299
3573.106, 1511.840
3575.035, 1507.670
3576.963, 1510.206
3578.892, 1506.578
3580.820, 1505.988
3582.749, 1512.928
3584.677, 1515.619
3586.605, 1512.340
3588.534, 1512.477
3590.462, 1514.797
3592.391, 1516.473
3594.319, 1518.926
3596.248, 1523.828
3598.176, 1529.289
3600.105, 1531.318
3602.033, 1534.064
3603.962, 1536.032
3605.890, 1536.375
3607.819, 1537.104
3609.747, 1537.511
3611.676, 1535.463
3613.604, 1533.882
3615.532, 1536.901
3617.461, 1537.102
3619.389, 1545.589
3621.318, 1542.100
3623.246, 1545.162
3625.175, 1548.641
3627.103, 1547.886
3629.032, 1547.984
3630.960, 1550.550
3632.889, 1552.643
3634.817, 1554.918
3636.746, 1561.278
3638.674, 1566.675
3640.603, 1564.873
3642.531, 1560.852
3644.459, 1554.185
3646.388, 1553.269
3648.316, 1557.370
3650.245, 1556.631
3652.173, 1553.916
3654.102, 1551.971
3656.030, 1552.380
3657.959, 1556.672
3659.887, 1560.349
3661.816, 1562.863
3663.744, 1565.315
3665.673, 1567.158
3667.601, 1566.226
3669.530, 1566.332
3671.458, 1570.483
3673.386, 1572.656
3675.315, 1571.153
3677.243, 1573.022
3679.172, 1576.836
3681.100, 1579.878
3683.029, 1580.951
3684.957, 1578.804
3686.886, 1576.060
3688.814, 1573.019
3690.743, 1570.883
3692.671, 1569.873
3694.600, 1571.078
3696.528, 1572.605
3698.457, 1573.303
3700.385, 1572.351
3702.313, 1567.638
3704.242, 1568.482
3706.170, 1573.196
3708.099, 1577.957
3710.027, 1579.049
3711.956, 1569.737
3713.884, 1563.528
3715.813, 1565.871
3717.741, 1567.749
3719.670, 1569.145
3721.598, 1570.793
3723.527, 1571.530
3725.455, 1568.016
3727.384, 1568.453
3729.312, 1568.524
3731.240, 1577.768
3733.169, 1571.340
3735.097, 1576.184
3737.026, 1581.538
3738.954, 1573.399
3740.883, 1572.043
3742.811, 1586.411
3744.740, 1585.417
3746.668, 1575.285
3748.597, 1581.055
3750.525, 1588.275
3752.454, 1582.429
3754.382, 1580.600
3756.311, 1588.078
3758.239, 1589.628
3760.167, 1587.354
3762.096, 1587.442
3764.024, 1587.726
3765.953, 1586.700
3767.881, 1585.009
3769.810, 1582.415
3771.738, 1588.559
3773.667, 1588.194
3775.595, 1595.775
3777.524, 1593.831
3779.452, 1598.123
3781.381, 1600.928
3783.309, 1600.981
3785.238, 1599.279
3787.166, 1597.750
3789.094, 1599.094
3791.023, 1602.501
3792.951, 1601.670
3794.880, 1609.068
3796.808, 1603.128
3798.737, 1601.113
3800.665, 1602.105
3802.594, 1608.207
3804.522, 1608.168
3806.451, 1598.202
3808.379, 1602.855
3810.308, 1599.555
3812.236, 1608.956
3814.165, 1600.374
3816.093, 1604.088
3818.021, 1608.111
3819.950, 1610.747
3821.878, 1612.146
3823.807, 1612.488
3825.735, 1611.772
3827.664, 1610.469
3829.592, 1612.521
3831.521, 1613.396
3833.449, 1615.945
3835.378, 1618.509
3837.306, 1619.761
3839.235, 1621.122
3841.163, 1621.890
3843.092, 1622.631
3845.020, 1622.054
3846.948, 1622.807
3848.877, 1621.949
3850.805, 1621.309
3852.734, 1622.731
3854.662, 1620.492
3856.591, 1614.135
3858.519, 1614.977
3860.448, 1619.305
3862.376, 1623.688
3864.305, 1627.356
3866.233, 1630.329
3868.162, 1628.025
3870.090, 1622.818
3872.019, 1622.651
3873.947, 1624.820
3875.875, 1629.215
3877.804, 1630.568
3879.732, 1628.544
3881.661, 1629.570
3883.589, 1632.046
3885.518, 1635.003
3887.446, 1637.455
3889.375, 1638.346
3891.303, 1641.240
3893.232, 1644.143
3895.160, 1637.572
3897.089, 1632.028
3899.017, 1635.272
3900.946, 1634.240
3902.874, 1630.593
3904.802, 1636.551
3906.731, 1643.428
3908.659, 1642.318
3910.588, 1643.278
3912.516, 1648.046
3914.445, 1647.113
3916.373, 1643.850
3918.302, 1641.573
3920.230, 1640.255
3922.159, 1641.458
3924.087, 1646.509
3926.016, 1645.327
3927.944, 1651.309
3929.873, 1647.536
3931.801, 1648.079
3933.729, 1650.545
3935.658, 1653.148
3937.586, 1654.109
3939.515, 1653.040
3941.443, 1653.970
3943.372, 1646.508
3945.300, 1652.748
3947.229, 1653.137
3949.157, 1651.567
3951.086, 1659.353
3953.014, 1663.899
3954.943, 1658.477
3956.871, 1658.609
3958.800, 1661.472
3960.728, 1659.387
3962.656, 1656.355
3964.585, 1654.712
3966.513, 1657.559
3968.442, 1655.378
3970.370, 1660.471
3972.299, 1656.514
3974.227, 1660.664
3976.156, 1664.552
3978.084, 1666.372
3980.013, 1663.594
3981.941, 1660.224
3983.870, 1662.777
3985.798, 1666.393
3987.727, 1669.264
3989.655, 1662.499
3991.583, 1654.211
3993.512, 1658.038
3995.440, 1663.185
3997.369, 1666.204
3999.297, 1669.886
4001.226, 1672.365
4003.154, 1667.174
4005.083, 1664.349
4007.011, 1668.402
4008.940, 1674.218
4010.868, 1678.831
4012.797, 1674.061
4014.725, 1668.877
4016.654, 1667.310
4018.582, 1669.830
4020.510, 1675.046
4022.439, 1676.407
4024.367, 1677.487
4026.296, 1681.940
4028.224, 1684.155
4030.153, 1683.525
4032.081, 1686.315
4034.010, 1687.355
4035.938, 1686.142
4037.867, 1691.080
4039.795, 1686.391
4041.724, 1688.981
4043.652, 1692.432
4045.581, 1684.422
4047.509, 1683.206
4049.438, 1694.595
4051.366, 1691.495
4053.294, 1683.929
4055.223, 1691.088
4057.151, 1693.631
4059.080, 1685.862
4061.008, 1687.582
4062.937, 1693.406
4064.865, 1695.199
4066.794, 1695.631
4068.722, 1695.583
4070.651, 1694.987
4072.579, 1693.877
4074.508, 1697.293
4076.436, 1699.806
4078.365, 1695.917
4080.293, 1694.538
4082.221, 1697.578
4084.150, 1699.842
4086.078, 1701.049
4088.007, 1701.590
4089.935, 1702.130
4091.864, 1702.187
4093.792, 1701.285
4095.721, 1700.445
4097.649, 1698.750
4099.578, 1700.752
4101.506, 1707.680
4103.435, 1709.171
4105.363, 1707.754
4107.292, 1704.256
4109.220, 1702.128
4111.148, 1703.404
4113.077, 1703.557
4115.005, 1703.646
4116.934, 1707.216
4118.862, 1707.713
4120.791, 1708.070
4122.719, 1710.003
4124.647, 1707.201
4126.576, 1710.297
4128.504, 1708.375
4130.433, 1704.448
4132.361, 1707.803
4134.290, 1711.869
4136.218, 1710.873
4138.147, 1709.779
4140.075, 1708.951
4142.004, 1709.613
4143.932, 1710.246
4145.861, 1710.017
4147.789, 1711.433
4149.718, 1713.766
4151.646, 1717.424
4153.575, 1719.578
4155.503, 1719.388
4157.432, 1713.900
4159.360, 1717.464
4161.289, 1716.824
4163.217, 1715.139
4165.146, 1719.920
4167.074, 1723.588
4169.002, 1722.375
4170.931, 1721.484
4172.859, 1720.361
4174.788, 1721.327
4176.716, 1725.836
4178.645, 1731.745
4180.573, 1731.077
4182.501, 1727.465
4184.430, 1722.443
4186.358, 1718.093
4188.287, 1718.427
4190.215, 1722.360
4192.144, 1725.358
4194.072, 1721.485
4196.001, 1720.769
4197.929, 1727.275
4199.858, 1721.217
4201.786, 1725.730
4203.715, 1721.028
4205.643, 1728.495
4207.572, 1731.365
4209.500, 1730.091
4211.429, 1728.752
4213.357, 1733.499
4215.286, 1736.351
4217.214, 1735.672
4219.143, 1732.980
4221.071, 1730.551
4223.000, 1728.047
4224.928, 1727.370
4226.856, 1728.619
4228.785, 1729.740
4230.713, 1731.362
4232.642, 1733.713
4234.570, 1737.565
4236.499, 1741.139
4238.427, 1736.685
4240.355, 1732.267
4242.284, 1732.829
4244.212, 1732.952
4246.141, 1733.551
4248.069, 1736.219
4249.998, 1740.472
4251.926, 1746.935
4253.855, 1746.291
4255.783, 1741.918
4257.712, 1737.466
4259.640, 1734.917
4261.569, 1734.757
4263.497, 1738.003
4265.426, 1741.762
4267.354, 1743.178
4269.283, 1744.408
4271.211, 1745.724
4273.140, 1747.331
4275.068, 1748.832
4276.997, 1750.427
4278.925, 1751.967
4280.854, 1754.205
4282.782, 1755.420
4284.710, 1755.149
4286.639, 1755.284
4288.567, 1753.222
4290.496, 1750.675
4292.424, 1749.240
4294.353, 1751.664
4296.281, 1749.695
4298.209, 1756.003
4300.138, 1750.943
4302.066, 1746.761
4303.995, 1750.742
4305.923, 1749.897
4307.852, 1758.055
4309.780, 1755.699
4311.709, 1761.589
4313.637, 1764.782
4315.566, 1764.548
4317.494, 1765.760
4319.423, 1764.214
4321.351, 1762.273
4323.280, 1760.737
4325.208, 1756.660
4327.137, 1757.256
4329.065, 1763.020
4330.994, 1760.625
4332.922, 1768.455
4334.851, 1763.303
4336.779, 1761.484
4338.708, 1765.358
4340.636, 1770.625
4342.564, 1766.331
4344.493, 1764.700
4346.421, 1769.289
4348.350, 1764.462
4350.278, 1759.009
4352.207, 1761.826
4354.135, 1763.312
4356.063, 1763.362
4357.992, 1768.566
4359.920, 1771.713
4361.849, 1769.376
4363.777, 1769.788
4365.706, 1771.334
4367.634, 1770.297
4369.563, 1771.185
4371.491, 1774.160
4373.420, 1773.147
4375.348, 1772.963
4377.277, 1778.333
4379.205, 1773.573
4381.134, 1775.270
4383.062, 1767.507
4384.991, 1772.462
4386.919, 1776.342
4388.848, 1772.158
4390.776, 1768.113
4392.705, 1773.916
4394.633, 1777.752
4396.562, 1778.778
4398.490, 1778.238
4400.418, 1776.698
4402.347, 1773.407
4404.275, 1778.821
4406.204, 1784.056
4408.132, 1776.523
4410.061, 1768.654
4411.989, 1763.382
4413.917, 1769.305
4415.846, 1777.375
4417.774, 1784.238
4419.703, 1782.235
4421.631, 1778.079
4423.560, 1782.619
4425.488, 1781.498
4427.417, 1774.892
4429.345, 1771.686
4431.274, 1775.050
4433.202, 1787.402
4435.131, 1790.140
4437.059, 1785.670
4438.988, 1774.842
4440.916, 1772.311
4442.845, 1778.402
4444.773, 1782.383
4446.702, 1782.049
4448.630, 1774.609
4450.559, 1770.347
4452.487, 1771.510
4454.416, 1784.004
4456.344, 1791.031
4458.272, 1791.141
4460.201, 1792.334
4462.129, 1790.019
4464.058, 1782.455
4465.986, 1779.349
4467.915, 1780.068
4469.843, 1786.328
4471.771, 1783.090
4473.700, 1787.698
4475.628, 1782.870
4477.557, 1791.238
4479.485, 1793.571
4481.414, 1791.191
4483.342, 1788.847
4485.271, 1792.362
4487.199, 1793.748
4489.128, 1792.232
4491.056, 1792.292
4492.985, 1791.700
4494.913, 1791.345
4496.842, 1790.679
4498.770, 1790.742
4500.699, 1790.420
4502.627, 1790.825
4504.556, 1790.072
4506.484, 1789.949
4508.413, 1789.505
4510.341, 1789.003
4512.270, 1788.526
4514.198, 1788.648
4516.126, 1786.500
4518.055, 1789.320
4519.983, 1794.790
4521.912, 1802.884
4523.840, 1797.584
4525.769, 1786.235
4527.697, 1792.322
4529.625, 1796.074
4531.554, 1793.711
4533.482, 1795.902
4535.411, 1796.370
4537.339, 1789.502
4539.268, 1786.182
4541.196, 1785.740
4543.125, 1787.714
4545.053, 1788.877
4546.982, 1789.783
4548.910, 1795.679
4550.839, 1799.048
4552.767, 1798.261
4554.696, 1799.081
4556.624, 1796.845
4558.553, 1787.154
4560.481, 1784.421
4562.410, 1786.566
4564.338, 1789.893
4566.267, 1795.621
4568.195, 1800.664
4570.124, 1789.345
4572.052, 1785.697
4573.980, 1795.252
4575.909, 1798.709
4577.837, 1797.574
4579.766, 1792.252
4581.694, 1793.879
4583.623, 1798.082
4585.551, 1799.029
4587.479, 1798.563
4589.408, 1797.215
4591.336, 1796.007
4593.265, 1792.219
4595.193, 1786.419
4597.122, 1785.875
4599.050, 1784.444
4600.979, 1785.144
4602.907, 1785.734
4604.836, 1791.441
4606.764, 1793.597
4608.693, 1794.044
4610.621, 1792.769
4612.550, 1788.518
4614.478, 1785.603
4616.407, 1785.319
4618.335, 1786.442
4620.264, 1795.672
4622.192, 1792.361
4624.121, 1796.984
4626.049, 1799.671
4627.978, 1790.090
4629.906, 1794.163
4631.834, 1800.120
4633.763, 1794.481
4635.691, 1792.891
4637.620, 1794.816
4639.548, 1797.317
4641.477, 1796.792
4643.405, 1793.655
4645.333, 1794.384
4647.262, 1787.800
4649.190, 1790.811
4651.119, 1780.398
4653.047, 1792.413
4654.976, 1795.010
4656.904, 1791.238
4658.833, 1788.766
4660.761, 1796.675
4662.690, 1798.921
4664.618, 1796.499
4666.547, 1790.399
4668.475, 1786.598
4670.404, 1785.951
4672.332, 1784.773
4674.261, 1791.865
4676.189, 1786.940
4678.118, 1792.259
4680.046, 1793.677
4681.975, 1785.475
4683.903, 1780.699
4685.832, 1782.541
4687.760, 1780.317
4689.688, 1782.071
4691.617, 1783.718
4693.545, 1786.350
4695.474, 1788.172
4697.402, 1788.949
4699.331, 1788.818
4701.259, 1790.730
4703.188, 1789.039
4705.116, 1788.877
4707.044, 1785.535
4708.973, 1783.544
4710.901, 1780.387
4712.830, 1781.184
4714.758, 1786.184
4716.687, 1782.563
4718.615, 1781.144
4720.544, 1785.293
4722.472, 1782.037
4724.401, 1778.317
4726.329, 1779.257
4728.258, 1774.984
4730.186, 1772.450
4732.115, 1778.385
4734.043, 1779.539
4735.972, 1777.710
4737.900, 1773.718
4739.829, 1779.359
4741.757, 1787.971
4743.686, 1786.582
4745.614, 1781.687
4747.542, 1778.218
4749.471, 1789.980
4751.399, 1793.493
4753.328, 1787.834
4755.256, 1782.046
4757.185, 1779.309
4759.113, 1779.664
4761.042, 1777.774
4762.970, 1778.231
4764.898, 1781.320
4766.827, 1778.117
4768.755, 1777.321
4770.684, 1783.316
4772.612, 1771.752
4774.541, 1769.605
4776.469, 1789.947
4778.398, 1790.731
4780.326, 1786.893
4782.255, 1791.014
4784.183, 1788.800
4786.112, 1784.449
4788.040, 1781.963
4789.969, 1775.822
4791.897, 1771.563
4793.826, 1770.923
4795.754, 1769.260
4797.683, 1771.029
4799.611, 1770.868
4801.540, 1773.168
4803.468, 1774.841
4805.396, 1770.783
4807.325, 1766.927
4809.253, 1766.000
4811.182, 1774.043
4813.110, 1777.050
4815.039, 1774.640
4816.967, 1778.050
4818.896, 1768.908
4820.824, 1775.734
4822.752, 1766.152
4824.681, 1760.194
4826.609, 1761.579
4828.538, 1760.440
4830.466, 1761.520
4832.395, 1766.790
4834.323, 1766.416
4836.252, 1768.324
4838.180, 1770.257
4840.109, 1772.109
4842.037, 1771.333
4843.966, 1767.903
4845.894, 1762.872
4847.823, 1764.324
4849.751, 1760.832
4851.680, 1763.201
4853.608, 1758.102
4855.537, 1759.963
4857.465, 1759.163
4859.394, 1757.379
4861.322, 1755.695
4863.250, 1759.209
4865.179, 1760.740
4867.107, 1758.263
4869.036, 1752.093
4870.964, 1749.295
4872.893, 1751.105
4874.821, 1749.503
4876.750, 1751.798
4878.678, 1759.291
4880.606, 1765.474
4882.535, 1764.164
4884.463, 1755.574
4886.392, 1749.731
4888.320, 1752.177
4890.249, 1761.933
4892.177, 1758.764
4894.106, 1753.990
4896.034, 1751.432
4897.963, 1753.380
4899.891, 1755.019
4901.820, 1755.311
4903.748, 1757.980
4905.677, 1758.495
4907.605, 1756.677
4909.534, 1758.160
4911.462, 1756.045
4913.391, 1750.732
4915.319, 1753.064
4917.248, 1751.340
4919.176, 1745.844
4921.104, 1746.916
4923.033, 1745.488
4924.961, 1741.972
4926.890, 1744.969
4928.818, 1747.617
4930.747, 1749.571
4932.675, 1754.660
4934.604, 1757.918
4936.532, 1756.383
4938.460, 1756.404
4940.389, 1753.102
4942.317, 1752.068
4944.246, 1746.409
4946.174, 1746.579
4948.103, 1742.679
4950.031, 1741.506
4951.960, 1737.021
4953.888, 1736.757
4955.817, 1735.161
4957.745, 1740.354
4959.674, 1737.639
4961.602, 1741.664
4963.531, 1743.044
4965.459, 1742.506
4967.388, 1740.877
4969.316, 1742.729
4971.245, 1744.379
4973.173, 1742.987
4975.102, 1744.679
4977.030, 1740.171
4978.958, 1744.555
4980.887, 1745.005
4982.815, 1742.510
4984.744, 1738.682
4986.672, 1745.423
4988.601, 1747.729
4990.529, 1740.686
4992.458, 1725.686
4994.386, 1717.576
4996.314, 1719.329
4998.243, 1730.044
5000.171, 1734.579
5002.100, 1732.430
5004.028, 1728.461
5005.957, 1730.315
5007.885, 1732.910
5009.814, 1732.384
5011.742, 1733.658
5013.671, 1734.359
5015.599, 1733.019
5017.528, 1732.063
5019.456, 1729.426
5021.385, 1722.888
5023.313, 1714.181
5025.242, 1710.414
5027.170, 1716.027
5029.099, 1717.325
5031.027, 1718.742
5032.956, 1721.955
5034.884, 1716.770
5036.813, 1712.974
5038.741, 1713.949
5040.669, 1712.044
5042.598, 1712.766
5044.526, 1714.840
5046.455, 1716.000
5048.383, 1717.269
5050.312, 1718.304
5052.240, 1719.304
5054.168, 1717.822
5056.097, 1717.477
5058.025, 1712.873
5059.954, 1709.071
5061.882, 1711.932
5063.811, 1708.109
5065.739, 1714.578
5067.668, 1704.719
5069.596, 1705.252
5071.525, 1701.111
5073.453, 1703.099
5075.382, 1711.521
5077.310, 1712.843
5079.239, 1714.035
5081.167, 1715.007
5083.096, 1714.952
5085.024, 1712.262
5086.953, 1714.180
5088.881, 1711.416
5090.810, 1710.617
5092.738, 1709.361
5094.667, 1705.775
5096.595, 1706.210
5098.523, 1708.590
5100.452, 1711.007
5102.380, 1699.810
5104.309, 1696.895
5106.237, 1702.194
5108.166, 1691.861
5110.094, 1688.513
5112.022, 1693.398
5113.951, 1705.927
5115.879, 1708.112
5117.808, 1705.263
5119.736, 1703.533
5121.665, 1702.454
5123.593, 1703.001
5125.522, 1705.316
5127.450, 1705.087
5129.379, 1705.064
5131.307, 1705.133
5133.236, 1699.773
5135.164, 1699.906
5137.093, 1703.865
5139.021, 1706.660
5140.950, 1699.017
5142.878, 1691.203
5144.807, 1694.703
5146.735, 1695.179
5148.664, 1694.119
5150.592, 1692.761
5152.521, 1694.657
5154.449, 1694.365
5156.377, 1692.157
5158.306, 1693.434
5160.234, 1692.871
5162.163, 1691.514
5164.091, 1692.214
5166.020, 1689.194
5167.948, 1686.677
5169.876, 1687.675
5171.805, 1686.712
5173.733, 1691.325
5175.662, 1689.289
5177.590, 1692.164
5179.519, 1696.141
5181.447, 1696.979
5183.376, 1687.284
5185.304, 1692.091
5187.233, 1696.877
5189.161, 1686.638
5191.090, 1693.833
5193.018, 1693.637
5194.947, 1679.544
5196.875, 1676.930
5198.804, 1677.385
5200.732, 1679.823
5202.661, 1687.689
5204.589, 1682.501
5206.518, 1678.559
5208.446, 1691.845
5210.375, 1687.238
5212.303, 1681.647
5214.231, 1681.528
5216.160, 1685.957
5218.088, 1687.149
5220.017, 1685.979
5221.945, 1686.533
5223.874, 1684.899
5225.802, 1682.141
5227.730, 1679.269
5229.659, 1678.865
5231.587, 1678.033
5233.516, 1677.487
5235.444, 1677.747
5237.373, 1676.409
5239.301, 1674.219
5241.230, 1669.177
5243.158, 1668.843
5245.087, 1670.187
5247.015, 1671.456
5248.944, 1673.694
5250.872, 1679.240
5252.801, 1683.851
5254.729, 1675.925
5256.658, 1664.307
5258.586, 1657.655
5260.515, 1663.132
5262.443, 1654.314
5264.372, 1656.432
5266.300, 1672.000
5268.229, 1675.444
5270.157, 1674.126
5272.085, 1669.351
5274.014, 1658.068
5275.942, 1662.639
5277.871, 1664.073
5279.799, 1654.967
5281.728, 1656.056
5283.656, 1655.545
5285.584, 1653.955
5287.513, 1657.642
5289.441, 1655.929
5291.370, 1657.827
5293.298, 1656.058
5295.227, 1661.831
5297.155, 1654.148
5299.084, 1652.162
5301.012, 1656.723
5302.941, 1660.788
5304.869, 1660.908
5306.798, 1654.922
5308.726, 1663.641
5310.655, 1662.913
5312.583, 1650.706
5314.512, 1642.440
5316.440, 1644.296
5318.369, 1650.801
5320.297, 1655.994
5322.226, 1646.035
5324.154, 1642.021
5326.083, 1646.850
5328.011, 1642.205
5329.939, 1645.242
5331.868, 1648.445
5333.796, 1643.144
5335.725, 1638.627
5337.653, 1641.296
5339.582, 1636.003
5341.510, 1638.411
5343.438, 1631.226
5345.367, 1631.686
5347.295, 1629.898
5349.224, 1637.941
5351.152, 1634.332
5353.081, 1638.137
5355.009, 1639.983
5356.938, 1632.146
5358.866, 1625.023
5360.795, 1627.377
5362.723, 1631.454
5364.652, 1632.382
5366.580, 1629.977
5368.509, 1625.817
5370.437, 1630.785
5372.366, 1633.670
5374.294, 1627.520
5376.223, 1623.113
5378.151, 1618.719
5380.080, 1616.930
5382.008, 1625.857
5383.937, 1623.141
5385.865, 1620.918
5387.793, 1623.915
5389.722, 1616.385
5391.650, 1620.106
5393.579, 1624.811
5395.507, 1613.957
5397.436, 1619.207
5399.364, 1619.712
5401.292, 1611.964
5403.221, 1616.547
5405.149, 1621.485
5407.078, 1621.098
5409.006, 1612.571
5410.935, 1601.725
5412.863, 1600.273
5414.792, 1605.502
5416.720, 1607.944
5418.649, 1611.395
5420.577, 1607.631
5422.506, 1595.256
5424.434, 1594.740
5426.363, 1597.628
5428.291, 1599.177
5430.220, 1596.125
5432.148, 1586.208
5434.077, 1579.481
5436.005, 1580.126
5437.934, 1591.316
5439.862, 1602.135
5441.791, 1604.007
5443.719, 1594.258
5445.647, 1593.594
5447.576, 1587.587
5449.504, 1583.571
5451.433, 1592.939
5453.361, 1595.825
5455.290, 1593.155
5457.218, 1587.121
5459.146, 1578.768
5461.075, 1582.668
5463.003, 1584.949
5464.932, 1577.950
5466.860, 1570.953
5468.789, 1570.600
5470.717, 1571.701
5472.646, 1568.096
5474.574, 1570.712
5476.503, 1571.441
5478.431, 1570.320
5480.360, 1572.928
5482.288, 1571.378
5484.217, 1560.285
5486.145, 1568.346
5488.074, 1560.406
5490.002, 1555.393
5491.931, 1556.195
5493.859, 1562.030
5495.788, 1562.941
5497.716, 1558.827
5499.645, 1554.533
5501.573, 1555.753
5503.501, 1553.261
5505.430, 1552.226
5507.358, 1551.452
5509.287, 1550.346
5511.215, 1546.059
5513.144, 1549.610
5515.072, 1544.369
5517.000, 1544.303
5518.929, 1543.662
5520.857, 1543.523
5522.786, 1544.114
5524.714, 1534.444
5526.643, 1531.595
5528.571, 1533.696
5530.500, 1535.383
5532.428, 1527.764
5534.357, 1521.689
5536.285, 1520.224
5538.214, 1523.160
5540.142, 1527.621
5542.071, 1526.933
5543.999, 1521.924
5545.928, 1519.585
5547.856, 1519.092
5549.785, 1521.957
5551.713, 1526.374
5553.642, 1521.083
5555.570, 1520.512
5557.499, 1519.834
5559.427, 1515.641
5561.355, 1516.021
5563.284, 1516.470
5565.212, 1513.373
5567.141, 1505.574
5569.069, 1504.952
5570.998, 1502.487
5572.926, 1500.642
5574.854, 1503.758
5576.783, 1508.492
5578.711, 1503.839
5580.640, 1506.017
5582.568, 1499.373
5584.497, 1502.501
5586.425, 1497.633
5588.354, 1492.647
5590.282, 1493.655
5592.211, 1497.452
5594.139, 1488.836
5596.068, 1485.264
5597.996, 1476.408
5599.925, 1481.817
5601.853, 1486.602
5603.782, 1484.972
5605.710, 1479.763
5607.639, 1480.256
5609.567, 1481.876
5611.496, 1480.482
5613.424, 1467.756
5615.353, 1471.021
5617.281, 1473.227
5619.209, 1469.078
5621.138, 1475.672
5623.066, 1477.326
5624.995, 1473.116
5626.923, 1466.341
5628.852, 1467.784
5630.780, 1460.015
5632.708, 1458.490
5634.637, 1467.770
5636.565, 1460.175
5638.494, 1456.637
5640.422, 1452.855
5642.351, 1448.377
5644.279, 1461.856
5646.208, 1465.619
5648.136, 1458.853
5650.065, 1447.212
5651.993, 1444.009
5653.922, 1450.433
5655.850, 1454.379
5657.779, 1450.708
5659.707, 1447.328
5661.636, 1441.071
5663.564, 1437.896
5665.493, 1434.708
5667.421, 1431.984
5669.350, 1429.153
5671.278, 1426.739
5673.207, 1425.232
5675.135, 1422.996
5677.063, 1420.994
5678.992, 1420.803
5680.920, 1418.376
5682.849, 1418.420
5684.777, 1421.042
5686.706, 1420.821
5688.634, 1417.879
5690.563, 1418.401
5692.491, 1413.073
5694.419, 1410.084
5696.348, 1409.544
5698.276, 1402.665
5700.205, 1410.148
5702.133, 1416.276
5704.062, 1414.736
5705.990, 1404.464
5707.919, 1397.007
5709.847, 1394.774
5711.776, 1393.942
5713.704, 1390.102
5715.633, 1396.417
5717.561, 1391.762
5719.490, 1383.030
5721.418, 1381.224
5723.347, 1387.218
5725.275, 1391.405
5727.204, 1388.838
5729.132, 1380.019
5731.061, 1388.076
5732.989, 1383.221
5734.917, 1377.718
5736.846, 1378.647
5738.774, 1376.076
5740.703, 1377.263
5742.631, 1373.094
5744.560, 1367.911
5746.488, 1380.766
5748.417, 1367.300
5750.345, 1359.171
5752.273, 1364.439
5754.202, 1375.435
5756.130, 1364.958
5758.059, 1359.163
5759.987, 1357.699
5761.916, 1353.429
5763.844, 1356.821
5765.773, 1359.057
5767.701, 1357.036
5769.630, 1351.021
5771.558, 1346.461
5773.487, 1347.064
5775.415, 1344.079
5777.344, 1337.473
5779.272, 1337.768
5781.201, 1348.685
5783.129, 1340.714
5785.058, 1326.938
5786.986, 1337.499
5788.915, 1329.294
5790.843, 1330.221
5792.771, 1333.806
5794.700, 1329.370
5796.628, 1326.280
5798.557, 1324.429
5800.485, 1321.454
5802.414, 1317.764
5804.342, 1318.989
5806.271, 1318.817
5808.199, 1327.086
5810.127, 1322.743
5812.056, 1323.186
5813.984, 1325.496
5815.913, 1317.282
5817.841, 1308.904
5819.770, 1310.665
5821.698, 1306.935
5823.627, 1303.288
5825.555, 1301.033
5827.484, 1300.279
5829.412, 1300.783
5831.341, 1298.736
5833.269, 1295.224
5835.198, 1293.849
5837.126, 1297.020
5839.055, 1289.095
5840.983, 1294.993
5842.912, 1295.063
5844.840, 1280.650
5846.769, 1285.171
5848.697, 1283.390
5850.625, 1280.289
5852.554, 1280.046
5854.482, 1285.397
5856.411, 1285.578
5858.339, 1283.641
5860.268, 1276.781
5862.196, 1278.978
5864.125, 1278.645
5866.053, 1279.098
5867.981, 1275.021
5869.910, 1274.153
5871.838, 1272.082
5873.767, 1271.871
5875.695, 1266.924
5877.624, 1264.023
5879.552, 1259.497
5881.481, 1260.670
5883.409, 1261.573
5885.338, 1256.389
5887.266, 1250.310
5889.195, 1253.822
5891.123, 1257.555
5893.052, 1252.645
5894.980, 1247.510
5896.909, 1248.134
5898.837, 1249.167
5900.766, 1243.990
5902.694, 1255.316
5904.623, 1247.193
5906.551, 1252.290
5908.479, 1240.042
5910.408, 1234.580
5912.336, 1234.701
5914.265, 1237.270
5916.193, 1235.568
5918.122, 1244.979
5920.050, 1242.783
5921.979, 1234.941
5923.907, 1233.472
5925.835, 1225.169
5927.764, 1227.138
5929.692, 1231.306
5931.621, 1231.068
5933.549, 1224.079
5935.478, 1225.787
5937.406, 1215.440
5939.335, 1217.879
5941.263, 1217.399
5943.192, 1205.255
5945.120, 1208.172
5947.049, 1205.053
5948.977, 1201.687
5950.906, 1206.724
5952.834, 1196.277
5954.763, 1201.180
5956.691, 1199.956
5958.620, 1201.536
5960.548, 1197.044
5962.477, 1194.427
5964.405, 1197.885
5966.333, 1197.980
5968.262, 1192.787
5970.190, 1194.547
5972.119, 1183.886
5974.047, 1184.125
5975.976, 1189.063
5977.904, 1184.177
5979.833, 1186.047
5981.761, 1185.343
5983.689, 1172.947
5985.618, 1180.886
5987.546, 1180.031
5989.475, 1170.144
5991.403, 1177.387
5993.332, 1168.746
5995.260, 1165.775
5997.189, 1167.069
5999.117, 1163.917
6001.046, 1167.776
6002.974, 1164.881
6004.903, 1161.381
6006.831, 1160.516
6008.760, 1157.221
6010.688, 1157.705
6012.617, 1153.763
6014.545, 1154.524
6016.474, 1156.350
6018.402, 1150.017
6020.331, 1148.633
6022.259, 1145.667
6024.188, 1146.836
6026.116, 1143.209
6028.044, 1143.162
6029.973, 1139.240
6031.901, 1140.885
6033.830, 1137.141
6035.758, 1133.416
6037.687, 1127.107
6039.615, 1130.190
6041.543, 1131.395
6043.472, 1125.606
6045.400, 1121.512
6047.329, 1123.045
6049.257, 1122.075
6051.186, 1120.601
6053.114, 1118.956
6055.043, 1113.123
6056.971, 1110.880
6058.900, 1108.795
6060.828, 1105.279
6062.757, 1107.259
6064.685, 1101.882
6066.614, 1104.699
6068.542, 1106.536
6070.471, 1108.986
6072.399, 1110.358
6074.328, 1104.593
6076.256, 1095.034
6078.185, 1099.396
6080.113, 1099.532
6082.042, 1093.392
6083.970, 1094.707
6085.898, 1088.098
6087.827, 1091.496
6089.755, 1087.777
6091.684, 1081.031
6093.612, 1086.344
6095.541, 1082.997
6097.469, 1080.565
6099.397, 1081.672
6101.326, 1080.271
6103.254, 1071.664
6105.183, 1066.817
6107.111, 1066.826
6109.040, 1069.094
6110.968, 1072.330
6112.897, 1074.153
6114.825, 1072.857
6116.754, 1071.903
6118.682, 1066.407
6120.611, 1065.837
6122.539, 1057.790
6124.468, 1053.883
6126.396, 1052.543
6128.325, 1052.554
6130.253, 1049.269
6132.182, 1046.694
6134.110, 1045.242
6136.039, 1049.683
6137.967, 1043.385
6139.896, 1038.855
6141.824, 1042.545
6143.752, 1038.565
6145.681, 1035.718
6147.609, 1037.066
6149.538, 1030.363
6151.466, 1027.052
6153.395, 1034.167
6155.323, 1033.041
6157.251, 1032.401
6159.180, 1028.600
6161.108, 1029.735
6163.037, 1032.947
6164.965, 1028.445
6166.894, 1027.576
6168.822, 1017.744
6170.751, 1021.495
6172.679, 1021.145
6174.608, 1020.544
6176.536, 1010.365
6178.465, 1009.546
6180.393, 1020.085
6182.322, 1015.572
6184.250, 1003.018
6186.179, 1010.628
6188.107, 1006.196
6190.036, 1011.610
6191.964, 1011.622
6193.893, 1008.563
6195.821, 1006.199
6197.750, 1004.229
6199.678, 997.7221
6201.606, 998.6744
6203.535, 997.7119
6205.463, 994.3090
6207.392, 987.2809
6209.320, 993.9373
6211.249, 998.6918
6213.177, 994.6426
6215.105, 991.1787
6217.034, 991.2424
6218.962, 985.4622
6220.891, 985.7682
6222.819, 990.6766
6224.748, 992.8714
6226.676, 989.5922
6228.605, 981.4344
6230.533, 981.2708
6232.462, 977.1887
6234.390, 974.8687
6236.319, 974.8126
6238.247, 972.7410
6240.176, 976.0449
6242.104, 968.0468
6244.033, 965.5135
6245.961, 969.4454
6247.890, 972.4479
6249.818, 969.1756
6251.747, 959.7533
6253.675, 952.0002
6255.604, 950.3111
6257.532, 954.6658
6259.460, 955.4672
6261.389, 950.8550
6263.317, 952.2986
6265.246, 943.9340
6267.174, 940.5233
6269.103, 941.9715
6271.031, 944.6791
6272.959, 945.4874
6274.888, 942.1229
6276.816, 931.5138
6278.745, 935.2160
6280.673, 933.0652
6282.602, 932.3269
6284.530, 932.4260
6286.459, 930.6898
6288.387, 930.5403
6290.316, 928.4056
6292.244, 927.8040
6294.173, 926.4423
6296.101, 925.5432
6298.030, 924.4711
6299.958, 924.1750
6301.887, 922.0164
6303.815, 921.3067
6305.744, 919.6423
6307.672, 916.2218
6309.601, 916.3826
6311.529, 912.4001
6313.458, 910.4286
6315.386, 913.8602
6317.314, 915.3749
6319.243, 910.6566
6321.171, 907.0157
6323.100, 905.7911
6325.028, 905.9692
6326.957, 899.8650
6328.885, 895.5663
6330.813, 896.3835
6332.742, 893.5754
6334.670, 901.8834
6336.599, 893.9185
6338.527, 895.9658
6340.456, 897.3552
6342.384, 891.4857
6344.313, 889.0994
6346.241, 887.6648
6348.170, 884.1618
6350.098, 882.9203
6352.027, 880.3495
6353.955, 880.4976
6355.884, 876.8281
6357.812, 877.3882
6359.741, 878.2006
6361.669, 876.3402
6363.598, 878.0922
6365.526, 876.3906
6367.455, 869.6168
6369.383, 873.9816
6371.312, 863.2322
6373.240, 864.2065
6375.168, 860.5060
6377.097, 859.4822
6379.025, 861.5829
6380.954, 858.0720
6382.882, 865.0732
6384.811, 862.2157
6386.739, 863.4213
6388.667, 857.0797
6390.596, 849.9407
6392.524, 852.1877
6394.453, 855.3441
6396.381, 854.8512
6398.310, 844.7528
6400.238, 842.5891
6402.167, 846.0165
6404.095, 848.0203
6406.024, 845.4224
6407.952, 844.5977
6409.881, 842.4931
6411.809, 838.7083
6413.738, 837.9766
6415.666, 837.0321
6417.595, 837.7715
6419.523, 836.0704
6421.452, 835.9937
6423.380, 832.7992
6425.309, 834.6910
6427.237, 831.6443
6429.166, 830.2234
6431.094, 827.2111
6433.022, 822.1722
6434.951, 821.9190
6436.879, 820.9574
6438.808, 820.9246
6440.736, 813.3936
6442.665, 810.6454
6444.593, 820.1530
6446.521, 804.6832
6448.450, 816.4250
6450.378, 809.6338
6452.307, 807.3849
6454.235, 807.3458
6456.164, 804.8394
6458.092, 803.2262
6460.021, 804.2308
6461.949, 802.8922
6463.878, 801.4219
6465.806, 802.4486
6467.735, 796.6347
6469.663, 793.7155
6471.592, 788.5873
6473.520, 789.3989
6475.449, 794.2530
6477.377, 796.9063
6479.306, 784.1387
6481.234, 782.0748
6483.163, 788.8194
6485.091, 787.1146
6487.020, 789.0562
6488.948, 785.4290
6490.876, 781.6364
6492.805, 786.0179
6494.733, 783.3967
6496.662, 778.0434
6498.590, 778.9108
6500.519, 777.6176
6502.447, 770.4799
6504.375, 771.1622
6506.304, 776.6776
6508.232, 769.2496
6510.161, 771.4924
6512.089, 775.1472
6514.018, 770.7755
6515.946, 772.5226
6517.875, 770.2880
6519.803, 768.6296
6521.732, 762.8156
6523.660, 756.3803
6525.589, 760.0920
6527.517, 754.7431
6529.446, 754.5553
6531.374, 752.6615
6533.303, 752.8098
6535.231, 754.5881
6537.160, 752.9731
6539.088, 754.4800
6541.017, 752.8107
6542.945, 751.6405
6544.874, 749.0850
6546.802, 748.1865
6548.730, 745.4830
6550.659, 743.3079
6552.587, 738.2500
6554.516, 738.5499
6556.444, 745.4320
6558.373, 738.1439
6560.301, 740.2000
6562.229, 732.9409
6564.158, 735.5712
6566.086, 733.5127
6568.015, 737.5164
6569.943, 737.4269
6571.872, 724.1988
6573.800, 728.6573
6575.729, 727.8986
6577.657, 720.8666
6579.586, 722.2574
6581.514, 723.9722
6583.443, 721.6982
6585.371, 720.2137
6587.300, 722.2173
6589.228, 719.4316
6591.157, 712.8096
6593.085, 721.6589
6595.014, 710.0696
6596.942, 708.5208
6598.871, 713.6823
6600.799, 715.5787
6602.728, 714.8105
6604.656, 710.4022
6606.584, 703.0811
6608.513, 707.8766
6610.441, 705.5100
6612.370, 701.5675
6614.298, 702.1954
6616.227, 698.4276
6618.155, 693.5303
6620.083, 707.7268
6622.012, 699.9478
6623.940, 696.9855
6625.869, 688.2513
6627.797, 695.6644
6629.726, 694.6716
##END=



