##NAMES=Thaumasite
##RRUFFID=R060296
##IDEAL CHEMISTRY=Ca_3_Si(OH)_6_(CO_3_)(SO_4_)·12H_2_O
##LOCALITY=N'Chwaning II mine, Kalahari manganese field, Cape Province, South Africa
##OWNER=RRUFF
##SOURCE=Herb Obodda
##DESCRIPTION=Pale blue hexagonal prism
##STATUS=The identification of this mineral has been confirmed by X-ray diffraction
##URL=https://www.rruff.net/odr/rruff_sample/R060296
##DIFFRACTION SAMPLE DESCRIPTION=Powder
##CELL PARAMETERS=a: 11.0601 b: 11.0601 c: 10.436 alpha: 90 beta: 90 gamma: 120 volume: 1105.5 crystal system: hexagonal
##FILETYPE=Raman RAW
##RAMAN WAVELENGTH=780

147.3462, 1550.303
149.2747, 1530.843
151.2031, 1487.474
153.1316, 1408.813
155.0601, 1305.198
156.9885, 1210.577
158.9170, 1122.027
160.8455, 1053.739
162.7739, 1010.078
164.7024, 985.8044
166.6309, 978.6776
168.5593, 986.9042
170.4878, 1009.373
172.4163, 1046.691
174.3447, 1087.424
176.2732, 1130.296
178.2017, 1176.916
180.1301, 1232.502
182.0586, 1288.955
183.9871, 1336.967
185.9155, 1376.176
187.8440, 1403.911
189.7725, 1416.146
191.7009, 1426.416
193.6294, 1431.269
195.5579, 1442.953
197.4863, 1469.312
199.4148, 1512.385
201.3433, 1573.114
203.2717, 1651.081
205.2002, 1748.557
207.1287, 1882.702
209.0571, 2019.003
210.9856, 2166.373
212.9141, 2295.865
214.8425, 2346.854
216.7710, 2321.185
218.6995, 2245.000
220.6279, 2087.781
222.5564, 1926.935
224.4849, 1770.619
226.4133, 1631.666
228.3418, 1529.559
230.2703, 1459.037
232.1987, 1407.134
234.1272, 1379.474
236.0557, 1354.892
237.9841, 1333.420
239.9126, 1309.061
241.8411, 1278.804
243.7695, 1242.317
245.6980, 1199.738
247.6265, 1150.980
249.5549, 1096.427
251.4834, 1030.675
253.4119, 966.3165
255.3403, 904.8183
257.2688, 848.1677
259.1973, 798.2482
261.1257, 754.5579
263.0542, 716.0409
264.9827, 683.2966
266.9111, 654.8760
268.8396, 631.3553
270.7681, 610.9543
272.6965, 594.3696
274.6250, 579.5536
276.5535, 563.4896
278.4819, 545.8491
280.4104, 529.9265
282.3389, 516.7229
284.2673, 503.9767
286.1958, 491.4643
288.1243, 479.2270
290.0527, 466.7973
291.9812, 454.7166
293.9097, 444.5812
295.8381, 437.1447
297.7666, 429.6035
299.6951, 421.6028
301.6235, 413.9870
303.5520, 406.5703
305.4805, 400.0965
307.4089, 395.2112
309.3374, 391.7389
311.2659, 388.6646
313.1943, 385.6881
315.1228, 384.0615
317.0513, 384.4214
318.9797, 385.1092
320.9082, 385.4414
322.8367, 385.7716
324.7651, 387.0818
326.6936, 388.9493
328.6221, 387.9075
330.5505, 383.3702
332.4790, 378.2521
334.4075, 372.2234
336.3359, 366.7255
338.2644, 362.6299
340.1929, 359.1914
342.1213, 355.0651
344.0498, 354.1246
345.9783, 354.1227
347.9067, 353.9951
349.8352, 357.7027
351.7637, 360.5541
353.6921, 363.8311
355.6206, 368.4541
357.5491, 373.3857
359.4775, 377.3205
361.4060, 380.7740
363.3345, 386.6174
365.2629, 395.0703
367.1914, 401.0500
369.1199, 402.2459
371.0483, 404.5619
372.9768, 410.2633
374.9053, 417.6159
376.8337, 425.9383
378.7622, 434.8691
380.6907, 442.8580
382.6191, 450.0272
384.5476, 460.0474
386.4761, 473.7499
388.4045, 489.1102
390.3330, 505.3238
392.2615, 523.2326
394.1899, 542.4817
396.1184, 564.2066
398.0469, 590.0315
399.9753, 619.8983
401.9038, 654.5255
403.8323, 694.1467
405.7607, 737.4911
407.6892, 787.1604
409.6177, 836.8098
411.5461, 889.2404
413.4746, 936.8300
415.4031, 973.6584
417.3315, 999.1229
419.2600, 1011.212
421.1885, 1009.572
423.1169, 1001.743
425.0454, 982.7703
426.9739, 967.9735
428.9023, 956.6229
430.8308, 953.6641
432.7593, 960.3323
434.6877, 978.5400
436.6162, 1010.984
438.5447, 1056.217
440.4731, 1108.854
442.4016, 1170.718
444.3301, 1232.984
446.2585, 1305.490
448.1870, 1363.128
450.1155, 1404.538
452.0439, 1424.090
453.9724, 1416.749
455.9009, 1384.518
457.8293, 1323.408
459.7578, 1233.896
461.6863, 1149.392
463.6147, 1066.618
465.5432, 997.3051
467.4717, 940.7313
469.4001, 898.6989
471.3286, 877.2089
473.2571, 865.0923
475.1855, 857.2048
477.1140, 851.3718
479.0425, 844.8160
480.9709, 837.6164
482.8994, 824.8571
484.8279, 806.0165
486.7563, 782.4760
488.6848, 753.6184
490.6133, 721.1216
492.5417, 680.7744
494.4702, 642.9445
496.3987, 614.1176
498.3271, 591.7635
500.2556, 572.4929
502.1841, 556.2362
504.1125, 542.1723
506.0410, 530.2546
507.9695, 520.7665
509.8979, 514.0154
511.8264, 508.9541
513.7549, 505.2881
515.6833, 503.2299
517.6118, 504.9650
519.5403, 506.5029
521.4688, 501.9903
523.3972, 493.4515
525.3257, 488.9604
527.2542, 488.6462
529.1826, 488.2165
531.1111, 487.3114
533.0396, 487.3926
534.9680, 489.5185
536.8965, 491.3436
538.8250, 489.7949
540.7534, 489.9139
542.6819, 495.7934
544.6104, 505.3216
546.5388, 515.8817
548.4673, 527.0901
550.3958, 536.4948
552.3242, 544.0584
554.2527, 552.4852
556.1812, 562.6652
558.1096, 572.0480
560.0381, 580.4398
561.9666, 587.1644
563.8950, 591.2516
565.8235, 594.2339
567.7520, 597.8665
569.6804, 600.9740
571.6089, 600.2824
573.5374, 597.2078
575.4658, 596.5534
577.3943, 598.5147
579.3228, 603.5011
581.2512, 612.5765
583.1797, 622.2709
585.1082, 630.2443
587.0366, 641.1384
588.9651, 657.6879
590.8936, 676.4173
592.8220, 696.0187
594.7505, 715.3350
596.6790, 733.8824
598.6074, 750.6967
600.5359, 763.1302
602.4644, 771.0498
604.3928, 775.4133
606.3213, 777.0515
608.2498, 772.9123
610.1782, 759.6568
612.1067, 745.9954
614.0352, 731.9993
615.9636, 720.3317
617.8921, 713.1318
619.8206, 708.2773
621.7490, 703.6097
623.6775, 700.0690
625.6060, 699.6634
627.5344, 702.0734
629.4629, 704.2207
631.3914, 705.1783
633.3198, 709.4697
635.2483, 713.7037
637.1768, 727.7313
639.1052, 749.4350
641.0337, 785.6741
642.9622, 837.9623
644.8906, 906.0812
646.8191, 985.3227
648.7476, 1086.081
650.6760, 1230.119
652.6045, 1393.166
654.5330, 1561.166
656.4614, 1715.385
658.3899, 1744.867
660.3184, 1640.574
662.2468, 1466.408
664.1753, 1199.985
666.1038, 965.9841
668.0322, 773.4332
669.9607, 623.4963
671.8892, 525.3303
673.8176, 453.8810
675.7461, 405.8259
677.6746, 371.2539
679.6030, 347.6211
681.5315, 331.3750
683.4600, 319.9659
685.3884, 312.3076
687.3169, 306.5023
689.2454, 302.3630
691.1738, 298.6586
693.1023, 295.3813
695.0308, 292.4362
696.9592, 289.8317
698.8877, 287.6501
700.8162, 286.2711
702.7446, 283.9975
704.6731, 279.1788
706.6016, 275.4565
708.5300, 275.1258
710.4585, 274.8173
712.3870, 272.5370
714.3154, 269.6161
716.2439, 266.6740
718.1724, 264.3232
720.1008, 263.6266
722.0293, 264.3194
723.9578, 266.1598
725.8862, 268.7045
727.8147, 269.3648
729.7432, 268.0359
731.6716, 267.4005
733.6001, 268.1154
735.5286, 267.4496
737.4570, 263.6523
739.3855, 261.2856
741.3140, 262.2036
743.2424, 263.0087
745.1709, 262.6478
747.0994, 262.0511
749.0278, 261.2914
750.9563, 260.9298
752.8848, 261.3500
754.8132, 262.4735
756.7417, 264.5612
758.6702, 267.0799
760.5986, 268.9680
762.5271, 271.5408
764.4556, 274.2127
766.3840, 276.6300
768.3125, 279.8421
770.2410, 282.6806
772.1694, 285.4982
774.0979, 288.0209
776.0264, 291.2057
777.9548, 294.9008
779.8833, 299.5482
781.8118, 305.7342
783.7402, 312.0003
785.6687, 318.1139
787.5972, 323.9684
789.5256, 328.2686
791.4541, 333.9438
793.3826, 342.9700
795.3110, 354.0500
797.2395, 365.5269
799.1680, 378.9358
801.0964, 396.8654
803.0249, 417.5868
804.9534, 439.0294
806.8818, 460.2071
808.8103, 478.5435
810.7388, 493.6746
812.6672, 501.7421
814.5957, 503.0014
816.5242, 492.0139
818.4526, 466.9766
820.3811, 442.3676
822.3096, 417.7421
824.2380, 399.3327
826.1665, 388.9022
828.0950, 380.6960
830.0234, 373.8339
831.9519, 368.0742
833.8804, 363.9767
835.8088, 359.6031
837.7373, 354.1324
839.6658, 348.3398
841.5942, 343.0507
843.5227, 336.9665
845.4512, 328.6794
847.3796, 320.0457
849.3081, 312.3395
851.2366, 305.2910
853.1650, 298.8569
855.0935, 292.6855
857.0220, 285.6517
858.9504, 281.0931
860.8789, 274.6005
862.8074, 272.2410
864.7358, 269.0994
866.6643, 265.4797
868.5928, 262.4175
870.5212, 259.9603
872.4497, 258.3279
874.3782, 257.5154
876.3066, 257.3879
878.2351, 257.9431
880.1636, 258.8549
882.0920, 260.1574
884.0205, 261.3152
885.9490, 262.1496
887.8774, 263.3156
889.8059, 265.0836
891.7344, 266.7704
893.6628, 267.9451
895.5913, 269.6051
897.5198, 271.5139
899.4482, 274.5149
901.3767, 278.7369
903.3052, 284.1664
905.2336, 291.2173
907.1621, 298.8616
909.0906, 306.6763
911.0190, 314.9429
912.9475, 322.5855
914.8760, 332.3426
916.8044, 346.9047
918.7329, 363.1197
920.6614, 378.0461
922.5898, 394.2287
924.5183, 412.6295
926.4468, 434.7451
928.3752, 463.2350
930.3037, 494.9908
932.2322, 526.7034
934.1606, 559.2226
936.0891, 596.1793
938.0176, 633.1050
939.9460, 660.7406
941.8745, 683.0674
943.8030, 704.4495
945.7314, 729.6321
947.6599, 767.0253
949.5884, 820.8696
951.5168, 903.2607
953.4453, 1016.507
955.3738, 1177.436
957.3022, 1382.300
959.2307, 1611.146
961.1592, 1860.165
963.0876, 2091.399
965.0161, 2302.722
966.9446, 2421.872
968.8730, 2447.931
970.8015, 2378.306
972.7300, 2211.472
974.6584, 2084.601
976.5869, 1999.937
978.5154, 2006.995
980.4438, 2107.800
982.3723, 2314.951
984.3008, 2627.484
986.2292, 3203.883
988.1577, 4074.599
990.0862, 4738.100
992.0146, 5165.561
993.9431, 4894.067
995.8716, 3816.777
997.8000, 2789.922
999.7285, 1902.106
1001.657, 1259.684
1003.585, 894.8766
1005.514, 643.3578
1007.442, 494.7787
1009.371, 390.5850
1011.299, 328.3125
1013.228, 283.9704
1015.156, 256.7867
1017.085, 237.2993
1019.013, 225.5753
1020.942, 216.7552
1022.870, 210.6842
1024.799, 206.0117
1026.727, 202.8457
1028.656, 200.2114
1030.584, 197.4136
1032.512, 196.7484
1034.441, 199.3838
1036.369, 201.8555
1038.298, 201.9429
1040.226, 206.1770
1042.155, 218.4575
1044.083, 227.9175
1046.012, 232.6970
1047.940, 236.9267
1049.869, 239.1760
1051.797, 243.9850
1053.726, 248.9767
1055.654, 261.5511
1057.583, 281.9359
1059.511, 310.0041
1061.439, 343.1222
1063.368, 389.4135
1065.296, 460.3300
1067.225, 525.6929
1069.153, 643.7933
1071.082, 758.6514
1073.010, 893.7023
1074.939, 941.7180
1076.867, 880.1498
1078.796, 784.2219
1080.724, 640.8232
1082.653, 536.4534
1084.581, 480.3397
1086.510, 441.6720
1088.438, 420.8965
1090.366, 405.6941
1092.295, 395.4689
1094.223, 391.9522
1096.152, 395.7395
1098.080, 401.2843
1100.009, 408.6943
1101.937, 410.8990
1103.866, 412.9432
1105.794, 413.5438
1107.723, 411.1018
1109.651, 410.1494
1111.580, 404.9396
1113.508, 401.6345
1115.437, 399.8035
1117.365, 393.8390
1119.293, 388.4998
1121.222, 381.9861
1123.150, 373.2263
1125.079, 364.8909
1127.007, 353.6334
1128.936, 341.2843
1130.864, 327.9214
1132.793, 313.2049
1134.721, 298.0224
1136.650, 284.4477
1138.578, 271.9711
1140.507, 259.4398
1142.435, 247.4621
1144.364, 237.2527
1146.292, 228.0042
1148.220, 218.2880
1150.149, 209.2222
1152.077, 202.3089
1154.006, 196.5423
1155.934, 191.3895
1157.863, 186.3350
1159.791, 179.7321
1161.720, 174.6992
1163.648, 175.4551
1165.577, 175.6518
1167.505, 169.9280
1169.434, 165.0553
1171.362, 165.4461
1173.291, 165.6527
1175.219, 163.2680
1177.147, 160.7634
1179.076, 157.8110
1181.004, 156.7684
1182.933, 160.4323
1184.861, 161.6432
1186.790, 157.5328
1188.718, 154.9694
1190.647, 155.8522
1192.575, 154.9585
1194.504, 151.1100
1196.432, 148.4966
1198.361, 147.3541
1200.289, 146.2986
1202.218, 145.3591
1204.146, 143.7690
1206.074, 141.5773
1208.003, 140.1366
1209.931, 139.3109
1211.860, 138.4820
1213.788, 137.5289
1215.717, 135.7550
1217.645, 134.8533
1219.574, 132.8510
1221.502, 132.4375
1223.431, 131.1052
1225.359, 130.0284
1227.288, 130.9898
1229.216, 132.2707
1231.145, 132.9405
1233.073, 132.6186
1235.001, 129.8683
1236.930, 127.9650
1238.858, 129.2033
1240.787, 129.7094
1242.715, 127.8238
1244.644, 126.3057
1246.572, 126.1046
1248.501, 125.1582
1250.429, 122.9865
1252.358, 120.5332
1254.286, 117.8385
1256.215, 116.9737
1258.143, 117.9423
1260.072, 116.7893
1262.000, 113.7596
1263.928, 111.6947
1265.857, 110.6968
1267.785, 111.3035
1269.714, 112.5591
1271.642, 112.1303
1273.571, 111.1286
1275.499, 111.2520
1277.428, 111.7122
1279.356, 111.6422
1281.285, 111.5371
1283.213, 112.1191
1285.142, 112.2646
1287.070, 110.8693
1288.999, 109.7418
1290.927, 109.3952
1292.855, 109.6825
1294.784, 111.0267
1296.712, 112.0936
1298.641, 112.7766
1300.569, 113.1744
1302.498, 113.1436
1304.426, 113.9103
1306.355, 115.4333
1308.283, 115.7432
1310.212, 115.3164
1312.140, 117.0070
1314.069, 119.1419
1315.997, 117.0797
1317.926, 118.4327
1319.854, 115.8447
1321.782, 117.8877
1323.711, 117.4638
1325.639, 116.6474
1327.568, 116.3716
1329.496, 116.3452
1331.425, 116.5845
1333.353, 116.6315
1335.282, 116.3361
1337.210, 116.0653
1339.139, 115.8827
1341.067, 115.5917
1342.996, 115.1715
1344.924, 114.1175
1346.853, 112.6669
1348.781, 111.5749
1350.709, 111.2742
1352.638, 113.8587
1354.566, 116.5946
1356.495, 115.2253
1358.423, 113.3196
1360.352, 113.8084
1362.280, 114.5060
1364.209, 114.5799
1366.137, 114.3936
1368.066, 114.0501
1369.994, 113.0873
1371.923, 113.5099
1373.851, 114.3187
1375.780, 114.4413
1377.708, 116.7275
1379.636, 118.3408
1381.565, 118.9903
1383.493, 119.1568
1385.422, 119.7868
1387.350, 120.4853
1389.279, 120.6489
1391.207, 120.8348
1393.136, 121.6948
1395.064, 122.2669
1396.993, 122.1429
1398.921, 121.6287
1400.850, 120.2991
1402.778, 120.0609
1404.707, 121.1588
1406.635, 122.0039
1408.563, 122.6128
1410.492, 123.5423
1412.420, 124.7241
1414.349, 126.0667
1416.277, 127.4166
1418.206, 127.9164
1420.134, 129.3550
1422.063, 133.6525
1423.991, 138.0272
1425.920, 141.0000
1427.848, 144.5931
1429.777, 149.3295
1431.705, 154.4619
1433.634, 159.9801
1435.562, 165.3391
1437.490, 170.7498
1439.419, 178.1112
1441.347, 186.1468
1443.276, 192.7652
1445.204, 197.7405
1447.133, 200.3696
1449.061, 201.9317
1450.990, 202.8142
1452.918, 203.4328
1454.847, 204.2348
1456.775, 202.9386
1458.704, 199.1498
1460.632, 194.3253
1462.561, 188.5691
1464.489, 181.4328
1466.417, 173.9432
1468.346, 168.5494
1470.274, 164.1275
1472.203, 159.8451
1474.131, 155.3445
1476.060, 149.6408
1477.988, 145.3739
1479.917, 143.3184
1481.845, 141.9348
1483.774, 141.0163
1485.702, 139.4412
1487.631, 137.1906
1489.559, 134.2170
1491.488, 131.0458
1493.416, 128.8842
1495.344, 126.5573
1497.273, 122.1255
1499.201, 118.6363
1501.130, 118.1907
1503.058, 117.5168
1504.987, 116.1952
1506.915, 114.5959
1508.844, 112.7530
1510.772, 110.3070
1512.701, 107.9022
1514.629, 107.2136
1516.558, 107.5875
1518.486, 109.2942
1520.415, 110.2194
1522.343, 108.3142
1524.271, 106.9612
1526.200, 107.3524
1528.128, 107.5834
1530.057, 107.6139
1531.985, 107.7155
1533.914, 107.7149
1535.842, 106.4179
1537.771, 105.2858
1539.699, 106.6067
1541.628, 107.7951
1543.556, 107.1910
1545.485, 106.9335
1547.413, 107.7511
1549.342, 108.3751
1551.270, 108.6954
1553.198, 107.0784
1555.127, 104.5883
1557.055, 104.7216
1558.984, 105.6468
1560.912, 105.0436
1562.841, 104.9782
1564.769, 106.9920
1566.698, 106.9510
1568.626, 106.7210
1570.555, 106.4105
1572.483, 105.1383
1574.412, 104.6182
1576.340, 104.1393
1578.269, 102.8568
1580.197, 103.2468
1582.125, 103.5680
1584.054, 103.0752
1585.982, 103.4189
1587.911, 101.0331
1589.839, 103.4294
1591.768, 104.7627
1593.696, 104.8047
1595.625, 102.9626
1597.553, 100.8827
1599.482, 100.5889
1601.410, 100.6985
1603.339, 100.2969
1605.267, 100.8569
1607.196, 100.1301
1609.124, 102.0773
1611.052, 99.09636
1612.981, 97.58678
1614.909, 97.27251
1616.838, 98.30885
1618.766, 99.19139
1620.695, 98.03179
1622.623, 98.52427
1624.552, 98.88495
1626.480, 98.32018
1628.409, 99.57365
1630.337, 97.90038
1632.266, 97.46547
1634.194, 97.17861
1636.123, 97.15700
1638.051, 97.78111
1639.979, 97.91982
1641.908, 97.06836
1643.836, 96.48898
1645.765, 96.22988
1647.693, 96.59773
1649.622, 97.18309
1651.550, 97.41005
1653.479, 97.26676
1655.407, 97.56105
1657.336, 97.57153
1659.264, 97.38683
1661.193, 97.53232
1663.121, 96.88189
1665.050, 96.42439
1666.978, 96.29324
1668.906, 96.39355
1670.835, 97.54723
1672.763, 100.5920
1674.692, 102.5614
1676.620, 102.9394
1678.549, 104.2289
1680.477, 106.3076
1682.406, 108.7604
1684.334, 110.9173
1686.263, 112.7326
1688.191, 112.7071
1690.120, 115.8628
1692.048, 117.8291
1693.977, 118.6209
1695.905, 122.1800
1697.833, 123.5569
1699.762, 127.3417
1701.690, 127.8216
1703.619, 130.3670
1705.547, 132.7473
1707.476, 134.4166
1709.404, 137.9665
1711.333, 142.8498
1713.261, 146.4944
1715.190, 149.8352
1717.118, 154.4862
1719.047, 158.0242
1720.975, 158.8907
1722.904, 159.9677
1724.832, 161.2900
1726.760, 160.5360
1728.689, 158.1016
1730.617, 154.3453
1732.546, 150.0479
1734.474, 145.4422
1736.403, 141.0488
1738.331, 137.2160
1740.260, 130.6836
1742.188, 122.8115
1744.117, 117.7567
1746.045, 113.1416
1747.974, 107.1653
1749.902, 101.5323
1751.831, 96.71981
1753.759, 92.08281
1755.688, 87.73550
1757.616, 84.23866
1759.544, 81.61838
1761.473, 80.26690
1763.401, 78.87666
1765.330, 77.06142
1767.258, 75.39925
1769.187, 73.90202
1771.115, 72.71307
1773.044, 71.67767
1774.972, 70.84249
1776.901, 70.13409
1778.829, 69.57458
1780.758, 68.97807
1782.686, 68.34805
1784.615, 67.63876
1786.543, 67.19013
1788.471, 66.27354
1790.400, 66.16048
1792.328, 65.29620
1794.257, 64.53934
1796.185, 63.91610
1798.114, 63.13936
1800.042, 62.27562
1801.971, 61.37437
1803.899, 60.46781
1805.828, 59.96832
1807.756, 59.03648
1809.685, 59.18528
1811.613, 59.03641
1813.542, 58.97785
1815.470, 59.67450
1817.398, 60.15649
1819.327, 60.27248
1821.255, 59.26192
1823.184, 57.41137
1825.112, 55.94820
1827.041, 55.13633
1828.969, 55.40419
1830.898, 55.91206
1832.826, 56.63258
1834.755, 56.45786
1836.683, 55.65606
1838.612, 54.82500
1840.540, 54.44737
1842.469, 53.55421
1844.397, 54.89101
1846.325, 52.46630
1848.254, 51.50438
1850.182, 51.79422
1852.111, 54.00589
1854.039, 55.10288
1855.968, 53.37711
1857.896, 52.07856
1859.825, 51.72446
1861.753, 52.97972
1863.682, 54.10619
1865.610, 51.87819
1867.539, 50.47269
1869.467, 51.08067
1871.396, 52.16101
1873.324, 53.23538
1875.252, 53.35824
1877.181, 52.74334
1879.109, 50.95449
1881.038, 49.91020
1882.966, 49.86187
1884.895, 51.11812
1886.823, 52.40194
1888.752, 51.21249
1890.680, 49.86777
1892.609, 49.29461
1894.537, 49.31551
1896.466, 49.76036
1898.394, 50.16004
1900.323, 50.17375
1902.251, 49.29242
1904.179, 48.29633
1906.108, 47.28489
1908.036, 47.05257
1909.965, 47.39598
1911.893, 48.04023
1913.822, 48.71456
1915.750, 49.44132
1917.679, 49.64698
1919.607, 49.42426
1921.536, 49.39491
1923.464, 49.27681
1925.393, 48.72243
1927.321, 48.42578
1929.250, 48.52692
1931.178, 48.77085
1933.106, 49.27501
1935.035, 50.64997
1936.963, 51.21842
1938.892, 50.25164
1940.820, 49.80852
1942.749, 49.65731
1944.677, 48.40266
1946.606, 47.59610
1948.534, 48.24707
1950.463, 48.11727
1952.391, 47.14387
1954.320, 47.43498
1956.248, 47.69313
1958.177, 46.11368
1960.105, 45.76550
1962.033, 47.05448
1963.962, 47.49687
1965.890, 47.20872
1967.819, 47.94873
1969.747, 47.77888
1971.676, 47.83628
1973.604, 47.88232
1975.533, 47.55573
1977.461, 46.84944
1979.390, 46.98270
1981.318, 46.03911
1983.247, 45.77200
1985.175, 46.08232
1987.104, 46.20337
1989.032, 46.45322
1990.960, 47.36319
1992.889, 47.37820
1994.817, 46.73546
1996.746, 48.63135
1998.674, 50.09730
2000.603, 47.49927
2002.531, 46.62091
2004.460, 48.08560
2006.388, 47.31744
2008.317, 46.40664
2010.245, 47.95522
2012.174, 48.59002
2014.102, 47.46377
2016.031, 47.35029
2017.959, 47.46105
2019.887, 46.64705
2021.816, 45.97199
2023.744, 45.68822
2025.673, 47.81393
2027.601, 47.26101
2029.530, 48.88628
2031.458, 48.17418
2033.387, 49.39286
2035.315, 50.00764
2037.244, 50.03967
2039.172, 49.41961
2041.101, 48.94793
2043.029, 48.84907
2044.958, 48.81960
2046.886, 49.21206
2048.814, 49.29642
2050.743, 49.12092
2052.671, 49.92708
2054.600, 48.99860
2056.528, 49.37178
2058.457, 50.04414
2060.385, 51.16174
2062.314, 52.87286
2064.242, 51.09120
2066.171, 52.27536
2068.099, 51.05842
2070.028, 52.57590
2071.956, 51.07119
2073.885, 51.63836
2075.813, 53.05555
2077.741, 53.13770
2079.670, 52.93616
2081.598, 52.71980
2083.527, 52.83398
2085.455, 53.26064
2087.384, 54.21520
2089.312, 54.87081
2091.241, 55.13960
2093.169, 51.90571
2095.098, 49.05944
2097.026, 51.57233
2098.955, 53.47166
2100.883, 53.50643
2102.812, 53.04903
2104.740, 53.04108
2106.668, 54.62113
2108.597, 55.28018
2110.525, 54.77262
2112.454, 54.97939
2114.382, 54.81790
2116.311, 53.29097
2118.239, 53.13026
2120.168, 54.31217
2122.096, 55.88576
2124.025, 56.33639
2125.953, 54.87800
2127.882, 52.98230
2129.810, 51.48570
2131.739, 52.57015
2133.667, 53.56428
2135.595, 53.51296
2137.524, 55.09101
2139.452, 56.63725
2141.381, 54.23302
2143.309, 53.15701
2145.238, 54.37659
2147.166, 54.67965
2149.095, 54.55323
2151.023, 54.54003
2152.952, 54.51678
2154.880, 54.46191
2156.809, 53.95141
2158.737, 54.11492
2160.666, 56.55381
2162.594, 57.52264
2164.522, 57.29701
2166.451, 57.02485
2168.379, 56.58292
2170.308, 55.65009
2172.236, 55.90411
2174.165, 57.01732
2176.093, 59.04166
2178.022, 59.72046
2179.950, 58.67516
2181.879, 59.08287
2183.807, 59.55729
2185.736, 58.97265
2187.664, 58.36118
2189.593, 58.00744
2191.521, 58.85503
2193.449, 59.48507
2195.378, 59.30499
2197.306, 59.23187
2199.235, 59.58131
2201.163, 58.58707
2203.092, 58.62611
2205.020, 57.50024
2206.949, 57.84322
2208.877, 59.01390
2210.806, 58.60210
2212.734, 59.89656
2214.663, 62.05137
2216.591, 62.14627
2218.520, 61.16905
2220.448, 59.52787
2222.376, 60.04729
2224.305, 60.46467
2226.233, 59.79242
2228.162, 60.53286
2230.090, 59.27837
2232.019, 60.17095
2233.947, 59.50254
2235.876, 56.98732
2237.804, 56.63993
2239.733, 57.91222
2241.661, 56.35746
2243.590, 56.57866
2245.518, 56.14454
2247.447, 56.04011
2249.375, 57.15263
2251.303, 57.64973
2253.232, 58.57596
2255.160, 58.58993
2257.089, 58.75758
2259.017, 58.13577
2260.946, 57.77820
2262.874, 56.95675
2264.803, 56.96154
2266.731, 55.42967
2268.660, 54.19624
2270.588, 53.37503
2272.517, 52.93081
2274.445, 53.48446
2276.374, 52.96696
2278.302, 53.87647
2280.230, 52.94000
2282.159, 53.71178
2284.087, 53.84468
2286.016, 53.25633
2287.944, 51.56833
2289.873, 50.63927
2291.801, 50.73722
2293.730, 51.62925
2295.658, 51.84581
2297.587, 50.58265
2299.515, 49.58190
2301.444, 49.28215
2303.372, 48.93707
2305.301, 48.35841
2307.229, 49.03462
2309.157, 47.98890
2311.086, 47.78798
2313.014, 48.52903
2314.943, 47.44684
2316.871, 46.39083
2318.800, 48.31822
2320.728, 47.16251
2322.657, 44.40252
2324.585, 45.82715
2326.514, 46.10579
2328.442, 43.84020
2330.371, 44.28722
2332.299, 44.35191
2334.228, 41.62015
2336.156, 39.75888
2338.084, 39.10876
2340.013, 40.36856
2341.941, 40.25716
2343.870, 38.82935
2345.798, 38.75962
2347.727, 39.27377
2349.655, 40.07646
2351.584, 39.40057
2353.512, 38.35028
2355.441, 37.68697
2357.369, 38.31950
2359.298, 39.20321
2361.226, 38.21755
2363.155, 36.66621
2365.083, 35.13429
2367.011, 35.42560
2368.940, 35.91838
2370.868, 35.97277
2372.797, 34.36739
2374.725, 33.01633
2376.654, 33.54533
2378.582, 32.47678
2380.511, 32.11307
2382.439, 32.56002
2384.368, 31.46719
2386.296, 32.69669
2388.225, 33.02108
2390.153, 33.30772
2392.082, 33.81953
2394.010, 33.57341
2395.938, 33.17199
2397.867, 33.12916
2399.795, 32.41196
2401.724, 31.48185
2403.652, 30.42421
2405.581, 31.90178
2407.509, 31.05351
2409.438, 32.38435
2411.366, 31.31203
2413.295, 31.66645
2415.223, 32.05657
2417.152, 30.88521
2419.080, 31.41598
2421.009, 28.71741
2422.937, 30.66497
2424.865, 31.00271
2426.794, 29.12327
2428.722, 27.64928
2430.651, 29.84348
2432.579, 30.42129
2434.508, 29.87570
2436.436, 30.58464
2438.365, 31.24924
2440.293, 31.17316
2442.222, 28.01353
2444.150, 26.00977
2446.079, 26.14317
2448.007, 26.82878
2449.936, 27.63075
2451.864, 28.37675
2453.792, 27.86452
2455.721, 27.15159
2457.649, 26.87951
2459.578, 26.92141
2461.506, 26.75279
2463.435, 27.54381
2465.363, 26.80458
2467.292, 27.36569
2469.220, 27.07980
2471.149, 26.77967
2473.077, 26.59154
2475.006, 26.71212
2476.934, 25.82571
2478.863, 24.13180
2480.791, 26.25205
2482.719, 27.62880
2484.648, 26.63029
2486.576, 24.11781
2488.505, 22.84866
2490.433, 24.27970
2492.362, 25.56784
2494.290, 25.79116
2496.219, 26.38310
2498.147, 25.15864
2500.076, 26.10985
2502.004, 25.13774
2503.933, 24.06244
2505.861, 23.70476
2507.790, 25.42706
2509.718, 25.30831
2511.646, 24.36910
2513.575, 25.86655
2515.503, 25.48932
2517.432, 24.02748
2519.360, 25.63087
2521.289, 24.35740
2523.217, 24.63650
2525.146, 23.69515
2527.074, 24.67792
2529.003, 23.34411
2530.931, 23.04114
2532.860, 23.13411
2534.788, 23.39615
2536.717, 23.67746
2538.645, 24.89757
2540.573, 24.53931
2542.502, 25.59818
2544.430, 23.73598
2546.359, 23.52769
2548.287, 21.76106
2550.216, 21.53039
2552.144, 24.93450
2554.073, 25.64693
2556.001, 24.85464
2557.930, 23.23737
2559.858, 23.83680
2561.787, 24.33599
2563.715, 23.19444
2565.644, 22.48333
2567.572, 22.99186
2569.500, 22.26287
2571.429, 22.30870
2573.357, 22.07269
2575.286, 22.22580
2577.214, 22.33218
2579.143, 22.40222
2581.071, 22.58323
2583.000, 22.84033
2584.928, 23.19891
2586.857, 23.82334
2588.785, 24.06129
2590.714, 24.42929
2592.642, 24.40614
2594.571, 24.76258
2596.499, 24.15359
2598.427, 23.75467
2600.356, 22.03662
2602.284, 20.20151
2604.213, 19.39174
2606.141, 20.39724
2608.070, 21.69999
2609.998, 21.55484
2611.927, 21.91419
2613.855, 22.42658
2615.784, 22.64076
2617.712, 23.69598
2619.641, 23.57347
2621.569, 20.19773
2623.498, 20.23181
2625.426, 21.60372
2627.354, 22.34939
2629.283, 23.12633
2631.211, 23.69977
2633.140, 23.91158
2635.068, 21.65248
2636.997, 19.26973
2638.925, 18.31761
2640.854, 21.28757
2642.782, 23.01791
2644.711, 20.92186
2646.639, 22.06810
2648.568, 21.82500
2650.496, 18.39519
2652.425, 20.78416
2654.353, 23.76102
2656.281, 24.82484
2658.210, 23.09983
2660.138, 21.21958
2662.067, 20.33539
2663.995, 22.08636
2665.924, 23.36263
2667.852, 23.53167
2669.781, 24.95560
2671.709, 24.08509
2673.638, 24.16938
2675.566, 21.89956
2677.495, 22.50626
2679.423, 22.29658
2681.352, 20.13943
2683.280, 20.16676
2685.208, 21.87550
2687.137, 23.58263
2689.065, 23.31243
2690.994, 22.87514
2692.922, 25.37202
2694.851, 23.28641
2696.779, 20.78830
2698.708, 22.69210
2700.636, 23.49394
2702.565, 23.54702
2704.493, 23.48644
2706.422, 24.25413
2708.350, 25.08696
2710.279, 25.49232
2712.207, 24.54730
2714.135, 23.52244
2716.064, 23.09627
2717.992, 22.31896
2719.921, 22.19541
2721.849, 21.97699
2723.778, 22.59899
2725.706, 24.15466
2727.635, 25.42008
2729.563, 24.79272
2731.492, 23.93859
2733.420, 23.58733
2735.349, 24.47837
2737.277, 25.98099
2739.206, 27.26006
2741.134, 27.89623
2743.063, 28.27007
2744.991, 28.03193
2746.919, 27.60417
2748.848, 26.89327
2750.776, 25.30646
2752.705, 25.04797
2754.633, 26.74711
2756.562, 29.04796
2758.490, 30.65139
2760.419, 28.03320
2762.347, 26.97918
2764.276, 27.27186
2766.204, 27.29576
2768.133, 27.44827
2770.061, 27.67301
2771.990, 27.89736
2773.918, 28.73427
2775.846, 29.27438
2777.775, 29.11807
2779.703, 28.64616
2781.632, 28.50641
2783.560, 28.70362
2785.489, 28.51667
2787.417, 28.67982
2789.346, 29.30653
2791.274, 29.59894
2793.203, 30.77532
2795.131, 30.62432
2797.060, 31.37876
2798.988, 31.54360
2800.917, 31.53402
2802.845, 31.54158
2804.773, 31.88004
2806.702, 32.70645
2808.630, 32.16466
2810.559, 32.53970
2812.487, 33.40904
2814.416, 32.02877
2816.344, 31.90975
2818.273, 30.66247
2820.201, 31.73154
2822.130, 32.34652
2824.058, 32.92504
2825.987, 35.11798
2827.915, 34.58727
2829.844, 36.04686
2831.772, 35.66718
2833.700, 35.45150
2835.629, 41.86271
2837.557, 44.16313
2839.486, 43.44580
2841.414, 41.43711
2843.343, 42.28585
2845.271, 43.23875
2847.200, 43.16642
2849.128, 41.98555
2851.057, 42.19376
2852.985, 42.89680
2854.914, 41.10268
2856.842, 41.74142
2858.771, 43.00446
2860.699, 43.05956
2862.627, 42.02674
2864.556, 42.13031
2866.484, 43.12882
2868.413, 39.39915
2870.341, 38.42896
2872.270, 38.83910
2874.198, 36.75695
2876.127, 41.72417
2878.055, 45.42366
2879.984, 42.93057
2881.912, 43.24046
2883.841, 43.42245
2885.769, 43.29393
2887.698, 45.05977
2889.626, 44.89273
2891.554, 44.98108
2893.483, 47.44143
2895.411, 46.38485
2897.340, 47.11411
2899.268, 50.13469
2901.197, 49.37468
2903.125, 48.27694
2905.054, 48.19537
2906.982, 50.42576
2908.911, 51.60372
2910.839, 52.18045
2912.768, 52.61261
2914.696, 53.78328
2916.625, 55.67712
2918.553, 57.84531
2920.481, 59.74934
2922.410, 60.16841
2924.338, 61.79230
2926.267, 66.10123
2928.195, 67.96080
2930.124, 67.70773
2932.052, 67.58049
2933.981, 71.73180
2935.909, 72.17013
2937.838, 72.82973
2939.766, 76.33450
2941.695, 77.97169
2943.623, 79.50678
2945.552, 81.22769
2947.480, 82.72554
2949.408, 84.28799
2951.337, 84.77298
2953.265, 83.69537
2955.194, 82.30378
2957.122, 80.86192
2959.051, 79.28562
2960.979, 77.39786
2962.908, 74.67869
2964.836, 71.72688
2966.765, 68.87502
2968.693, 65.90512
2970.622, 62.26911
2972.550, 59.51105
2974.479, 60.41206
2976.407, 60.78651
2978.335, 60.19563
2980.264, 58.56075
2982.192, 58.78445
2984.121, 58.36388
2986.049, 58.17143
2987.978, 58.48022
2989.906, 58.55212
2991.835, 58.54713
2993.763, 58.91912
2995.692, 60.94831
2997.620, 62.70706
2999.549, 63.23953
3001.477, 62.23505
3003.406, 63.22906
3005.334, 60.83826
3007.262, 62.94206
3009.191, 61.25397
3011.119, 60.02610
3013.048, 59.01001
3014.976, 58.69207
3016.905, 58.44324
3018.833, 59.09262
3020.762, 59.96491
3022.690, 60.96981
3024.619, 58.54307
3026.547, 57.26418
3028.476, 57.37627
3030.404, 56.41877
3032.333, 59.62914
3034.261, 61.79150
3036.189, 61.11415
3038.118, 63.62291
3040.046, 62.24779
3041.975, 59.73643
3043.903, 59.38483
3045.832, 59.70910
3047.760, 60.64032
3049.689, 61.16770
3051.617, 59.81896
3053.546, 57.37507
3055.474, 57.92171
3057.403, 57.27044
3059.331, 58.05605
3061.260, 58.29166
3063.188, 60.11696
3065.116, 61.58299
3067.045, 60.44753
3068.973, 61.10315
3070.902, 61.83331
3072.830, 59.98383
3074.759, 61.50538
3076.687, 62.47468
3078.616, 62.49492
3080.544, 62.85923
3082.473, 64.51016
3084.401, 65.21095
3086.330, 64.28306
3088.258, 61.98487
3090.187, 64.50290
3092.115, 64.74319
3094.043, 59.80542
3095.972, 61.91270
3097.900, 61.66805
3099.829, 60.96350
3101.757, 62.30003
3103.686, 61.13807
3105.614, 61.07528
3107.543, 61.60695
3109.471, 61.30531
3111.400, 60.68286
3113.328, 57.35075
3115.257, 54.05571
3117.185, 55.86987
3119.114, 55.34561
3121.042, 56.35126
3122.970, 56.34678
3124.899, 58.05943
3126.827, 55.57102
3128.756, 55.72376
3130.684, 54.35144
3132.613, 52.88676
3134.541, 52.81234
3136.470, 53.80777
3138.398, 53.84758
3140.327, 54.57637
3142.255, 52.84208
3144.184, 51.47837
3146.112, 52.11399
3148.041, 53.26912
3149.969, 53.09301
3151.897, 53.47410
3153.826, 55.05951
3155.754, 52.35218
3157.683, 53.96971
3159.611, 55.08691
3161.540, 52.67039
3163.468, 54.27250
3165.397, 53.04675
3167.325, 50.58380
3169.254, 49.10604
3171.182, 49.95318
3173.111, 49.61622
3175.039, 50.87052
3176.968, 54.28078
3178.896, 47.43645
3180.824, 45.71096
3182.753, 47.82213
3184.681, 50.54410
3186.610, 55.02449
3188.538, 53.65819
3190.467, 51.37324
3192.395, 52.19930
3194.324, 50.95082
3196.252, 48.54523
3198.181, 47.60206
3200.109, 49.18028
3202.038, 49.86988
3203.966, 47.91111
3205.895, 47.07462
3207.823, 48.86888
3209.751, 49.10192
3211.680, 48.99261
3213.608, 49.59284
3215.537, 50.28926
3217.465, 46.86670
3219.394, 50.11489
3221.322, 50.72715
3223.251, 48.05024
3225.179, 52.99113
3227.108, 54.02167
3229.036, 52.21029
3230.965, 50.30410
3232.893, 52.38034
3234.822, 51.09587
3236.750, 50.71095
3238.678, 52.04100
3240.607, 54.74575
3242.535, 52.02977
3244.464, 51.27119
3246.392, 53.38177
3248.321, 57.23076
3250.249, 55.17292
3252.178, 55.10765
3254.106, 53.61240
3256.035, 53.31786
3257.963, 53.16422
3259.892, 53.14245
3261.820, 53.38751
3263.749, 53.76807
3265.677, 54.46049
3267.605, 52.84814
3269.534, 53.14276
3271.462, 55.06848
3273.391, 54.82817
3275.319, 52.92805
3277.248, 51.78521
3279.176, 52.15055
3281.105, 53.91392
3283.033, 56.48272
3284.962, 55.89484
3286.890, 53.87675
3288.819, 52.68793
3290.747, 53.96624
3292.676, 54.21503
3294.604, 54.84575
3296.532, 55.93029
3298.461, 55.35270
3300.389, 56.88405
3302.318, 56.96273
3304.246, 56.75264
3306.175, 58.91389
3308.103, 59.16271
3310.032, 59.65207
3311.960, 60.31793
3313.889, 60.87449
3315.817, 61.74492
3317.746, 62.66628
3319.674, 62.20620
3321.603, 62.87497
3323.531, 61.23510
3325.459, 62.47487
3327.388, 62.15337
3329.316, 60.44673
3331.245, 59.06001
3333.173, 64.16753
3335.102, 62.36706
3337.030, 62.83568
3338.959, 67.52842
3340.887, 68.09139
3342.816, 65.34371
3344.744, 67.70490
3346.673, 69.80315
3348.601, 65.26324
3350.530, 64.89199
3352.458, 65.26881
3354.386, 66.95911
3356.315, 68.63606
3358.243, 66.43910
3360.172, 66.30589
3362.100, 67.02138
3364.029, 66.90504
3365.957, 65.55157
3367.886, 67.22903
3369.814, 63.52004
3371.743, 61.85073
3373.671, 62.71055
3375.600, 60.49797
3377.528, 64.38923
3379.457, 63.31256
3381.385, 61.24441
3383.313, 61.67834
3385.242, 57.26791
3387.170, 58.73322
3389.099, 63.25484
3391.027, 65.24149
3392.956, 60.46288
3394.884, 61.00648
3396.813, 59.18278
3398.741, 57.25344
3400.670, 57.06919
3402.598, 58.19257
3404.527, 55.72024
3406.455, 56.68792
3408.384, 56.98180
3410.312, 54.42472
3412.240, 56.55361
3414.169, 58.98520
3416.097, 57.43086
3418.026, 56.26168
3419.954, 60.09583
3421.883, 62.05513
3423.811, 63.11847
3425.740, 64.08035
3427.668, 64.88519
3429.597, 65.22077
3431.525, 70.41994
3433.454, 71.61316
3435.382, 72.86974
3437.311, 74.90454
3439.239, 75.45934
3441.167, 75.50333
3443.096, 77.26771
3445.024, 79.01515
3446.953, 80.55408
3448.881, 77.64941
3450.810, 77.00392
3452.738, 75.16207
3454.667, 73.69849
3456.595, 73.42168
3458.524, 71.29506
##END=



