##NAMES=Thenardite
##RRUFFID=R040178
##IDEAL CHEMISTRY=Na_2_(SO_4_)
##LOCALITY=Bonita Flow, Flagstaff, Coconino County, Arizona, USA
##OWNER=RRUFF
##SOURCE=University of Arizona Mineral Museum
##DESCRIPTION=Tan colored powder
##STATUS=The identification of this mineral has been confirmed by X-ray diffraction
##URL=https://www.rruff.net/odr/rruff_sample/R040178
##DIFFRACTION SAMPLE DESCRIPTION=Powder
##CELL PARAMETERS=a: 9.821 b: 12.3066 c: 5.8605 alpha: 90 beta: 90 gamma: 90 volume: 708.33 crystal system: orthorhombic
##FILETYPE=Raman RAW
##RAMAN WAVELENGTH=532

218.2769, 7176.147
220.2053, 7202.512
222.1338, 7228.979
224.0623, 7256.074
225.9907, 7284.360
227.9192, 7313.044
229.8477, 7340.937
231.7761, 7366.719
233.7046, 7394.316
235.6331, 7425.379
237.5615, 7461.146
239.4900, 7495.476
241.4185, 7533.688
243.3469, 7568.061
245.2754, 7589.957
247.2039, 7588.637
249.1323, 7589.886
251.0608, 7603.313
252.9893, 7635.139
254.9177, 7662.911
256.8462, 7679.519
258.7747, 7694.248
260.7031, 7718.802
262.6316, 7767.509
264.5601, 7812.556
266.4885, 7841.212
268.4170, 7847.086
270.3455, 7863.381
272.2739, 7907.740
274.2024, 7962.643
276.1309, 7999.241
278.0593, 7996.699
279.9878, 7992.807
281.9163, 8000.177
283.8447, 8019.795
285.7732, 8039.370
287.7017, 8051.700
289.6301, 8062.975
291.5586, 8085.937
293.4871, 8135.370
295.4155, 8183.231
297.3440, 8219.191
299.2725, 8244.273
301.2009, 8262.569
303.1294, 8270.337
305.0579, 8272.405
306.9863, 8277.549
308.9148, 8280.324
310.8433, 8290.535
312.7717, 8317.426
314.7002, 8361.856
316.6287, 8397.158
318.5571, 8414.051
320.4856, 8420.280
322.4141, 8428.257
324.3425, 8431.931
326.2710, 8443.565
328.1995, 8473.350
330.1279, 8523.597
332.0564, 8560.531
333.9849, 8570.940
335.9133, 8569.720
337.8418, 8578.495
339.7703, 8600.564
341.6987, 8625.604
343.6272, 8651.576
345.5557, 8679.271
347.4841, 8701.776
349.4126, 8718.224
351.3411, 8730.262
353.2695, 8737.947
355.1980, 8736.550
357.1265, 8741.445
359.0549, 8759.381
360.9834, 8791.441
362.9119, 8820.502
364.8403, 8850.142
366.7688, 8875.041
368.6973, 8888.135
370.6257, 8883.852
372.5542, 8886.432
374.4827, 8903.554
376.4111, 8933.841
378.3396, 8966.300
380.2681, 9005.755
382.1965, 9043.479
384.1250, 9072.154
386.0535, 9089.002
387.9819, 9112.148
389.9104, 9151.539
391.8389, 9200.420
393.7673, 9238.697
395.6958, 9257.574
397.6243, 9275.701
399.5527, 9302.358
401.4812, 9338.379
403.4097, 9367.673
405.3381, 9379.039
407.2666, 9385.159
409.1951, 9405.360
411.1235, 9447.227
413.0520, 9489.901
414.9805, 9524.968
416.9089, 9553.632
418.8374, 9588.815
420.7659, 9640.241
422.6943, 9693.342
424.6228, 9733.886
426.5513, 9753.621
428.4797, 9783.266
430.4082, 9838.816
432.3367, 9911.259
434.2651, 9974.952
436.1936, 10025.69
438.1221, 10070.41
440.0505, 10105.23
441.9790, 10126.31
443.9075, 10165.93
445.8359, 10251.48
447.7644, 10352.07
449.6929, 10429.56
451.6213, 10465.62
453.5498, 10494.89
455.4783, 10524.03
457.4067, 10551.73
459.3352, 10568.86
461.2637, 10567.77
463.1921, 10560.61
465.1206, 10555.79
467.0491, 10559.43
468.9775, 10555.55
470.9060, 10541.85
472.8345, 10519.63
474.7629, 10493.76
476.6914, 10463.51
478.6199, 10430.32
480.5483, 10393.18
482.4768, 10349.10
484.4053, 10313.33
486.3337, 10287.86
488.2622, 10269.01
490.1907, 10253.07
492.1191, 10239.58
494.0476, 10230.00
495.9761, 10224.60
497.9045, 10223.07
499.8330, 10225.12
501.7615, 10227.35
503.6899, 10235.44
505.6184, 10259.31
507.5469, 10298.37
509.4753, 10322.40
511.4038, 10308.62
513.3323, 10285.17
515.2607, 10277.51
517.1892, 10297.56
519.1177, 10319.21
521.0461, 10339.98
522.9746, 10360.59
524.9031, 10382.61
526.8315, 10404.62
528.7600, 10430.15
530.6885, 10463.33
532.6169, 10510.29
534.5454, 10543.68
536.4739, 10555.51
538.4023, 10557.84
540.3308, 10560.40
542.2593, 10560.17
544.1877, 10568.50
546.1162, 10591.89
548.0447, 10626.19
549.9731, 10654.72
551.9016, 10673.41
553.8301, 10691.05
555.7585, 10713.52
557.6870, 10740.16
559.6155, 10758.14
561.5439, 10752.51
563.4724, 10745.70
565.4009, 10753.03
567.3293, 10776.83
569.2578, 10811.41
571.1863, 10867.01
573.1147, 10931.07
575.0432, 10983.65
576.9717, 11016.08
578.9001, 11048.41
580.8286, 11089.95
582.7571, 11140.38
584.6855, 11178.83
586.6140, 11190.66
588.5425, 11203.22
590.4709, 11233.50
592.3994, 11283.31
594.3279, 11328.22
596.2563, 11358.11
598.1848, 11384.09
600.1133, 11418.41
602.0417, 11465.88
603.9702, 11513.63
605.8987, 11559.74
607.8271, 11604.91
609.7556, 11648.54
611.6841, 11675.42
613.6125, 11721.87
615.5410, 11808.65
617.4695, 11940.31
619.3979, 12051.97
621.3264, 12137.96
623.2549, 12209.01
625.1833, 12271.88
627.1118, 12327.95
629.0403, 12369.73
630.9688, 12385.92
632.8972, 12392.37
634.8257, 12406.84
636.7542, 12450.37
638.6826, 12469.20
640.6111, 12441.34
642.5396, 12385.49
644.4680, 12335.78
646.3965, 12293.74
648.3250, 12258.40
650.2534, 12229.59
652.1819, 12207.36
654.1104, 12189.21
656.0388, 12184.59
657.9673, 12175.54
659.8958, 12149.74
661.8242, 12108.28
663.7527, 12069.76
665.6812, 12042.71
667.6096, 12016.60
669.5381, 11983.25
671.4666, 11924.34
673.3950, 11887.90
675.3235, 11880.95
677.2520, 11895.37
679.1804, 11920.10
681.1089, 11959.51
683.0374, 11998.27
684.9658, 12032.10
686.8943, 12062.16
688.8228, 12091.54
690.7512, 12125.58
692.6797, 12153.41
694.6082, 12167.91
696.5366, 12172.49
698.4651, 12181.31
700.3936, 12198.71
702.3220, 12216.77
704.2505, 12233.92
706.1790, 12251.94
708.1074, 12259.13
710.0359, 12226.29
711.9644, 12205.06
713.8928, 12249.20
715.8213, 12362.62
717.7498, 12440.84
719.6782, 12431.68
721.6067, 12397.10
723.5352, 12387.46
725.4636, 12417.52
727.3921, 12448.43
729.3206, 12475.39
731.2490, 12502.56
733.1775, 12538.70
735.1060, 12591.25
737.0344, 12631.76
738.9629, 12639.60
740.8914, 12630.65
742.8198, 12636.32
744.7483, 12672.42
746.6768, 12705.28
748.6052, 12724.58
750.5337, 12734.77
752.4622, 12755.86
754.3906, 12798.25
756.3191, 12836.05
758.2476, 12856.71
760.1760, 12863.09
762.1045, 12869.34
764.0330, 12869.63
765.9614, 12876.44
767.8899, 12897.43
769.8184, 12934.05
771.7468, 12964.42
773.6753, 12979.76
775.6038, 12996.89
777.5322, 13025.75
779.4607, 13066.00
781.3892, 13106.02
783.3176, 13152.21
785.2461, 13191.35
787.1746, 13213.10
789.1030, 13207.94
791.0315, 13213.54
792.9600, 13239.71
794.8884, 13269.91
796.8169, 13289.46
798.7454, 13296.66
800.6738, 13311.35
802.6023, 13340.31
804.5308, 13376.93
806.4592, 13417.07
808.3877, 13464.78
810.3162, 13509.28
812.2446, 13558.32
814.1731, 13599.91
816.1016, 13615.71
818.0300, 13598.78
819.9585, 13594.58
821.8870, 13628.78
823.8154, 13675.21
825.7439, 13707.28
827.6724, 13712.12
829.6008, 13723.95
831.5293, 13749.18
833.4578, 13781.12
835.3862, 13809.65
837.3147, 13832.19
839.2432, 13860.14
841.1716, 13908.41
843.1001, 13959.00
845.0286, 13986.32
846.9570, 13973.11
848.8855, 13971.54
850.8140, 13997.17
852.7424, 14036.42
854.6709, 14067.46
856.5994, 14089.08
858.5278, 14106.49
860.4563, 14115.30
862.3848, 14122.54
864.3132, 14137.00
866.2417, 14160.48
868.1702, 14187.36
870.0986, 14214.79
872.0271, 14245.06
873.9556, 14282.04
875.8840, 14339.23
877.8125, 14384.54
879.7410, 14407.09
881.6694, 14419.46
883.5979, 14441.87
885.5264, 14480.05
887.4548, 14507.60
889.3833, 14501.34
891.3118, 14486.88
893.2402, 14496.32
895.1687, 14548.55
897.0972, 14594.69
899.0256, 14634.17
900.9541, 14664.58
902.8826, 14675.22
904.8110, 14655.02
906.7395, 14660.64
908.6680, 14733.74
910.5964, 14822.25
912.5249, 14872.86
914.4534, 14871.99
916.3818, 14877.37
918.3103, 14902.15
920.2388, 14933.59
922.1672, 14957.13
924.0957, 14960.21
926.0242, 14988.99
927.9526, 15076.28
929.8811, 15168.83
931.8096, 15218.15
933.7380, 15221.94
935.6665, 15238.60
937.5950, 15269.75
939.5234, 15326.58
941.4519, 15418.29
943.3804, 15551.26
945.3088, 15699.22
947.2373, 15890.93
949.1658, 16070.75
951.0942, 16196.13
953.0227, 16269.62
954.9512, 16360.25
956.8796, 16481.42
958.8081, 16610.52
960.7366, 16732.53
962.6650, 16849.49
964.5935, 16983.44
966.5220, 17134.65
968.4504, 17306.03
970.3789, 17505.70
972.3074, 17730.51
974.2358, 17949.94
976.1643, 18142.01
978.0928, 18358.35
980.0212, 18607.88
981.9497, 18894.23
983.8782, 19205.62
985.8066, 19496.29
987.7351, 19925.05
989.6636, 20636.64
991.5920, 21478.51
993.5205, 22216.97
995.4490, 22959.73
997.3774, 23411.92
999.3059, 23531.10
1001.234, 23370.82
1003.163, 22950.38
1005.091, 22263.35
1007.020, 21441.54
1008.948, 20314.20
1010.877, 19212.65
1012.805, 18341.31
1014.734, 17700.83
1016.662, 17230.41
1018.591, 17019.94
1020.519, 16895.45
1022.448, 16794.89
1024.376, 16718.30
1026.304, 16672.41
1028.233, 16680.08
1030.161, 16690.02
1032.090, 16674.87
1034.018, 16648.19
1035.947, 16651.33
1037.875, 16697.05
1039.804, 16747.68
1041.732, 16794.10
1043.661, 16835.73
1045.589, 16870.06
1047.518, 16890.48
1049.446, 16917.05
1051.375, 16953.96
1053.303, 16996.79
1055.231, 17043.07
1057.160, 17096.73
1059.088, 17139.50
1061.017, 17166.91
1062.945, 17185.85
1064.874, 17189.77
1066.802, 17182.84
1068.731, 17206.53
1070.659, 17283.25
1072.588, 17368.13
1074.516, 17451.96
1076.445, 17530.94
1078.373, 17583.07
1080.302, 17560.87
1082.230, 17569.46
1084.158, 17649.16
1086.087, 17763.02
1088.015, 17838.14
1089.944, 17857.05
1091.872, 17899.24
1093.801, 17990.71
1095.729, 18103.01
1097.658, 18216.80
1099.586, 18332.00
1101.515, 18439.90
1103.443, 18553.04
1105.372, 18640.76
1107.300, 18679.60
1109.229, 18672.26
1111.157, 18677.33
1113.085, 18710.00
1115.014, 18736.59
1116.942, 18753.89
1118.871, 18759.49
1120.799, 18739.79
1122.728, 18674.51
1124.656, 18649.60
1126.585, 18703.88
1128.513, 18792.66
1130.442, 18881.99
1132.370, 18972.05
1134.299, 19059.79
1136.227, 19158.37
1138.156, 19237.82
1140.084, 19285.09
1142.012, 19301.37
1143.941, 19299.05
1145.869, 19231.71
1147.798, 19204.25
1149.726, 19261.53
1151.655, 19359.72
1153.583, 19429.23
1155.512, 19469.27
1157.440, 19492.68
1159.369, 19499.19
1161.297, 19490.88
1163.226, 19469.18
1165.154, 19434.54
1167.083, 19386.52
1169.011, 19315.07
1170.939, 19245.18
1172.868, 19179.07
1174.796, 19121.72
1176.725, 19086.10
1178.653, 19081.51
1180.582, 19085.79
1182.510, 19097.42
1184.439, 19116.76
1186.367, 19146.03
1188.296, 19186.94
1190.224, 19226.06
1192.153, 19255.42
1194.081, 19291.23
1196.010, 19353.82
1197.938, 19427.14
1199.866, 19467.65
1201.795, 19458.07
1203.723, 19459.63
1205.652, 19500.92
1207.580, 19555.55
1209.509, 19601.82
1211.437, 19639.27
1213.366, 19669.42
1215.294, 19673.99
1217.223, 19691.04
1219.151, 19749.69
1221.080, 19837.79
1223.008, 19892.92
1224.937, 19887.89
1226.865, 19898.10
1228.793, 19947.99
1230.722, 20010.67
1232.650, 20055.41
1234.579, 20082.60
1236.507, 20119.89
1238.436, 20177.78
1240.364, 20237.07
1242.293, 20295.03
1244.221, 20346.89
1246.150, 20374.87
1248.078, 20364.12
1250.007, 20364.95
1251.935, 20390.60
1253.864, 20428.98
1255.792, 20473.54
1257.720, 20527.02
1259.649, 20570.16
1261.577, 20588.69
1263.506, 20614.68
1265.434, 20668.23
1267.363, 20734.46
1269.291, 20775.71
1271.220, 20780.17
1273.148, 20804.64
1275.077, 20879.62
1277.005, 20959.18
1278.934, 21014.38
1280.862, 21048.68
1282.791, 21072.19
1284.719, 21074.07
1286.647, 21090.44
1288.576, 21147.58
1290.504, 21218.31
1292.433, 21272.69
1294.361, 21309.22
1296.290, 21337.34
1298.218, 21345.01
1300.147, 21358.34
1302.075, 21391.36
1304.004, 21437.99
1305.932, 21478.45
1307.861, 21502.15
1309.789, 21535.52
1311.718, 21578.99
1313.646, 21632.73
1315.574, 21710.07
1317.503, 21806.34
1319.431, 21860.44
1321.360, 21849.34
1323.288, 21836.73
1325.217, 21835.18
1327.145, 21848.18
1329.074, 21879.29
1331.002, 21928.72
1332.931, 21988.31
1334.859, 22071.33
1336.788, 22142.51
1338.716, 22182.09
1340.645, 22200.35
1342.573, 22216.33
1344.501, 22221.41
1346.430, 22250.88
1348.358, 22339.00
1350.287, 22422.78
1352.215, 22459.71
1354.144, 22458.63
1356.072, 22480.21
1358.001, 22543.62
1359.929, 22603.27
1361.858, 22654.79
1363.786, 22702.17
1365.715, 22748.41
1367.643, 22793.44
1369.572, 22836.87
1371.500, 22878.52
1373.428, 22918.87
1375.357, 22959.25
1377.285, 22997.41
1379.214, 23027.95
1381.142, 23051.35
1383.071, 23084.65
1384.999, 23137.47
1386.928, 23187.35
1388.856, 23225.02
1390.785, 23253.64
1392.713, 23273.78
1394.642, 23283.68
1396.570, 23302.15
1398.499, 23331.51
1400.427, 23370.96
1402.355, 23423.70
1404.284, 23485.02
1406.212, 23547.09
1408.141, 23617.34
1410.069, 23666.19
1411.998, 23658.15
1413.926, 23665.09
1415.855, 23735.45
1417.783, 23845.71
1419.712, 23924.95
1421.640, 23954.98
1423.569, 23982.18
1425.497, 23998.79
1427.426, 24020.35
1429.354, 24063.96
1431.282, 24120.46
1433.211, 24150.18
1435.139, 24133.11
1437.068, 24148.35
1438.996, 24260.99
1440.925, 24358.61
1442.853, 24334.47
1444.782, 24240.11
1446.710, 24243.90
1448.639, 24380.33
1450.567, 24489.20
1452.496, 24506.98
1454.424, 24512.98
1456.353, 24567.51
1458.281, 24650.17
1460.209, 24698.64
1462.138, 24698.30
1464.066, 24713.34
1465.995, 24769.13
1467.923, 24834.47
1469.852, 24893.86
1471.780, 24947.74
1473.709, 24998.54
1475.637, 25050.61
1477.566, 25086.07
1479.494, 25068.89
1481.423, 25067.56
1483.351, 25132.04
1485.280, 25241.73
1487.208, 25320.18
1489.136, 25354.76
1491.065, 25387.37
1492.993, 25425.95
1494.922, 25458.61
1496.850, 25466.43
1498.779, 25465.29
1500.707, 25500.94
1502.636, 25607.08
1504.564, 25682.67
1506.493, 25712.18
1508.421, 25729.90
1510.350, 25737.29
1512.278, 25746.62
1514.207, 25787.21
1516.135, 25875.22
1518.063, 25938.75
1519.992, 25950.97
1521.920, 25969.84
1523.849, 26014.88
1525.777, 26078.79
1527.706, 26156.22
1529.634, 26248.96
1531.563, 26329.30
1533.491, 26400.06
1535.420, 26451.68
1537.348, 26468.02
1539.277, 26472.56
1541.205, 26491.16
1543.134, 26521.43
1545.062, 26542.14
1546.990, 26540.10
1548.919, 26558.95
1550.847, 26634.36
1552.776, 26715.81
1554.704, 26756.04
1556.633, 26771.05
1558.561, 26816.77
1560.490, 26906.81
1562.418, 26976.55
1564.347, 27003.51
1566.275, 27015.25
1568.204, 27003.70
1570.132, 26996.00
1572.061, 27064.67
1573.989, 27223.48
1575.917, 27311.02
1577.846, 27248.01
1579.774, 27199.88
1581.703, 27262.51
1583.631, 27366.60
1585.560, 27438.01
1587.488, 27477.39
1589.417, 27498.92
1591.345, 27490.16
1593.274, 27495.20
1595.202, 27526.81
1597.131, 27578.66
1599.059, 27659.29
1600.988, 27758.96
1602.916, 27829.89
1604.844, 27865.90
1606.773, 27892.73
1608.701, 27905.69
1610.630, 27922.07
1612.558, 27946.71
1614.487, 27980.94
1616.415, 28027.76
1618.344, 28087.70
1620.272, 28156.32
1622.201, 28247.43
1624.129, 28322.51
1626.058, 28356.66
1627.986, 28382.87
1629.915, 28431.23
1631.843, 28499.02
1633.771, 28557.33
1635.700, 28602.00
1637.628, 28648.05
1639.557, 28715.43
1641.485, 28764.56
1643.414, 28754.73
1645.342, 28724.84
1647.271, 28752.15
1649.199, 28848.22
1651.128, 28914.42
1653.056, 28918.72
1654.985, 28939.04
1656.913, 29019.17
1658.842, 29098.34
1660.770, 29116.24
1662.698, 29088.77
1664.627, 29103.44
1666.555, 29174.20
1668.484, 29244.24
1670.412, 29324.38
1672.341, 29381.36
1674.269, 29380.98
1676.198, 29365.16
1678.126, 29390.39
1680.055, 29458.52
1681.983, 29513.79
1683.912, 29543.34
1685.840, 29586.45
1687.769, 29670.33
1689.697, 29747.71
1691.625, 29790.00
1693.554, 29809.72
1695.482, 29826.85
1697.411, 29836.96
1699.339, 29881.72
1701.268, 30006.02
1703.196, 30088.89
1705.125, 30044.46
1707.053, 30002.07
1708.982, 30076.61
1710.910, 30228.49
1712.839, 30309.90
1714.767, 30305.52
1716.696, 30308.29
1718.624, 30317.55
1720.552, 30352.80
1722.481, 30434.53
1724.409, 30531.97
1726.338, 30636.70
1728.266, 30737.82
1730.195, 30765.07
1732.123, 30693.67
1734.052, 30665.97
1735.980, 30732.58
1737.909, 30801.37
1739.837, 30821.46
1741.766, 30836.30
1743.694, 30893.36
1745.623, 30984.38
1747.551, 31069.27
1749.479, 31149.89
1751.408, 31205.84
1753.336, 31217.87
1755.265, 31229.39
1757.193, 31259.98
1759.122, 31300.60
1761.050, 31345.63
1762.979, 31393.22
1764.907, 31429.91
1766.836, 31448.85
1768.764, 31495.27
1770.693, 31611.51
1772.621, 31702.27
1774.550, 31688.71
1776.478, 31652.66
1778.406, 31688.65
1780.335, 31774.98
1782.263, 31814.38
1784.192, 31785.05
1786.120, 31820.93
1788.049, 32003.65
1789.977, 32161.89
1791.906, 32211.33
1793.834, 32214.29
1795.763, 32216.88
1797.691, 32222.98
1799.620, 32251.44
1801.548, 32309.53
1803.477, 32349.53
1805.405, 32342.25
1807.333, 32351.38
1809.262, 32405.51
1811.190, 32474.04
1813.119, 32534.33
1815.047, 32589.00
1816.976, 32649.61
1818.904, 32724.72
1820.833, 32766.39
1822.761, 32721.73
1824.690, 32722.06
1826.618, 32839.16
1828.547, 32953.45
1830.475, 32972.79
1832.404, 32947.09
1834.332, 32971.43
1836.260, 33050.84
1838.189, 33111.94
1840.117, 33138.04
1842.046, 33176.62
1843.974, 33232.18
1845.903, 33299.98
1847.831, 33403.73
1849.760, 33499.67
1851.688, 33527.62
1853.617, 33498.46
1855.545, 33494.32
1857.474, 33519.91
1859.402, 33546.56
1861.331, 33570.73
1863.259, 33596.20
1865.188, 33617.03
1867.116, 33647.18
1869.044, 33689.30
1870.973, 33749.66
1872.901, 33863.00
1874.830, 34022.00
1876.758, 34097.13
1878.687, 34052.13
1880.615, 34020.82
1882.544, 34043.63
1884.472, 34075.11
1886.401, 34069.49
1888.329, 34079.65
1890.258, 34202.89
1892.186, 34391.17
1894.115, 34436.28
1896.043, 34300.97
1897.971, 34268.61
1899.900, 34446.36
1901.828, 34589.23
1903.757, 34626.91
1905.685, 34639.43
1907.614, 34665.88
1909.542, 34700.54
1911.471, 34736.01
1913.399, 34772.20
1915.328, 34808.75
1917.256, 34845.27
1919.185, 34883.20
1921.113, 34903.84
1923.042, 34953.02
1924.970, 35083.42
1926.898, 35200.40
1928.827, 35222.04
1930.755, 35199.00
1932.684, 35230.46
1934.612, 35308.30
1936.541, 35327.41
1938.469, 35263.53
1940.398, 35255.47
1942.326, 35359.13
1944.255, 35455.66
1946.183, 35495.34
1948.112, 35514.94
1950.040, 35533.27
1951.969, 35553.03
1953.897, 35577.52
1955.825, 35607.09
1957.754, 35646.50
1959.682, 35699.84
1961.611, 35748.50
1963.539, 35780.51
1965.468, 35821.59
1967.396, 35894.41
1969.325, 35961.42
1971.253, 35983.14
1973.182, 35990.04
1975.110, 36041.02
1977.039, 36131.42
1978.967, 36179.59
1980.896, 36161.92
1982.824, 36184.39
1984.752, 36276.16
1986.681, 36366.87
1988.609, 36462.50
1990.538, 36523.58
1992.466, 36489.45
1994.395, 36440.43
1996.323, 36477.64
1998.252, 36577.25
2000.180, 36669.25
2002.109, 36751.71
2004.037, 36818.12
2005.966, 36869.35
2007.894, 36899.54
2009.823, 36902.14
2011.751, 36890.32
2013.679, 36835.12
2015.608, 36800.26
2017.536, 36867.32
2019.465, 36988.25
2021.393, 37043.26
2023.322, 37029.74
2025.250, 37094.59
2027.179, 37292.26
2029.107, 37424.44
2031.036, 37445.62
2032.964, 37458.16
2034.893, 37485.15
2036.821, 37511.78
2038.750, 37515.43
2040.678, 37526.70
2042.606, 37590.85
2044.535, 37687.85
2046.463, 37767.09
2048.392, 37827.46
2050.320, 37861.59
2052.249, 37863.36
2054.177, 37859.62
2056.106, 37842.93
2058.034, 37839.61
2059.963, 37857.16
2061.891, 37891.21
2063.820, 37948.53
2065.748, 38013.95
2067.677, 38065.53
2069.605, 38106.86
2071.533, 38157.26
2073.462, 38220.12
2075.390, 38264.63
2077.319, 38280.77
2079.247, 38309.51
2081.176, 38363.61
2083.104, 38419.54
2085.033, 38476.00
2086.961, 38522.25
2088.890, 38542.45
2090.818, 38554.80
2092.747, 38580.77
2094.675, 38617.37
2096.604, 38658.95
2098.532, 38707.45
2100.460, 38735.19
2102.389, 38712.09
2104.317, 38727.60
2106.246, 38817.34
2108.174, 38895.63
2110.103, 38929.98
2112.031, 38966.57
2113.960, 39046.94
2115.888, 39123.91
2117.817, 39140.87
2119.745, 39124.38
2121.674, 39125.77
2123.602, 39145.18
2125.531, 39188.63
2127.459, 39260.66
2129.387, 39305.55
2131.316, 39298.14
2133.244, 39309.30
2135.173, 39365.71
2137.101, 39426.17
2139.030, 39503.34
2140.958, 39549.12
2142.887, 39481.07
2144.815, 39398.13
2146.744, 39460.68
2148.672, 39614.94
2150.601, 39656.39
2152.529, 39593.79
2154.458, 39609.71
2156.386, 39724.98
2158.314, 39816.46
2160.243, 39862.11
2162.171, 39895.08
2164.100, 39901.15
2166.028, 39929.70
2167.957, 40025.28
2169.885, 40123.11
2171.814, 40177.34
2173.742, 40204.09
2175.671, 40220.54
2177.599, 40227.80
2179.528, 40224.25
2181.456, 40210.19
2183.385, 40218.29
2185.313, 40250.08
2187.241, 40298.69
2189.170, 40370.34
2191.098, 40434.15
2193.027, 40482.26
2194.955, 40522.09
2196.884, 40556.85
2198.812, 40583.89
2200.741, 40597.15
2202.669, 40605.84
2204.598, 40607.94
2206.526, 40618.13
2208.455, 40683.00
2210.383, 40790.34
2212.312, 40828.32
2214.240, 40792.97
2216.168, 40811.80
2218.097, 40902.44
2220.025, 40988.98
2221.954, 41064.06
2223.882, 41120.39
2225.811, 41152.64
2227.739, 41170.05
2229.668, 41160.43
2231.596, 41155.53
2233.525, 41184.08
2235.453, 41223.13
2237.382, 41243.91
2239.310, 41256.39
2241.239, 41279.88
2243.167, 41314.93
2245.095, 41372.79
2247.024, 41452.28
2248.952, 41502.70
2250.881, 41516.27
2252.809, 41525.69
2254.738, 41539.15
2256.666, 41541.30
2258.595, 41497.07
2260.523, 41487.57
2262.452, 41550.88
2264.380, 41641.40
2266.309, 41778.12
2268.237, 41885.93
2270.166, 41862.54
2272.094, 41790.47
2274.022, 41797.63
2275.951, 41853.89
2277.879, 41873.34
2279.808, 41863.22
2281.736, 41907.51
2283.665, 42026.50
2285.593, 42090.16
2287.522, 42040.25
2289.450, 42040.48
2291.379, 42143.42
2293.307, 42200.41
2295.236, 42153.11
2297.164, 42116.36
2299.093, 42124.01
2301.021, 42161.90
2302.949, 42239.70
2304.878, 42325.64
2306.806, 42417.38
2308.735, 42482.72
2310.663, 42442.27
2312.592, 42353.99
2314.520, 42374.93
2316.449, 42489.45
2318.377, 42578.20
2320.306, 42641.65
2322.234, 42643.25
2324.163, 42572.02
2326.091, 42548.35
2328.020, 42600.33
2329.948, 42642.92
2331.876, 42642.80
2333.805, 42661.57
2335.733, 42726.87
2337.662, 42794.95
2339.590, 42869.76
2341.519, 42918.06
2343.447, 42888.97
2345.376, 42860.13
2347.304, 42911.53
2349.233, 42984.77
2351.161, 43000.82
2353.090, 42995.22
2355.018, 43058.51
2356.947, 43157.29
2358.875, 43131.64
2360.803, 42985.33
2362.732, 42968.43
2364.660, 43108.68
2366.589, 43198.67
2368.517, 43226.74
2370.446, 43244.29
2372.374, 43255.18
2374.303, 43262.91
2376.231, 43258.45
2378.160, 43272.39
2380.088, 43318.54
2382.017, 43377.49
2383.945, 43468.94
2385.874, 43536.45
2387.802, 43521.91
2389.730, 43504.26
2391.659, 43554.77
2393.587, 43618.69
2395.516, 43646.64
2397.444, 43650.40
2399.373, 43630.00
2401.301, 43605.25
2403.230, 43627.42
2405.158, 43688.85
2407.087, 43756.69
2409.015, 43831.17
2410.944, 43860.28
2412.872, 43842.79
2414.801, 43814.71
2416.729, 43771.97
2418.657, 43797.28
2420.586, 43938.80
2422.514, 44015.32
2424.443, 43918.29
2426.371, 43889.43
2428.300, 44032.16
2430.228, 44133.36
2432.157, 44123.89
2434.085, 44106.23
2436.014, 44129.34
2437.942, 44136.75
2439.871, 44057.74
2441.799, 43998.70
2443.728, 44061.33
2445.656, 44153.27
2447.584, 44176.79
2449.513, 44183.87
2451.441, 44259.58
2453.370, 44355.52
2455.298, 44371.15
2457.227, 44343.78
2459.155, 44373.05
2461.084, 44437.33
2463.012, 44429.44
2464.941, 44358.92
2466.869, 44385.93
2468.798, 44530.89
2470.726, 44525.71
2472.655, 44341.71
2474.583, 44347.40
2476.511, 44596.62
2478.440, 44740.53
2480.368, 44705.25
2482.297, 44678.58
2484.225, 44691.45
2486.154, 44715.25
2488.082, 44750.05
2490.011, 44792.54
2491.939, 44873.87
2493.868, 44897.51
2495.796, 44778.29
2497.725, 44700.31
2499.653, 44803.34
2501.582, 44891.51
2503.510, 44822.45
2505.438, 44758.69
2507.367, 44839.22
2509.295, 44928.92
2511.224, 44892.65
2513.152, 44845.09
2515.081, 44909.28
2517.009, 45002.85
2518.938, 45026.55
2520.866, 45024.23
2522.795, 45062.64
2524.723, 45124.11
2526.652, 45185.70
2528.580, 45236.11
2530.509, 45230.02
2532.437, 45187.28
2534.365, 45161.46
2536.294, 45158.45
2538.222, 45215.41
2540.151, 45326.18
2542.079, 45389.14
2544.008, 45401.57
2545.936, 45409.13
2547.865, 45412.19
2549.793, 45386.95
2551.722, 45329.25
2553.650, 45325.72
2555.579, 45402.45
2557.507, 45436.46
2559.436, 45368.80
2561.364, 45365.92
2563.292, 45458.48
2565.221, 45517.09
2567.149, 45512.22
2569.078, 45537.37
2571.006, 45627.39
2572.935, 45701.93
2574.863, 45739.35
2576.792, 45763.00
2578.720, 45782.67
2580.649, 45777.77
2582.577, 45716.07
2584.506, 45688.05
2586.434, 45747.56
2588.363, 45798.27
2590.291, 45779.13
2592.219, 45772.30
2594.148, 45837.40
2596.076, 45889.23
2598.005, 45868.94
2599.933, 45847.81
2601.862, 45851.00
2603.790, 45878.11
2605.719, 45956.27
2607.647, 46023.45
2609.576, 46010.95
2611.504, 46000.62
2613.433, 46070.75
2615.361, 46155.91
2617.290, 46227.86
2619.218, 46258.75
2621.146, 46202.28
2623.075, 46115.59
2625.003, 46025.91
2626.932, 45968.96
2628.860, 46005.80
2630.789, 46081.81
2632.717, 46130.06
2634.646, 46172.74
2636.574, 46256.94
2638.503, 46338.31
2640.431, 46329.98
2642.360, 46294.37
2644.288, 46352.19
2646.217, 46445.52
2648.145, 46468.55
2650.073, 46447.34
2652.002, 46412.75
2653.930, 46382.46
2655.859, 46394.23
2657.787, 46433.82
2659.716, 46476.14
2661.644, 46516.29
2663.573, 46537.51
2665.501, 46548.07
2667.430, 46577.98
2669.358, 46611.56
2671.287, 46589.85
2673.215, 46543.25
2675.144, 46576.36
2677.072, 46665.33
2679.000, 46733.25
2680.929, 46779.83
2682.857, 46786.03
2684.786, 46774.24
2686.714, 46835.42
2688.643, 46941.02
2690.571, 46968.14
2692.500, 46937.00
2694.428, 46940.18
2696.357, 46968.95
2698.285, 47001.57
2700.214, 47029.27
2702.142, 47006.91
2704.071, 46953.31
2705.999, 46965.05
2707.927, 47024.00
2709.856, 47038.23
2711.784, 47016.63
2713.713, 46971.84
2715.641, 46923.77
2717.570, 46958.02
2719.498, 47055.02
2721.427, 47148.26
2723.355, 47222.79
2725.284, 47176.79
2727.212, 47055.70
2729.141, 47006.63
2731.069, 47020.50
2732.998, 47090.37
2734.926, 47187.57
2736.854, 47179.17
2738.783, 47107.42
2740.711, 47141.76
2742.640, 47238.83
2744.568, 47272.85
2746.497, 47268.44
2748.425, 47303.37
2750.354, 47357.53
2752.282, 47358.74
2754.211, 47337.16
2756.139, 47377.74
2758.068, 47449.94
2759.996, 47485.96
2761.925, 47504.15
2763.853, 47546.84
2765.781, 47600.88
2767.710, 47646.02
2769.638, 47677.52
2771.567, 47675.32
2773.495, 47664.82
2775.424, 47719.74
2777.352, 47767.53
2779.281, 47627.63
2781.209, 47460.55
2783.138, 47537.45
2785.066, 47688.32
2786.995, 47712.39
2788.923, 47695.28
2790.852, 47747.07
2792.780, 47806.73
2794.708, 47819.45
2796.637, 47790.50
2798.565, 47668.19
2800.494, 47576.66
2802.422, 47642.03
2804.351, 47767.25
2806.279, 47951.16
2808.208, 48057.70
2810.136, 47925.74
2812.065, 47795.97
2813.993, 47855.03
2815.922, 47924.97
2817.850, 47884.15
2819.779, 47847.26
2821.707, 47879.93
2823.635, 47910.18
2825.564, 47882.50
2827.492, 47885.25
2829.421, 47988.16
2831.349, 48073.18
2833.278, 48091.86
2835.206, 48114.48
2837.135, 48175.86
2839.063, 48196.61
2840.992, 48103.45
2842.920, 48058.14
2844.849, 48116.47
2846.777, 48157.43
2848.706, 48163.14
2850.634, 48174.36
2852.563, 48204.71
2854.491, 48213.07
2856.419, 48173.91
2858.348, 48169.36
2860.276, 48203.65
2862.205, 48244.13
2864.133, 48288.91
2866.062, 48333.97
2867.990, 48383.85
2869.919, 48352.30
2871.847, 48240.66
2873.776, 48239.81
2875.704, 48331.39
2877.633, 48388.86
2879.561, 48413.66
2881.490, 48418.02
2883.418, 48412.14
2885.346, 48447.48
2887.275, 48497.54
2889.203, 48484.11
2891.132, 48450.10
2893.060, 48483.37
2894.989, 48538.19
2896.917, 48554.24
2898.846, 48538.63
2900.774, 48464.55
2902.703, 48407.42
2904.631, 48456.77
2906.560, 48529.46
2908.488, 48565.49
2910.417, 48590.77
2912.345, 48620.03
2914.273, 48643.61
2916.202, 48659.64
2918.130, 48663.62
2920.059, 48628.50
2921.987, 48628.31
2923.916, 48697.61
2925.844, 48751.32
2927.773, 48753.30
2929.701, 48770.17
2931.630, 48843.98
2933.558, 48828.08
2935.487, 48692.12
2937.415, 48643.61
2939.344, 48713.13
2941.272, 48818.49
2943.200, 48969.45
2945.129, 48982.30
2947.057, 48877.20
2948.986, 48830.98
2950.914, 48841.03
2952.843, 48871.29
2954.771, 48915.65
2956.700, 48967.62
2958.628, 49010.32
2960.557, 48987.08
2962.485, 48952.68
2964.414, 48986.54
2966.342, 49044.13
2968.271, 49095.73
2970.199, 49122.10
2972.127, 49095.58
2974.056, 49062.14
2975.984, 49067.63
2977.913, 49045.57
2979.841, 48921.77
2981.770, 48847.23
2983.698, 48864.27
2985.627, 48929.34
2987.555, 49099.05
2989.484, 49166.46
2991.412, 49085.32
2993.341, 49056.29
2995.269, 49100.13
2997.198, 49131.51
2999.126, 49143.46
3001.054, 49143.21
3002.983, 49132.23
3004.911, 49130.81
3006.840, 49135.70
3008.768, 49144.42
3010.697, 49143.96
3012.625, 49069.14
3014.554, 48996.23
3016.482, 49078.88
3018.411, 49188.31
3020.339, 49181.05
3022.268, 49174.55
3024.196, 49278.35
3026.125, 49384.83
3028.053, 49465.75
3029.981, 49494.07
3031.910, 49403.33
3033.838, 49366.11
3035.767, 49449.91
3037.695, 49463.63
3039.624, 49366.00
3041.552, 49326.60
3043.481, 49375.73
3045.409, 49443.71
3047.338, 49526.98
3049.266, 49508.25
3051.195, 49414.16
3053.123, 49361.59
3055.052, 49344.14
3056.980, 49339.48
3058.908, 49361.96
3060.837, 49477.46
3062.765, 49577.07
3064.694, 49517.55
3066.622, 49450.22
3068.551, 49498.25
3070.479, 49543.21
3072.408, 49533.85
3074.336, 49523.54
3076.265, 49525.61
3078.193, 49535.97
3080.122, 49550.67
3082.050, 49600.94
3083.979, 49697.32
3085.907, 49735.02
3087.835, 49711.05
3089.764, 49709.43
3091.692, 49725.23
3093.621, 49750.73
3095.549, 49768.73
3097.478, 49724.54
3099.406, 49668.98
3101.335, 49671.60
3103.263, 49697.79
3105.192, 49746.21
3107.120, 49769.74
3109.049, 49734.55
3110.977, 49673.68
3112.906, 49565.93
3114.834, 49533.36
3116.762, 49647.80
3118.691, 49736.68
3120.619, 49794.31
3122.548, 49797.93
3124.476, 49752.57
3126.405, 49717.52
3128.333, 49697.18
3130.262, 49710.27
3132.190, 49743.63
3134.119, 49782.05
3136.047, 49812.74
3137.976, 49816.61
3139.904, 49813.37
3141.833, 49823.23
3143.761, 49817.05
3145.689, 49739.01
3147.618, 49735.30
3149.546, 49899.84
3151.475, 49974.73
3153.403, 49932.82
3155.332, 49920.11
3157.260, 49948.30
3159.189, 49936.53
3161.117, 49903.16
3163.046, 49973.44
3164.974, 50063.95
3166.903, 49989.95
3168.831, 49893.98
3170.760, 49950.11
3172.688, 50035.77
3174.616, 50098.43
3176.545, 50132.82
3178.473, 50130.05
3180.402, 50106.54
3182.330, 50057.34
3184.259, 50036.46
3186.187, 50059.27
3188.116, 50019.27
3190.044, 49926.62
3191.973, 49921.45
3193.901, 49973.87
3195.830, 50028.12
3197.758, 50068.96
3199.687, 50057.04
3201.615, 50047.11
3203.543, 50076.82
3205.472, 50121.80
3207.400, 50210.39
3209.329, 50223.54
3211.257, 50119.11
3213.186, 50080.22
3215.114, 50148.02
3217.043, 50172.56
3218.971, 50155.50
3220.900, 50108.63
3222.828, 50060.03
3224.757, 50100.60
3226.685, 50146.05
3228.614, 50038.95
3230.542, 49958.27
3232.470, 50058.73
3234.399, 50148.72
3236.327, 50151.25
3238.256, 50126.57
3240.184, 50071.69
3242.113, 50076.41
3244.041, 50155.43
3245.970, 50128.06
3247.898, 50037.49
3249.827, 50142.75
3251.755, 50281.13
3253.684, 50118.50
3255.612, 49946.11
3257.541, 50073.25
3259.469, 50205.92
3261.397, 50195.92
3263.326, 50181.73
3265.254, 50192.61
3267.183, 50200.31
3269.111, 50202.65
3271.040, 50135.05
3272.968, 50022.28
3274.897, 50041.18
3276.825, 50125.91
3278.754, 50173.80
3280.682, 50190.25
3282.611, 50155.11
3284.539, 50132.65
3286.468, 50168.06
3288.396, 50175.70
3290.324, 50103.15
3292.253, 50054.23
3294.181, 50031.21
3296.110, 50088.53
3298.038, 50196.07
3299.967, 50215.25
3301.895, 50169.72
3303.824, 50031.27
3305.752, 49948.22
3307.681, 50116.68
3309.609, 50250.95
3311.538, 50221.61
3313.466, 50213.19
3315.395, 50279.48
3317.323, 50289.70
3319.251, 50239.36
3321.180, 50189.99
3323.108, 50140.99
3325.037, 50050.41
3326.965, 50000.59
3328.894, 50205.36
3330.822, 50336.54
3332.751, 50089.69
3334.679, 49945.64
3336.608, 50075.91
3338.536, 50156.66
3340.465, 50157.36
3342.393, 50130.72
3344.322, 50087.11
3346.250, 50051.37
3348.178, 50038.51
3350.107, 50081.27
3352.035, 50136.42
3353.964, 50173.53
3355.892, 50207.56
3357.821, 50263.56
3359.749, 50237.10
3361.678, 50081.99
3363.606, 50034.62
3365.535, 50073.53
3367.463, 50073.88
3369.392, 50050.34
3371.320, 50030.30
3373.249, 50006.59
3375.177, 49958.49
3377.105, 49934.10
3379.034, 49987.91
3380.962, 49954.53
3382.891, 49803.96
3384.819, 49845.66
3386.748, 50043.51
3388.676, 50051.56
3390.605, 49977.89
3392.533, 50009.33
3394.462, 50041.95
3396.390, 49960.54
3398.319, 49913.00
3400.247, 49952.95
3402.176, 49998.24
3404.104, 50046.73
3406.032, 49992.47
3407.961, 49885.20
3409.889, 49949.09
3411.818, 50055.73
3413.746, 49993.81
3415.675, 49917.34
3417.603, 49926.20
3419.532, 49925.93
3421.460, 49889.02
3423.389, 49871.39
3425.317, 49876.48
3427.246, 49880.04
3429.174, 49879.08
3431.103, 49848.81
3433.031, 49833.07
3434.959, 49906.40
3436.888, 49951.61
3438.816, 49924.20
3440.745, 49849.30
3442.673, 49710.82
3444.602, 49673.36
3446.530, 49723.94
3448.459, 49792.55
3450.387, 49851.93
3452.316, 49861.29
3454.244, 49844.85
3456.173, 49809.97
3458.101, 49776.35
3460.030, 49751.55
3461.958, 49728.47
3463.886, 49704.96
3465.815, 49636.65
3467.743, 49570.82
3469.672, 49652.30
3471.600, 49729.52
3473.529, 49636.35
3475.457, 49600.09
3477.386, 49743.74
3479.314, 49782.98
3481.243, 49702.22
3483.171, 49714.78
3485.100, 49777.33
3487.028, 49741.04
3488.957, 49677.07
3490.885, 49665.58
3492.813, 49615.80
3494.742, 49466.94
3496.670, 49412.39
3498.599, 49496.86
3500.527, 49538.09
3502.456, 49541.34
3504.384, 49528.83
3506.313, 49486.14
3508.241, 49340.09
3510.170, 49268.19
3512.098, 49368.11
3514.027, 49403.54
3515.955, 49326.96
3517.884, 49266.59
3519.812, 49237.75
3521.740, 49310.75
3523.669, 49390.57
3525.597, 49386.57
3527.526, 49326.95
3529.454, 49152.43
3531.383, 49123.44
3533.311, 49253.36
3535.240, 49250.88
3537.168, 49169.57
3539.097, 49168.19
3541.025, 49187.03
3542.954, 49158.87
3544.882, 49167.28
3546.811, 49293.08
3548.739, 49279.88
3550.667, 49129.48
3552.596, 49070.17
3554.524, 49063.25
3556.453, 49008.68
3558.381, 48965.98
3560.310, 48994.24
3562.238, 49008.28
3564.167, 48986.50
3566.095, 49005.73
3568.024, 49056.54
3569.952, 48998.47
3571.881, 48916.97
3573.809, 48924.89
3575.738, 48972.95
3577.666, 49071.49
3579.594, 49097.54
3581.523, 49026.64
3583.451, 48966.33
3585.380, 48907.18
3587.308, 48742.10
3589.237, 48632.27
3591.165, 48829.21
3593.094, 48942.88
3595.022, 48838.21
3596.951, 48789.38
3598.879, 48818.41
3600.808, 48754.86
3602.736, 48673.12
3604.665, 48720.72
3606.593, 48755.32
3608.521, 48663.89
3610.450, 48667.45
3612.378, 48867.96
3614.307, 48790.07
3616.235, 48562.20
3618.164, 48641.89
3620.092, 48752.44
3622.021, 48537.08
3623.949, 48426.78
3625.878, 48594.70
3627.806, 48715.12
3629.735, 48764.95
3631.663, 48640.04
3633.592, 48477.07
3635.520, 48487.56
3637.448, 48503.36
3639.377, 48437.91
3641.305, 48403.36
3643.234, 48412.58
3645.162, 48453.34
3647.091, 48493.06
3649.019, 48449.25
3650.948, 48398.96
3652.876, 48397.37
3654.805, 48376.00
3656.733, 48308.57
3658.662, 48295.72
3660.590, 48323.12
3662.519, 48362.53
3664.447, 48369.96
3666.375, 48281.22
3668.304, 48220.82
3670.232, 48236.46
3672.161, 48280.04
3674.089, 48331.76
3676.018, 48313.04
3677.946, 48253.80
3679.875, 48170.09
3681.803, 48096.32
3683.732, 48049.37
3685.660, 48003.11
3687.589, 47960.86
3689.517, 47941.96
3691.446, 47944.53
3693.374, 47992.74
3695.302, 48013.31
3697.231, 47974.41
3699.159, 47873.15
3701.088, 47738.07
3703.016, 47814.87
3704.945, 47964.93
3706.873, 48014.74
3708.802, 48000.54
3710.730, 47868.38
3712.659, 47904.09
3714.587, 48081.03
3716.516, 47972.39
3718.444, 47779.18
3720.373, 47830.66
3722.301, 47866.88
3724.229, 47745.33
3726.158, 47698.43
3728.086, 47727.00
3730.015, 47705.56
3731.943, 47670.13
3733.872, 47702.80
3735.800, 47684.98
3737.729, 47517.05
3739.657, 47481.19
3741.586, 47568.49
3743.514, 47628.23
3745.443, 47637.10
3747.371, 47503.14
3749.300, 47425.36
3751.228, 47502.73
3753.156, 47546.73
3755.085, 47543.75
3757.013, 47430.68
3758.942, 47320.27
3760.870, 47358.21
3762.799, 47410.33
3764.727, 47452.76
3766.656, 47431.82
3768.584, 47368.01
3770.513, 47346.18
3772.441, 47323.52
3774.370, 47229.07
3776.298, 47217.46
3778.227, 47364.29
3780.155, 47321.04
3782.083, 47182.55
3784.012, 47215.41
3785.940, 47239.38
3787.869, 47104.24
3789.797, 47069.36
3791.726, 47186.32
3793.654, 47177.92
3795.583, 47120.82
3797.511, 47142.58
3799.440, 47175.16
3801.368, 47201.93
3803.297, 47159.29
3805.225, 47047.61
3807.154, 46883.29
3809.082, 46758.66
3811.010, 46822.68
3812.939, 46853.40
3814.867, 46789.93
3816.796, 46779.79
3818.724, 46803.21
3820.653, 46741.97
3822.581, 46693.42
3824.510, 46757.33
3826.438, 46778.09
3828.367, 46741.31
3830.295, 46822.16
3832.224, 46893.36
3834.152, 46644.25
3836.081, 46443.45
3838.009, 46494.98
3839.938, 46529.32
3841.866, 46530.80
3843.794, 46473.48
3845.723, 46431.55
3847.651, 46520.56
3849.580, 46448.45
3851.508, 46179.57
3853.437, 46188.22
3855.365, 46319.48
3857.294, 46224.24
3859.222, 46094.30
3861.151, 46026.50
3863.079, 45929.14
3865.008, 45807.27
3866.936, 45738.98
3868.865, 45712.30
3870.793, 45757.28
3872.721, 45743.85
3874.650, 45627.65
3876.578, 45480.58
3878.507, 45358.59
3880.435, 45413.07
3882.364, 45452.85
3884.292, 45392.76
3886.221, 45290.65
3888.149, 45167.58
3890.078, 45127.13
3892.006, 45097.52
3893.935, 45020.79
3895.863, 44897.53
3897.792, 44732.76
3899.720, 44737.68
3901.648, 44799.99
3903.577, 44700.72
3905.505, 44598.34
3907.434, 44572.98
3909.362, 44478.55
3911.291, 44333.14
3913.219, 44228.96
3915.148, 44166.45
3917.076, 44185.10
3919.005, 44193.36
3920.933, 44172.77
3922.862, 44038.32
3924.790, 43911.77
3926.719, 44011.33
3928.647, 44031.37
3930.575, 43865.11
3932.504, 43733.84
3934.432, 43645.68
3936.361, 43557.44
3938.289, 43514.32
3940.218, 43554.07
3942.146, 43481.99
3944.075, 43319.41
3946.003, 43255.46
3947.932, 43196.29
3949.860, 43035.45
3951.789, 43014.17
3953.717, 43105.29
3955.646, 43021.50
3957.574, 42866.60
3959.502, 42780.29
3961.431, 42750.04
3963.359, 42731.47
3965.288, 42677.95
3967.216, 42616.42
3969.145, 42551.64
3971.073, 42463.43
3973.002, 42355.51
3974.930, 42270.52
3976.859, 42186.60
3978.787, 42207.45
3980.716, 42254.86
3982.644, 42147.57
3984.573, 42046.16
3986.501, 41997.48
3988.429, 41905.37
3990.358, 41819.59
3992.286, 41804.33
3994.215, 41789.37
3996.143, 41730.63
3998.072, 41685.64
4000.000, 41667.61
4001.929, 41547.75
4003.857, 41442.80
4005.786, 41460.36
4007.714, 41374.10
4009.643, 41290.12
4011.571, 41364.84
4013.500, 41297.07
4015.428, 41156.29
4017.356, 41139.82
4019.285, 41096.01
4021.213, 40999.01
4023.142, 40936.25
4025.070, 40867.80
4026.999, 40800.75
4028.927, 40737.92
4030.856, 40705.02
4032.784, 40758.56
4034.713, 40755.06
4036.641, 40580.04
4038.570, 40418.51
4040.498, 40342.90
4042.427, 40331.44
4044.355, 40347.70
4046.283, 40319.74
4048.212, 40274.41
4050.140, 40199.95
4052.069, 40124.52
4053.997, 40048.84
4055.926, 40053.50
4057.854, 40054.31
4059.783, 40014.10
4061.711, 39935.89
4063.640, 39789.81
4065.568, 39688.17
4067.497, 39646.46
4069.425, 39627.86
4071.354, 39569.39
4073.282, 39475.35
4075.210, 39453.00
4077.139, 39469.29
4079.067, 39461.45
4080.996, 39358.16
4082.924, 39221.63
4084.853, 39197.07
4086.781, 39189.37
4088.710, 39146.55
4090.638, 39040.01
4092.567, 38909.10
4094.495, 38938.12
4096.424, 38955.89
4098.352, 38806.47
4100.280, 38705.20
4102.209, 38685.85
4104.138, 38681.71
4106.066, 38678.09
4107.994, 38680.16
4109.923, 38594.98
4111.852, 38425.71
4113.780, 38366.12
4115.708, 38345.56
4117.637, 38305.01
4119.565, 38255.23
4121.494, 38194.12
4123.422, 38141.83
4125.351, 38115.06
4127.279, 38174.00
4129.208, 38159.99
4131.136, 38043.61
4133.064, 37980.61
4134.993, 37938.15
4136.921, 37888.28
4138.850, 37809.16
4140.778, 37689.43
4142.707, 37570.01
4144.635, 37510.27
4146.563, 37611.40
4148.492, 37602.71
4150.421, 37454.16
4152.349, 37423.80
4154.277, 37424.13
4156.206, 37336.18
4158.135, 37255.63
4160.063, 37225.93
4161.991, 37219.23
4163.920, 37187.88
4165.849, 37141.34
4167.777, 37074.52
4169.705, 36991.89
4171.634, 36935.02
4173.563, 36874.73
4175.491, 36826.30
4177.419, 36779.49
4179.348, 36747.16
4181.276, 36726.37
4183.205, 36710.94
4185.133, 36725.73
4187.062, 36712.23
4188.990, 36631.04
4190.918, 36610.59
4192.847, 36576.48
4194.775, 36442.33
4196.704, 36347.43
4198.632, 36297.31
4200.561, 36191.39
4202.489, 36114.05
4204.418, 36199.84
4206.346, 36233.17
4208.274, 36173.50
4210.203, 36130.51
4212.132, 36064.21
4214.060, 35949.58
4215.988, 35914.71
4217.917, 35944.94
4219.846, 35878.32
4221.774, 35785.10
4223.702, 35732.58
4225.631, 35723.63
4227.560, 35735.48
4229.488, 35678.39
4231.416, 35598.07
4233.345, 35512.69
4235.273, 35463.14
4237.202, 35446.80
4239.130, 35420.84
4241.059, 35413.73
4242.987, 35489.77
4244.916, 35488.44
4246.844, 35407.13
4248.772, 35289.24
4250.701, 35236.27
4252.629, 35363.12
4254.558, 35271.57
4256.486, 35097.38
4258.415, 35122.15
4260.343, 35188.11
4262.271, 35259.26
4264.200, 35198.52
4266.129, 35119.23
4268.057, 35221.57
4269.985, 35261.07
4271.914, 35188.47
4273.843, 35172.68
4275.771, 35171.64
4277.699, 35136.80
4279.628, 35130.32
4281.557, 35144.58
4283.485, 35053.77
4285.413, 34981.48
4287.342, 35038.91
4289.271, 35080.53
4291.199, 35096.15
4293.127, 35050.89
4295.056, 35034.77
4296.984, 35116.05
4298.913, 35077.98
4300.841, 34998.97
4302.770, 35047.98
4304.698, 35054.40
4306.626, 34972.06
4308.555, 34906.29
4310.483, 34883.17
4312.412, 34958.56
4314.340, 35004.88
4316.269, 35002.61
4318.197, 34888.57
4320.126, 34815.66
4322.054, 34895.80
4323.982, 34888.13
4325.911, 34836.41
4327.840, 34938.52
4329.768, 34969.28
4331.696, 34855.09
4333.625, 34730.32
4335.554, 34656.94
4337.482, 34742.52
4339.410, 34778.91
4341.339, 34738.59
4343.268, 34646.83
4345.196, 34593.48
4347.124, 34645.34
4349.053, 34699.52
4350.981, 34726.45
4352.910, 34639.89
4354.838, 34608.58
4356.767, 34690.41
4358.695, 34705.04
4360.624, 34682.44
4362.552, 34665.99
4364.480, 34646.44
4366.409, 34625.64
4368.337, 34635.05
4370.266, 34636.58
4372.194, 34600.74
4374.123, 34545.43
4376.051, 34494.38
4377.979, 34496.81
4379.908, 34544.24
4381.837, 34647.13
4383.765, 34589.34
4385.693, 34491.92
4387.622, 34454.70
4389.551, 34533.11
4391.479, 34665.00
4393.407, 34484.79
4395.336, 34351.38
4397.265, 34419.62
4399.193, 34439.40
4401.121, 34420.22
4403.050, 34364.81
4404.979, 34391.64
4406.907, 34489.84
4408.835, 34502.67
4410.764, 34455.28
4412.692, 34344.58
4414.621, 34335.86
4416.549, 34373.79
4418.478, 34339.95
4420.406, 34282.38
4422.334, 34215.40
4424.263, 34236.50
4426.191, 34235.07
4428.120, 34087.71
4430.048, 34010.61
4431.977, 34018.39
4433.905, 34165.14
4435.834, 34260.44
4437.762, 34254.76
4439.690, 34233.88
4441.619, 34210.21
4443.548, 34192.15
4445.476, 34173.65
4447.404, 34150.97
4449.333, 34105.05
4451.262, 34085.88
4453.190, 34105.61
4455.118, 34067.82
4457.047, 34027.78
4458.976, 34038.04
4460.904, 34096.25
4462.832, 34144.39
4464.761, 33958.91
4466.689, 33851.63
4468.618, 33918.43
4470.546, 33949.78
4472.475, 33953.62
4474.403, 33933.79
4476.332, 33903.57
4478.260, 33863.18
4480.188, 33787.86
4482.117, 33759.58
4484.045, 33791.07
4485.974, 33808.76
4487.902, 33805.19
4489.831, 33743.61
4491.759, 33789.62
4493.688, 33893.62
4495.616, 34002.48
4497.545, 33940.31
4499.473, 33705.01
4501.401, 33704.25
4503.330, 33767.01
4505.259, 33815.05
4507.187, 33721.98
4509.115, 33604.83
4511.044, 33644.19
4512.973, 33667.26
4514.901, 33658.00
4516.829, 33679.46
4518.758, 33651.66
4520.687, 33528.64
4522.615, 33393.47
4524.543, 33366.58
4526.472, 33626.54
4528.400, 33682.23
4530.329, 33589.70
4532.257, 33586.94
4534.186, 33549.19
4536.114, 33466.89
4538.042, 33494.14
4539.971, 33554.21
4541.899, 33632.78
4543.828, 33505.88
4545.756, 33321.23
4547.685, 33286.07
4549.613, 33309.84
4551.542, 33366.25
4553.470, 33415.69
4555.398, 33446.55
4557.327, 33455.25
4559.256, 33433.52
4561.184, 33385.07
4563.112, 33287.38
4565.041, 33301.62
4566.970, 33360.14
4568.898, 33327.51
4570.826, 33318.53
4572.755, 33330.63
4574.684, 33233.39
4576.612, 33173.68
4578.540, 33197.66
4580.469, 33243.17
4582.397, 33254.64
4584.326, 33166.28
4586.254, 33162.74
4588.183, 33189.71
4590.111, 33122.18
4592.040, 33083.11
4593.968, 33087.25
4595.896, 33156.20
4597.825, 33138.09
4599.753, 33005.49
4601.682, 33038.42
4603.610, 33102.24
4605.539, 33092.24
4607.467, 33098.82
4609.396, 33075.39
4611.324, 32906.37
4613.253, 32863.73
4615.181, 32919.39
4617.109, 32883.29
4619.038, 32868.27
4620.967, 32897.03
4622.895, 32949.57
4624.823, 32965.59
4626.752, 32906.32
4628.681, 32782.00
4630.609, 32707.67
4632.537, 32820.77
4634.466, 32829.12
4636.395, 32776.97
4638.323, 32781.17
4640.251, 32802.37
4642.180, 32818.12
4644.108, 32754.55
4646.037, 32726.91
4647.965, 32770.67
4649.894, 32722.00
4651.822, 32681.79
4653.750, 32702.46
4655.679, 32712.95
4657.607, 32682.64
4659.536, 32542.03
4661.464, 32541.64
4663.393, 32611.03
4665.321, 32606.58
4667.250, 32568.82
4669.178, 32518.19
4671.106, 32524.13
4673.035, 32455.99
4674.964, 32309.37
4676.892, 32319.98
4678.820, 32374.33
4680.749, 32422.63
4682.678, 32418.42
4684.606, 32380.39
4686.534, 32314.62
4688.463, 32313.60
4690.392, 32344.00
4692.320, 32351.82
4694.248, 32411.80
4696.177, 32464.37
4698.105, 32346.87
4700.034, 32244.13
4701.962, 32198.57
4703.891, 32297.50
4705.819, 32278.60
4707.748, 32102.47
4709.676, 32191.76
4711.604, 32234.68
4713.533, 32093.88
4715.461, 32029.56
4717.390, 32034.42
4719.318, 32112.17
4721.247, 32019.26
4723.175, 31896.51
4725.104, 31917.58
4727.032, 31905.52
4728.961, 31889.18
4730.889, 31944.86
4732.817, 31930.14
4734.746, 31869.70
4736.675, 31861.41
4738.603, 31833.96
4740.531, 31794.18
4742.460, 31857.65
4744.389, 31843.91
4746.317, 31744.34
4748.245, 31793.51
4750.174, 31788.00
4752.103, 31643.73
4754.031, 31645.86
4755.959, 31676.07
4757.888, 31674.86
4759.816, 31578.54
4761.745, 31512.44
4763.673, 31610.98
4765.602, 31562.42
4767.530, 31477.71
4769.458, 31469.54
4771.387, 31486.30
4773.315, 31500.27
4775.244, 31468.91
4777.172, 31493.15
4779.101, 31531.48
4781.029, 31490.30
4782.958, 31438.78
4784.886, 31385.37
4786.814, 31306.39
4788.743, 31293.93
4790.672, 31327.80
4792.600, 31270.77
4794.528, 31229.06
4796.457, 31214.76
4798.386, 31161.26
4800.314, 31125.40
4802.242, 31119.90
4804.171, 31114.05
4806.100, 31072.52
4808.028, 30993.78
4809.956, 31013.15
4811.885, 31041.06
4813.813, 31035.82
4815.742, 30974.47
4817.670, 30949.91
4819.599, 31007.83
4821.527, 30902.28
4823.456, 30821.25
4825.384, 30905.80
4827.313, 30880.68
4829.241, 30780.81
4831.169, 30626.32
4833.098, 30631.11
4835.026, 30656.83
4836.955, 30560.54
4838.883, 30494.65
4840.812, 30509.73
4842.740, 30669.73
4844.669, 30658.00
4846.597, 30584.64
4848.525, 30599.74
4850.454, 30602.79
4852.383, 30553.24
4854.311, 30388.98
4856.239, 30363.92
4858.168, 30387.40
4860.097, 30284.90
4862.025, 30296.21
4863.953, 30338.59
4865.882, 30259.29
4867.811, 30276.94
4869.739, 30332.08
4871.667, 30306.44
4873.596, 30220.71
4875.524, 30133.82
4877.453, 30145.83
4879.381, 30106.97
4881.310, 30049.19
4883.238, 30054.36
4885.167, 30105.63
4887.095, 30131.18
4889.023, 29959.63
4890.952, 29986.02
4892.880, 30082.27
4894.809, 29919.54
4896.737, 29957.51
4898.666, 30052.55
4900.594, 29847.85
4902.522, 29744.17
4904.451, 29747.51
4906.380, 29824.68
4908.308, 29797.00
4910.236, 29716.04
4912.165, 29702.67
4914.094, 29604.23
4916.022, 29493.80
4917.950, 29491.14
4919.879, 29598.15
4921.808, 29686.15
4923.736, 29538.19
4925.664, 29466.16
4927.593, 29441.31
4929.521, 29406.97
4931.450, 29355.77
4933.378, 29314.86
4935.307, 29324.48
4937.235, 29281.75
4939.164, 29223.48
4941.092, 29195.85
4943.021, 29158.25
4944.949, 29135.05
4946.877, 29153.30
4948.806, 29106.53
4950.734, 29022.79
4952.663, 28884.63
4954.591, 29092.46
4956.520, 29236.35
4958.448, 29049.19
4960.377, 28992.42
4962.305, 28970.46
4964.233, 28913.02
4966.162, 28738.19
4968.091, 28651.86
4970.019, 28756.76
4971.947, 28806.66
4973.876, 28798.93
4975.805, 28737.97
4977.733, 28633.50
4979.661, 28580.61
4981.590, 28601.96
4983.519, 28624.51
4985.447, 28600.52
4987.375, 28536.34
4989.304, 28515.71
4991.232, 28477.77
4993.161, 28416.25
4995.089, 28345.68
4997.018, 28307.92
4998.946, 28276.89
5000.875, 28145.35
5002.803, 28208.95
5004.731, 28339.88
5006.660, 28238.19
5008.588, 28212.63
5010.517, 28202.44
5012.445, 28085.51
5014.374, 28070.05
5016.302, 28089.43
5018.230, 28066.70
5020.159, 28128.58
5022.088, 28139.25
5024.016, 27974.25
5025.944, 27874.60
5027.873, 27864.54
5029.802, 27931.97
5031.730, 27793.07
5033.658, 27683.65
5035.587, 27684.21
5037.516, 27726.35
5039.444, 27711.36
5041.372, 27635.65
5043.301, 27562.62
5045.229, 27596.34
5047.158, 27672.44
5049.086, 27607.57
5051.015, 27533.29
5052.943, 27478.70
5054.872, 27484.03
5056.800, 27375.52
5058.729, 27291.98
5060.657, 27382.28
5062.585, 27365.67
5064.514, 27299.78
5066.442, 27236.40
5068.371, 27138.48
5070.299, 27103.31
5072.228, 27156.51
5074.156, 27094.65
5076.085, 27055.34
5078.013, 27049.01
5079.941, 26924.88
5081.870, 26962.92
5083.799, 27084.51
5085.727, 26977.34
5087.655, 26901.85
5089.584, 26859.82
5091.513, 26812.76
5093.441, 26770.63
5095.369, 26703.45
5097.298, 26569.33
5099.227, 26558.09
5101.155, 26585.79
5103.083, 26604.73
5105.012, 26541.77
5106.940, 26490.54
5108.869, 26467.56
5110.797, 26414.56
5112.726, 26400.29
5114.654, 26406.87
5116.583, 26351.51
5118.511, 26386.06
5120.439, 26434.01
5122.368, 26394.25
5124.296, 26269.06
5126.225, 26168.18
5128.153, 26167.06
5130.082, 26147.56
5132.010, 26091.58
5133.938, 26011.27
5135.867, 26036.46
5137.796, 26042.73
5139.724, 26000.15
5141.652, 25869.49
5143.581, 25863.92
5145.510, 25904.00
5147.438, 25857.58
5149.366, 25810.18
5151.295, 25790.87
5153.224, 25807.22
5155.152, 25682.76
5157.080, 25613.81
5159.009, 25652.01
5160.938, 25659.45
5162.866, 25598.94
5164.794, 25511.69
5166.723, 25503.90
5168.651, 25460.61
5170.580, 25444.05
5172.508, 25536.98
5174.437, 25501.72
5176.365, 25424.52
5178.293, 25363.45
5180.222, 25361.72
5182.150, 25346.22
5184.079, 25310.79
5186.007, 25310.72
5187.936, 25286.64
5189.864, 25246.76
5191.793, 25222.76
5193.721, 25112.93
5195.649, 25038.71
5197.578, 25088.50
5199.507, 25083.20
5201.435, 25048.02
5203.363, 24997.82
5205.292, 24945.14
5207.221, 24934.62
5209.149, 24917.25
5211.077, 24780.92
5213.006, 24742.71
5214.935, 24733.68
5216.863, 24697.80
5218.791, 24664.34
5220.720, 24673.35
5222.648, 24702.45
5224.577, 24590.47
5226.505, 24613.84
5228.434, 24676.38
5230.362, 24538.91
5232.291, 24495.34
5234.219, 24495.84
5236.147, 24492.12
5238.076, 24366.71
5240.004, 24302.04
5241.933, 24313.82
5243.861, 24268.55
5245.790, 24276.86
5247.718, 24291.96
5249.646, 24236.90
5251.575, 24162.31
5253.504, 24103.60
5255.432, 24081.01
5257.360, 24147.78
5259.289, 24104.31
5261.218, 23990.37
5263.146, 23996.21
5265.074, 23957.50
5267.003, 23890.29
5268.932, 23817.46
5270.860, 23758.20
5272.788, 23740.80
5274.717, 23767.37
5276.646, 23825.59
5278.574, 23874.07
5280.502, 23846.06
5282.431, 23621.24
5284.359, 23622.62
5286.288, 23653.80
5288.216, 23612.29
5290.145, 23548.40
5292.073, 23483.23
5294.001, 23405.69
5295.930, 23273.29
5297.858, 23289.30
5299.787, 23309.43
5301.715, 23227.21
5303.644, 23260.06
5305.572, 23261.24
5307.501, 23209.61
5309.429, 23157.27
5311.357, 23131.82
5313.286, 23064.50
5315.215, 22913.93
5317.143, 23039.58
5319.071, 23073.85
5321.000, 22961.92
5322.929, 22969.12
5324.857, 22887.28
5326.785, 22801.04
5328.714, 22813.94
5330.643, 22881.36
5332.571, 22856.63
5334.499, 22742.05
5336.428, 22713.88
5338.356, 22678.02
5340.285, 22635.98
5342.213, 22604.78
5344.142, 22562.79
5346.070, 22464.53
5347.999, 22335.66
5349.927, 22331.50
5351.855, 22297.49
5353.784, 22289.12
5355.712, 22378.94
5357.641, 22337.34
5359.569, 22280.64
5361.498, 22247.50
5363.426, 22194.63
5365.354, 22158.10
5367.283, 22134.16
5369.212, 22114.21
5371.140, 22011.53
5373.068, 21971.96
5374.997, 21991.82
5376.926, 21932.73
5378.854, 21923.27
5380.782, 21906.79
5382.711, 21829.61
5384.640, 21778.09
5386.568, 21695.06
5388.496, 21603.42
5390.425, 21577.68
5392.354, 21623.76
5394.282, 21667.27
5396.210, 21657.56
5398.139, 21559.03
5400.067, 21431.11
5401.996, 21353.14
5403.924, 21468.10
5405.853, 21362.40
5407.781, 21290.13
5409.709, 21327.54
5411.638, 21244.96
5413.566, 21263.55
5415.495, 21290.76
5417.423, 21207.05
5419.352, 21084.68
5421.280, 21037.41
5423.209, 21049.06
5425.137, 21001.10
5427.065, 20871.79
5428.994, 20818.81
5430.923, 20919.05
5432.851, 20902.04
5434.779, 20880.21
5436.708, 20813.92
5438.637, 20618.22
5440.565, 20668.62
5442.493, 20683.90
5444.422, 20590.76
5446.351, 20566.55
5448.279, 20563.45
5450.207, 20557.07
5452.136, 20533.26
5454.064, 20418.35
5455.993, 20363.40
5457.921, 20355.58
5459.850, 20318.26
5461.778, 20362.25
5463.707, 20321.35
5465.635, 20182.50
5467.563, 20146.98
5469.492, 20139.20
5471.420, 20124.21
5473.349, 20083.63
5475.277, 20030.55
5477.206, 20001.23
5479.134, 19981.42
5481.063, 19937.46
5482.991, 19960.12
5484.920, 19933.04
5486.848, 19852.54
5488.776, 19832.20
5490.705, 19819.12
5492.634, 19786.98
5494.562, 19733.89
5496.490, 19763.79
5498.419, 19688.00
5500.348, 19598.23
5502.276, 19642.29
5504.204, 19490.13
5506.133, 19474.74
5508.062, 19543.89
5509.990, 19429.94
5511.918, 19406.08
5513.847, 19324.53
5515.775, 19170.02
5517.704, 19140.57
5519.632, 19181.65
5521.561, 19202.71
5523.489, 19151.90
5525.417, 19047.80
5527.346, 19100.71
5529.274, 19144.77
5531.203, 18974.23
5533.131, 18989.06
5535.060, 18976.79
5536.988, 18935.65
5538.917, 18954.92
5540.845, 18929.87
5542.773, 18811.02
5544.702, 18653.81
5546.631, 18627.21
5548.559, 18705.52
5550.487, 18725.73
5552.416, 18638.34
5554.345, 18602.95
5556.273, 18577.50
5558.201, 18534.80
5560.130, 18469.70
5562.059, 18476.92
5563.987, 18415.07
5565.915, 18320.41
5567.844, 18256.86
5569.772, 18293.32
5571.701, 18243.09
5573.629, 18183.32
5575.558, 18272.49
5577.486, 18200.62
5579.415, 18120.48
5581.343, 18067.10
5583.271, 18009.01
5585.200, 17948.67
5587.128, 17918.36
5589.057, 17905.09
5590.985, 17855.17
5592.914, 17826.09
5594.842, 17801.46
5596.771, 17774.41
5598.699, 17762.90
5600.628, 17668.63
5602.556, 17630.60
5604.484, 17689.08
5606.413, 17696.53
5608.342, 17582.64
5610.270, 17498.72
5612.198, 17509.43
5614.127, 17436.87
5616.056, 17414.62
5617.984, 17387.67
5619.912, 17321.64
5621.841, 17336.53
5623.770, 17339.72
5625.698, 17292.39
5627.626, 17195.96
5629.555, 17152.59
5631.483, 17155.41
5633.412, 17185.56
5635.340, 17215.78
5637.269, 17076.05
5639.197, 17006.62
5641.125, 16978.87
5643.054, 16926.91
5644.982, 16847.14
5646.911, 16785.67
5648.839, 16784.56
5650.768, 16853.35
5652.696, 16748.09
5654.625, 16637.91
5656.553, 16619.48
5658.481, 16708.71
5660.410, 16552.61
5662.339, 16605.44
5664.267, 16708.44
5666.195, 16654.55
5668.124, 16531.98
5670.053, 16405.51
5671.981, 16371.30
5673.909, 16491.08
5675.838, 16790.79
5677.767, 16655.64
5679.695, 16367.49
5681.623, 16243.65
5683.552, 16229.78
5685.480, 16195.25
5687.409, 16146.52
5689.337, 16109.19
5691.266, 16108.16
5693.194, 16036.40
5695.123, 15996.86
5697.051, 16031.66
5698.979, 15979.20
5700.908, 15868.30
5702.836, 15808.42
5704.765, 15831.75
5706.693, 15829.91
5708.622, 15788.23
5710.550, 15781.97
5712.479, 15798.78
5714.407, 15653.84
5716.336, 15671.53
5718.264, 15588.21
5720.192, 15424.07
5722.121, 15492.59
5724.050, 15547.44
5725.978, 15553.23
5727.906, 15482.21
5729.835, 15303.93
5731.764, 15286.28
5733.692, 15268.46
5735.620, 15248.60
5737.549, 15280.98
5739.478, 15251.94
5741.406, 15186.06
5743.334, 15136.87
5745.263, 15139.81
5747.191, 15150.99
5749.120, 15076.91
5751.048, 14979.67
5752.977, 14925.63
5754.905, 15010.04
5756.833, 14944.00
5758.762, 14915.82
5760.690, 14965.46
5762.619, 14841.93
5764.547, 14806.94
5766.476, 14793.56
5768.404, 14754.41
5770.333, 14673.73
5772.261, 14656.74
5774.189, 14636.75
5776.118, 14617.91
5778.047, 14623.75
5779.975, 14576.17
5781.903, 14509.41
5783.832, 14465.91
5785.761, 14456.94
5787.689, 14390.02
5789.617, 14337.43
5791.546, 14345.78
5793.475, 14384.75
5795.403, 14283.05
5797.331, 14232.25
5799.260, 14241.49
5801.188, 14246.49
5803.117, 14132.40
5805.045, 14059.45
5806.974, 14047.66
5808.902, 14054.83
5810.831, 14034.77
5812.759, 13980.56
5814.688, 13936.39
5816.616, 13901.86
5818.544, 13880.50
5820.473, 13899.60
5822.401, 13887.63
5824.330, 13807.63
5826.258, 13719.81
5828.187, 13722.03
5830.115, 13737.44
5832.044, 13705.85
5833.972, 13636.38
5835.900, 13568.56
5837.829, 13640.52
5839.758, 13616.86
5841.686, 13556.44
5843.614, 13510.79
5845.543, 13503.24
5847.472, 13312.27
5849.400, 13283.27
5851.328, 13342.33
5853.257, 13272.16
5855.186, 13279.30
5857.114, 13327.01
5859.042, 13303.92
5860.971, 13189.22
5862.899, 13119.35
5864.828, 13116.18
5866.756, 13059.78
5868.685, 12979.80
5870.613, 12977.83
5872.542, 13032.29
5874.470, 13016.48
5876.398, 12913.81
5878.327, 12799.59
5880.255, 12913.86
5882.184, 12843.60
5884.112, 12795.02
5886.041, 12794.49
5887.969, 12749.44
5889.897, 12702.31
5891.826, 12722.22
5893.755, 12723.89
5895.683, 12651.78
5897.611, 12539.46
5899.540, 12579.29
5901.469, 12577.67
5903.397, 12547.93
5905.325, 12585.60
5907.254, 12466.33
5909.183, 12454.12
5911.111, 12468.73
5913.039, 12444.29
5914.968, 12421.93
5916.896, 12301.88
5918.825, 12257.11
5920.753, 12259.73
5922.682, 12230.45
5924.610, 12236.77
5926.539, 12184.22
5928.467, 12170.34
5930.396, 12184.00
5932.324, 12091.06
5934.252, 12059.85
5936.181, 11960.27
5938.109, 11896.10
5940.038, 11937.54
5941.966, 12010.63
5943.895, 11999.76
5945.823, 11938.00
5947.752, 11866.46
5949.680, 11818.87
5951.608, 11834.97
5953.537, 11792.63
5955.466, 11739.75
5957.394, 11716.53
5959.322, 11733.01
5961.251, 11655.24
5963.180, 11658.11
5965.108, 11651.84
5967.036, 11578.53
5968.965, 11533.37
5970.894, 11500.42
5972.822, 11406.02
5974.750, 11348.72
5976.679, 11413.87
5978.607, 11474.34
5980.536, 11446.38
5982.464, 11359.41
5984.393, 11284.83
5986.321, 11275.38
5988.250, 11221.39
5990.178, 11237.86
5992.106, 11205.28
5994.035, 11127.99
5995.963, 11119.66
5997.892, 11094.73
5999.820, 11072.69
6001.749, 11006.38
6003.677, 10921.67
6005.605, 10932.69
6007.534, 10921.75
6009.463, 10877.21
6011.391, 10868.93
6013.319, 10888.15
6015.248, 10773.49
6017.177, 10768.32
6019.105, 10750.15
6021.033, 10742.69
6022.962, 10756.39
6024.891, 10632.65
6026.819, 10673.59
6028.747, 10683.51
6030.676, 10644.59
6032.604, 10602.72
6034.533, 10537.02
6036.461, 10538.29
6038.390, 10511.46
6040.318, 10445.64
6042.247, 10382.56
6044.175, 10419.18
6046.104, 10404.27
6048.032, 10361.35
6049.960, 10335.40
6051.889, 10341.30
6053.817, 10305.26
6055.746, 10195.76
6057.674, 10186.77
6059.603, 10240.00
6061.531, 10242.94
6063.460, 10113.01
6065.388, 10124.42
6067.316, 10134.08
6069.245, 10114.23
6071.174, 10090.04
6073.102, 10019.16
6075.030, 9983.736
6076.959, 9909.588
6078.888, 9866.281
6080.816, 9900.043
6082.744, 9832.703
6084.673, 9900.830
6086.602, 9899.529
6088.530, 9818.422
6090.458, 9734.202
6092.387, 9756.582
6094.315, 9696.912
6096.244, 9667.275
6098.172, 9617.487
6100.101, 9558.986
6102.029, 9676.143
6103.958, 9630.183
6105.886, 9573.313
6107.814, 9558.568
6109.743, 9569.226
6111.671, 9556.975
6113.600, 9527.747
6115.528, 9473.283
6117.457, 9390.436
6119.385, 9329.280
6121.313, 9347.758
6123.242, 9386.215
6125.171, 9384.389
6127.099, 9326.726
6129.027, 9291.773
6130.956, 9324.805
6132.885, 9242.594
6134.813, 9150.222
6136.741, 9141.391
6138.670, 9162.297
6140.599, 9136.740
6142.527, 9033.541
6144.455, 9049.870
6146.384, 9049.640
6148.313, 9007.390
6150.241, 8955.649
6152.169, 8933.636
6154.098, 8872.159
6156.026, 8930.096
6157.955, 8900.784
6159.883, 8807.021
6161.812, 8768.944
6163.740, 8712.563
6165.668, 8774.438
6167.597, 8812.534
6169.525, 8759.797
6171.454, 8662.406
6173.382, 8653.549
6175.311, 8624.472
6177.239, 8645.313
6179.168, 8616.125
6181.096, 8563.910
6183.024, 8583.319
6184.953, 8579.110
6186.882, 8481.789
6188.810, 8465.948
6190.738, 8493.314
6192.667, 8469.016
6194.596, 8367.966
6196.524, 8378.518
6198.452, 8337.748
6200.381, 8279.871
6202.310, 8246.300
6204.238, 8244.819
6206.166, 8265.635
6208.095, 8303.510
6210.023, 8263.247
6211.952, 8173.822
6213.880, 8107.446
6215.809, 8127.600
6217.737, 8136.820
6219.666, 8128.917
6221.594, 8100.525
6223.522, 8043.741
6225.451, 7973.159
6227.379, 8000.090
6229.308, 7991.310
6231.236, 7967.415
6233.165, 7944.817
6235.093, 7934.130
6237.021, 7936.827
6238.950, 7832.663
6240.879, 7829.979
6242.807, 7844.595
6244.735, 7813.965
6246.664, 7748.497
6248.593, 7714.332
6250.521, 7714.650
6252.449, 7674.276
6254.378, 7616.642
6256.307, 7595.064
6258.235, 7609.365
6260.163, 7563.460
6262.092, 7606.804
6264.021, 7605.392
6265.949, 7597.267
6267.877, 7563.933
6269.806, 7478.387
6271.734, 7441.810
6273.663, 7523.614
6275.591, 7460.754
6277.520, 7413.645
6279.448, 7414.285
6281.376, 7370.419
6283.305, 7375.938
6285.233, 7342.202
6287.162, 7320.783
6289.090, 7277.074
6291.019, 7237.626
6292.947, 7263.058
6294.876, 7235.100
6296.804, 7239.715
6298.732, 7195.081
6300.661, 7177.613
6302.590, 7201.660
6304.518, 7201.615
6306.446, 7132.910
6308.375, 7096.938
6310.304, 7087.953
6312.232, 7059.347
6314.160, 7023.638
6316.089, 7018.042
6318.018, 6977.804
6319.946, 7048.296
6321.874, 6967.043
6323.803, 6858.984
6325.731, 6849.663
6327.660, 6912.034
6329.588, 6867.031
6331.517, 6820.342
6333.445, 6802.918
6335.374, 6807.547
6337.302, 6827.222
6339.230, 6827.449
6341.159, 6716.299
6343.087, 6731.365
6345.016, 6654.528
6346.944, 6650.700
6348.873, 6672.595
6350.801, 6632.318
6352.729, 6590.860
6354.658, 6615.757
6356.587, 6619.695
6358.515, 6574.526
6360.443, 6521.778
6362.372, 6497.395
6364.301, 6500.597
6366.229, 6488.862
6368.157, 6516.589
6370.086, 6457.773
6372.015, 6400.453
6373.943, 6364.364
6375.871, 6327.454
6377.800, 6375.057
6379.729, 6332.115
6381.657, 6325.276
6383.585, 6320.560
6385.514, 6296.619
6387.442, 6254.286
6389.371, 6199.726
6391.299, 6196.869
6393.228, 6179.108
6395.156, 6123.179
6397.084, 6142.058
6399.013, 6164.551
6400.941, 6070.087
6402.870, 6054.186
6404.798, 6078.364
6406.727, 6056.283
6408.655, 6003.673
6410.584, 6018.187
6412.512, 6045.616
6414.440, 5930.127
6416.369, 5964.123
6418.298, 5976.651
6420.226, 5992.480
6422.154, 5949.756
6424.083, 5889.353
6426.012, 5867.026
6427.940, 5833.664
6429.868, 5776.875
6431.797, 5804.240
6433.726, 5784.710
6435.654, 5759.730
6437.582, 5759.867
6439.511, 5764.094
6441.439, 5786.022
6443.368, 5717.769
6445.296, 5740.474
6447.225, 5733.775
6449.153, 5647.092
6451.082, 5584.002
6453.010, 5628.536
6454.938, 5606.472
6456.867, 5601.343
6458.795, 5627.367
6460.724, 5581.323
6462.652, 5530.465
6464.581, 5515.616
6466.509, 5506.797
6468.438, 5576.745
6470.366, 5484.570
6472.295, 5474.873
6474.223, 5459.286
6476.151, 5389.847
6478.080, 5326.404
6480.009, 5334.283
6481.937, 5334.572
6483.865, 5379.352
6485.794, 5358.988
6487.723, 5351.663
6489.651, 5353.831
6491.579, 5332.228
6493.508, 5275.335
6495.437, 5199.568
6497.365, 5258.010
6499.293, 5262.454
6501.222, 5213.973
6503.150, 5180.320
6505.079, 5180.531
6507.007, 5187.213
6508.936, 5167.097
6510.864, 5162.678
6512.792, 5147.040
6514.721, 5133.990
6516.649, 5097.074
6518.578, 5061.003
6520.506, 5048.224
6522.435, 5036.792
6524.363, 5019.330
6526.292, 5034.730
6528.220, 5060.848
6530.148, 5076.827
6532.077, 5015.573
6534.006, 4950.945
6535.934, 4972.843
6537.862, 4921.497
6539.791, 4920.826
6541.720, 4884.375
6543.648, 4879.906
6545.576, 4889.777
6547.505, 4872.041
6549.434, 4839.172
6551.362, 4824.633
6553.290, 4752.160
6555.219, 4843.411
6557.147, 4785.004
6559.076, 4759.814
6561.004, 4772.161
6562.933, 4782.615
6564.861, 4775.110
6566.790, 4716.742
6568.718, 4721.287
6570.646, 4676.187
6572.575, 4724.677
6574.503, 4696.032
6576.432, 4647.265
6578.360, 4612.735
##END=



