##NAMES=Thomasclarkite-(Y)
##RRUFFID=R110186
##IDEAL CHEMISTRY=NaY(HCO_3_)(OH)_3_·4H_2_O
##LOCALITY=Mont Saint-Hilaire, Quebec, Canada
##OWNER=RRUFF
##SOURCE=Donald Doell
##DESCRIPTION=Aggregate of sharp yellow blocky crystals
##STATUS=The identification of this mineral has been confirmed only by single crystal X-ray diffraction
##URL=https://www.rruff.net/odr/rruff_sample/R110186
##DIFFRACTION SAMPLE DESCRIPTION=Single crystal, powder profile is calculated. Measured a and b cell edges are actually twice as big as reported.
##CELL PARAMETERS=a: 4.566 b: 13.068 c: 4.567 alpha: 90 beta: 90.002 gamma: 90 volume: 272.5 crystal system: monoclinic
##FILETYPE=Raman RAW
##RAMAN WAVELENGTH=532

163.6680, 246.6274
165.5965, 298.0205
167.5249, 354.7596
169.4534, 416.2924
171.3819, 484.9247
173.3103, 554.0588
175.2388, 621.1190
177.1673, 663.6149
179.0957, 704.3626
181.0242, 752.9280
182.9527, 801.9905
184.8811, 850.5181
186.8096, 900.4963
188.7381, 945.0644
190.6665, 981.3174
192.5950, 1011.793
194.5235, 1042.420
196.4519, 1074.612
198.3804, 1106.318
200.3089, 1138.302
202.2373, 1173.883
204.1658, 1199.800
206.0943, 1213.627
208.0227, 1215.804
209.9512, 1209.365
211.8797, 1192.201
213.8081, 1168.537
215.7366, 1141.026
217.6651, 1107.173
219.5935, 1074.319
221.5220, 1043.779
223.4505, 1015.809
225.3789, 988.7797
227.3074, 963.4284
229.2359, 938.3808
231.1643, 912.4714
233.0928, 883.6838
235.0213, 856.0146
236.9497, 829.9437
238.8782, 805.4633
240.8067, 782.8196
242.7351, 762.1568
244.6636, 743.5309
246.5921, 727.4982
248.5205, 715.1555
250.4490, 704.3912
252.3775, 695.6342
254.3059, 688.6652
256.2344, 682.1387
258.1629, 676.1468
260.0913, 670.5106
262.0198, 665.1506
263.9483, 661.0214
265.8767, 655.8859
267.8052, 648.8137
269.7337, 639.8290
271.6621, 629.8780
273.5906, 619.2102
275.5191, 607.3290
277.4475, 593.5521
279.3760, 577.9778
281.3045, 560.3032
283.2329, 540.2071
285.1614, 517.2958
287.0899, 494.6906
289.0183, 471.4262
290.9468, 449.2900
292.8753, 429.8776
294.8037, 413.7881
296.7322, 399.4768
298.6607, 386.0031
300.5891, 373.3123
302.5176, 362.8211
304.4461, 355.1441
306.3745, 349.1149
308.3030, 343.5931
310.2315, 338.7342
312.1599, 334.0422
314.0884, 329.4659
316.0169, 325.0309
317.9453, 320.6425
319.8738, 316.3526
321.8023, 312.1884
323.7307, 308.1432
325.6592, 304.1059
327.5877, 300.4368
329.5161, 297.2978
331.4446, 294.5946
333.3731, 291.7663
335.3015, 288.5488
337.2300, 285.3379
339.1585, 282.3649
341.0869, 279.9050
343.0154, 277.2912
344.9439, 274.3760
346.8723, 271.3412
348.8008, 268.5221
350.7293, 265.8392
352.6578, 263.5928
354.5862, 261.9835
356.5147, 261.5077
358.4432, 260.7033
360.3716, 259.2829
362.3001, 257.5582
364.2286, 255.9581
366.1570, 254.3422
368.0855, 253.0411
370.0140, 252.2071
371.9424, 251.9531
373.8709, 251.7907
375.7994, 251.7722
377.7278, 251.8461
379.6563, 251.9452
381.5848, 251.9664
383.5132, 252.1577
385.4417, 252.7887
387.3702, 253.7450
389.2986, 254.1212
391.2271, 253.3940
393.1556, 252.4690
395.0840, 251.9529
397.0125, 252.4893
398.9410, 252.4467
400.8694, 251.2737
402.7979, 249.4769
404.7264, 248.2339
406.6548, 247.7532
408.5833, 247.6126
410.5118, 247.7257
412.4402, 248.3630
414.3687, 248.4021
416.2972, 247.2622
418.2256, 245.7987
420.1541, 244.9281
422.0826, 244.8767
424.0110, 245.0955
425.9395, 245.5228
427.8680, 246.1743
429.7964, 246.7505
431.7249, 247.1075
433.6534, 247.4921
435.5818, 248.0165
437.5103, 248.6739
439.4388, 249.3673
441.3672, 249.9537
443.2957, 250.5229
445.2242, 251.3302
447.1526, 252.5019
449.0811, 253.6784
451.0096, 254.8661
452.9380, 256.1319
454.8665, 256.8777
456.7950, 256.7736
458.7234, 256.4068
460.6519, 256.2636
462.5804, 256.3134
464.5089, 256.5994
466.4373, 257.2165
468.3658, 258.0726
470.2943, 258.9254
472.2227, 260.0005
474.1512, 260.8101
476.0797, 261.0114
478.0081, 260.6281
479.9366, 260.3083
481.8651, 260.2024
483.7935, 260.2496
485.7220, 260.4086
487.6505, 261.0503
489.5789, 261.4388
491.5074, 261.0114
493.4359, 260.2533
495.3643, 260.4301
497.2928, 262.3281
499.2213, 264.3195
501.1497, 265.7903
503.0782, 266.6871
505.0067, 266.9760
506.9351, 266.0589
508.8636, 264.9189
510.7921, 264.5838
512.7205, 265.6193
514.6490, 266.1559
516.5775, 265.5824
518.5059, 264.1524
520.4344, 262.9719
522.3629, 261.3909
524.2913, 260.5968
526.2198, 261.6516
528.1483, 264.5118
530.0767, 266.1682
532.0052, 264.6694
533.9337, 262.8056
535.8621, 263.1616
537.7906, 266.9721
539.7191, 269.9223
541.6475, 270.3922
543.5760, 269.5674
545.5045, 269.5041
547.4329, 270.8798
549.3614, 272.3100
551.2899, 273.5733
553.2183, 274.6191
555.1468, 275.1755
557.0753, 274.8520
559.0037, 274.4313
560.9322, 274.3866
562.8607, 274.8849
564.7891, 275.4107
566.7176, 275.6559
568.6461, 276.0258
570.5745, 277.1766
572.5030, 279.3853
574.4315, 281.5554
576.3599, 283.3747
578.2884, 284.8849
580.2169, 286.1733
582.1453, 287.0082
584.0738, 287.8026
586.0023, 288.5219
587.9307, 289.1672
589.8592, 290.3020
591.7877, 292.4729
593.7161, 294.7357
595.6447, 296.4923
597.5731, 297.5605
599.5016, 298.4520
601.4301, 299.0777
603.3585, 299.6492
605.2870, 300.4484
607.2155, 301.5000
609.1439, 302.7650
611.0724, 304.4342
613.0009, 306.3498
614.9293, 307.7881
616.8578, 308.1526
618.7863, 308.5562
620.7147, 309.4533
622.6432, 310.7600
624.5717, 311.8481
626.5001, 312.3937
628.4286, 312.9984
630.3571, 314.0424
632.2855, 315.8637
634.2140, 317.5910
636.1425, 319.3219
638.0709, 320.9451
639.9994, 322.1754
641.9279, 322.6992
643.8563, 323.7962
645.7848, 326.4665
647.7133, 329.7873
649.6417, 331.8672
651.5702, 331.3395
653.4987, 331.0191
655.4271, 331.7010
657.3556, 333.0812
659.2841, 334.0912
661.2125, 334.6429
663.1410, 334.9409
665.0695, 334.9167
666.9979, 334.4409
668.9264, 334.8502
670.8549, 336.5682
672.7833, 338.7513
674.7118, 340.9181
676.6403, 343.0328
678.5687, 345.2627
680.4972, 347.3164
682.4257, 349.6515
684.3541, 352.6746
686.2826, 357.5565
688.2111, 361.4930
690.1395, 363.9821
692.0680, 365.6447
693.9965, 367.1952
695.9249, 368.1938
697.8534, 370.2554
699.7819, 374.2659
701.7103, 379.6226
703.6388, 384.8192
705.5673, 387.9933
707.4957, 393.0683
709.4242, 402.1548
711.3527, 414.1488
713.2811, 425.0358
715.2096, 434.4369
717.1381, 442.8590
719.0665, 450.4731
720.9950, 457.1921
722.9235, 463.7304
724.8519, 471.5267
726.7804, 477.9883
728.7089, 481.7995
730.6373, 483.1558
732.5658, 482.2468
734.4943, 476.7469
736.4227, 471.0026
738.3512, 467.1436
740.2797, 464.2531
742.2081, 465.9540
744.1366, 475.2008
746.0651, 486.7489
747.9935, 497.7278
749.9220, 509.3117
751.8505, 513.8476
753.7789, 506.8067
755.7074, 493.0835
757.6359, 476.4580
759.5643, 454.0162
761.4928, 433.4396
763.4213, 414.5547
765.3497, 398.0627
767.2782, 385.2180
769.2067, 376.3387
771.1351, 369.3319
773.0636, 364.0348
774.9921, 360.1685
776.9205, 357.5521
778.8490, 357.1048
780.7775, 356.7220
782.7059, 356.0279
784.6344, 355.1671
786.5629, 354.4748
788.4913, 353.8218
790.4198, 353.5439
792.3483, 354.0202
794.2767, 355.0070
796.2052, 355.8466
798.1337, 356.0825
800.0621, 356.8476
801.9906, 358.7235
803.9191, 361.3824
805.8475, 363.5190
807.7760, 364.8685
809.7045, 366.0486
811.6329, 367.2497
813.5614, 368.4048
815.4899, 369.3515
817.4183, 369.7917
819.3468, 370.3448
821.2753, 371.2736
823.2037, 372.5259
825.1322, 373.6573
827.0607, 374.6288
828.9891, 375.6386
830.9176, 376.8706
832.8461, 378.2777
834.7745, 379.6042
836.7030, 380.4704
838.6315, 381.8182
840.5599, 384.2096
842.4884, 387.4708
844.4169, 390.1927
846.3453, 391.6241
848.2738, 393.2286
850.2023, 395.6777
852.1307, 398.6034
854.0592, 401.0350
855.9877, 402.7068
857.9161, 404.0896
859.8446, 405.3548
861.7731, 406.5150
863.7015, 407.5527
865.6300, 408.4221
867.5585, 409.2930
869.4869, 410.5786
871.4154, 411.9379
873.3439, 412.2895
875.2723, 410.9850
877.2008, 409.8628
879.1293, 409.4716
881.0577, 409.7901
882.9862, 410.7311
884.9147, 413.4182
886.8431, 415.4450
888.7716, 415.8233
890.7001, 415.1563
892.6285, 415.1601
894.5570, 415.9044
896.4855, 417.0532
898.4139, 418.5421
900.3424, 420.3245
902.2709, 422.4265
904.1993, 425.7022
906.1278, 427.9292
908.0563, 427.8111
909.9847, 426.5663
911.9132, 426.8119
913.8417, 429.2034
915.7701, 431.1074
917.6986, 431.3695
919.6271, 431.0536
921.5555, 431.4442
923.4840, 432.7978
925.4125, 434.4132
927.3410, 436.5021
929.2695, 438.7353
931.1979, 440.7644
933.1264, 442.6828
935.0549, 444.2021
936.9833, 444.7709
938.9118, 445.1560
940.8403, 445.9026
942.7687, 446.9344
944.6972, 448.2950
946.6257, 450.9251
948.5541, 453.0502
950.4826, 453.3904
952.4111, 451.3337
954.3395, 450.1813
956.2680, 450.9306
958.1965, 451.6731
960.1249, 451.3280
962.0534, 449.9521
963.9819, 448.3484
965.9103, 445.8017
967.8388, 443.9620
969.7673, 444.1348
971.6957, 445.8790
973.6242, 446.2672
975.5527, 444.0907
977.4811, 441.9612
979.4096, 440.6953
981.3381, 440.0374
983.2665, 439.0009
985.1950, 437.3242
987.1235, 435.9549
989.0519, 435.1599
990.9804, 434.7728
992.9089, 434.5688
994.8373, 434.5262
996.7658, 434.4939
998.6943, 434.4813
1000.623, 434.3455
1002.551, 433.9349
1004.480, 433.0568
1006.408, 432.4000
1008.337, 431.8339
1010.265, 431.6678
1012.194, 431.9649
1014.122, 432.7470
1016.050, 434.7509
1017.979, 437.9839
1019.907, 442.6694
1021.836, 446.6418
1023.764, 450.4110
1025.693, 463.2587
1027.621, 481.4869
1029.550, 513.7988
1031.478, 567.9500
1033.407, 637.7922
1035.335, 708.9188
1037.264, 790.7980
1039.192, 853.7245
1041.120, 887.1024
1043.049, 898.3120
1044.977, 891.8677
1046.906, 862.3507
1048.834, 843.2390
1050.763, 830.6352
1052.691, 839.1151
1054.620, 878.6988
1056.548, 951.0964
1058.477, 1051.027
1060.405, 1182.720
1062.334, 1334.561
1064.262, 1499.002
1066.191, 1680.296
1068.119, 1902.361
1070.047, 2215.389
1071.976, 2471.465
1073.904, 2649.522
1075.833, 2725.384
1077.761, 2626.743
1079.690, 2257.840
1081.618, 1921.582
1083.547, 1641.996
1085.475, 1421.091
1087.404, 1263.490
1089.332, 1176.808
1091.261, 1138.728
1093.189, 1175.250
1095.118, 1236.407
1097.046, 1329.017
1098.975, 1431.861
1100.903, 1451.816
1102.832, 1351.618
1104.760, 1220.775
1106.688, 1071.109
1108.617, 918.1010
1110.545, 792.1290
1112.474, 700.4777
1114.402, 625.4352
1116.331, 568.7655
1118.259, 525.3817
1120.188, 492.6251
1122.116, 471.0674
1124.045, 453.9567
1125.973, 442.0941
1127.902, 433.2042
1129.830, 426.8432
1131.759, 422.4825
1133.687, 418.8791
1135.615, 416.1055
1137.544, 413.8092
1139.472, 411.9834
1141.401, 410.5245
1143.329, 409.3224
1145.258, 408.6886
1147.186, 407.7981
1149.115, 406.1484
1151.043, 404.6855
1152.972, 404.1359
1154.900, 404.4088
1156.829, 404.5812
1158.757, 404.6845
1160.686, 404.5463
1162.614, 404.0314
1164.542, 403.2784
1166.471, 402.3960
1168.399, 401.2172
1170.328, 400.5861
1172.256, 401.0346
1174.185, 401.7918
1176.113, 402.4691
1178.042, 403.1570
1179.970, 402.8944
1181.899, 400.3133
1183.827, 398.3487
1185.756, 398.5305
1187.684, 399.9821
1189.613, 400.4539
1191.541, 399.6256
1193.469, 399.1243
1195.398, 399.8964
1197.326, 400.8069
1199.255, 400.8343
1201.183, 399.9604
1203.112, 399.4717
1205.040, 399.7003
1206.969, 399.9852
1208.897, 399.9645
1210.826, 399.7894
1212.754, 399.9277
1214.683, 401.5617
1216.611, 401.8778
1218.540, 399.3393
1220.468, 396.7099
1222.396, 396.5053
1224.325, 398.6450
1226.253, 400.9373
1228.182, 403.8859
1230.110, 405.8939
1232.039, 405.3782
1233.967, 403.6270
1235.896, 402.6634
1237.824, 402.5317
1239.753, 402.8267
1241.681, 404.2270
1243.610, 405.3438
1245.538, 405.1364
1247.467, 403.6619
1249.395, 402.9907
1251.323, 404.3030
1253.252, 405.0284
1255.180, 404.3190
1257.109, 402.9818
1259.037, 402.0317
1260.966, 401.4366
1262.894, 401.2268
1264.823, 401.4718
1266.751, 401.9685
1268.680, 402.7076
1270.608, 403.6000
1272.537, 404.5346
1274.465, 405.6652
1276.394, 406.3781
1278.322, 406.5284
1280.250, 406.2106
1282.179, 405.1761
1284.107, 403.2339
1286.036, 402.4663
1287.964, 403.6581
1289.893, 405.0938
1291.821, 406.6368
1293.750, 408.0589
1295.678, 408.9130
1297.607, 408.8777
1299.535, 409.1609
1301.464, 410.5824
1303.392, 411.5137
1305.321, 410.8415
1307.249, 409.0533
1309.177, 407.3990
1311.106, 405.7501
1313.034, 404.8771
1314.963, 405.6396
1316.891, 406.7122
1318.820, 407.2379
1320.748, 407.2452
1322.677, 406.8922
1324.605, 405.7122
1326.534, 405.0091
1328.462, 405.6103
1330.391, 406.4763
1332.319, 406.2937
1334.248, 404.6073
1336.176, 403.6664
1338.104, 404.2151
1340.033, 404.6058
1341.961, 403.9219
1343.890, 402.8686
1345.818, 402.9624
1347.747, 404.5425
1349.675, 405.6088
1351.604, 405.4722
1353.532, 405.1545
1355.461, 404.7074
1357.389, 404.4826
1359.318, 405.6553
1361.246, 408.8141
1363.175, 410.9973
1365.103, 410.4203
1367.031, 409.8799
1368.960, 411.0913
1370.888, 413.8737
1372.817, 417.2028
1374.745, 421.7923
1376.674, 425.1860
1378.602, 426.2780
1380.531, 426.4675
1382.459, 426.8682
1384.388, 427.4887
1386.316, 427.3581
1388.245, 426.4880
1390.173, 424.9679
1392.102, 422.1510
1394.030, 419.2101
1395.958, 417.1451
1397.887, 415.9956
1399.815, 415.8884
1401.744, 418.4448
1403.672, 419.4331
1405.601, 416.3400
1407.529, 411.8976
1409.458, 408.9840
1411.386, 407.5390
1413.315, 407.0732
1415.243, 408.1301
1417.172, 409.0562
1419.100, 409.0056
1421.029, 408.5395
1422.957, 408.1916
1424.885, 407.9316
1426.814, 407.8173
1428.742, 407.6114
1430.671, 407.9525
1432.599, 409.2928
1434.528, 411.1447
1436.456, 413.0524
1438.385, 415.1927
1440.313, 416.5627
1442.242, 416.3716
1444.170, 416.3633
1446.099, 416.9242
1448.027, 417.8883
1449.956, 419.1002
1451.884, 420.6142
1453.813, 422.1078
1455.741, 423.4305
1457.669, 424.9600
1459.598, 426.8569
1461.526, 428.9970
1463.455, 431.2368
1465.383, 433.5778
1467.312, 436.0230
1469.240, 438.5724
1471.169, 441.1654
1473.097, 443.6055
1475.026, 446.1593
1476.954, 449.2821
1478.883, 452.8775
1480.811, 456.0457
1482.740, 458.5172
1484.668, 461.1619
1486.596, 463.8295
1488.525, 467.3208
1490.453, 472.6110
1492.382, 479.4170
1494.310, 485.9528
1496.239, 492.2716
1498.167, 497.5050
1500.096, 500.3773
1502.024, 502.6942
1503.953, 505.6278
1505.881, 509.0637
1507.810, 512.1923
1509.738, 514.8100
1511.667, 517.9901
1513.595, 522.0068
1515.523, 526.8013
1517.452, 532.9764
1519.380, 539.9650
1521.309, 545.7302
1523.237, 550.0842
1525.166, 553.3143
1527.094, 555.2150
1529.023, 556.1164
1530.951, 556.2679
1532.880, 555.4756
1534.808, 553.0706
1536.737, 548.2301
1538.665, 544.9875
1540.594, 543.6154
1542.522, 543.4977
1544.450, 545.0928
1546.379, 547.4522
1548.307, 549.4196
1550.236, 550.9512
1552.164, 552.7797
1554.093, 554.6984
1556.021, 557.1970
1557.950, 560.2049
1559.878, 563.9594
1561.807, 568.7684
1563.735, 574.5155
1565.664, 580.5693
1567.592, 586.7332
1569.521, 594.0258
1571.449, 603.7772
1573.377, 613.4425
1575.306, 623.1492
1577.234, 631.2512
1579.163, 634.7207
1581.091, 633.4590
1583.020, 631.1235
1584.948, 628.3985
1586.877, 624.3244
1588.805, 618.3936
1590.734, 611.0244
1592.662, 601.7662
1594.591, 591.2205
1596.519, 583.0439
1598.448, 578.0265
1600.376, 573.3467
1602.304, 567.5755
1604.233, 562.5691
1606.161, 559.4349
1608.090, 557.7666
1610.018, 556.7740
1611.947, 556.4821
1613.875, 556.6376
1615.804, 557.4912
1617.732, 558.5342
1619.661, 559.2485
1621.589, 560.4587
1623.518, 563.5361
1625.446, 568.2568
1627.375, 571.3320
1629.303, 571.5159
1631.231, 572.8644
1633.160, 577.0571
1635.088, 581.6133
1637.017, 585.0292
1638.945, 587.8820
1640.874, 591.9020
1642.802, 597.5836
1644.731, 601.2405
1646.659, 600.5264
1648.588, 601.3412
1650.516, 606.1329
1652.445, 612.4446
1654.373, 618.4755
1656.302, 624.1720
1658.230, 629.3062
1660.158, 633.5532
1662.087, 637.9381
1664.015, 642.1861
1665.944, 647.0527
1667.872, 653.6571
1669.801, 660.5797
1671.729, 665.6135
1673.658, 668.5355
1675.586, 672.8950
1677.515, 679.8925
1679.443, 686.1259
1681.372, 689.3592
1683.300, 693.6002
1685.229, 701.5145
1687.157, 711.8362
1689.085, 721.6420
1691.014, 730.4185
1692.942, 740.8757
1694.871, 753.2785
1696.799, 766.9186
1698.728, 782.6042
1700.656, 798.5150
1702.585, 812.7418
1704.513, 826.3008
1706.442, 842.1287
1708.370, 860.1926
1710.299, 881.1357
1712.227, 906.3270
1714.156, 932.6572
1716.084, 959.7318
1718.012, 987.1935
1719.941, 1014.446
1721.869, 1041.671
1723.798, 1070.662
1725.726, 1102.063
1727.655, 1132.887
1729.583, 1161.691
1731.512, 1191.758
1733.440, 1224.586
1735.369, 1258.665
1737.297, 1292.573
1739.226, 1326.622
1741.154, 1362.839
1743.083, 1403.894
1745.011, 1437.539
1746.939, 1460.878
1748.868, 1478.596
1750.797, 1492.340
1752.725, 1500.754
1754.653, 1502.031
1756.582, 1496.579
1758.510, 1486.842
1760.439, 1472.276
1762.367, 1455.852
1764.296, 1435.985
1766.224, 1417.794
1768.153, 1402.144
1770.081, 1389.762
1772.010, 1380.920
1773.938, 1375.869
1775.867, 1375.727
1777.795, 1380.794
1779.724, 1388.102
1781.652, 1396.025
1783.580, 1408.521
1785.509, 1428.743
1787.437, 1452.088
1789.366, 1475.988
1791.294, 1500.363
1793.223, 1525.235
1795.151, 1550.524
1797.080, 1576.563
1799.008, 1603.453
1800.937, 1631.326
1802.865, 1662.210
1804.794, 1692.101
1806.722, 1718.663
1808.651, 1742.535
1810.579, 1763.635
1812.507, 1782.206
1814.436, 1800.977
1816.364, 1820.112
1818.293, 1838.880
1820.221, 1858.807
1822.150, 1875.596
1824.078, 1886.267
1826.007, 1893.460
1827.935, 1899.869
1829.864, 1905.597
1831.792, 1910.377
1833.721, 1914.126
1835.649, 1918.307
1837.578, 1923.699
1839.506, 1928.503
1841.434, 1932.483
1843.363, 1934.998
1845.291, 1934.044
1847.220, 1931.500
1849.148, 1932.295
1851.077, 1936.977
1853.005, 1940.037
1854.934, 1940.912
1856.862, 1941.304
1858.791, 1939.991
1860.719, 1940.125
1862.648, 1944.904
1864.576, 1950.747
1866.505, 1952.934
1868.433, 1952.082
1870.361, 1952.387
1872.290, 1955.011
1874.218, 1956.007
1876.147, 1953.855
1878.075, 1952.434
1880.004, 1955.613
1881.932, 1956.572
1883.861, 1949.826
1885.789, 1938.450
1887.718, 1928.267
1889.646, 1919.117
1891.575, 1905.101
1893.503, 1885.318
1895.432, 1862.593
1897.360, 1837.046
1899.288, 1809.293
1901.217, 1778.933
1903.145, 1747.658
1905.074, 1716.376
1907.002, 1685.630
1908.931, 1655.913
1910.859, 1627.365
1912.788, 1602.869
1914.716, 1583.164
1916.645, 1563.919
1918.573, 1543.295
1920.502, 1523.665
1922.430, 1504.580
1924.359, 1488.187
1926.287, 1477.440
1928.215, 1470.766
1930.144, 1464.459
1932.072, 1458.620
1934.001, 1453.051
1935.929, 1446.553
1937.858, 1443.128
1939.786, 1443.163
1941.715, 1446.481
1943.643, 1453.943
1945.572, 1463.715
1947.500, 1474.187
1949.429, 1485.652
1951.357, 1499.079
1953.286, 1514.534
1955.214, 1530.654
1957.142, 1547.066
1959.071, 1565.023
1960.999, 1583.525
1962.928, 1605.421
1964.856, 1632.222
1966.785, 1662.223
1968.713, 1694.767
1970.642, 1729.499
1972.570, 1764.874
1974.499, 1801.439
1976.427, 1844.703
1978.356, 1895.791
1980.284, 1946.652
1982.213, 1995.163
1984.141, 2045.127
1986.069, 2098.039
1987.998, 2152.558
1989.926, 2209.728
1991.855, 2266.553
1993.783, 2318.574
1995.712, 2366.742
1997.640, 2415.714
1999.569, 2466.738
2001.497, 2512.755
2003.426, 2552.323
2005.354, 2589.089
2007.283, 2627.791
2009.211, 2657.646
2011.140, 2671.102
2013.068, 2677.288
2014.996, 2685.117
2016.925, 2690.857
2018.853, 2686.806
2020.782, 2673.234
2022.710, 2653.815
2024.639, 2628.354
2026.567, 2599.247
2028.496, 2567.016
2030.424, 2530.308
2032.353, 2486.688
2034.281, 2441.244
2036.210, 2396.781
2038.138, 2351.669
2040.067, 2302.966
2041.995, 2252.653
2043.923, 2205.916
2045.852, 2162.578
2047.780, 2118.105
2049.709, 2070.762
2051.637, 2026.521
2053.566, 1986.697
2055.494, 1948.747
2057.423, 1912.380
2059.351, 1877.755
2061.280, 1845.950
2063.208, 1815.613
2065.136, 1784.964
2067.065, 1755.024
2068.993, 1727.710
2070.922, 1703.065
2072.850, 1683.064
2074.779, 1668.262
2076.708, 1652.619
2078.636, 1634.188
2080.564, 1616.401
2082.493, 1600.128
2084.421, 1584.938
2086.350, 1570.650
2088.278, 1557.732
2090.207, 1547.346
2092.135, 1538.758
2094.064, 1530.380
2095.992, 1522.275
2097.921, 1514.052
2099.849, 1504.898
2101.778, 1497.567
2103.706, 1492.595
2105.635, 1487.906
2107.563, 1482.963
2109.491, 1478.623
2111.420, 1476.724
2113.348, 1474.147
2115.277, 1468.164
2117.205, 1461.133
2119.134, 1455.515
2121.062, 1451.366
2122.991, 1449.422
2124.919, 1449.395
2126.848, 1447.615
2128.776, 1443.474
2130.705, 1438.493
2132.633, 1432.700
2134.562, 1426.123
2136.490, 1418.880
2138.418, 1410.775
2140.347, 1401.108
2142.275, 1391.383
2144.204, 1382.825
2146.132, 1375.123
2148.061, 1368.415
2149.989, 1362.222
2151.918, 1353.689
2153.846, 1342.948
2155.775, 1334.232
2157.703, 1328.014
2159.632, 1322.090
2161.560, 1316.163
2163.489, 1309.942
2165.417, 1303.002
2167.345, 1295.986
2169.274, 1289.103
2171.202, 1282.370
2173.131, 1275.455
2175.059, 1269.169
2176.988, 1265.047
2178.916, 1262.543
2180.845, 1259.886
2182.773, 1257.098
2184.702, 1252.892
2186.630, 1246.837
2188.559, 1242.719
2190.487, 1241.204
2192.416, 1240.072
2194.344, 1237.969
2196.272, 1237.632
2198.201, 1242.570
2200.129, 1246.501
2202.058, 1244.976
2203.986, 1241.821
2205.915, 1240.309
2207.843, 1239.908
2209.772, 1239.629
2211.700, 1239.622
2213.629, 1240.942
2215.557, 1243.648
2217.486, 1244.754
2219.414, 1243.814
2221.343, 1244.925
2223.271, 1249.456
2225.199, 1252.949
2227.128, 1253.226
2229.056, 1254.090
2230.985, 1257.179
2232.913, 1260.774
2234.842, 1264.448
2236.770, 1267.691
2238.699, 1269.597
2240.627, 1271.166
2242.556, 1274.261
2244.484, 1278.287
2246.413, 1281.093
2248.341, 1282.717
2250.270, 1283.648
2252.198, 1283.783
2254.126, 1285.168
2256.055, 1288.240
2257.983, 1291.290
2259.912, 1294.500
2261.840, 1296.544
2263.769, 1297.062
2265.697, 1296.304
2267.626, 1293.162
2269.554, 1290.252
2271.483, 1289.275
2273.411, 1289.533
2275.340, 1291.567
2277.268, 1293.822
2279.197, 1293.118
2281.125, 1290.596
2283.053, 1289.645
2284.982, 1289.905
2286.910, 1287.793
2288.839, 1282.354
2290.767, 1279.655
2292.696, 1282.698
2294.624, 1282.465
2296.553, 1276.244
2298.481, 1270.996
2300.410, 1268.130
2302.338, 1265.703
2304.267, 1265.130
2306.195, 1262.169
2308.124, 1252.498
2310.052, 1242.096
2311.980, 1234.056
2313.909, 1229.033
2315.837, 1230.557
2317.766, 1234.143
2319.694, 1229.753
2321.623, 1219.390
2323.551, 1212.147
2325.480, 1208.007
2327.408, 1206.054
2329.337, 1206.777
2331.265, 1200.568
2333.194, 1185.265
2335.122, 1173.167
2337.051, 1166.939
2338.979, 1161.941
2340.907, 1158.362
2342.836, 1154.199
2344.764, 1148.265
2346.693, 1142.757
2348.621, 1138.158
2350.550, 1134.641
2352.478, 1132.396
2354.407, 1130.780
2356.335, 1129.591
2358.264, 1128.188
2360.192, 1126.012
2362.121, 1123.171
2364.049, 1119.304
2365.978, 1115.209
2367.906, 1113.479
2369.834, 1114.219
2371.763, 1116.347
2373.691, 1120.129
2375.620, 1122.754
2377.548, 1123.251
2379.477, 1127.913
2381.405, 1138.370
2383.334, 1147.208
2385.262, 1151.713
2387.191, 1157.953
2389.119, 1168.024
2391.048, 1179.638
2392.976, 1193.806
2394.905, 1207.257
2396.833, 1216.635
2398.761, 1227.259
2400.690, 1243.441
2402.618, 1260.841
2404.547, 1276.848
2406.475, 1291.293
2408.404, 1304.225
2410.332, 1315.303
2412.261, 1323.762
2414.189, 1330.081
2416.118, 1335.841
2418.046, 1340.679
2419.975, 1341.729
2421.903, 1339.216
2423.832, 1336.683
2425.760, 1334.226
2427.688, 1335.840
2429.617, 1342.195
2431.545, 1347.019
2433.474, 1348.435
2435.402, 1352.056
2437.331, 1360.870
2439.259, 1367.639
2441.188, 1368.914
2443.116, 1374.206
2445.045, 1387.284
2446.973, 1400.556
2448.902, 1410.675
2450.830, 1421.684
2452.759, 1435.724
2454.687, 1450.674
2456.615, 1465.891
2458.544, 1480.866
2460.472, 1494.432
2462.401, 1508.727
2464.329, 1526.736
2466.258, 1545.938
2468.186, 1562.547
2470.115, 1578.861
2472.043, 1597.418
2473.972, 1618.187
2475.900, 1642.623
2477.829, 1668.905
2479.757, 1690.641
2481.686, 1708.770
2483.614, 1730.239
2485.542, 1755.035
2487.471, 1781.011
2489.399, 1808.315
2491.328, 1835.557
2493.256, 1862.495
2495.185, 1893.809
2497.113, 1931.147
2499.042, 1968.307
2500.970, 2005.252
2502.899, 2040.894
2504.827, 2074.900
2506.756, 2107.606
2508.684, 2139.357
2510.613, 2168.705
2512.541, 2193.558
2514.469, 2220.375
2516.398, 2250.621
2518.326, 2284.107
2520.255, 2322.261
2522.183, 2361.831
2524.112, 2399.035
2526.040, 2441.284
2527.969, 2490.791
2529.897, 2547.289
2531.826, 2613.297
2533.754, 2682.839
2535.683, 2749.710
2537.611, 2821.810
2539.540, 2907.636
2541.468, 3000.123
2543.396, 3094.442
2545.325, 3190.346
2547.253, 3288.667
2549.182, 3386.634
2551.110, 3480.981
2553.039, 3572.335
2554.967, 3662.520
2556.896, 3750.428
2558.824, 3835.345
2560.753, 3916.261
2562.681, 3988.416
2564.610, 4054.790
2566.538, 4122.140
2568.467, 4190.626
2570.395, 4260.625
2572.323, 4332.069
2574.252, 4406.704
2576.180, 4484.323
2578.109, 4565.390
2580.037, 4650.205
2581.966, 4738.395
2583.894, 4830.319
2585.823, 4923.326
2587.751, 5017.402
2589.680, 5120.203
2591.608, 5234.308
2593.537, 5341.333
2595.465, 5440.455
2597.394, 5533.927
2599.322, 5621.702
2601.250, 5700.533
2603.179, 5770.853
2605.107, 5825.838
2607.036, 5865.363
2608.964, 5888.090
2610.893, 5892.888
2612.821, 5886.714
2614.750, 5870.457
2616.678, 5843.181
2618.607, 5805.616
2620.535, 5752.762
2622.464, 5680.690
2624.392, 5599.665
2626.321, 5512.307
2628.249, 5412.625
2630.177, 5300.722
2632.106, 5175.216
2634.034, 5034.058
2635.963, 4886.892
2637.891, 4735.521
2639.820, 4580.618
2641.748, 4420.763
2643.677, 4259.931
2645.605, 4095.607
2647.534, 3937.334
2649.462, 3786.838
2651.391, 3641.569
2653.319, 3499.575
2655.248, 3362.994
2657.176, 3231.509
2659.104, 3106.879
2661.033, 2990.087
2662.961, 2880.600
2664.890, 2779.204
2666.818, 2683.821
2668.747, 2594.098
2670.675, 2510.379
2672.604, 2432.495
2674.532, 2360.969
2676.461, 2296.987
2678.389, 2237.949
2680.318, 2182.635
2682.246, 2131.951
2684.175, 2087.255
2686.103, 2044.563
2688.031, 2002.099
2689.960, 1961.516
2691.888, 1923.790
2693.817, 1887.915
2695.745, 1853.653
2697.674, 1821.566
2699.602, 1791.024
2701.531, 1764.503
2703.459, 1745.842
2705.388, 1726.980
2707.316, 1703.948
2709.245, 1681.231
2711.173, 1659.557
2713.102, 1639.358
2715.030, 1620.338
2716.958, 1603.567
2718.887, 1590.734
2720.815, 1578.284
2722.744, 1565.629
2724.672, 1552.385
2726.601, 1537.550
2728.529, 1524.576
2730.458, 1516.309
2732.386, 1506.686
2734.315, 1491.396
2736.243, 1477.703
2738.172, 1468.533
2740.100, 1459.332
2742.029, 1448.864
2743.957, 1438.999
2745.885, 1431.148
2747.814, 1422.462
2749.742, 1411.517
2751.671, 1401.032
2753.599, 1391.861
2755.528, 1382.321
2757.456, 1371.240
2759.385, 1362.191
2761.313, 1356.679
2763.242, 1351.121
2765.170, 1345.985
2767.099, 1337.651
2769.027, 1323.875
2770.956, 1313.510
2772.884, 1308.816
2774.813, 1303.560
2776.741, 1297.339
2778.669, 1288.848
2780.598, 1276.577
2782.526, 1266.345
2784.455, 1258.311
2786.383, 1253.790
2788.312, 1253.630
2790.240, 1249.732
2792.169, 1239.250
2794.097, 1231.728
2796.026, 1227.725
2797.954, 1222.414
2799.883, 1215.689
2801.811, 1209.795
2803.740, 1204.997
2805.668, 1200.573
2807.596, 1196.576
2809.525, 1193.072
2811.453, 1189.998
2813.382, 1185.618
2815.310, 1180.393
2817.239, 1177.760
2819.167, 1177.198
2821.096, 1175.656
2823.024, 1173.402
2824.953, 1171.590
2826.881, 1170.088
2828.810, 1169.100
2830.738, 1167.782
2832.667, 1163.476
2834.595, 1158.046
2836.523, 1155.256
2838.452, 1154.219
2840.380, 1154.372
2842.309, 1154.464
2844.237, 1152.477
2846.166, 1149.912
2848.094, 1148.190
2850.023, 1147.056
2851.951, 1146.501
2853.880, 1146.011
2855.808, 1145.731
2857.737, 1144.671
2859.665, 1140.944
2861.594, 1138.036
2863.522, 1138.680
2865.450, 1139.922
2867.379, 1141.020
2869.307, 1141.336
2871.236, 1139.755
2873.164, 1138.569
2875.093, 1138.906
2877.021, 1138.854
2878.950, 1137.662
2880.878, 1137.472
2882.807, 1139.698
2884.735, 1140.088
2886.664, 1135.938
2888.592, 1134.096
2890.521, 1135.456
2892.449, 1134.761
2894.377, 1131.363
2896.306, 1129.312
2898.234, 1129.220
2900.163, 1127.982
2902.091, 1125.587
2904.020, 1123.423
2905.948, 1121.353
2907.877, 1118.290
2909.805, 1114.349
2911.734, 1109.266
2913.662, 1104.004
2915.591, 1102.612
2917.519, 1102.503
2919.448, 1098.126
2921.376, 1091.797
2923.304, 1086.228
2925.233, 1081.156
2927.161, 1076.622
2929.090, 1072.062
2931.018, 1066.388
2932.947, 1061.449
2934.875, 1060.028
2936.804, 1057.571
2938.732, 1050.380
2940.661, 1043.466
2942.589, 1038.637
2944.518, 1034.042
2946.446, 1028.666
2948.375, 1024.348
2950.303, 1022.307
2952.231, 1019.269
2954.160, 1014.701
2956.088, 1010.643
2958.017, 1007.326
2959.945, 1004.134
2961.874, 1000.914
2963.802, 998.3552
2965.731, 996.3577
2967.659, 993.5571
2969.588, 990.1594
2971.516, 986.1894
2973.445, 982.8185
2975.373, 984.3498
2977.302, 988.3714
2979.230, 990.9002
2981.158, 992.1403
2983.087, 991.6413
2985.015, 990.7924
2986.944, 991.1637
2988.872, 991.6544
2990.801, 990.8293
2992.729, 991.3867
2994.658, 996.1547
2996.586, 1000.224
2998.515, 1001.429
3000.443, 1002.551
3002.372, 1004.302
3004.300, 1004.764
3006.229, 1001.973
3008.157, 1003.229
3010.085, 1009.577
3012.014, 1015.158
3013.942, 1019.768
3015.871, 1021.754
3017.799, 1021.919
3019.728, 1026.980
3021.656, 1035.085
3023.585, 1039.613
3025.513, 1042.359
3027.442, 1045.536
3029.370, 1049.882
3031.299, 1057.664
3033.227, 1065.274
3035.156, 1068.514
3037.084, 1072.217
3039.012, 1079.817
3040.941, 1087.659
3042.869, 1094.564
3044.798, 1101.074
3046.726, 1107.337
3048.655, 1113.002
3050.583, 1117.139
3052.512, 1124.136
3054.440, 1134.727
3056.369, 1144.468
3058.297, 1153.345
3060.226, 1161.548
3062.154, 1169.448
3064.083, 1178.698
3066.011, 1188.608
3067.939, 1197.209
3069.868, 1205.542
3071.796, 1214.939
3073.725, 1224.753
3075.653, 1234.469
3077.582, 1244.490
3079.510, 1255.111
3081.439, 1266.303
3083.367, 1277.735
3085.296, 1290.816
3087.224, 1307.150
3089.153, 1320.264
3091.081, 1328.846
3093.010, 1340.873
3094.938, 1357.354
3096.866, 1372.460
3098.795, 1386.366
3100.723, 1400.266
3102.652, 1414.416
3104.580, 1429.668
3106.509, 1445.263
3108.437, 1459.303
3110.366, 1474.041
3112.294, 1492.075
3114.223, 1510.545
3116.151, 1526.830
3118.080, 1545.201
3120.008, 1568.037
3121.937, 1590.394
3123.865, 1610.412
3125.793, 1635.032
3127.722, 1667.190
3129.650, 1693.153
3131.579, 1713.429
3133.507, 1735.843
3135.436, 1759.311
3137.364, 1778.113
3139.293, 1796.407
3141.221, 1822.088
3143.150, 1851.966
3145.078, 1884.121
3147.007, 1916.912
3148.935, 1949.598
3150.864, 1981.250
3152.792, 2010.746
3154.720, 2040.995
3156.649, 2071.305
3158.577, 2107.267
3160.506, 2149.786
3162.434, 2192.326
3164.363, 2235.101
3166.291, 2281.047
3168.220, 2328.331
3170.148, 2368.509
3172.077, 2408.248
3174.005, 2458.161
3175.934, 2511.363
3177.862, 2562.837
3179.791, 2614.440
3181.719, 2666.431
3183.647, 2720.777
3185.576, 2779.140
3187.504, 2836.006
3189.433, 2889.105
3191.361, 2944.492
3193.290, 3001.695
3195.218, 3060.774
3197.147, 3119.261
3199.075, 3168.226
3201.004, 3212.366
3202.932, 3258.130
3204.861, 3305.668
3206.789, 3356.538
3208.718, 3407.343
3210.646, 3454.983
3212.574, 3504.081
3214.503, 3555.804
3216.431, 3605.710
3218.360, 3652.618
3220.288, 3698.082
3222.217, 3741.805
3224.145, 3779.423
3226.074, 3813.823
3228.002, 3853.128
3229.931, 3893.026
3231.859, 3925.543
3233.788, 3957.982
3235.716, 3997.018
3237.645, 4034.504
3239.573, 4067.256
3241.501, 4097.999
3243.430, 4126.660
3245.358, 4156.356
3247.287, 4187.506
3249.215, 4216.229
3251.144, 4241.407
3253.072, 4256.215
3255.001, 4267.723
3256.929, 4291.107
3258.858, 4312.489
3260.786, 4320.438
3262.715, 4323.553
3264.643, 4323.578
3266.572, 4324.094
3268.500, 4326.217
3270.428, 4325.743
3272.357, 4322.167
3274.285, 4308.505
3276.214, 4288.477
3278.142, 4283.987
3280.071, 4283.683
3281.999, 4269.187
3283.928, 4250.209
3285.856, 4235.442
3287.785, 4219.010
3289.713, 4198.412
3291.642, 4177.851
3293.570, 4158.642
3295.499, 4139.684
3297.427, 4121.039
3299.355, 4105.691
3301.284, 4091.986
3303.212, 4074.485
3305.141, 4056.680
3307.069, 4044.652
3308.998, 4033.158
3310.926, 4018.516
3312.855, 4004.704
3314.783, 3992.560
3316.712, 3984.053
3318.640, 3980.167
3320.569, 3976.056
3322.497, 3971.986
3324.426, 3973.655
3326.354, 3979.221
3328.282, 3984.915
3330.211, 3993.207
3332.139, 4008.326
3334.068, 4024.105
3335.996, 4036.308
3337.925, 4053.945
3339.853, 4078.802
3341.782, 4108.263
3343.710, 4142.095
3345.639, 4177.970
3347.567, 4215.937
3349.496, 4259.670
3351.424, 4301.570
3353.353, 4336.364
3355.281, 4362.399
3357.209, 4377.453
3359.138, 4386.247
3361.066, 4390.333
3362.995, 4384.516
3364.923, 4369.252
3366.852, 4352.299
3368.780, 4334.388
3370.709, 4315.963
3372.637, 4298.524
3374.566, 4287.417
3376.494, 4271.018
3378.423, 4239.919
3380.351, 4213.519
3382.280, 4199.165
3384.208, 4180.027
3386.136, 4156.637
3388.065, 4139.183
3389.993, 4124.435
3391.922, 4102.138
3393.851, 4080.965
3395.779, 4073.767
3397.708, 4061.846
3399.636, 4032.310
3401.564, 4006.647
3403.493, 3987.830
3405.421, 3965.493
3407.350, 3939.747
3409.278, 3917.760
3411.207, 3893.605
3413.135, 3855.170
3415.064, 3813.731
3416.992, 3779.628
3418.921, 3741.688
3420.849, 3694.953
3422.778, 3652.984
3424.706, 3618.103
3426.635, 3577.722
3428.563, 3532.599
3430.491, 3482.695
3432.420, 3434.148
3434.348, 3397.239
3436.277, 3360.615
3438.205, 3319.600
3440.134, 3276.259
3442.062, 3229.477
3443.991, 3190.970
3445.919, 3159.549
3447.848, 3125.660
3449.776, 3091.010
3451.705, 3059.007
3453.633, 3027.909
3455.562, 2996.733
3457.490, 2965.943
3459.418, 2935.052
3461.347, 2910.429
3463.275, 2892.236
3465.204, 2866.772
3467.132, 2837.215
3469.061, 2810.381
3470.989, 2785.451
3472.918, 2760.482
3474.846, 2740.269
3476.775, 2726.990
3478.703, 2711.688
3480.632, 2692.602
3482.560, 2674.743
3484.489, 2657.370
3486.417, 2637.844
3488.345, 2619.030
3490.274, 2603.155
3492.202, 2591.292
3494.131, 2585.429
3496.059, 2575.790
3497.988, 2559.806
3499.916, 2547.673
3501.845, 2537.871
3503.773, 2529.075
3505.702, 2517.442
3507.630, 2497.237
3509.559, 2476.056
3511.487, 2457.220
3513.416, 2437.062
3515.344, 2415.454
3517.272, 2387.554
3519.201, 2356.643
3521.129, 2332.310
3523.058, 2309.967
3524.986, 2285.631
3526.915, 2261.122
3528.843, 2236.298
3530.772, 2213.629
3532.700, 2193.035
3534.629, 2173.555
3536.557, 2153.935
3538.486, 2129.914
3540.414, 2106.814
3542.343, 2090.468
3544.271, 2073.029
3546.199, 2052.566
3548.128, 2030.366
3550.056, 2006.930
3551.985, 1986.747
3553.913, 1967.366
3555.842, 1943.942
3557.770, 1919.877
3559.699, 1898.489
3561.627, 1874.109
3563.556, 1845.607
3565.484, 1818.255
3567.413, 1792.299
3569.341, 1768.816
3571.270, 1745.784
3573.198, 1720.341
3575.126, 1696.051
3577.055, 1675.478
3578.983, 1652.597
3580.912, 1626.839
3582.840, 1609.222
3584.769, 1596.273
3586.697, 1579.376
3588.626, 1561.249
3590.554, 1541.110
3592.483, 1526.682
3594.411, 1520.543
3596.340, 1508.469
3598.268, 1491.043
3600.197, 1478.242
3602.125, 1467.499
3604.053, 1456.757
3605.982, 1444.681
3607.910, 1430.338
3609.839, 1417.293
3611.767, 1406.157
3613.696, 1395.668
3615.624, 1386.014
3617.553, 1378.371
3619.481, 1370.340
3621.410, 1358.551
3623.338, 1350.186
3625.267, 1347.375
3627.195, 1342.216
3629.124, 1335.366
3631.052, 1330.753
3632.980, 1327.765
3634.909, 1326.516
3636.837, 1325.252
3638.766, 1323.056
3640.694, 1323.842
3642.623, 1327.539
3644.551, 1328.821
3646.480, 1330.681
3648.408, 1337.198
3650.337, 1345.849
3652.265, 1355.720
3654.194, 1365.373
3656.122, 1374.489
3658.051, 1385.404
3659.979, 1398.199
3661.907, 1413.978
3663.836, 1429.223
3665.764, 1441.137
3667.693, 1454.518
3669.621, 1470.423
3671.550, 1487.549
3673.478, 1504.095
3675.407, 1514.681
3677.335, 1524.395
3679.264, 1537.729
3681.192, 1548.949
3683.121, 1556.809
3685.049, 1562.855
3686.978, 1567.533
3688.906, 1572.989
3690.834, 1576.119
3692.763, 1573.059
3694.691, 1569.062
3696.620, 1564.917
3698.548, 1562.619
3700.477, 1560.812
3702.405, 1555.083
3704.334, 1545.438
3706.262, 1531.471
3708.191, 1512.754
3710.119, 1488.870
3712.048, 1463.460
3713.976, 1436.428
3715.905, 1405.984
3717.833, 1373.682
3719.761, 1339.873
3721.690, 1307.108
3723.618, 1276.073
3725.547, 1244.874
3727.475, 1214.178
3729.404, 1185.931
3731.332, 1161.020
3733.261, 1141.654
3735.189, 1122.625
3737.118, 1103.002
3739.046, 1084.864
3740.975, 1068.508
3742.903, 1055.412
3744.832, 1042.971
3746.760, 1027.970
3748.688, 1016.313
3750.617, 1008.718
3752.545, 1002.807
3754.474, 997.7070
3756.402, 991.0694
3758.331, 985.8233
3760.259, 985.2443
3762.188, 982.2694
3764.116, 976.4800
3766.045, 972.9474
3767.973, 971.5430
3769.902, 973.7094
3771.830, 975.0366
3773.759, 973.7999
3775.687, 970.2913
3777.615, 965.0292
3779.544, 959.3195
3781.472, 955.4359
3783.401, 957.6003
3785.329, 959.4378
3787.258, 958.5505
3789.186, 956.2446
3791.115, 953.2077
3793.043, 952.5456
3794.972, 951.7836
3796.900, 948.0042
3798.829, 946.4405
3800.757, 949.2725
3802.686, 948.1054
3804.614, 944.7811
3806.542, 943.0645
3808.471, 941.6805
3810.399, 939.8959
3812.328, 937.9549
3814.256, 935.8849
3816.185, 934.2625
3818.113, 933.1031
3820.042, 933.1788
3821.970, 932.2201
3823.899, 929.4606
3825.827, 927.9159
3827.756, 927.3522
3829.684, 926.3638
3831.613, 924.8693
3833.541, 922.2461
3835.469, 920.1763
3837.398, 918.8913
3839.326, 918.1985
3841.255, 917.5452
3843.183, 916.0737
3845.112, 913.9429
3847.040, 910.4407
3848.969, 909.2369
3850.897, 909.7795
3852.826, 908.6486
3854.754, 906.2338
3856.683, 901.4029
3858.611, 900.5291
3860.540, 905.3323
3862.468, 905.7592
3864.396, 903.5053
3866.325, 901.4945
3868.253, 899.5446
3870.182, 897.4338
3872.110, 895.5236
3874.039, 894.2648
3875.967, 897.2611
3877.896, 900.7121
3879.824, 901.1315
3881.753, 901.3867
3883.681, 902.0041
3885.610, 900.7781
3887.538, 899.0739
3889.467, 898.8751
3891.395, 899.5925
3893.323, 901.1318
3895.252, 902.2611
3897.180, 902.9005
3899.109, 902.8846
3901.037, 902.6257
3902.966, 901.4978
3904.894, 903.2048
3906.823, 907.4960
3908.751, 908.3225
3910.680, 908.4392
3912.608, 911.8870
3914.537, 914.0802
3916.465, 913.0508
3918.394, 914.7595
3920.322, 917.6850
3922.250, 918.0865
3924.179, 919.3249
3926.107, 923.4512
3928.036, 924.2677
3929.964, 922.7180
3931.893, 925.6571
3933.821, 929.3572
3935.750, 930.7896
3937.678, 933.6650
3939.607, 938.2814
3941.535, 939.7122
3943.464, 940.7516
3945.392, 945.0997
3947.321, 947.9850
3949.249, 948.4613
3951.177, 954.0479
3953.106, 961.4886
3955.034, 964.3486
3956.963, 967.3234
3958.891, 972.5950
3960.820, 977.0753
3962.748, 981.3174
3964.677, 986.4365
3966.605, 992.8953
3968.534, 1001.491
3970.462, 1006.907
3972.391, 1009.934
3974.319, 1017.714
3976.248, 1025.256
3978.176, 1027.586
3980.104, 1033.710
3982.033, 1044.125
3983.961, 1051.584
3985.890, 1056.842
3987.818, 1059.609
3989.747, 1063.094
3991.675, 1067.826
3993.604, 1076.141
3995.532, 1084.095
3997.461, 1085.790
3999.389, 1087.940
4001.318, 1092.543
4003.246, 1096.304
4005.175, 1098.487
4007.103, 1096.219
4009.031, 1096.036
4010.960, 1100.406
4012.888, 1102.678
4014.817, 1103.177
4016.745, 1102.838
4018.674, 1101.779
4020.602, 1099.920
4022.531, 1099.001
4024.459, 1098.880
4026.388, 1099.542
4028.316, 1099.742
4030.245, 1099.137
4032.173, 1095.662
4034.102, 1091.418
4036.030, 1093.031
4037.958, 1095.702
4039.887, 1097.930
4041.815, 1095.394
4043.744, 1089.857
4045.672, 1086.293
4047.601, 1085.298
4049.529, 1087.438
4051.458, 1089.245
4053.386, 1090.534
4055.315, 1092.742
4057.243, 1093.956
4059.172, 1091.189
4061.100, 1094.156
4063.029, 1101.503
4064.957, 1106.313
4066.885, 1110.522
4068.814, 1114.817
4070.742, 1119.431
4072.671, 1124.693
4074.599, 1132.488
4076.528, 1140.446
4078.456, 1146.922
4080.385, 1158.400
4082.313, 1173.223
4084.242, 1184.344
4086.170, 1193.374
4088.099, 1198.984
4090.027, 1213.058
4091.956, 1231.846
4093.884, 1239.601
4095.813, 1250.983
4097.741, 1276.318
4099.669, 1294.154
4101.598, 1308.609
4103.526, 1329.277
4105.455, 1355.741
4107.383, 1387.332
4109.312, 1424.824
4111.240, 1469.346
4113.169, 1522.872
4115.097, 1586.283
4117.026, 1659.342
4118.954, 1744.703
4120.883, 1839.772
4122.811, 1942.399
4124.740, 2051.510
4126.668, 2167.008
4128.597, 2295.796
4130.525, 2428.328
4132.454, 2557.061
4134.382, 2669.700
4136.311, 2761.892
4138.239, 2825.418
4140.167, 2855.687
4142.096, 2846.820
4144.024, 2812.077
4145.953, 2756.456
4147.881, 2695.508
4149.810, 2631.356
4151.738, 2565.408
4153.667, 2497.956
4155.595, 2429.828
4157.523, 2361.931
4159.452, 2299.275
4161.380, 2244.283
4163.309, 2198.777
4165.237, 2159.508
4167.166, 2117.510
4169.094, 2078.153
4171.023, 2043.986
4172.951, 2010.535
4174.880, 1978.102
4176.808, 1946.491
4178.737, 1919.019
4180.665, 1897.315
4182.594, 1872.435
4184.522, 1848.633
4186.451, 1831.778
4188.379, 1814.168
4190.308, 1796.030
4192.236, 1789.373
4194.165, 1787.469
4196.093, 1786.034
4198.021, 1783.408
4199.950, 1781.258
4201.878, 1785.085
4203.807, 1791.488
4205.735, 1799.084
4207.664, 1806.312
4209.592, 1815.010
4211.521, 1826.538
4213.449, 1846.212
4215.377, 1873.857
4217.306, 1889.440
4219.234, 1903.847
4221.163, 1929.047
4223.091, 1956.605
4225.020, 1985.592
4226.948, 2016.323
4228.877, 2053.098
4230.805, 2099.092
4232.734, 2145.222
4234.662, 2191.103
4236.591, 2238.954
4238.519, 2284.490
4240.448, 2325.873
4242.376, 2365.774
##END=



