##NAMES=Thometzekite
##RRUFFID=R130618
##IDEAL CHEMISTRY=PbCu^2+^_2_(AsO_4_)_2_·2H_2_O
##LOCALITY=Tsumeb mine, Tsumeb, Otjikoto Region, Namibia
##OWNER=RRUFF
##SOURCE=Mark N. Feinglos
##DESCRIPTION=Light blue-green with unidentified deeper green material.
##STATUS=The identification of this mineral has been confirmed only by single crystal X-ray diffraction
##URL=https://www.rruff.net/odr/rruff_sample/R130618
##DIFFRACTION SAMPLE DESCRIPTION=Single crystal, powder profile is calculated
##CELL PARAMETERS=a: 9.073 b: 6.3 c: 7.657 alpha: 90 beta: 116.94 gamma: 90 volume: 390.17 crystal system: monoclinic
##FILETYPE=Raman Processed
##RAMAN WAVELENGTH=780

93.98535, 1757.813
95.91382, 1746.659
97.84229, 1730.171
99.77075, 1717.080
101.6992, 1702.509
103.6277, 1683.080
105.5562, 1665.193
107.4846, 1652.222
109.4131, 1642.283
111.3416, 1633.283
113.2700, 1621.025
115.1985, 1613.661
117.1270, 1613.331
119.0554, 1613.950
120.9839, 1610.006
122.9124, 1602.917
124.8408, 1597.960
126.7693, 1595.318
128.6978, 1593.640
130.6262, 1591.859
132.5547, 1591.380
134.4832, 1594.690
136.4116, 1599.568
138.3401, 1600.073
140.2686, 1592.666
142.1970, 1587.082
144.1255, 1584.057
146.0540, 1581.878
147.9824, 1580.532
149.9109, 1579.215
151.8394, 1576.231
153.7678, 1570.750
155.6963, 1566.300
157.6248, 1563.234
159.5532, 1560.693
161.4817, 1557.417
163.4102, 1554.952
165.3386, 1556.158
167.2671, 1561.845
169.1956, 1563.118
171.1240, 1557.474
173.0525, 1553.195
174.9810, 1555.528
176.9094, 1558.711
178.8379, 1558.336
180.7664, 1554.666
182.6948, 1550.295
184.6233, 1544.141
186.5518, 1542.062
188.4802, 1550.255
190.4087, 1557.837
192.3372, 1557.627
194.2656, 1552.232
196.1941, 1549.046
198.1226, 1547.870
200.0510, 1548.177
201.9795, 1551.391
203.9080, 1553.349
205.8364, 1550.397
207.7649, 1546.602
209.6934, 1549.167
211.6218, 1556.968
213.5503, 1559.318
215.4788, 1552.252
217.4072, 1549.031
219.3357, 1557.247
221.2642, 1566.557
223.1926, 1570.227
225.1211, 1569.083
227.0496, 1565.248
228.9780, 1557.896
230.9065, 1554.351
232.8350, 1559.965
234.7634, 1564.903
236.6919, 1564.744
238.6204, 1563.067
240.5488, 1565.613
242.4773, 1571.246
244.4058, 1573.114
246.3342, 1567.800
248.2627, 1564.559
250.1912, 1566.162
252.1196, 1568.829
254.0481, 1570.615
255.9766, 1571.607
257.9051, 1571.859
259.8335, 1571.200
261.7620, 1570.774
263.6905, 1570.344
265.6189, 1570.609
267.5474, 1572.651
269.4759, 1574.749
271.4043, 1575.391
273.3328, 1574.961
275.2613, 1574.668
277.1897, 1574.775
279.1182, 1574.527
281.0467, 1572.437
282.9751, 1571.884
284.9036, 1575.046
286.8321, 1579.813
288.7605, 1585.322
290.6890, 1591.392
292.6175, 1592.013
294.5459, 1581.701
296.4744, 1577.440
298.4029, 1584.619
300.3313, 1592.064
302.2598, 1594.518
304.1883, 1593.572
306.1167, 1589.533
308.0452, 1582.212
309.9737, 1579.991
311.9021, 1584.522
313.8306, 1588.064
315.7591, 1589.427
317.6875, 1589.071
319.6160, 1585.290
321.5445, 1581.235
323.4729, 1582.037
325.4014, 1587.746
327.3299, 1591.594
329.2583, 1593.022
331.1868, 1595.292
333.1153, 1601.935
335.0437, 1605.449
336.9722, 1599.470
338.9007, 1590.449
340.8291, 1588.063
342.7576, 1591.657
344.6861, 1591.523
346.6145, 1587.226
348.5430, 1581.493
350.4715, 1572.492
352.3999, 1565.849
354.3284, 1565.099
356.2569, 1566.761
358.1853, 1567.301
360.1138, 1566.895
362.0423, 1566.422
363.9707, 1566.031
365.8992, 1564.766
367.8277, 1562.125
369.7561, 1558.964
371.6846, 1552.847
373.6131, 1548.578
375.5415, 1552.512
377.4700, 1560.865
379.3985, 1565.000
381.3269, 1564.790
383.2554, 1562.361
385.1839, 1555.841
387.1123, 1551.169
389.0408, 1549.426
390.9693, 1549.889
392.8977, 1554.456
394.8262, 1559.682
396.7547, 1560.276
398.6831, 1556.953
400.6116, 1554.748
402.5401, 1554.664
404.4685, 1553.868
406.3970, 1550.561
408.3255, 1548.470
410.2539, 1548.928
412.1824, 1551.016
414.1109, 1555.966
416.0393, 1561.392
417.9678, 1560.692
419.8963, 1551.996
421.8247, 1546.639
423.7532, 1545.658
425.6817, 1546.690
427.6101, 1552.507
429.5386, 1556.660
431.4671, 1552.368
433.3955, 1547.365
435.3240, 1551.151
437.2525, 1561.920
439.1809, 1568.429
441.1094, 1569.844
443.0379, 1568.824
444.9664, 1564.285
446.8948, 1559.669
448.8233, 1555.510
450.7518, 1552.159
452.6802, 1550.557
454.6087, 1549.365
456.5372, 1546.524
458.4656, 1542.348
460.3941, 1539.548
462.3226, 1538.404
464.2510, 1536.459
466.1795, 1532.839
468.1080, 1530.063
470.0364, 1529.736
471.9649, 1529.297
473.8934, 1525.865
475.8218, 1522.481
477.7503, 1524.535
479.6788, 1530.509
481.6072, 1532.001
483.5357, 1529.077
485.4642, 1525.912
487.3926, 1522.719
489.3211, 1520.529
491.2496, 1522.206
493.1780, 1521.915
495.1065, 1514.160
497.0350, 1505.959
498.9634, 1505.188
500.8919, 1509.812
502.8204, 1516.088
504.7488, 1523.268
506.6773, 1521.529
508.6058, 1506.587
510.5342, 1496.275
512.4627, 1497.836
514.3912, 1500.021
516.3196, 1501.905
518.2481, 1501.190
520.1766, 1493.715
522.1050, 1484.025
524.0335, 1479.750
525.9620, 1479.328
527.8904, 1476.350
529.8189, 1469.650
531.7474, 1468.225
533.6758, 1479.331
535.6043, 1485.175
537.5328, 1478.578
539.4612, 1473.084
541.3897, 1476.984
543.3182, 1481.994
545.2466, 1480.078
547.1751, 1474.635
549.1036, 1471.052
551.0320, 1469.073
552.9605, 1464.717
554.8890, 1455.424
556.8174, 1450.919
558.7459, 1454.443
560.6744, 1457.207
562.6028, 1457.229
564.5313, 1457.410
566.4598, 1460.762
568.3882, 1462.960
570.3167, 1459.383
572.2452, 1453.206
574.1736, 1449.373
576.1021, 1447.907
578.0306, 1450.209
579.9590, 1458.816
581.8875, 1459.830
583.8160, 1449.853
585.7444, 1442.891
587.6729, 1442.358
589.6014, 1443.702
591.5298, 1445.518
593.4583, 1447.864
595.3868, 1452.284
597.3152, 1455.959
599.2437, 1453.680
601.1722, 1447.879
603.1006, 1447.635
605.0291, 1453.070
606.9576, 1454.939
608.8860, 1452.821
610.8145, 1451.400
612.7430, 1452.164
614.6714, 1451.120
616.5999, 1445.350
618.5284, 1440.259
620.4568, 1438.009
622.3853, 1437.173
624.3138, 1436.354
626.2422, 1436.528
628.1707, 1441.550
630.0992, 1448.303
632.0276, 1444.838
633.9561, 1433.070
635.8846, 1428.657
637.8130, 1433.560
639.7415, 1433.674
641.6700, 1424.171
643.5984, 1416.761
645.5269, 1415.664
647.4554, 1414.722
649.3839, 1410.669
651.3123, 1407.934
653.2408, 1411.943
655.1693, 1416.510
657.0977, 1413.531
659.0262, 1406.759
660.9547, 1402.034
662.8831, 1399.529
664.8116, 1401.148
666.7401, 1407.359
668.6685, 1407.819
670.5970, 1399.272
672.5255, 1391.693
674.4539, 1384.102
676.3824, 1380.239
678.3109, 1383.819
680.2393, 1386.790
682.1678, 1384.467
684.0963, 1382.521
686.0247, 1385.676
687.9532, 1390.327
689.8817, 1392.984
691.8101, 1394.626
693.7386, 1397.602
695.6671, 1401.228
697.5955, 1401.911
699.5240, 1399.454
701.4525, 1394.621
703.3809, 1384.195
705.3094, 1381.864
707.2379, 1392.682
709.1663, 1397.619
711.0948, 1390.411
713.0233, 1385.063
714.9517, 1388.091
716.8802, 1391.047
718.8087, 1389.390
720.7371, 1386.109
722.6656, 1382.090
724.5941, 1378.348
726.5225, 1375.052
728.4510, 1373.287
730.3795, 1376.769
732.3079, 1383.732
734.2364, 1386.126
736.1649, 1383.977
738.0933, 1382.364
740.0218, 1381.397
741.9503, 1378.402
743.8787, 1372.968
745.8072, 1367.146
747.7357, 1360.659
749.6641, 1356.426
751.5926, 1357.108
753.5211, 1356.854
755.4495, 1350.807
757.3780, 1347.352
759.3065, 1352.538
761.2349, 1358.927
763.1634, 1361.711
765.0919, 1362.126
767.0203, 1360.804
768.9488, 1358.472
770.8773, 1355.038
772.8057, 1352.088
774.7342, 1355.115
776.6627, 1361.990
778.5911, 1362.827
780.5196, 1358.022
782.4481, 1358.754
784.3765, 1366.869
786.3050, 1369.767
788.2335, 1363.941
790.1619, 1360.439
792.0904, 1361.379
794.0189, 1363.362
795.9473, 1367.969
797.8758, 1370.407
799.8043, 1365.180
801.7327, 1363.695
803.6612, 1374.807
805.5897, 1385.230
807.5181, 1385.010
809.4466, 1383.522
811.3751, 1389.886
813.3036, 1397.023
815.2321, 1395.162
817.1605, 1392.165
819.0890, 1400.721
821.0175, 1416.014
822.9459, 1427.413
824.8744, 1435.651
826.8029, 1443.537
828.7313, 1451.108
830.6598, 1460.446
832.5883, 1472.271
834.5167, 1476.246
836.4452, 1471.002
838.3737, 1463.260
840.3021, 1452.574
842.2306, 1441.420
844.1591, 1430.051
846.0875, 1418.019
848.0160, 1405.024
849.9445, 1392.085
851.8729, 1378.826
853.8014, 1367.676
855.7299, 1361.009
857.6583, 1353.214
859.5868, 1340.083
861.5153, 1328.198
863.4437, 1319.593
865.3722, 1314.109
867.3007, 1315.576
869.2291, 1315.408
871.1576, 1305.406
873.0861, 1292.876
875.0145, 1284.222
876.9430, 1277.573
878.8715, 1270.272
880.7999, 1263.785
882.7284, 1262.174
884.6569, 1262.018
886.5853, 1254.645
888.5138, 1243.910
890.4423, 1240.285
892.3707, 1241.539
894.2992, 1241.671
896.2277, 1240.594
898.1561, 1238.158
900.0846, 1234.548
902.0131, 1231.261
903.9415, 1228.293
905.8700, 1225.568
907.7985, 1223.189
909.7269, 1217.418
911.6554, 1207.387
913.5839, 1199.276
915.5123, 1192.638
917.4408, 1192.664
919.3693, 1204.972
921.2977, 1210.365
923.2262, 1202.315
925.1547, 1197.273
927.0831, 1197.332
929.0116, 1197.465
930.9401, 1198.260
932.8685, 1196.930
934.7970, 1191.151
936.7255, 1186.771
938.6539, 1186.512
940.5824, 1185.231
942.5109, 1180.666
944.4393, 1176.839
946.3678, 1175.350
948.2963, 1174.385
950.2247, 1172.045
952.1532, 1172.425
954.0817, 1180.346
956.0101, 1185.926
957.9386, 1181.406
959.8671, 1177.516
961.7955, 1179.748
963.7240, 1185.017
965.6525, 1192.820
967.5809, 1201.333
969.5094, 1212.918
971.4379, 1220.467
973.3663, 1215.790
975.2948, 1209.746
977.2233, 1211.288
979.1517, 1213.691
981.0802, 1212.973
983.0087, 1208.870
984.9371, 1200.647
986.8656, 1189.365
988.7941, 1172.736
990.7225, 1157.105
992.6510, 1150.154
994.5795, 1146.569
996.5079, 1140.716
998.4364, 1134.937
1000.365, 1133.206
1002.293, 1131.787
1004.222, 1125.040
1006.150, 1117.028
1008.079, 1111.751
1010.007, 1109.224
1011.936, 1111.627
1013.864, 1114.820
1015.793, 1112.147
1017.721, 1108.167
1019.650, 1110.833
1021.578, 1114.145
1023.506, 1109.145
1025.435, 1100.720
1027.363, 1093.456
1029.292, 1088.488
1031.220, 1089.002
1033.149, 1091.219
1035.077, 1091.112
1037.006, 1088.927
1038.934, 1082.911
1040.863, 1076.907
1042.791, 1075.388
1044.720, 1076.923
1046.648, 1083.004
1048.577, 1088.052
1050.505, 1084.645
1052.433, 1077.310
1054.362, 1068.522
1056.290, 1061.593
1058.219, 1062.345
1060.147, 1064.887
1062.076, 1063.518
1064.004, 1059.767
1065.933, 1052.906
1067.861, 1046.980
1069.790, 1046.757
1071.718, 1048.620
1073.647, 1049.602
1075.575, 1050.569
1077.504, 1054.344
1079.432, 1055.959
1081.360, 1048.787
1083.289, 1040.849
1085.217, 1038.850
1087.146, 1037.875
1089.074, 1035.097
1091.003, 1031.214
1092.931, 1024.474
1094.860, 1019.807
1096.788, 1021.643
1098.717, 1024.217
1100.645, 1026.227
1102.574, 1025.420
1104.502, 1017.710
1106.431, 1011.473
1108.359, 1011.496
1110.287, 1011.808
1112.216, 1011.524
1114.144, 1009.248
1116.073, 1001.486
1118.001, 997.0029
1119.930, 1000.023
1121.858, 1002.805
1123.787, 1004.314
1125.715, 1003.826
1127.644, 999.5720
1129.572, 997.0330
1131.501, 998.1556
1133.429, 998.0739
1135.358, 995.9130
1137.286, 993.5276
1139.214, 991.3033
1141.143, 987.8742
1143.071, 982.1012
1145.000, 980.7085
1146.928, 985.0959
1148.857, 986.9561
1150.785, 985.7944
1152.714, 983.6207
1154.642, 980.4640
1156.571, 975.8903
1158.499, 970.0831
1160.428, 968.7366
1162.356, 971.2186
1164.285, 972.1508
1166.213, 971.8319
1168.141, 972.3639
1170.070, 972.3627
1171.998, 965.7101
1173.927, 956.7416
1175.855, 954.7710
1177.784, 956.2894
1179.712, 956.9215
1181.641, 956.4325
1183.569, 954.6547
1185.498, 951.4218
1187.426, 945.4720
1189.355, 939.4743
1191.283, 934.3588
1193.212, 931.5306
1195.140, 934.1445
1197.068, 935.0494
1198.997, 928.8953
1200.925, 925.2180
1202.854, 928.8715
1204.782, 931.8082
1206.711, 931.5841
1208.639, 930.9628
1210.568, 930.9219
1212.496, 928.0587
1214.425, 921.1251
1216.353, 918.0490
1218.282, 919.9950
1220.210, 917.8843
1222.139, 911.3351
1224.067, 909.7020
1225.995, 912.7520
1227.924, 915.3864
1229.852, 917.1569
1231.781, 916.6776
1233.709, 914.7562
1235.638, 913.8909
1237.566, 912.8529
1239.495, 908.4796
1241.423, 903.4505
1243.352, 901.3812
1245.280, 900.3397
1247.209, 898.9832
1249.137, 897.1644
1251.066, 894.0949
1252.994, 891.7645
1254.922, 892.5861
1256.851, 892.1902
1258.779, 886.5570
1260.708, 884.1349
1262.636, 889.8654
1264.565, 892.4894
1266.493, 889.1765
1268.422, 886.5365
1270.350, 884.4553
1272.279, 884.0287
1274.207, 885.4977
1276.136, 883.9379
1278.064, 879.8391
1279.993, 876.1522
1281.921, 873.3481
1283.849, 873.9242
1285.778, 875.4808
1287.706, 873.6740
1289.635, 870.3735
1291.563, 866.4883
1293.492, 863.7064
1295.420, 863.7786
1297.349, 864.3232
1299.277, 864.3924
1301.206, 864.1362
1303.134, 863.2264
1305.063, 863.4455
1306.991, 865.5648
1308.920, 866.9170
1310.848, 867.2550
1312.776, 862.6656
1314.705, 853.2943
1316.633, 854.9266
1318.562, 864.8571
1320.490, 862.4515
1322.419, 853.5321
1324.347, 853.8146
1326.276, 857.9017
1328.204, 857.7579
1330.133, 856.3583
1332.061, 857.3988
1333.990, 857.2204
1335.918, 851.1991
1337.847, 847.1691
1339.775, 849.6024
1341.703, 851.3436
1343.632, 851.4655
1345.560, 849.7878
1347.489, 846.0856
1349.417, 843.6747
1351.346, 842.5895
1353.274, 839.4969
1355.203, 835.4791
1357.131, 835.9457
1359.060, 837.9398
1360.988, 835.3009
1362.917, 831.4075
1364.845, 829.6787
1366.774, 828.7037
1368.702, 829.5875
1370.630, 827.3959
1372.559, 815.6472
1374.487, 808.9723
1376.416, 813.2320
1378.344, 816.8693
1380.273, 819.9183
1382.201, 818.7361
1384.130, 813.4251
1386.058, 808.4922
1387.987, 804.6310
1389.915, 806.0482
1391.844, 808.7494
1393.772, 804.5325
1395.701, 800.4839
1397.629, 804.0109
1399.557, 806.8905
1401.486, 804.8615
1403.414, 802.4591
1405.343, 800.8234
1407.271, 800.1634
1409.200, 800.5834
1411.128, 801.8282
1413.057, 803.6508
1414.985, 801.7423
1416.914, 797.4542
1418.842, 794.7518
1420.771, 793.3317
1422.699, 794.1322
1424.628, 794.1113
1426.556, 788.8856
1428.484, 785.2840
1430.413, 787.5776
1432.341, 787.5719
1434.270, 782.7968
1436.198, 781.8677
1438.127, 785.4711
1440.055, 785.7792
1441.984, 783.2057
1443.912, 782.1855
1445.841, 781.1333
1447.769, 775.3328
1449.698, 770.0933
1451.626, 772.4208
1453.555, 774.6517
1455.483, 771.2886
1457.411, 769.5396
1459.340, 773.0354
1461.268, 772.7008
1463.197, 767.6805
1465.125, 763.0761
1467.054, 759.3976
1468.982, 759.4485
1470.911, 760.9848
1472.839, 759.5385
1474.768, 757.5984
1476.696, 757.6351
1478.625, 757.3458
1480.553, 755.9635
1482.482, 752.9689
1484.410, 746.2126
1486.339, 744.9802
1488.267, 749.9442
1490.195, 751.3530
1492.124, 749.8562
1494.052, 747.2676
1495.981, 744.3345
1497.909, 742.0772
1499.838, 740.1503
1501.766, 738.7120
1503.695, 736.5561
1505.623, 732.6899
1507.552, 731.7729
1509.480, 734.7842
1511.409, 735.7348
1513.337, 734.5189
1515.266, 730.2968
1517.194, 725.7482
1519.122, 726.1652
1521.051, 728.0480
1522.979, 728.6655
1524.908, 730.0182
1526.836, 734.1550
1528.765, 731.8387
1530.693, 721.5614
1532.622, 719.7294
1534.550, 725.0287
1536.479, 726.2421
1538.407, 724.1127
1540.336, 717.0970
1542.264, 711.8507
1544.193, 716.9686
1546.121, 719.4488
1548.049, 713.2867
1549.978, 709.8411
1551.906, 710.2106
1553.835, 709.9865
1555.763, 709.3223
1557.692, 710.7915
1559.620, 711.3245
1561.549, 704.0294
1563.477, 698.5757
1565.406, 704.9506
1567.334, 707.3602
1569.263, 697.1694
1571.191, 694.6067
1573.120, 700.1478
1575.048, 698.9084
1576.977, 694.1467
1578.905, 695.3470
1580.833, 696.9827
1582.762, 694.0862
1584.690, 690.1581
1586.619, 685.2623
1588.547, 684.7469
1590.476, 691.0360
1592.404, 691.3476
1594.333, 686.8676
1596.261, 681.7490
1598.190, 677.2142
1600.118, 675.9474
1602.047, 674.0739
1603.975, 668.7716
1605.904, 666.3641
1607.832, 668.6465
1609.760, 669.4484
1611.689, 668.5013
1613.617, 666.4615
1615.546, 664.3224
1617.474, 664.3386
1619.403, 663.9542
1621.331, 660.1170
1623.260, 659.7597
1625.188, 664.9559
1627.117, 664.0924
1629.045, 657.7672
1630.974, 657.0731
1632.902, 658.4731
1634.831, 656.3852
1636.759, 652.6381
1638.688, 645.9363
1640.616, 643.7863
1642.544, 648.4019
1644.473, 650.0464
1646.401, 648.3558
1648.330, 644.0527
1650.258, 639.6142
1652.187, 639.6375
1654.115, 639.3248
1656.044, 633.3790
1657.972, 632.0764
1659.901, 638.6565
1661.829, 639.0215
1663.758, 634.4927
1665.686, 633.3329
1667.615, 632.8038
1669.543, 628.5719
1671.471, 625.8341
1673.400, 628.2777
1675.328, 629.4598
1677.257, 628.5276
1679.185, 627.5938
1681.114, 626.6396
1683.042, 626.0266
1684.971, 624.6483
1686.899, 621.1868
1688.828, 617.9204
1690.756, 615.3207
1692.685, 615.3965
1694.613, 617.5699
1696.542, 613.0961
1698.470, 606.5656
1700.398, 606.0006
1702.327, 606.0492
1704.255, 603.7659
1706.184, 603.6946
1708.112, 606.6785
1710.041, 604.7567
1711.969, 599.9505
1713.898, 597.3274
1715.826, 597.4759
1717.755, 604.2176
1719.683, 607.0484
1721.612, 603.3406
1723.540, 597.4291
1725.469, 591.2040
1727.397, 593.0206
1729.325, 596.6963
1731.254, 593.7477
1733.182, 590.3676
1735.111, 589.1653
1737.039, 587.9812
1738.968, 586.7098
1740.896, 587.1880
1742.825, 587.0427
1744.753, 580.3475
1746.682, 574.7027
1748.610, 576.3652
1750.539, 576.2712
1752.467, 573.3225
1754.396, 572.3578
1756.324, 572.2594
1758.252, 569.6984
1760.181, 567.3373
1762.109, 567.9280
1764.038, 566.8788
1765.966, 562.6561
1767.895, 560.7601
1769.823, 560.5217
1771.752, 560.7651
1773.680, 559.9158
1775.609, 555.4824
1777.537, 554.1918
1779.466, 558.6864
1781.394, 559.3976
1783.323, 557.2159
1785.251, 555.1166
1787.179, 553.1014
1789.108, 551.2176
1791.036, 549.1423
1792.965, 546.7197
1794.893, 546.8110
1796.822, 548.2200
1798.750, 547.1979
1800.679, 545.3101
1802.607, 543.9863
1804.536, 540.9872
1806.464, 535.8885
1808.393, 534.5466
1810.321, 535.8002
1812.250, 537.5553
1814.178, 537.7177
1816.106, 533.8873
1818.035, 530.2806
1819.963, 527.4527
1821.892, 524.8109
1823.820, 523.0634
1825.749, 524.4640
1827.677, 525.6950
1829.606, 523.9098
1831.534, 524.1492
1833.463, 526.2026
1835.391, 522.5643
1837.320, 516.8536
1839.248, 513.5054
1841.177, 512.1156
1843.105, 513.4335
1845.033, 515.0133
1846.962, 516.3576
1848.890, 514.1547
1850.819, 510.4748
1852.747, 506.4592
1854.676, 503.5643
1856.604, 502.1917
1858.533, 503.2518
1860.461, 505.2195
1862.390, 502.8575
1864.318, 499.4788
1866.247, 496.9420
1868.175, 494.2139
1870.104, 491.1167
1872.032, 489.3991
1873.960, 488.6614
1875.889, 488.1886
1877.817, 488.8830
1879.746, 491.5443
1881.674, 491.2186
1883.603, 488.2712
1885.531, 485.8553
1887.460, 483.3000
1889.388, 479.7118
1891.317, 476.8529
1893.245, 475.1039
1895.174, 475.8152
1897.102, 477.3661
1899.031, 478.5230
1900.959, 475.2370
1902.887, 464.3911
1904.816, 463.8566
1906.744, 471.6733
1908.673, 473.8814
1910.601, 472.3512
1912.530, 466.8764
1914.458, 462.4188
1916.387, 459.6609
1918.315, 459.0558
1920.244, 459.5536
1922.172, 461.1848
1924.101, 459.6369
1926.029, 450.9954
1927.958, 451.3633
1929.886, 457.3674
1931.814, 457.2756
1933.743, 454.5853
1935.671, 450.1602
1937.600, 447.7023
1939.528, 447.2956
1941.457, 444.9447
1943.385, 442.7793
1945.314, 444.4066
1947.242, 442.2661
1949.171, 432.9565
1951.099, 433.6642
1953.028, 438.8006
1954.956, 438.5709
1956.885, 436.9358
1958.813, 435.4338
1960.741, 430.9741
1962.670, 425.1992
1964.598, 423.5880
1966.527, 423.7844
1968.455, 424.7567
1970.384, 425.3756
1972.312, 425.5797
1974.241, 427.1218
1976.169, 426.6322
1978.098, 419.6866
1980.026, 415.7065
1981.955, 416.1035
1983.883, 419.2157
1985.812, 422.5689
1987.740, 423.2487
1989.668, 423.0761
1991.597, 422.3588
1993.525, 418.5773
1995.454, 414.1080
1997.382, 412.8429
1999.311, 412.0007
2001.239, 410.9189
2003.168, 406.9751
2005.096, 402.1447
2007.025, 400.3756
2008.953, 399.3778
2010.882, 398.1018
2012.810, 399.0798
2014.739, 400.5616
2016.667, 397.1431
2018.595, 394.1153
2020.524, 395.0124
2022.452, 395.1311
2024.381, 393.8622
2026.309, 387.2305
2028.238, 383.1541
2030.166, 388.2025
2032.095, 387.8145
2034.023, 382.9387
2035.952, 378.6843
2037.880, 377.3537
2039.809, 381.0997
2041.737, 383.8107
2043.666, 384.4841
2045.594, 379.9885
2047.522, 374.6163
2049.451, 370.0468
2051.379, 370.9474
2053.308, 375.3073
2055.236, 373.6147
2057.165, 370.0770
2059.093, 366.4455
2061.022, 366.6608
2062.950, 369.3940
2064.879, 369.1980
2066.807, 366.4247
2068.736, 360.5082
2070.664, 359.9377
2072.593, 362.6966
2074.521, 358.8481
2076.449, 356.4019
2078.378, 360.0972
2080.306, 358.8454
2082.235, 354.7647
2084.163, 356.7999
2086.092, 356.5652
2088.020, 349.2940
2089.949, 348.4476
2091.877, 351.0007
2093.806, 349.1315
2095.734, 347.5873
2097.663, 348.3729
2099.591, 347.4492
2101.520, 346.2081
2103.448, 347.6074
2105.376, 348.0721
2107.305, 346.5755
2109.233, 342.4246
2111.162, 338.6359
2113.090, 339.1347
2115.019, 339.8478
2116.947, 339.8598
2118.876, 336.5180
2120.804, 332.6711
2122.733, 330.5142
2124.661, 329.8926
2126.590, 330.3683
2128.518, 329.2553
2130.447, 328.4806
2132.375, 329.4813
2134.303, 328.4257
2136.232, 325.8878
2138.160, 324.7054
2140.089, 323.9259
2142.017, 323.2155
2143.946, 321.6439
2145.874, 319.5826
2147.803, 317.5662
2149.731, 315.3952
2151.660, 313.2305
2153.588, 316.2856
2155.517, 319.7408
2157.445, 317.0161
2159.374, 315.6154
2161.302, 315.5959
2163.230, 311.2196
2165.159, 307.1930
2167.087, 307.4674
2169.016, 306.3505
2170.944, 304.3096
2172.873, 302.7039
2174.801, 303.0922
2176.730, 306.5064
2178.658, 306.4277
2180.587, 304.0183
2182.515, 301.1679
2184.444, 295.9402
2186.372, 288.6552
2188.301, 288.9937
2190.229, 290.5490
2192.157, 288.4961
2194.086, 288.1458
2196.014, 289.0174
2197.943, 288.7225
2199.871, 288.0150
2201.800, 287.0239
2203.728, 286.9702
2205.657, 286.8707
2207.585, 285.3582
2209.514, 284.7899
2211.442, 285.0537
2213.371, 282.1993
2215.299, 279.4989
2217.228, 278.6773
2219.156, 277.3036
2221.084, 276.1047
2223.013, 278.0023
2224.941, 277.7706
2226.870, 274.7598
2228.798, 274.0641
2230.727, 274.2972
2232.655, 274.7205
2234.584, 272.6577
2236.512, 269.2242
2238.441, 267.4388
2240.369, 267.5605
2242.298, 269.3591
2244.226, 266.0696
2246.155, 262.3600
2248.083, 264.1842
2250.011, 264.2459
2251.940, 262.2560
2253.868, 257.8617
2255.797, 256.3562
2257.725, 260.1559
2259.654, 261.2693
2261.582, 260.6103
2263.511, 259.0681
2265.439, 257.1041
2267.368, 255.0306
2269.296, 253.6890
2271.225, 252.6273
2273.153, 251.4898
2275.082, 253.5354
2277.010, 254.9937
2278.938, 251.8453
2280.867, 249.4938
2282.795, 248.1330
2284.724, 245.5364
2286.652, 244.2521
2288.581, 245.1839
2290.509, 245.2222
2292.438, 243.4686
2294.366, 238.6405
2296.295, 236.5266
2298.223, 237.2300
2300.152, 242.2209
2302.080, 241.0907
2304.009, 232.6913
2305.937, 232.5294
2307.865, 234.5923
2309.794, 235.0274
2311.722, 230.9124
2313.651, 225.9915
2315.579, 227.8896
2317.508, 228.9626
2319.436, 228.3459
2321.365, 229.1073
2323.293, 228.5572
2325.222, 225.1261
2327.150, 228.1899
2329.079, 231.0098
2331.007, 223.3991
2332.936, 221.2044
2334.864, 222.4124
2336.792, 217.0068
2338.721, 213.3895
2340.649, 213.7313
2342.578, 214.9167
2344.506, 215.5864
2346.435, 214.3124
2348.363, 216.0032
2350.292, 217.2365
2352.220, 212.7434
2354.149, 210.0363
2356.077, 209.4762
2358.006, 208.6923
2359.934, 207.9820
2361.863, 207.4139
2363.791, 206.0636
2365.719, 205.6335
2367.648, 207.4082
2369.576, 203.9498
2371.505, 200.1644
2373.433, 204.3075
2375.362, 205.3030
2377.290, 202.9166
2379.219, 200.7607
2381.147, 199.4628
2383.076, 199.0566
2385.004, 198.6937
2386.933, 198.0846
2388.861, 197.0830
2390.790, 196.0111
2392.718, 195.2377
2394.646, 195.5246
2396.575, 195.1868
2398.503, 194.0444
2400.432, 191.0346
2402.360, 190.8850
2404.289, 193.2169
2406.217, 193.2942
2408.146, 192.4007
2410.074, 191.0268
2412.003, 188.5601
2413.931, 186.1628
2415.860, 184.4012
2417.788, 184.6825
2419.717, 185.5592
2421.645, 185.6354
2423.573, 184.0556
2425.502, 182.1224
2427.430, 183.4155
2429.359, 181.3787
2431.287, 176.3285
2433.216, 175.4571
2435.144, 175.7810
2437.073, 176.2342
2439.001, 173.7479
2440.930, 170.9621
2442.858, 169.2184
2444.787, 169.6829
2446.715, 170.5953
2448.644, 170.6756
2450.572, 168.4697
2452.500, 166.4010
2454.429, 168.4024
2456.357, 169.7718
2458.286, 169.6060
2460.214, 166.3443
2462.143, 164.2211
2464.071, 163.6022
2466.000, 163.3467
2467.928, 161.5367
2469.857, 158.5451
2471.785, 160.9713
2473.714, 161.5928
2475.642, 157.4999
2477.571, 158.1441
2479.499, 158.8969
2481.427, 156.0008
2483.356, 157.4331
2485.284, 158.9563
2487.213, 155.3753
2489.141, 154.1231
2491.070, 154.1367
2492.998, 153.7409
2494.927, 153.8167
2496.855, 153.4622
2498.784, 150.2463
2500.712, 150.2698
2502.641, 151.9492
2504.569, 148.0238
2506.498, 146.2791
2508.426, 147.1195
2510.354, 144.9005
2512.283, 143.8158
2514.211, 144.2996
2516.140, 140.1441
2518.068, 139.3817
2519.997, 143.7971
2521.925, 142.9274
2523.854, 141.9400
2525.782, 142.8627
2527.711, 141.6600
2529.639, 140.7810
2531.568, 141.4675
2533.496, 140.8073
2535.425, 138.9893
2537.353, 136.1356
2539.281, 133.6864
2541.210, 132.4482
2543.138, 133.5470
2545.067, 131.9563
2546.995, 130.6768
2548.924, 134.4448
2550.852, 133.9507
2552.781, 132.0854
2554.709, 133.2048
2556.638, 132.0440
2558.566, 129.6430
2560.495, 126.9102
2562.423, 128.1721
2564.352, 130.8801
2566.280, 131.5311
2568.208, 129.2092
2570.137, 126.2641
2572.065, 126.4329
2573.994, 126.3050
2575.922, 125.2801
2577.851, 122.7380
2579.779, 122.0025
2581.708, 121.8826
2583.636, 118.7513
2585.565, 119.4940
2587.493, 121.4565
2589.422, 115.8884
2591.350, 116.0417
2593.279, 119.7763
2595.207, 118.5167
2597.135, 116.7122
2599.064, 115.3705
2600.992, 116.0421
2602.921, 114.3973
2604.849, 112.3538
2606.778, 116.4090
2608.706, 116.7041
2610.635, 114.2405
2612.563, 113.4795
2614.492, 112.3191
2616.420, 110.9323
2618.349, 110.1795
2620.277, 109.1818
2622.206, 108.2494
2624.134, 107.7266
2626.063, 109.4818
2627.991, 111.2198
2629.919, 109.1097
2631.848, 106.2653
2633.776, 104.3356
2635.705, 105.4621
2637.633, 104.7378
2639.562, 102.2734
2641.490, 97.85452
2643.419, 103.1799
2645.347, 108.4830
2647.276, 102.8172
2649.204, 101.7630
2651.133, 101.9769
2653.061, 99.42314
2654.990, 98.59789
2656.918, 98.95252
2658.846, 99.79384
2660.775, 98.85355
2662.703, 98.86969
2664.632, 101.2237
2666.560, 99.45902
2668.489, 97.74154
2670.417, 97.90630
2672.346, 95.35150
2674.274, 92.76106
2676.203, 91.41164
2678.131, 92.76871
2680.060, 93.04877
2681.988, 91.88012
2683.917, 93.76838
2685.845, 94.29050
2687.773, 92.64188
2689.702, 89.22124
2691.630, 86.47885
2693.559, 85.52596
2695.487, 89.25288
2697.416, 89.07089
2699.344, 86.48537
2701.273, 85.65746
2703.201, 86.07760
2705.130, 87.08012
2707.058, 88.26195
2708.987, 86.75874
2710.915, 84.59455
2712.844, 83.52604
2714.772, 84.94011
2716.700, 85.14518
2718.629, 82.22192
2720.557, 82.61396
2722.486, 82.88988
2724.414, 81.70523
2726.343, 81.61278
2728.271, 79.91075
2730.200, 77.07057
2732.128, 78.38519
2734.057, 79.89938
2735.985, 80.67313
2737.914, 80.84557
2739.842, 78.43501
2741.771, 75.28094
2743.699, 74.17473
2745.627, 74.94846
2747.556, 75.20693
2749.484, 72.57745
2751.413, 72.94795
2753.341, 73.20432
2755.270, 71.66422
2757.198, 70.04259
2759.127, 69.55138
2761.055, 70.23644
2762.984, 70.38049
2764.912, 71.04135
2766.841, 71.18496
2768.769, 67.20229
2770.698, 66.63316
2772.626, 68.27243
2774.554, 69.68575
2776.483, 69.37035
2778.411, 67.70976
2780.340, 65.15208
2782.268, 65.74775
2784.197, 66.43604
2786.125, 65.87827
2788.054, 64.73272
2789.982, 64.05764
2791.911, 63.88428
2793.839, 63.54465
2795.768, 63.41014
2797.696, 63.39194
2799.625, 63.34690
2801.553, 63.11127
2803.481, 62.46854
2805.410, 61.40102
2807.338, 62.64725
2809.267, 62.30370
2811.195, 60.11636
2813.124, 61.42659
2815.052, 60.87562
2816.981, 59.41044
2818.909, 61.55795
2820.838, 61.90229
2822.766, 61.15263
2824.695, 60.53212
2826.623, 59.96875
2828.552, 58.14164
2830.480, 54.79487
2832.408, 55.27967
2834.337, 55.85231
2836.265, 55.78432
2838.194, 55.77665
2840.122, 53.99395
2842.051, 52.65448
2843.979, 54.11840
2845.908, 55.75281
2847.836, 55.40474
2849.765, 52.55010
2851.693, 52.04714
2853.622, 51.73384
2855.550, 51.27886
2857.479, 51.49695
2859.407, 50.59888
2861.335, 49.22889
2863.264, 48.15525
2865.192, 47.93574
2867.121, 48.33106
2869.049, 49.02639
2870.978, 49.40948
2872.906, 49.83949
2874.835, 49.59169
2876.763, 46.59280
2878.692, 45.36886
2880.620, 45.99454
2882.549, 48.24976
2884.477, 48.90262
2886.406, 48.02713
2888.334, 46.30687
2890.262, 45.47477
2892.191, 44.83586
2894.119, 44.40413
2896.048, 44.40118
2897.976, 43.22557
2899.905, 42.83670
2901.833, 43.68994
2903.762, 42.60823
2905.690, 41.81479
2907.619, 41.12447
2909.547, 39.53975
2911.476, 41.67262
2913.404, 42.87515
2915.333, 40.88171
2917.261, 40.42742
2919.189, 41.46693
2921.118, 42.48431
2923.046, 40.53650
2924.975, 39.22222
2926.903, 39.26871
2928.832, 40.52278
2930.760, 39.56877
2932.689, 38.95956
2934.617, 39.22443
2936.546, 40.20016
2938.474, 40.04256
2940.403, 38.45349
2942.331, 35.53477
2944.260, 33.77518
2946.188, 34.74147
2948.116, 37.10451
2950.045, 37.55576
2951.973, 38.14931
2953.902, 37.85756
2955.830, 35.87641
2957.759, 35.93822
2959.687, 36.53668
2961.616, 36.88505
2963.544, 36.26926
2965.473, 35.42842
2967.401, 34.24171
2969.330, 32.74897
2971.258, 32.94895
2973.187, 32.26356
2975.115, 31.75765
2977.043, 33.85397
2978.972, 34.31500
2980.900, 33.96600
2982.829, 33.37133
2984.757, 32.27772
2986.686, 30.65023
2988.614, 29.86417
2990.543, 31.32376
2992.471, 31.65941
2994.400, 30.00080
2996.328, 27.77353
2998.257, 29.52400
3000.185, 30.67874
3002.114, 30.65625
3004.042, 29.55643
3005.970, 29.41382
3007.899, 29.24224
3009.827, 28.59259
3011.756, 26.66150
3013.684, 27.52676
3015.613, 28.72812
3017.541, 28.95751
3019.470, 28.28613
3021.398, 27.58639
3023.327, 26.33664
3025.255, 24.03138
3027.184, 27.31819
3029.112, 27.20633
3031.041, 24.76085
3032.969, 26.72329
3034.898, 26.35259
3036.826, 25.87332
3038.755, 26.34150
3040.683, 26.05596
3042.612, 24.09193
3044.540, 23.41199
3046.469, 25.92506
3048.397, 25.25392
3050.325, 24.21391
3052.254, 23.65194
3054.182, 23.54875
3056.111, 23.27636
3058.039, 23.43875
3059.968, 23.88320
3061.896, 23.29847
3063.825, 24.20504
3065.753, 23.67586
3067.682, 20.29071
3069.610, 20.00631
3071.539, 20.94802
3073.467, 22.11286
3075.396, 22.89624
3077.324, 23.12084
3079.252, 23.71522
3081.181, 23.66837
3083.109, 20.81250
3085.038, 21.08117
3086.966, 21.99324
3088.895, 21.94784
3090.823, 19.89140
3092.752, 20.27514
3094.680, 21.40142
3096.609, 21.77948
3098.537, 19.69321
3100.466, 21.31532
3102.394, 22.16901
3104.323, 19.06451
3106.251, 17.29798
3108.179, 18.45427
3110.108, 19.60899
3112.036, 17.78917
3113.965, 20.36809
3115.893, 20.34638
3117.822, 18.76137
3119.750, 20.11125
3121.679, 21.06939
3123.607, 20.18387
3125.536, 18.08637
3127.464, 16.07169
3129.393, 17.97774
3131.321, 18.98769
3133.250, 18.19233
3135.178, 18.67653
3137.106, 16.77103
3139.035, 16.13112
3140.963, 17.50711
3142.892, 16.85896
3144.820, 18.06614
3146.749, 18.72802
3148.677, 17.55049
3150.606, 15.43324
3152.534, 16.47634
3154.463, 17.70592
3156.391, 17.28417
3158.320, 16.14374
3160.248, 16.59938
3162.177, 16.18821
3164.105, 14.19403
3166.033, 15.99672
3167.962, 12.53123
3169.890, 11.30785
3171.819, 15.92815
3173.747, 14.63153
3175.676, 14.70410
3177.604, 15.27855
3179.533, 14.88932
3181.461, 13.21632
3183.390, 13.51389
3185.318, 14.61669
3187.247, 15.04668
3189.175, 12.46837
3191.104, 11.98336
3193.032, 13.28377
3194.960, 14.91816
3196.889, 12.89265
3198.817, 13.51571
3200.746, 14.43813
3202.674, 13.75926
3204.603, 12.16706
3206.531, 12.02083
3208.460, 11.93198
3210.388, 11.66215
3212.317, 14.22504
3214.245, 12.89693
3216.174, 11.14672
3218.102, 10.86728
3220.031, 11.73656
3221.959, 10.53528
3223.887, 10.65334
3225.816, 11.99229
3227.744, 11.00454
3229.673, 10.33943
3231.601, 10.64593
3233.530, 11.25736
3235.458, 10.81451
3237.387, 10.25235
3239.315, 10.48662
3241.244, 10.66674
3243.172, 9.369249
3245.101, 8.843747
3247.029, 9.501967
3248.958, 10.13123
3250.886, 9.715418
3252.814, 10.98686
3254.743, 10.32817
3256.671, 9.270626
3258.600, 9.012297
3260.528, 7.891881
3262.457, 8.654024
3264.385, 9.701365
3266.314, 10.35241
3268.242, 11.57879
3270.171, 9.579682
3272.099, 9.366577
3274.028, 10.40929
3275.956, 8.836982
3277.885, 8.738591
3279.813, 9.343328
3281.741, 10.36734
3283.670, 11.54255
3285.598, 10.55860
3287.527, 9.844496
3289.455, 9.470397
3291.384, 9.110386
3293.312, 8.559155
3295.241, 8.076404
3297.169, 8.172438
3299.098, 8.880388
3301.026, 9.934342
3302.955, 9.985209
3304.883, 9.963166
3306.812, 10.02397
3308.740, 9.969420
3310.668, 8.665706
3312.597, 8.037348
3314.525, 7.137182
3316.454, 5.694035
3318.382, 5.443360
3320.311, 6.831535
3322.239, 7.475210
3324.168, 7.271037
3326.096, 7.534535
3328.025, 8.039495
3329.953, 7.900723
3331.882, 7.471362
3333.810, 7.283046
3335.739, 7.786823
3337.667, 7.263026
3339.595, 7.398145
3341.524, 7.867811
3343.452, 6.176967
3345.381, 7.891053
3347.309, 7.329366
3349.238, 6.679249
3351.166, 8.482142
3353.095, 6.476060
3355.023, 7.695329
3356.952, 7.785398
3358.880, 5.848983
3360.809, 5.122988
3362.737, 5.767757
3364.666, 7.513711
3366.594, 8.366918
3368.522, 7.420423
3370.451, 7.892085
3372.379, 6.278013
3374.308, 6.099933
3376.236, 6.474942
3378.165, 4.121893
3380.093, 6.081993
3382.022, 6.088232
3383.950, 5.776612
3385.879, 6.432342
3387.807, 5.366719
3389.736, 5.873276
3391.664, 6.857995
3393.593, 6.777410
3395.521, 5.016023
3397.449, 6.128007
3399.378, 6.003959
3401.306, 5.551056
3403.235, 5.183914
3405.163, 4.062304
3407.092, 6.048995
3409.020, 7.620030
3410.949, 7.791084
3412.877, 7.026474
3414.806, 7.084888
3416.734, 7.765710
3418.663, 7.848679
3420.591, 7.286641
3422.520, 6.485411
3424.448, 5.903287
3426.376, 4.891845
3428.305, 5.166329
3430.233, 5.397327
3432.162, 3.697459
3434.090, 5.316937
3436.019, 6.154257
3437.947, 5.706087
3439.876, 5.056929
3441.804, 5.646477
3443.733, 4.563298
3445.661, 4.855580
3447.590, 5.015768
3449.518, 4.195351
3451.447, 3.250397
##END=



