##NAMES=Tiemannite
##RRUFFID=R060463
##IDEAL CHEMISTRY=HgSe
##LOCALITY=Lucky Boy mine, Cottonwood Creek, Marysvale, Piute County, Utah, USA
##OWNER=RRUFF
##SOURCE=Michael Scott
##DESCRIPTION=Gray metallic bleb
##STATUS=The identification of this mineral is confirmed by single-crystal X-ray diffraction and chemical analysis
##URL=https://www.rruff.net/odr/rruff_sample/R060463
##MEASURED CHEMISTRY=Hg_1.02_Se_0.98_
##DIFFRACTION SAMPLE DESCRIPTION=Single crystal, powder profile is calculated
##CELL PARAMETERS=a: 6.09 b: 6.09 c: 6.09 alpha: 90 beta: 90 gamma: 90 volume: 225.6 crystal system: cubic
##FILETYPE=Raman RAW
##RAMAN WAVELENGTH=780

7.826855e+001, 1.009482e+002
8.019702e+001, 1.032165e+002
8.212549e+001, 1.040888e+002
8.405396e+001, 1.041100e+002
8.598242e+001, 1.025625e+002
8.791089e+001, 9.774804e+001
8.983936e+001, 8.994168e+001
9.176782e+001, 8.191796e+001
9.369629e+001, 7.013259e+001
9.562476e+001, 5.732790e+001
9.755322e+001, 4.883125e+001
9.948169e+001, 4.296917e+001
1.014102e+002, 3.800841e+001
1.033386e+002, 3.366279e+001
1.052671e+002, 3.007853e+001
1.071956e+002, 2.695100e+001
1.091240e+002, 2.458002e+001
1.110525e+002, 2.307502e+001
1.129810e+002, 2.224048e+001
1.149094e+002, 2.188668e+001
1.168379e+002, 2.197622e+001
1.187664e+002, 2.213724e+001
1.206948e+002, 2.240867e+001
1.226233e+002, 2.260856e+001
1.245518e+002, 2.267639e+001
1.264802e+002, 2.264221e+001
1.284087e+002, 2.264044e+001
1.303372e+002, 2.267173e+001
1.322656e+002, 2.223872e+001
1.341941e+002, 2.094512e+001
1.361226e+002, 1.962032e+001
1.380510e+002, 1.831714e+001
1.399795e+002, 1.715291e+001
1.419080e+002, 1.623101e+001
1.438364e+002, 1.554381e+001
1.457649e+002, 1.497500e+001
1.476934e+002, 1.461623e+001
1.496218e+002, 1.423901e+001
1.515503e+002, 1.374299e+001
1.534788e+002, 1.327341e+001
1.554072e+002, 1.292706e+001
1.573357e+002, 1.269861e+001
1.592642e+002, 1.256573e+001
1.611926e+002, 1.264872e+001
1.631211e+002, 1.265365e+001
1.650496e+002, 1.246756e+001
1.669780e+002, 1.228999e+001
1.689065e+002, 1.228279e+001
1.708350e+002, 1.238505e+001
1.727634e+002, 1.237470e+001
1.746919e+002, 1.216883e+001
1.766204e+002, 1.199431e+001
1.785488e+002, 1.188194e+001
1.804773e+002, 1.176222e+001
1.824058e+002, 1.159641e+001
1.843342e+002, 1.140139e+001
1.862627e+002, 1.120583e+001
1.881912e+002, 1.101564e+001
1.901196e+002, 1.080346e+001
1.920481e+002, 1.059801e+001
1.939766e+002, 1.032322e+001
1.959050e+002, 9.848981e+000
1.978335e+002, 9.357854e+000
1.997620e+002, 9.016504e+000
2.016904e+002, 8.828879e+000
2.036189e+002, 8.739667e+000
2.055474e+002, 8.790183e+000
2.074758e+002, 8.806116e+000
2.094043e+002, 8.706748e+000
2.113328e+002, 8.594338e+000
2.132612e+002, 8.551052e+000
2.151897e+002, 8.548969e+000
2.171182e+002, 8.484916e+000
2.190466e+002, 8.360659e+000
2.209751e+002, 8.170129e+000
2.229036e+002, 7.834465e+000
2.248320e+002, 7.566257e+000
2.267605e+002, 7.471693e+000
2.286890e+002, 7.478318e+000
2.306174e+002, 7.521074e+000
2.325459e+002, 7.596829e+000
2.344744e+002, 7.579967e+000
2.364028e+002, 7.458493e+000
2.383313e+002, 7.273208e+000
2.402598e+002, 6.884013e+000
2.421882e+002, 6.588158e+000
2.441167e+002, 6.696488e+000
2.460452e+002, 7.045859e+000
2.479736e+002, 7.086688e+000
2.499021e+002, 6.810338e+000
2.518306e+002, 6.534589e+000
2.537590e+002, 6.303748e+000
2.556875e+002, 6.107066e+000
2.576160e+002, 5.909163e+000
2.595444e+002, 5.762570e+000
2.614729e+002, 5.764537e+000
2.634014e+002, 5.882864e+000
2.653298e+002, 5.970027e+000
2.672583e+002, 6.027035e+000
2.691868e+002, 6.020967e+000
2.711152e+002, 5.916425e+000
2.730437e+002, 5.782657e+000
2.749722e+002, 5.564579e+000
2.769006e+002, 5.379290e+000
2.788291e+002, 5.504460e+000
2.807576e+002, 5.899322e+000
2.826860e+002, 6.063894e+000
2.846145e+002, 5.773118e+000
2.865430e+002, 5.551441e+000
2.884714e+002, 5.572677e+000
2.903999e+002, 5.627653e+000
2.923284e+002, 5.551898e+000
2.942568e+002, 5.410774e+000
2.961853e+002, 5.350725e+000
2.981138e+002, 5.390144e+000
3.000422e+002, 5.333776e+000
3.019707e+002, 5.010333e+000
3.038992e+002, 4.789966e+000
3.058276e+002, 4.805271e+000
3.077561e+002, 4.900896e+000
3.096846e+002, 4.966945e+000
3.116130e+002, 5.010866e+000
3.135415e+002, 5.048210e+000
3.154700e+002, 5.084803e+000
3.173984e+002, 5.091805e+000
3.193269e+002, 5.061187e+000
3.212554e+002, 5.012443e+000
3.231838e+002, 4.928092e+000
3.251123e+002, 4.847220e+000
3.270408e+002, 4.795066e+000
3.289692e+002, 4.771675e+000
3.308977e+002, 4.785560e+000
3.328262e+002, 4.864982e+000
3.347546e+002, 4.905334e+000
3.366831e+002, 4.928941e+000
3.386116e+002, 4.885068e+000
3.405400e+002, 4.677821e+000
3.424685e+002, 4.476462e+000
3.443970e+002, 4.443672e+000
3.463254e+002, 4.514907e+000
3.482539e+002, 4.454722e+000
3.501824e+002, 4.179492e+000
3.521108e+002, 4.047095e+000
3.540393e+002, 4.119676e+000
3.559678e+002, 4.211396e+000
3.578962e+002, 4.343637e+000
3.598247e+002, 4.386362e+000
3.617532e+002, 4.140900e+000
3.636816e+002, 3.778729e+000
3.656101e+002, 3.763017e+000
3.675386e+002, 4.188672e+000
3.694670e+002, 4.406771e+000
3.713955e+002, 4.390013e+000
3.733240e+002, 4.243670e+000
3.752524e+002, 3.811453e+000
3.771809e+002, 3.510825e+000
3.791094e+002, 3.703626e+000
3.810378e+002, 4.088748e+000
3.829663e+002, 4.169018e+000
3.848948e+002, 3.942682e+000
3.868232e+002, 3.804653e+000
3.887517e+002, 3.756811e+000
3.906802e+002, 3.785574e+000
3.926086e+002, 3.982020e+000
3.945371e+002, 4.089458e+000
3.964656e+002, 3.887948e+000
3.983940e+002, 3.645248e+000
4.003225e+002, 3.672706e+000
4.022510e+002, 3.894564e+000
4.041794e+002, 3.949785e+000
4.061079e+002, 3.834088e+000
4.080364e+002, 3.794457e+000
4.099648e+002, 3.908100e+000
4.118933e+002, 3.981764e+000
4.138218e+002, 3.925305e+000
4.157502e+002, 3.837872e+000
4.176787e+002, 3.790879e+000
4.196072e+002, 3.742304e+000
4.215356e+002, 3.556786e+000
4.234641e+002, 3.281778e+000
4.253926e+002, 3.238662e+000
4.273210e+002, 3.489815e+000
4.292495e+002, 3.699282e+000
4.311780e+002, 3.832108e+000
4.331064e+002, 3.845281e+000
4.350349e+002, 3.615139e+000
4.369634e+002, 3.365516e+000
4.388918e+002, 3.295746e+000
4.408203e+002, 3.349663e+000
4.427488e+002, 3.423115e+000
4.446772e+002, 3.509019e+000
4.466057e+002, 3.495573e+000
4.485342e+002, 3.300822e+000
4.504626e+002, 3.206632e+000
4.523911e+002, 3.359657e+000
4.543196e+002, 3.487898e+000
4.562480e+002, 3.465384e+000
4.581765e+002, 3.389361e+000
4.601050e+002, 3.346168e+000
4.620334e+002, 3.325662e+000
4.639619e+002, 3.310686e+000
4.658904e+002, 3.301012e+000
4.678188e+002, 3.283823e+000
4.697473e+002, 3.227151e+000
4.716758e+002, 3.224212e+000
4.736042e+002, 3.349838e+000
4.755327e+002, 3.443904e+000
4.774612e+002, 3.402367e+000
4.793896e+002, 3.333148e+000
4.813181e+002, 3.340673e+000
4.832466e+002, 3.393330e+000
4.851750e+002, 3.441942e+000
4.871035e+002, 3.491261e+000
4.890320e+002, 3.460552e+000
4.909604e+002, 3.232096e+000
4.928889e+002, 3.111527e+000
4.948174e+002, 3.203070e+000
4.967458e+002, 3.271049e+000
4.986743e+002, 3.201752e+000
5.006028e+002, 3.111591e+000
5.025313e+002, 3.080216e+000
5.044597e+002, 3.090657e+000
5.063882e+002, 3.136889e+000
5.083167e+002, 3.218209e+000
5.102451e+002, 3.202388e+000
5.121736e+002, 3.022730e+000
5.141021e+002, 2.909103e+000
5.160305e+002, 2.873001e+000
5.179590e+002, 2.885479e+000
5.198875e+002, 2.967722e+000
5.218159e+002, 3.055668e+000
5.237444e+002, 3.144494e+000
5.256729e+002, 3.191855e+000
5.276013e+002, 3.100506e+000
5.295298e+002, 2.925882e+000
5.314583e+002, 2.911876e+000
5.333867e+002, 3.094202e+000
5.353152e+002, 3.167168e+000
5.372437e+002, 3.114636e+000
5.391721e+002, 3.009445e+000
5.411006e+002, 2.797734e+000
5.430291e+002, 2.674733e+000
5.449575e+002, 2.796213e+000
5.468860e+002, 2.962333e+000
5.488145e+002, 3.101300e+000
5.507429e+002, 3.178958e+000
5.526714e+002, 3.083656e+000
5.545999e+002, 2.866886e+000
5.565283e+002, 2.860827e+000
5.584568e+002, 3.064477e+000
5.603853e+002, 3.181432e+000
5.623137e+002, 3.189369e+000
5.642422e+002, 3.098967e+000
5.661707e+002, 2.798486e+000
5.680991e+002, 2.610961e+000
5.700276e+002, 2.729596e+000
5.719561e+002, 2.901990e+000
5.738845e+002, 2.978956e+000
5.758130e+002, 2.995855e+000
5.777415e+002, 2.981812e+000
5.796699e+002, 2.952220e+000
5.815984e+002, 2.985180e+000
5.835269e+002, 3.071541e+000
5.854553e+002, 3.048824e+000
5.873838e+002, 2.864494e+000
5.893123e+002, 2.770201e+000
5.912407e+002, 2.920884e+000
5.931692e+002, 2.987973e+000
5.950977e+002, 2.771649e+000
5.970261e+002, 2.599742e+000
5.989546e+002, 2.694526e+000
6.008831e+002, 2.881495e+000
6.028115e+002, 2.996338e+000
6.047400e+002, 3.056512e+000
6.066685e+002, 3.118853e+000
6.085969e+002, 3.165372e+000
6.105254e+002, 3.066164e+000
6.124539e+002, 2.781057e+000
6.143823e+002, 2.662623e+000
6.163108e+002, 2.851253e+000
6.182393e+002, 3.004330e+000
6.201677e+002, 3.057954e+000
6.220962e+002, 3.102174e+000
6.240247e+002, 3.223700e+000
6.259531e+002, 3.277046e+000
6.278816e+002, 3.035941e+000
6.298101e+002, 2.786225e+000
6.317385e+002, 2.924830e+000
6.336670e+002, 3.248452e+000
6.355955e+002, 3.329335e+000
6.375239e+002, 3.184455e+000
6.394524e+002, 3.094186e+000
6.413809e+002, 3.044904e+000
6.433093e+002, 3.129582e+000
6.452378e+002, 3.517741e+000
6.471663e+002, 3.746267e+000
6.490947e+002, 3.624014e+000
6.510232e+002, 3.594087e+000
6.529517e+002, 3.886480e+000
6.548801e+002, 4.171133e+000
6.568086e+002, 4.188064e+000
6.587371e+002, 4.182345e+000
6.606655e+002, 4.407148e+000
6.625940e+002, 4.723643e+000
6.645225e+002, 4.891586e+000
6.664509e+002, 4.937206e+000
6.683794e+002, 4.981787e+000
6.703079e+002, 5.014041e+000
6.722363e+002, 5.191733e+000
6.741648e+002, 5.608020e+000
6.760933e+002, 5.773297e+000
6.780217e+002, 5.530047e+000
6.799502e+002, 5.430151e+000
6.818787e+002, 5.688140e+000
6.838071e+002, 5.924057e+000
6.857356e+002, 6.029275e+000
6.876641e+002, 5.988488e+000
6.895925e+002, 5.638289e+000
6.915210e+002, 5.306367e+000
6.934495e+002, 5.387885e+000
6.953779e+002, 5.629247e+000
6.973064e+002, 5.562191e+000
6.992349e+002, 5.281284e+000
7.011633e+002, 5.177190e+000
7.030918e+002, 5.244414e+000
7.050203e+002, 5.225663e+000
7.069487e+002, 5.117614e+000
7.088772e+002, 4.979137e+000
7.108057e+002, 4.812282e+000
7.127341e+002, 4.627946e+000
7.146626e+002, 4.386405e+000
7.165911e+002, 4.237605e+000
7.185195e+002, 4.322383e+000
7.204480e+002, 4.373568e+000
7.223765e+002, 4.301772e+000
7.243049e+002, 4.153516e+000
7.262334e+002, 3.863384e+000
7.281619e+002, 3.601273e+000
7.300903e+002, 3.602746e+000
7.320188e+002, 3.718785e+000
7.339473e+002, 3.672398e+000
7.358757e+002, 3.531611e+000
7.378042e+002, 3.533823e+000
7.397327e+002, 3.634726e+000
7.416611e+002, 3.557735e+000
7.435896e+002, 3.292886e+000
7.455181e+002, 3.163791e+000
7.474465e+002, 3.236045e+000
7.493750e+002, 3.263119e+000
7.513035e+002, 3.210052e+000
7.532319e+002, 3.107271e+000
7.551604e+002, 2.864606e+000
7.570889e+002, 2.724219e+000
7.590173e+002, 2.798845e+000
7.609458e+002, 2.914448e+000
7.628743e+002, 3.035638e+000
7.648027e+002, 3.119720e+000
7.667312e+002, 3.130680e+000
7.686597e+002, 3.095805e+000
7.705881e+002, 3.020926e+000
7.725166e+002, 2.933013e+000
7.744451e+002, 2.862468e+000
7.763735e+002, 2.809311e+000
7.783020e+002, 2.780796e+000
7.802305e+002, 2.770426e+000
7.821589e+002, 2.744549e+000
7.840874e+002, 2.702151e+000
7.860159e+002, 2.647375e+000
7.879443e+002, 2.551251e+000
7.898728e+002, 2.555899e+000
7.918013e+002, 2.776639e+000
7.937297e+002, 2.866233e+000
7.956582e+002, 2.733845e+000
7.975867e+002, 2.657624e+000
7.995151e+002, 2.741878e+000
8.014436e+002, 2.743072e+000
8.033721e+002, 2.498864e+000
8.053005e+002, 2.338700e+000
8.072290e+002, 2.502597e+000
8.091575e+002, 2.631756e+000
8.110859e+002, 2.449374e+000
8.130144e+002, 2.236609e+000
8.149429e+002, 2.165521e+000
8.168713e+002, 2.188000e+000
8.187998e+002, 2.332258e+000
8.207283e+002, 2.483138e+000
8.226567e+002, 2.445886e+000
8.245852e+002, 2.302882e+000
8.265137e+002, 2.237617e+000
8.284421e+002, 2.228116e+000
8.303706e+002, 2.171404e+000
8.322991e+002, 2.079303e+000
8.342275e+002, 2.077013e+000
8.361560e+002, 2.167087e+000
8.380845e+002, 2.326022e+000
8.400129e+002, 2.564846e+000
8.419414e+002, 2.643116e+000
8.438699e+002, 2.532937e+000
8.457983e+002, 2.378974e+000
8.477268e+002, 2.176948e+000
8.496553e+002, 2.073514e+000
8.515837e+002, 2.130815e+000
8.535122e+002, 2.151382e+000
8.554407e+002, 2.034276e+000
8.573691e+002, 2.006208e+000
8.592976e+002, 2.226843e+000
8.612261e+002, 2.390349e+000
8.631545e+002, 2.362832e+000
8.650830e+002, 2.307315e+000
8.670115e+002, 2.303564e+000
8.689399e+002, 2.273013e+000
8.708684e+002, 2.034722e+000
8.727969e+002, 1.918391e+000
8.747253e+002, 2.369385e+000
8.766538e+002, 2.841071e+000
8.785823e+002, 2.796048e+000
8.805107e+002, 2.501214e+000
8.824392e+002, 2.125843e+000
8.843677e+002, 1.818909e+000
8.862961e+002, 1.879528e+000
8.882246e+002, 2.121346e+000
8.901531e+002, 2.225804e+000
8.920815e+002, 2.231920e+000
8.940100e+002, 2.215426e+000
8.959385e+002, 2.171988e+000
8.978669e+002, 2.050751e+000
8.997954e+002, 1.888791e+000
9.017239e+002, 1.836487e+000
9.036523e+002, 1.901677e+000
9.055808e+002, 2.184096e+000
9.075093e+002, 2.682469e+000
9.094377e+002, 2.763267e+000
9.113662e+002, 2.333553e+000
9.132947e+002, 2.183468e+000
9.152231e+002, 2.420964e+000
9.171516e+002, 2.596869e+000
9.190801e+002, 2.724644e+000
9.210085e+002, 2.713323e+000
9.229370e+002, 2.412497e+000
9.248655e+002, 2.269794e+000
9.267939e+002, 2.368722e+000
9.287224e+002, 2.465165e+000
9.306509e+002, 2.602517e+000
9.325793e+002, 2.605681e+000
9.345078e+002, 2.334931e+000
9.364363e+002, 2.195888e+000
9.383647e+002, 2.331121e+000
9.402932e+002, 2.455130e+000
9.422217e+002, 2.491765e+000
9.441501e+002, 2.524265e+000
9.460786e+002, 2.627605e+000
9.480071e+002, 2.612348e+000
9.499355e+002, 2.317829e+000
9.518640e+002, 2.085464e+000
9.537925e+002, 2.088716e+000
9.557209e+002, 2.126051e+000
9.576494e+002, 2.086047e+000
9.595779e+002, 2.089250e+000
9.615063e+002, 2.232364e+000
9.634348e+002, 2.380824e+000
9.653633e+002, 2.507427e+000
9.672917e+002, 2.555701e+000
9.692202e+002, 2.437867e+000
9.711487e+002, 2.307016e+000
9.730771e+002, 2.241368e+000
9.750056e+002, 2.215428e+000
9.769341e+002, 2.232135e+000
9.788625e+002, 2.256701e+000
9.807910e+002, 2.264897e+000
9.827195e+002, 2.266626e+000
9.846479e+002, 2.262185e+000
9.865764e+002, 2.264323e+000
9.885049e+002, 2.287667e+000
9.904333e+002, 2.320006e+000
9.923618e+002, 2.373430e+000
9.942903e+002, 2.403801e+000
9.962188e+002, 2.351380e+000
9.981472e+002, 2.264586e+000
1.000076e+003, 2.151069e+000
1.002004e+003, 2.080019e+000
1.003933e+003, 2.198366e+000
1.005861e+003, 2.341757e+000
1.007790e+003, 2.294596e+000
1.009718e+003, 2.167613e+000
1.011646e+003, 2.047827e+000
1.013575e+003, 1.982032e+000
1.015503e+003, 2.057716e+000
1.017432e+003, 2.200314e+000
1.019360e+003, 2.342870e+000
1.021289e+003, 2.462469e+000
1.023217e+003, 2.557281e+000
1.025146e+003, 2.584111e+000
1.027074e+003, 2.420168e+000
1.029003e+003, 2.208999e+000
1.030931e+003, 2.144618e+000
1.032860e+003, 2.152472e+000
1.034788e+003, 2.143054e+000
1.036717e+003, 2.134548e+000
1.038645e+003, 2.134882e+000
1.040573e+003, 2.165124e+000
1.042502e+003, 2.297984e+000
1.044430e+003, 2.436085e+000
1.046359e+003, 2.440171e+000
1.048287e+003, 2.391354e+000
1.050216e+003, 2.416570e+000
1.052144e+003, 2.425767e+000
1.054073e+003, 2.229366e+000
1.056001e+003, 2.027188e+000
1.057930e+003, 2.100005e+000
1.059858e+003, 2.267114e+000
1.061787e+003, 2.362972e+000
1.063715e+003, 2.387272e+000
1.065644e+003, 2.258190e+000
1.067572e+003, 2.141837e+000
1.069500e+003, 2.350806e+000
1.071429e+003, 2.526448e+000
1.073357e+003, 2.151045e+000
1.075286e+003, 1.716250e+000
1.077214e+003, 1.715392e+000
1.079143e+003, 1.872683e+000
1.081071e+003, 2.044541e+000
1.083000e+003, 2.128990e+000
1.084928e+003, 1.917473e+000
1.086857e+003, 1.728757e+000
1.088785e+003, 1.905849e+000
1.090714e+003, 2.095405e+000
1.092642e+003, 1.978095e+000
1.094571e+003, 1.852870e+000
1.096499e+003, 1.963911e+000
1.098427e+003, 2.079193e+000
1.100356e+003, 2.032771e+000
1.102284e+003, 1.978792e+000
1.104213e+003, 2.007851e+000
1.106141e+003, 2.045887e+000
1.108070e+003, 2.085639e+000
1.109998e+003, 2.081579e+000
1.111927e+003, 1.975399e+000
1.113855e+003, 1.880765e+000
1.115784e+003, 1.815883e+000
1.117712e+003, 1.811257e+000
1.119641e+003, 1.942036e+000
1.121569e+003, 2.017193e+000
1.123498e+003, 1.935942e+000
1.125426e+003, 1.887375e+000
1.127354e+003, 1.955607e+000
1.129283e+003, 1.972871e+000
1.131211e+003, 1.852837e+000
1.133140e+003, 1.812093e+000
1.135068e+003, 1.938275e+000
1.136997e+003, 2.000339e+000
1.138925e+003, 1.936661e+000
1.140854e+003, 1.908453e+000
1.142782e+003, 1.961867e+000
1.144711e+003, 1.921958e+000
1.146639e+003, 1.733850e+000
1.148568e+003, 1.679035e+000
1.150496e+003, 1.799469e+000
1.152425e+003, 1.881485e+000
1.154353e+003, 1.910689e+000
1.156281e+003, 1.944809e+000
1.158210e+003, 1.985682e+000
1.160138e+003, 1.866758e+000
1.162067e+003, 1.607187e+000
1.163995e+003, 1.599656e+000
1.165924e+003, 1.798873e+000
1.167852e+003, 1.802721e+000
1.169781e+003, 1.672781e+000
1.171709e+003, 1.709654e+000
1.173638e+003, 1.859590e+000
1.175566e+003, 2.018820e+000
1.177495e+003, 2.117337e+000
1.179423e+003, 1.889601e+000
1.181352e+003, 1.591957e+000
1.183280e+003, 1.697890e+000
1.185208e+003, 1.925422e+000
1.187137e+003, 1.914382e+000
1.189065e+003, 1.854253e+000
1.190994e+003, 1.925547e+000
1.192922e+003, 2.029120e+000
1.194851e+003, 2.105063e+000
1.196779e+003, 2.170051e+000
1.198708e+003, 2.243767e+000
1.200636e+003, 2.291368e+000
1.202565e+003, 2.287513e+000
1.204493e+003, 2.275845e+000
1.206422e+003, 2.298182e+000
1.208350e+003, 2.237958e+000
1.210279e+003, 2.014386e+000
1.212207e+003, 1.857946e+000
1.214135e+003, 1.824322e+000
1.216064e+003, 1.877843e+000
1.217992e+003, 2.034137e+000
1.219921e+003, 2.088974e+000
1.221849e+003, 2.004945e+000
1.223778e+003, 2.050808e+000
1.225706e+003, 2.245006e+000
1.227635e+003, 2.283904e+000
1.229563e+003, 2.161770e+000
1.231492e+003, 1.919517e+000
1.233420e+003, 1.626701e+000
1.235349e+003, 1.683182e+000
1.237277e+003, 1.967308e+000
1.239206e+003, 2.183655e+000
1.241134e+003, 2.308910e+000
1.243063e+003, 2.232132e+000
1.244991e+003, 2.100239e+000
1.246919e+003, 2.168029e+000
1.248848e+003, 2.231160e+000
1.250776e+003, 1.960147e+000
1.252705e+003, 1.762565e+000
1.254633e+003, 2.078218e+000
1.256562e+003, 2.357078e+000
1.258490e+003, 2.240006e+000
1.260419e+003, 2.130738e+000
1.262347e+003, 2.206850e+000
1.264276e+003, 2.248530e+000
1.266204e+003, 2.170213e+000
1.268133e+003, 2.152851e+000
1.270061e+003, 2.286850e+000
1.271990e+003, 2.189472e+000
1.273918e+003, 1.764561e+000
1.275846e+003, 1.675688e+000
1.277775e+003, 1.946548e+000
1.279703e+003, 2.103596e+000
1.281632e+003, 2.150408e+000
1.283560e+003, 2.180478e+000
1.285489e+003, 2.192220e+000
1.287417e+003, 2.171516e+000
1.289346e+003, 2.129991e+000
1.291274e+003, 2.030546e+000
1.293203e+003, 1.988566e+000
1.295131e+003, 2.233526e+000
1.297060e+003, 2.433165e+000
1.298988e+003, 2.257030e+000
1.300917e+003, 2.099476e+000
1.302845e+003, 2.205731e+000
1.304773e+003, 2.303682e+000
1.306702e+003, 2.306148e+000
1.308630e+003, 2.239553e+000
1.310559e+003, 2.050372e+000
1.312487e+003, 2.042243e+000
1.314416e+003, 2.309749e+000
1.316344e+003, 2.429893e+000
1.318273e+003, 2.371678e+000
1.320201e+003, 2.416653e+000
1.322130e+003, 2.527117e+000
1.324058e+003, 2.323340e+000
1.325987e+003, 1.979787e+000
1.327915e+003, 2.078730e+000
1.329844e+003, 2.328457e+000
1.331772e+003, 2.190223e+000
1.333700e+003, 2.024708e+000
1.335629e+003, 2.271446e+000
1.337557e+003, 2.517432e+000
1.339486e+003, 2.423666e+000
1.341414e+003, 2.426272e+000
1.343343e+003, 2.746131e+000
1.345271e+003, 2.949200e+000
1.347200e+003, 2.930183e+000
1.349128e+003, 2.812572e+000
1.351057e+003, 2.607286e+000
1.352985e+003, 2.503318e+000
1.354914e+003, 2.513787e+000
1.356842e+003, 2.676969e+000
1.358771e+003, 2.896681e+000
1.360699e+003, 2.752346e+000
1.362627e+003, 2.438872e+000
1.364556e+003, 2.299205e+000
1.366484e+003, 2.258777e+000
1.368413e+003, 2.262946e+000
1.370341e+003, 2.279839e+000
1.372270e+003, 2.237961e+000
1.374198e+003, 2.282876e+000
1.376127e+003, 2.577794e+000
1.378055e+003, 2.771488e+000
1.379984e+003, 2.724241e+000
1.381912e+003, 2.824575e+000
1.383841e+003, 3.156680e+000
1.385769e+003, 3.075683e+000
1.387698e+003, 2.616402e+000
1.389626e+003, 2.529703e+000
1.391554e+003, 2.689600e+000
1.393483e+003, 2.631249e+000
1.395411e+003, 2.528076e+000
1.397340e+003, 2.723022e+000
1.399268e+003, 2.891870e+000
1.401197e+003, 2.696988e+000
1.403125e+003, 2.483656e+000
1.405054e+003, 2.381175e+000
1.406982e+003, 2.405115e+000
1.408911e+003, 2.625365e+000
1.410839e+003, 2.799839e+000
1.412768e+003, 2.906922e+000
1.414696e+003, 2.926232e+000
1.416625e+003, 2.859247e+000
1.418553e+003, 2.783607e+000
1.420481e+003, 2.704971e+000
1.422410e+003, 2.628899e+000
1.424338e+003, 2.577371e+000
1.426267e+003, 2.612253e+000
1.428195e+003, 2.648110e+000
1.430124e+003, 2.632287e+000
1.432052e+003, 2.572756e+000
1.433981e+003, 2.434422e+000
1.435909e+003, 2.386512e+000
1.437838e+003, 2.478484e+000
1.439766e+003, 2.646575e+000
1.441695e+003, 2.886425e+000
1.443623e+003, 2.684728e+000
1.445552e+003, 2.177578e+000
1.447480e+003, 2.146699e+000
1.449408e+003, 2.329447e+000
1.451337e+003, 2.172520e+000
1.453265e+003, 1.994268e+000
1.455194e+003, 2.181252e+000
1.457122e+003, 2.351247e+000
1.459051e+003, 2.269343e+000
1.460979e+003, 2.256633e+000
1.462908e+003, 2.403869e+000
1.464836e+003, 2.463042e+000
1.466765e+003, 2.410683e+000
1.468693e+003, 2.455799e+000
1.470622e+003, 2.546536e+000
1.472550e+003, 2.308984e+000
1.474479e+003, 2.015027e+000
1.476407e+003, 2.221675e+000
1.478335e+003, 2.502554e+000
1.480264e+003, 2.489521e+000
1.482192e+003, 2.376807e+000
1.484121e+003, 2.184439e+000
1.486049e+003, 2.048173e+000
1.487978e+003, 1.966431e+000
1.489906e+003, 2.062925e+000
1.491835e+003, 2.332151e+000
1.493763e+003, 2.518479e+000
1.495692e+003, 2.586088e+000
1.497620e+003, 2.339983e+000
1.499549e+003, 2.051024e+000
1.501477e+003, 2.094618e+000
1.503406e+003, 2.155632e+000
1.505334e+003, 1.958084e+000
1.507262e+003, 1.864182e+000
1.509191e+003, 2.051734e+000
1.511119e+003, 2.194354e+000
1.513048e+003, 2.273739e+000
1.514976e+003, 2.297689e+000
1.516905e+003, 2.264304e+000
1.518833e+003, 2.158604e+000
1.520762e+003, 1.991149e+000
1.522690e+003, 1.627462e+000
1.524619e+003, 1.449502e+000
1.526547e+003, 1.841289e+000
1.528476e+003, 2.150981e+000
1.530404e+003, 2.125875e+000
1.532333e+003, 2.089512e+000
1.534261e+003, 2.088389e+000
1.536189e+003, 2.146772e+000
1.538118e+003, 2.229860e+000
1.540046e+003, 2.101646e+000
1.541975e+003, 1.914738e+000
1.543903e+003, 1.954651e+000
1.545832e+003, 2.005976e+000
1.547760e+003, 1.892233e+000
1.549689e+003, 1.824180e+000
1.551617e+003, 1.868223e+000
1.553546e+003, 1.912955e+000
1.555474e+003, 1.943843e+000
1.557403e+003, 2.020634e+000
1.559331e+003, 2.111308e+000
1.561260e+003, 2.084501e+000
1.563188e+003, 2.014934e+000
1.565116e+003, 2.011950e+000
1.567045e+003, 1.991148e+000
1.568973e+003, 1.803728e+000
1.570902e+003, 1.828890e+000
1.572830e+003, 2.179055e+000
1.574759e+003, 2.326387e+000
1.576687e+003, 2.247504e+000
1.578616e+003, 2.019704e+000
1.580544e+003, 1.804078e+000
1.582473e+003, 1.991761e+000
1.584401e+003, 2.224487e+000
1.586330e+003, 2.205267e+000
1.588258e+003, 2.088277e+000
1.590187e+003, 1.824325e+000
1.592115e+003, 1.747161e+000
1.594043e+003, 1.887222e+000
1.595972e+003, 1.960102e+000
1.597900e+003, 1.960384e+000
1.599829e+003, 1.812395e+000
1.601757e+003, 1.715744e+000
1.603686e+003, 1.963482e+000
1.605614e+003, 2.211909e+000
1.607543e+003, 2.308194e+000
1.609471e+003, 2.317439e+000
1.611400e+003, 2.236820e+000
1.613328e+003, 2.120078e+000
1.615257e+003, 1.973778e+000
1.617185e+003, 1.808809e+000
1.619114e+003, 1.676323e+000
1.621042e+003, 1.647064e+000
1.622970e+003, 1.677894e+000
1.624899e+003, 1.765242e+000
1.626827e+003, 1.859326e+000
1.628756e+003, 1.964702e+000
1.630684e+003, 1.959451e+000
1.632613e+003, 1.858667e+000
1.634541e+003, 1.723787e+000
1.636470e+003, 1.625989e+000
1.638398e+003, 1.672899e+000
1.640327e+003, 1.820356e+000
1.642255e+003, 2.114655e+000
1.644184e+003, 2.239986e+000
1.646112e+003, 2.117842e+000
1.648041e+003, 2.010224e+000
1.649969e+003, 1.939492e+000
1.651897e+003, 1.958777e+000
1.653826e+003, 1.982424e+000
1.655754e+003, 1.834155e+000
1.657683e+003, 1.758115e+000
1.659611e+003, 1.929708e+000
1.661540e+003, 1.897267e+000
1.663468e+003, 1.596119e+000
1.665397e+003, 1.439744e+000
1.667325e+003, 1.440413e+000
1.669254e+003, 1.632519e+000
1.671182e+003, 1.807799e+000
1.673111e+003, 1.608292e+000
1.675039e+003, 1.581743e+000
1.676968e+003, 2.041445e+000
1.678896e+003, 2.182953e+000
1.680824e+003, 1.972750e+000
1.682753e+003, 1.935883e+000
1.684681e+003, 2.002156e+000
1.686610e+003, 2.002623e+000
1.688538e+003, 1.985526e+000
1.690467e+003, 1.990939e+000
1.692395e+003, 1.984237e+000
1.694324e+003, 1.970928e+000
1.696252e+003, 1.850500e+000
1.698181e+003, 1.663193e+000
1.700109e+003, 1.667253e+000
1.702038e+003, 1.738321e+000
1.703966e+003, 1.688870e+000
1.705895e+003, 1.713443e+000
1.707823e+003, 2.011183e+000
1.709751e+003, 2.108676e+000
1.711680e+003, 1.957351e+000
1.713608e+003, 1.972471e+000
1.715537e+003, 2.061419e+000
1.717465e+003, 2.010017e+000
1.719394e+003, 1.919133e+000
1.721322e+003, 1.844069e+000
1.723251e+003, 1.759028e+000
1.725179e+003, 1.638649e+000
1.727108e+003, 1.668532e+000
1.729036e+003, 1.807455e+000
1.730965e+003, 1.951672e+000
1.732893e+003, 1.965162e+000
1.734822e+003, 1.551828e+000
1.736750e+003, 1.388453e+000
1.738678e+003, 1.728221e+000
1.740607e+003, 2.034144e+000
1.742535e+003, 2.220308e+000
1.744464e+003, 2.012956e+000
1.746392e+003, 1.680356e+000
1.748321e+003, 1.562054e+000
1.750249e+003, 1.564609e+000
1.752178e+003, 1.667976e+000
1.754106e+003, 1.824168e+000
1.756035e+003, 1.992233e+000
1.757963e+003, 1.707397e+000
1.759892e+003, 1.355084e+000
1.761820e+003, 1.735504e+000
1.763749e+003, 2.110158e+000
1.765677e+003, 2.096271e+000
1.767605e+003, 1.941429e+000
1.769534e+003, 1.690259e+000
1.771462e+003, 1.538406e+000
1.773391e+003, 1.520668e+000
1.775319e+003, 1.819272e+000
1.777248e+003, 2.034950e+000
1.779176e+003, 1.825646e+000
1.781105e+003, 1.648720e+000
1.783033e+003, 1.552783e+000
1.784962e+003, 1.763622e+000
1.786890e+003, 2.062302e+000
1.788819e+003, 2.032830e+000
1.790747e+003, 1.870157e+000
1.792676e+003, 1.641380e+000
1.794604e+003, 1.416197e+000
1.796532e+003, 1.188690e+000
1.798461e+003, 1.317523e+000
1.800389e+003, 1.609898e+000
1.802318e+003, 1.718807e+000
1.804246e+003, 1.714279e+000
1.806175e+003, 1.538565e+000
1.808103e+003, 1.555256e+000
1.810032e+003, 1.810481e+000
1.811960e+003, 1.900114e+000
1.813889e+003, 1.880403e+000
1.815817e+003, 1.846871e+000
1.817746e+003, 1.742452e+000
1.819674e+003, 1.469843e+000
1.821603e+003, 1.505369e+000
1.823531e+003, 1.854681e+000
1.825459e+003, 1.671412e+000
1.827388e+003, 1.344296e+000
1.829316e+003, 1.499688e+000
1.831245e+003, 1.633003e+000
1.833173e+003, 1.584775e+000
1.835102e+003, 1.444589e+000
1.837030e+003, 1.273898e+000
1.838959e+003, 1.329735e+000
1.840887e+003, 1.523131e+000
1.842816e+003, 1.910500e+000
1.844744e+003, 2.038821e+000
1.846673e+003, 1.793052e+000
1.848601e+003, 1.716217e+000
1.850530e+003, 1.752257e+000
1.852458e+003, 1.572615e+000
1.854386e+003, 1.435500e+000
1.856315e+003, 1.620259e+000
1.858243e+003, 1.667622e+000
1.860172e+003, 1.533485e+000
1.862100e+003, 1.487758e+000
1.864029e+003, 1.487301e+000
1.865957e+003, 1.456863e+000
1.867886e+003, 1.396685e+000
1.869814e+003, 1.258884e+000
1.871743e+003, 1.322840e+000
1.873671e+003, 1.533897e+000
1.875600e+003, 1.454318e+000
1.877528e+003, 1.339145e+000
1.879457e+003, 1.467080e+000
1.881385e+003, 1.595802e+000
1.883313e+003, 1.678618e+000
1.885242e+003, 1.655503e+000
1.887170e+003, 1.575710e+000
1.889099e+003, 1.579116e+000
1.891027e+003, 1.545183e+000
1.892956e+003, 1.361968e+000
1.894884e+003, 1.221853e+000
1.896813e+003, 1.146055e+000
1.898741e+003, 1.350232e+000
1.900670e+003, 1.529002e+000
1.902598e+003, 1.319835e+000
1.904527e+003, 1.125553e+000
1.906455e+003, 1.047432e+000
1.908384e+003, 1.250527e+000
1.910312e+003, 1.589954e+000
1.912240e+003, 1.747800e+000
1.914169e+003, 1.730622e+000
1.916097e+003, 1.480673e+000
1.918026e+003, 1.437849e+000
1.919954e+003, 1.594702e+000
1.921883e+003, 1.481992e+000
1.923811e+003, 1.320780e+000
1.925740e+003, 1.340749e+000
1.927668e+003, 1.336265e+000
1.929597e+003, 1.266673e+000
1.931525e+003, 1.261412e+000
1.933454e+003, 1.291625e+000
1.935382e+003, 1.283375e+000
1.937311e+003, 1.328634e+000
1.939239e+003, 1.472057e+000
1.941167e+003, 1.495220e+000
1.943096e+003, 1.430944e+000
1.945024e+003, 1.451185e+000
1.946953e+003, 1.487658e+000
1.948881e+003, 1.517977e+000
1.950810e+003, 1.427486e+000
1.952738e+003, 1.255654e+000
1.954667e+003, 1.437903e+000
1.956595e+003, 1.621987e+000
1.958524e+003, 1.320973e+000
1.960452e+003, 1.171032e+000
1.962381e+003, 1.282094e+000
1.964309e+003, 1.279856e+000
1.966238e+003, 1.245458e+000
1.968166e+003, 1.326076e+000
1.970094e+003, 1.429882e+000
1.972023e+003, 1.566206e+000
1.973951e+003, 1.455809e+000
1.975880e+003, 1.217529e+000
1.977808e+003, 1.151317e+000
1.979737e+003, 1.125636e+000
1.981665e+003, 1.045572e+000
1.983594e+003, 1.121152e+000
1.985522e+003, 1.298584e+000
1.987451e+003, 1.256310e+000
1.989379e+003, 1.238382e+000
1.991308e+003, 1.451413e+000
1.993236e+003, 1.499109e+000
1.995165e+003, 1.364937e+000
1.997093e+003, 1.232791e+000
1.999021e+003, 1.108055e+000
2.000950e+003, 9.575750e-001
2.002878e+003, 9.839626e-001
2.004807e+003, 1.209016e+000
2.006735e+003, 1.331998e+000
2.008664e+003, 1.345739e+000
2.010592e+003, 1.183924e+000
2.012521e+003, 1.133496e+000
2.014449e+003, 1.237159e+000
2.016378e+003, 1.058203e+000
2.018306e+003, 8.394461e-001
2.020235e+003, 9.654810e-001
2.022163e+003, 1.097162e+000
2.024092e+003, 1.164093e+000
2.026020e+003, 1.090397e+000
2.027948e+003, 9.697056e-001
2.029877e+003, 8.865929e-001
2.031805e+003, 9.555592e-001
2.033734e+003, 1.196088e+000
2.035662e+003, 1.200928e+000
2.037591e+003, 1.114031e+000
2.039519e+003, 1.135748e+000
2.041448e+003, 1.328435e+000
2.043376e+003, 1.719720e+000
2.045305e+003, 1.502701e+000
2.047233e+003, 1.048642e+000
2.049162e+003, 1.006592e+000
2.051090e+003, 9.622704e-001
2.053019e+003, 7.758144e-001
2.054947e+003, 7.965852e-001
2.056875e+003, 9.460054e-001
2.058804e+003, 1.137390e+000
2.060732e+003, 1.260597e+000
2.062661e+003, 1.295303e+000
2.064589e+003, 1.036065e+000
2.066518e+003, 7.720076e-001
2.068446e+003, 1.044897e+000
2.070375e+003, 1.121359e+000
2.072303e+003, 7.124082e-001
2.074232e+003, 8.938562e-001
2.076160e+003, 1.258530e+000
2.078089e+003, 1.277023e+000
2.080017e+003, 1.197622e+000
2.081946e+003, 1.079810e+000
2.083874e+003, 8.212074e-001
2.085802e+003, 6.549743e-001
2.087731e+003, 9.380844e-001
2.089659e+003, 1.083272e+000
2.091588e+003, 9.675316e-001
2.093516e+003, 8.793087e-001
2.095445e+003, 8.884271e-001
2.097373e+003, 1.127863e+000
2.099302e+003, 1.203507e+000
2.101230e+003, 1.072177e+000
2.103159e+003, 9.130949e-001
2.105087e+003, 8.664720e-001
2.107016e+003, 1.106240e+000
2.108944e+003, 1.144020e+000
2.110873e+003, 9.954163e-001
2.112801e+003, 9.973282e-001
2.114729e+003, 1.057554e+000
2.116658e+003, 1.151295e+000
2.118586e+003, 1.021309e+000
2.120515e+003, 8.346786e-001
2.122443e+003, 1.181026e+000
2.124372e+003, 1.452640e+000
2.126300e+003, 1.391687e+000
2.128229e+003, 1.205535e+000
2.130157e+003, 9.940256e-001
2.132086e+003, 9.376711e-001
2.134014e+003, 8.215725e-001
2.135943e+003, 5.767304e-001
2.137871e+003, 7.666910e-001
2.139800e+003, 1.022338e+000
2.141728e+003, 7.900499e-001
2.143656e+003, 8.123379e-001
2.145585e+003, 1.146610e+000
2.147513e+003, 7.796978e-001
2.149442e+003, 4.274049e-001
2.151370e+003, 6.992579e-001
2.153299e+003, 9.106708e-001
2.155227e+003, 9.884047e-001
2.157156e+003, 7.956871e-001
2.159084e+003, 6.592833e-001
2.161013e+003, 7.332478e-001
2.162941e+003, 9.249504e-001
2.164870e+003, 1.103217e+000
2.166798e+003, 9.785503e-001
2.168727e+003, 9.016878e-001
2.170655e+003, 9.632350e-001
2.172583e+003, 8.762190e-001
2.174512e+003, 7.739116e-001
2.176440e+003, 7.986611e-001
2.178369e+003, 8.395579e-001
2.180297e+003, 8.419877e-001
2.182226e+003, 5.138952e-001
2.184154e+003, 3.651324e-001
2.186083e+003, 6.590496e-001
2.188011e+003, 8.685676e-001
2.189940e+003, 9.668508e-001
2.191868e+003, 9.894554e-001
2.193797e+003, 8.972992e-001
2.195725e+003, 7.095994e-001
2.197654e+003, 9.395199e-001
2.199582e+003, 1.178489e+000
2.201510e+003, 8.984404e-001
2.203439e+003, 7.399035e-001
2.205367e+003, 7.457495e-001
2.207296e+003, 9.357842e-001
2.209224e+003, 9.606005e-001
2.211153e+003, 5.970724e-001
2.213081e+003, 4.419014e-001
2.215010e+003, 4.482774e-001
2.216938e+003, 5.863556e-001
2.218867e+003, 5.619057e-001
2.220795e+003, 3.697598e-001
2.222724e+003, 6.840143e-001
2.224652e+003, 9.553362e-001
2.226581e+003, 6.804928e-001
2.228509e+003, 6.904414e-001
2.230438e+003, 8.683192e-001
2.232366e+003, 8.510981e-001
2.234294e+003, 8.264688e-001
2.236223e+003, 8.508064e-001
2.238151e+003, 8.508528e-001
2.240080e+003, 8.840562e-001
2.242008e+003, 1.037991e+000
2.243937e+003, 9.540300e-001
2.245865e+003, 7.104011e-001
2.247794e+003, 6.313159e-001
2.249722e+003, 6.027324e-001
2.251651e+003, 5.892999e-001
2.253579e+003, 5.707449e-001
2.255508e+003, 5.836149e-001
2.257436e+003, 6.777534e-001
2.259365e+003, 7.384495e-001
2.261293e+003, 7.619767e-001
2.263221e+003, 7.856528e-001
2.265150e+003, 8.087761e-001
2.267078e+003, 8.313453e-001
2.269007e+003, 8.767319e-001
2.270935e+003, 9.037759e-001
2.272864e+003, 8.812215e-001
2.274792e+003, 6.838143e-001
2.276721e+003, 4.735554e-001
2.278649e+003, 8.840069e-001
2.280578e+003, 1.124840e+000
2.282506e+003, 9.611667e-001
2.284435e+003, 8.855436e-001
2.286363e+003, 8.997623e-001
2.288292e+003, 1.062434e+000
2.290220e+003, 1.074224e+000
2.292148e+003, 9.711761e-001
2.294077e+003, 8.705977e-001
2.296005e+003, 8.223943e-001
2.297934e+003, 8.377304e-001
2.299862e+003, 6.994427e-001
2.301791e+003, 5.989449e-001
2.303719e+003, 7.214069e-001
2.305648e+003, 7.979854e-001
2.307576e+003, 8.171848e-001
2.309505e+003, 7.448637e-001
2.311433e+003, 7.961190e-001
2.313362e+003, 9.739516e-001
2.315290e+003, 8.589702e-001
2.317219e+003, 6.738748e-001
2.319147e+003, 5.054402e-001
2.321075e+003, 8.068821e-001
2.323004e+003, 1.176204e+000
2.324932e+003, 1.150415e+000
2.326861e+003, 7.630767e-001
2.328789e+003, 2.952288e-001
2.330718e+003, 9.018967e-001
2.332646e+003, 1.129831e+000
2.334575e+003, 6.094521e-001
2.336503e+003, 5.787801e-001
2.338432e+003, 7.911430e-001
2.340360e+003, 1.090437e+000
2.342289e+003, 1.001206e+000
2.344217e+003, 7.288086e-001
2.346146e+003, 6.492178e-001
2.348074e+003, 5.955506e-001
2.350002e+003, 5.677117e-001
2.351931e+003, 6.662560e-001
2.353859e+003, 8.405916e-001
2.355788e+003, 1.061241e+000
2.357716e+003, 9.675806e-001
2.359645e+003, 7.769949e-001
2.361573e+003, 6.270109e-001
2.363502e+003, 6.395710e-001
2.365430e+003, 7.610605e-001
2.367359e+003, 1.005201e+000
2.369287e+003, 8.493283e-001
2.371216e+003, 4.279348e-001
2.373144e+003, 7.752647e-001
2.375073e+003, 1.006299e+000
2.377001e+003, 7.690898e-001
2.378929e+003, 8.018271e-001
2.380858e+003, 8.177471e-001
2.382786e+003, 5.388215e-001
2.384715e+003, 6.578740e-001
2.386643e+003, 8.621919e-001
2.388572e+003, 6.394113e-001
2.390500e+003, 6.429030e-001
2.392429e+003, 8.406544e-001
2.394357e+003, 9.197282e-001
2.396286e+003, 7.451032e-001
2.398214e+003, 3.257601e-001
2.400143e+003, 2.168861e-001
2.402071e+003, 3.143824e-001
2.404000e+003, 5.595254e-001
2.405928e+003, 5.748605e-001
2.407856e+003, 5.204275e-001
2.409785e+003, 5.542907e-001
2.411713e+003, 5.074292e-001
2.413642e+003, 4.264490e-001
2.415570e+003, 3.956185e-001
2.417499e+003, 4.552736e-001
2.419427e+003, 5.782146e-001
2.421356e+003, 6.955024e-001
2.423284e+003, 6.973125e-001
2.425213e+003, 5.863945e-001
2.427141e+003, 5.221608e-001
2.429070e+003, 4.957096e-001
2.430998e+003, 4.994684e-001
2.432927e+003, 5.204039e-001
2.434855e+003, 6.295430e-001
2.436783e+003, 1.016101e+000
2.438712e+003, 8.822658e-001
2.440640e+003, 5.352848e-001
2.442569e+003, 3.104939e-001
2.444497e+003, 5.053101e-001
2.446426e+003, 8.877577e-001
2.448354e+003, 9.850580e-001
2.450283e+003, 7.652466e-001
2.452211e+003, 3.954778e-001
2.454140e+003, 6.600527e-001
2.456068e+003, 8.486000e-001
2.457997e+003, 7.663796e-001
2.459925e+003, 7.413198e-001
2.461854e+003, 7.962285e-001
2.463782e+003, 9.557251e-001
2.465710e+003, 5.398527e-001
2.467639e+003, 3.235516e-001
2.469567e+003, 8.496087e-001
2.471496e+003, 7.034062e-001
2.473424e+003, 4.049273e-001
2.475353e+003, 5.652494e-001
2.477281e+003, 5.670057e-001
2.479210e+003, 4.574808e-001
2.481138e+003, 3.811547e-001
2.483067e+003, 3.329343e-001
2.484995e+003, 3.224728e-001
2.486924e+003, 3.770563e-001
2.488852e+003, 4.608855e-001
2.490781e+003, 5.858601e-001
2.492709e+003, 9.218885e-001
2.494637e+003, 9.285776e-001
2.496566e+003, 5.890123e-001
2.498494e+003, 3.950223e-001
2.500423e+003, 3.269234e-001
2.502351e+003, 3.633762e-001
2.504280e+003, 5.704557e-001
2.506208e+003, 6.723781e-001
2.508137e+003, 5.399531e-001
2.510065e+003, 4.896594e-001
2.511994e+003, 4.770873e-001
2.513922e+003, 4.406811e-001
2.515851e+003, 8.262286e-001
2.517779e+003, 1.030070e+000
2.519708e+003, 2.800940e-001
2.521636e+003, 5.140702e-001
2.523564e+003, 8.927136e-001
2.525493e+003, 4.691948e-001
2.527421e+003, 2.501450e-001
2.529350e+003, 2.727150e-001
2.531278e+003, 5.239025e-001
2.533207e+003, 5.749512e-001
2.535135e+003, 5.609547e-001
2.537064e+003, 7.625562e-001
2.538992e+003, 9.321779e-001
2.540921e+003, 9.751952e-001
2.542849e+003, 6.904213e-001
2.544778e+003, 6.705167e-001
2.546706e+003, 8.054753e-001
2.548635e+003, 4.965129e-001
2.550563e+003, 5.391082e-001
2.552491e+003, 8.459910e-001
2.554420e+003, 8.098010e-001
2.556348e+003, 6.978521e-001
2.558277e+003, 5.550583e-001
2.560205e+003, 2.241618e-001
2.562134e+003, 3.386079e-001
2.564062e+003, 8.055367e-001
2.565991e+003, 8.532415e-001
2.567919e+003, 7.844123e-001
2.569848e+003, 6.936799e-001
2.571776e+003, 5.504875e-001
2.573705e+003, 6.748397e-001
2.575633e+003, 9.553926e-001
2.577562e+003, 3.946801e-001
2.579490e+003, 2.586217e-001
2.581418e+003, 6.682228e-001
2.583347e+003, 2.027647e-001
2.585275e+003, 1.509377e-001
2.587204e+003, 7.110367e-001
2.589132e+003, 4.419455e-001
2.591061e+003, 2.381649e-001
2.592989e+003, 3.237924e-001
2.594918e+003, 2.886038e-001
2.596846e+003, 3.564792e-001
2.598775e+003, 5.299744e-001
2.600703e+003, 2.072375e-001
2.602632e+003, -5.738566e-002
2.604560e+003, -5.967599e-002
2.606489e+003, 6.325499e-001
2.608417e+003, 8.356855e-001
2.610345e+003, 3.554380e-001
2.612274e+003, 1.360913e-001
2.614202e+003, 3.177062e-001
2.616131e+003, 7.760446e-001
2.618059e+003, 6.632813e-001
2.619988e+003, 4.925194e-001
2.621916e+003, 4.107836e-001
2.623845e+003, 4.445091e-001
2.625773e+003, 3.218625e-001
2.627702e+003, 1.212610e-001
2.629630e+003, 4.196794e-001
2.631559e+003, 6.002125e-001
2.633487e+003, 5.459956e-001
2.635416e+003, 2.568228e-001
2.637344e+003, 2.448509e-001
2.639272e+003, 4.361748e-001
2.641201e+003, 3.426171e-001
2.643129e+003, 4.268825e-001
2.645058e+003, 6.310050e-001
2.646986e+003, 7.672144e-001
2.648915e+003, 3.339461e-001
2.650843e+003, -2.333422e-001
2.652772e+003, 2.282692e-002
2.654700e+003, 2.765809e-001
2.656629e+003, 4.043550e-001
2.658557e+003, 3.571596e-001
2.660486e+003, 4.403856e-001
2.662414e+003, 4.951888e-001
2.664343e+003, 2.281904e-001
2.666271e+003, 7.219464e-001
2.668199e+003, 1.075597e+000
2.670128e+003, 3.291927e-001
2.672056e+003, 2.137280e-001
2.673985e+003, 3.439297e-001
2.675913e+003, 3.264073e-001
2.677842e+003, 4.296090e-001
2.679770e+003, 4.774747e-001
2.681699e+003, 3.761563e-001
2.683627e+003, 4.168852e-001
2.685556e+003, 4.432635e-001
2.687484e+003, 3.969046e-001
2.689413e+003, 5.589940e-001
2.691341e+003, 3.912117e-001
2.693270e+003, -1.006756e-001
2.695198e+003, 1.364541e-001
2.697126e+003, 2.648522e-001
2.699055e+003, 1.873190e-001
2.700983e+003, 4.887650e-001
2.702912e+003, 4.895024e-001
2.704840e+003, 2.907779e-001
2.706769e+003, 4.886091e-001
2.708697e+003, 5.774624e-001
2.710626e+003, 5.298232e-001
2.712554e+003, 3.769122e-001
2.714483e+003, 4.414418e-001
2.716411e+003, 4.791428e-001
2.718340e+003, 6.033096e-002
2.720268e+003, 2.374345e-001
2.722197e+003, 5.373014e-001
2.724125e+003, 5.331379e-001
2.726053e+003, 6.183074e-001
2.727982e+003, 6.157246e-001
2.729910e+003, 4.379977e-001
2.731839e+003, 5.844221e-001
2.733767e+003, 6.232288e-001
2.735696e+003, 4.629572e-001
2.737624e+003, 5.331971e-001
2.739553e+003, 5.014719e-001
2.741481e+003, 3.472490e-001
2.743410e+003, 1.242308e-001
2.745338e+003, 4.741798e-001
2.747267e+003, 8.888016e-001
2.749195e+003, 3.618011e-001
2.751124e+003, 3.112245e-001
2.753052e+003, 5.160477e-001
2.754980e+003, 6.748434e-001
2.756909e+003, 3.864633e-001
2.758837e+003, 1.399654e-001
2.760766e+003, 1.863634e-001
2.762694e+003, 2.410880e-001
2.764623e+003, 2.215113e-001
2.766551e+003, 1.376214e-001
2.768480e+003, 1.117204e-001
2.770408e+003, 8.024211e-002
2.772337e+003, 7.411226e-002
2.774265e+003, 2.222366e-001
2.776194e+003, 2.573877e-001
2.778122e+003, 2.808779e-001
2.780051e+003, 4.810602e-001
2.781979e+003, 7.313995e-001
2.783907e+003, 7.083112e-001
2.785836e+003, 1.159975e-001
2.787764e+003, 1.013812e-002
2.789693e+003, 3.230550e-001
2.791621e+003, 8.938448e-001
2.793550e+003, 7.459234e-001
2.795478e+003, 6.172637e-001
2.797407e+003, 5.798697e-001
2.799335e+003, 4.008318e-001
2.801264e+003, 3.075196e-001
2.803192e+003, 3.125386e-001
2.805121e+003, 4.016472e-001
2.807049e+003, 4.054269e-001
2.808978e+003, 4.542169e-001
2.810906e+003, 6.015371e-001
2.812834e+003, 6.631269e-001
2.814763e+003, 5.124758e-001
2.816691e+003, 2.607040e-001
2.818620e+003, 3.965402e-001
2.820548e+003, 7.286416e-001
2.822477e+003, 9.744026e-001
2.824405e+003, 6.683320e-001
2.826334e+003, 4.256104e-001
2.828262e+003, 3.176702e-001
2.830191e+003, 3.686113e-001
2.832119e+003, 2.732517e-001
2.834048e+003, 3.055187e-001
2.835976e+003, 4.657289e-001
2.837905e+003, 2.390855e-001
2.839833e+003, 2.375227e-001
2.841761e+003, 2.876601e-001
2.843690e+003, -1.465314e-001
2.845618e+003, -2.972922e-001
2.847547e+003, -1.770315e-001
2.849475e+003, 1.865972e-001
2.851404e+003, 1.087828e-001
2.853332e+003, 8.291051e-002
2.855261e+003, 2.270306e-001
2.857189e+003, 1.572040e-001
2.859118e+003, 4.073081e-001
2.861046e+003, 6.844290e-001
2.862975e+003, 4.522322e-001
2.864903e+003, 3.903838e-001
2.866832e+003, 3.369496e-001
2.868760e+003, 1.925046e-001
2.870688e+003, 2.697129e-001
2.872617e+003, 5.702616e-001
2.874545e+003, 9.212933e-001
2.876474e+003, 7.731648e-001
2.878402e+003, 9.787533e-001
2.880331e+003, 1.123475e+000
2.882259e+003, 6.780332e-001
2.884188e+003, 1.748548e-001
2.886116e+003, 1.195411e-002
2.888045e+003, 2.248797e-001
2.889973e+003, 3.526844e-001
2.891902e+003, 4.678873e-001
2.893830e+003, 4.997991e-001
2.895759e+003, 2.313463e-001
2.897687e+003, 2.907138e-001
2.899615e+003, 4.879783e-001
2.901544e+003, 6.701896e-001
2.903472e+003, 3.897445e-001
2.905401e+003, 1.848686e-001
2.907329e+003, 1.473505e-001
2.909258e+003, 1.853144e-001
2.911186e+003, 2.623643e-001
2.913115e+003, 2.060588e-001
2.915043e+003, -9.172588e-002
2.916972e+003, 2.158054e-001
2.918900e+003, 3.751074e-001
2.920829e+003, 2.620402e-001
2.922757e+003, 2.351365e-001
2.924686e+003, 1.147431e-001
2.926614e+003, 9.762581e-002
2.928542e+003, 3.311483e-001
2.930471e+003, 2.726015e-001
2.932399e+003, 2.759259e-001
2.934328e+003, 3.730846e-001
2.936256e+003, 1.922405e-001
2.938185e+003, 2.054929e-001
2.940113e+003, 3.190153e-001
2.942042e+003, 3.899598e-001
2.943970e+003, 2.118679e-001
2.945899e+003, 5.309080e-003
2.947827e+003, -8.727770e-002
2.949756e+003, 1.320960e-001
2.951684e+003, 3.872078e-001
2.953613e+003, 3.980422e-001
2.955541e+003, -8.872143e-002
2.957469e+003, -1.338774e-001
2.959398e+003, 2.311472e-001
2.961326e+003, 6.373398e-001
2.963255e+003, 1.100736e-001
2.965183e+003, 8.015121e-002
2.967112e+003, 3.528214e-001
2.969040e+003, 6.437279e-001
2.970969e+003, 2.838265e-001
2.972897e+003, 2.054135e-001
2.974826e+003, 3.329488e-001
2.976754e+003, 4.232522e-002
2.978683e+003, 5.630989e-002
2.980611e+003, 3.144076e-001
2.982540e+003, 6.279309e-001
2.984468e+003, 1.733560e-001
2.986396e+003, 1.232668e-001
2.988325e+003, 3.624953e-001
2.990253e+003, 4.281622e-001
2.992182e+003, 6.330036e-001
2.994110e+003, 4.942498e-001
2.996039e+003, 1.818869e-002
2.997967e+003, -1.936566e-001
2.999896e+003, 2.826305e-002
3.001824e+003, 1.803895e-001
3.003753e+003, -1.456660e-001
3.005681e+003, -7.392026e-002
3.007610e+003, 8.021984e-002
3.009538e+003, 2.383120e-001
3.011467e+003, 5.512684e-001
3.013395e+003, 1.527573e-001
3.015323e+003, -4.412601e-002
3.017252e+003, 3.495435e-001
3.019180e+003, 4.863464e-001
3.021109e+003, 1.349322e-001
3.023037e+003, -9.966166e-002
3.024966e+003, 4.309612e-001
3.026894e+003, 6.617689e-003
3.028823e+003, -1.094115e-001
3.030751e+003, 1.198733e-001
3.032680e+003, -7.777520e-002
3.034608e+003, 8.201929e-002
3.036537e+003, 9.484088e-002
3.038465e+003, -1.679431e-001
3.040394e+003, 5.152062e-001
3.042322e+003, 1.575753e-001
3.044250e+003, -2.597690e-001
3.046179e+003, 2.793526e-001
3.048107e+003, 3.727598e-001
3.050036e+003, 8.757222e-002
3.051964e+003, -1.697263e-001
3.053893e+003, 2.384425e-001
3.055821e+003, 3.559228e-001
3.057750e+003, 1.364164e-001
3.059678e+003, -1.482065e-001
3.061607e+003, 3.171186e-001
3.063535e+003, 5.868413e-001
3.065464e+003, 6.842806e-001
3.067392e+003, 6.618283e-001
3.069321e+003, -3.514956e-002
3.071249e+003, -5.258872e-002
3.073177e+003, 2.248801e-001
3.075106e+003, 7.497232e-002
3.077034e+003, 5.259513e-001
3.078963e+003, 5.083652e-001
3.080891e+003, 2.015886e-001
3.082820e+003, 3.728556e-001
3.084748e+003, 3.312888e-001
3.086677e+003, 3.651999e-001
3.088605e+003, 4.679635e-001
3.090534e+003, 2.284117e-001
3.092462e+003, 1.652626e-001
3.094391e+003, 1.562150e-001
3.096319e+003, 1.388535e-001
3.098248e+003, 3.499923e-001
3.100176e+003, 3.732181e-001
3.102104e+003, 3.138686e-001
3.104033e+003, 3.200694e-001
3.105961e+003, 6.932679e-001
3.107890e+003, 4.359555e-001
3.109818e+003, 1.069740e-001
3.111747e+003, 3.760030e-001
3.113675e+003, -1.001869e-001
3.115604e+003, -8.209135e-002
3.117532e+003, 1.553767e-001
3.119461e+003, -2.360174e-001
3.121389e+003, -1.525411e-001
3.123318e+003, 1.283230e-001
3.125246e+003, 3.217313e-001
3.127175e+003, 5.734877e-002
3.129103e+003, 1.829153e-001
3.131031e+003, 1.798014e-001
3.132960e+003, 8.398005e-002
3.134888e+003, 4.391972e-001
3.136817e+003, 1.995251e-001
3.138745e+003, 1.133017e-001
3.140674e+003, 2.920815e-001
3.142602e+003, 3.961058e-002
3.144531e+003, -7.389133e-002
3.146459e+003, -3.690549e-002
3.148388e+003, 7.527102e-002
3.150316e+003, 1.125478e-001
3.152245e+003, 2.526908e-001
3.154173e+003, 4.742125e-001
3.156102e+003, 6.496038e-001
3.158030e+003, 3.904160e-001
3.159958e+003, 8.874577e-002
3.161887e+003, 1.357943e-001
3.163815e+003, 4.903151e-001
3.165744e+003, 4.236642e-001
3.167672e+003, 8.282613e-002
3.169601e+003, -2.785325e-001
3.171529e+003, -4.224487e-001
3.173458e+003, 1.488713e-001
3.175386e+003, 1.811407e-001
3.177315e+003, 1.790881e-001
3.179243e+003, 4.113733e-001
3.181172e+003, 3.034473e-001
3.183100e+003, 1.566169e-001
3.185029e+003, -1.337343e-001
3.186957e+003, -4.858153e-001
3.188885e+003, -2.622755e-001
3.190814e+003, -1.370780e-001
3.192742e+003, 1.453822e-001
3.194671e+003, 5.040210e-001
3.196599e+003, 1.109861e-002
3.198528e+003, 4.564629e-002
3.200456e+003, 1.734479e-001
3.202385e+003, 1.381109e-001
3.204313e+003, 7.356218e-002
3.206242e+003, -2.530080e-002
3.208170e+003, 1.052915e-002
3.210099e+003, 1.235629e-001
3.212027e+003, -1.896098e-002
3.213956e+003, 3.405015e-001
3.215884e+003, 1.978718e-001
3.217813e+003, -2.274907e-001
3.219741e+003, 2.839373e-001
3.221669e+003, 9.476995e-002
3.223598e+003, 2.334758e-001
3.225526e+003, 5.055283e-001
3.227455e+003, 1.307110e-002
3.229383e+003, 3.930984e-001
3.231312e+003, 2.131605e-001
3.233240e+003, -1.602742e-001
3.235169e+003, 1.201904e-001
3.237097e+003, -1.587057e-001
3.239026e+003, 1.343474e-001
3.240954e+003, 4.316730e-001
3.242883e+003, 1.434572e-001
3.244811e+003, 2.561859e-001
3.246740e+003, -4.843743e-002
3.248668e+003, -2.386873e-001
3.250596e+003, -5.800052e-002
3.252525e+003, -3.376137e-001
3.254453e+003, 1.133653e-001
3.256382e+003, 3.644370e-001
3.258310e+003, 1.533740e-001
3.260239e+003, 1.347982e-001
3.262167e+003, -2.842939e-002
3.264096e+003, 7.605197e-002
3.266024e+003, 3.614399e-001
3.267953e+003, 4.569538e-001
3.269881e+003, 3.654687e-001
3.271810e+003, 2.732514e-001
3.273738e+003, 2.104502e-001
3.275667e+003, 1.355101e-001
3.277595e+003, -2.687790e-001
3.279523e+003, -3.393902e-001
3.281452e+003, -1.588270e-001
3.283380e+003, 8.719843e-002
3.285309e+003, 2.342369e-001
3.287237e+003, 2.731059e-001
3.289166e+003, 4.272587e-001
3.291094e+003, 5.542768e-001
3.293023e+003, 1.802904e-001
3.294951e+003, 4.435224e-002
3.296880e+003, 1.041309e-001
3.298808e+003, 2.249231e-001
3.300737e+003, 2.635795e-001
3.302665e+003, -2.138371e-001
3.304594e+003, 2.463332e-001
3.306522e+003, 4.429315e-001
3.308450e+003, -1.877249e-001
3.310379e+003, -1.913505e-001
3.312307e+003, -2.485046e-001
3.314236e+003, -1.221664e-001
3.316164e+003, 4.822773e-002
3.318093e+003, -1.463487e-001
3.320021e+003, -1.251877e-002
3.321950e+003, 5.353122e-002
3.323878e+003, 1.179950e-001
3.325807e+003, 3.132353e-001
3.327735e+003, 5.724900e-001
3.329664e+003, 3.075113e-001
3.331592e+003, 1.118922e-001
3.333521e+003, 5.336641e-002
3.335449e+003, -5.537509e-001
3.337377e+003, 2.997418e-001
3.339306e+003, 4.659114e-001
3.341234e+003, 1.820891e-001
3.343163e+003, 2.682533e-001
3.345091e+003, 5.661324e-001
3.347020e+003, 3.334770e-001
3.348948e+003, 2.290191e-002
3.350877e+003, -8.449883e-002
3.352805e+003, -4.990006e-002
3.354734e+003, 7.199401e-002
3.356662e+003, 2.753949e-001
3.358591e+003, 2.381391e-001
3.360519e+003, -1.137053e-001
3.362448e+003, 4.294900e-001
3.364376e+003, 6.048724e-001
3.366304e+003, 2.731870e-001
3.368233e+003, -1.350707e-001
3.370161e+003, 1.003385e-001
3.372090e+003, -1.984566e-001
3.374018e+003, 1.873014e-001
3.375947e+003, 6.099100e-001
3.377875e+003, 4.518020e-001
3.379804e+003, 3.282192e-001
3.381732e+003, 2.911381e-001
3.383661e+003, 2.142438e-001
3.385589e+003, 2.424347e-001
3.387518e+003, 5.989418e-001
3.389446e+003, -2.485595e-002
3.391375e+003, 1.334886e-001
3.393303e+003, 1.838384e-001
3.395231e+003, -2.042372e-001
3.397160e+003, -2.356838e-001
3.399088e+003, -1.844339e-001
3.401017e+003, -1.260822e-001
3.402945e+003, 7.006116e-002
3.404874e+003, 4.267305e-001
3.406802e+003, 6.361359e-001
3.408731e+003, 2.146427e-001
3.410659e+003, 3.081805e-001
3.412588e+003, 8.768734e-001
3.414516e+003, 1.275761e+000
3.416445e+003, 8.347901e-001
3.418373e+003, 8.441480e-001
3.420302e+003, 6.221191e-001
3.422230e+003, 2.977435e-001
3.424158e+003, 7.886679e-001
3.426087e+003, 4.702602e-001
3.428015e+003, 7.573205e-001
3.429944e+003, 4.572534e-001
3.431872e+003, -4.430392e-001
3.433801e+003, 2.423893e-001
3.435729e+003, -2.475978e-001
3.437658e+003, -1.930152e-001
3.439586e+003, 3.988850e-002
3.441515e+003, 5.788712e-002
3.443443e+003, 4.576297e-001
3.445372e+003, 3.344774e-001
3.447300e+003, 1.552467e-001
3.449229e+003, 6.611076e-002
3.451157e+003, 2.322698e-002
3.453085e+003, -1.040022e-001
3.455014e+003, 4.178900e-001
3.456942e+003, 7.324823e-001
##END=



