##NAMES=Tin
##RRUFFID=R060756
##IDEAL CHEMISTRY=Sn
##LOCALITY=Aberfoil river, near Oban, New South Wales, Australia
##OWNER=RRUFF
##SOURCE=Michael Scott
##DESCRIPTION=Tin-white metallic water-worn grains
##STATUS=The identification of this mineral is confirmed by single-crystal X-ray diffraction and chemical analysis
##URL=https://www.rruff.net/odr/rruff_sample/R060756
##MEASURED CHEMISTRY=Sn
##DIFFRACTION SAMPLE DESCRIPTION=Single crystal, powder profile is calculated
##CELL PARAMETERS=a: 5.812 b: 5.812 c: 3.177 alpha: 90 beta: 90 gamma: 90 volume: 107.33 crystal system: tetragonal
##FILETYPE=Raman RAW
##RAMAN WAVELENGTH=785

187.063, 6432.458
188.992, 6444.589
190.920, 6467.470
192.849, 6469.582
194.777, 6444.622
196.706, 6440.016
198.634, 6466.088
200.562, 6488.620
202.491, 6497.027
204.419, 6497.690
206.348, 6495.580
208.276, 6490.044
210.205, 6476.549
212.133, 6452.100
214.062, 6429.750
215.990, 6405.689
217.919, 6392.050
219.847, 6409.451
221.776, 6430.363
223.704, 6418.915
225.633, 6374.040
227.561, 6344.619
229.490, 6337.445
231.418, 6321.842
233.346, 6278.775
235.275, 6241.570
237.203, 6238.676
239.132, 6249.552
241.060, 6231.057
242.989, 6176.175
244.917, 6134.743
246.846, 6109.501
248.774, 6091.451
250.703, 6083.548
252.631, 6075.940
254.560, 6061.855
256.488, 6042.959
258.417, 6024.903
260.345, 6008.658
262.273, 5984.384
264.202, 5943.138
266.130, 5912.217
268.059, 5916.234
269.987, 5922.235
271.916, 5901.810
273.844, 5863.722
275.773, 5842.629
277.701, 5840.628
279.630, 5841.503
281.558, 5843.581
283.487, 5849.415
285.415, 5866.446
287.344, 5881.804
289.272, 5883.163
291.200, 5874.586
293.129, 5872.512
295.057, 5877.792
296.986, 5882.819
298.914, 5888.486
300.843, 5890.440
302.771, 5876.297
304.700, 5867.912
306.628, 5892.062
308.557, 5933.146
310.485, 5938.678
312.414, 5905.450
314.342, 5877.712
316.271, 5855.283
318.199, 5847.093
320.127, 5863.072
322.056, 5888.219
323.984, 5921.052
325.913, 5954.508
327.841, 5970.843
329.770, 5968.986
331.698, 5973.033
333.627, 5984.822
335.555, 5996.566
337.484, 6006.490
339.412, 6015.105
341.341, 6027.816
343.269, 6036.600
345.198, 6022.370
347.126, 5990.251
349.054, 5991.895
350.983, 6033.131
352.911, 6064.057
354.840, 6072.141
356.768, 6074.612
358.697, 6077.524
360.625, 6077.983
362.554, 6067.104
364.482, 6052.181
366.411, 6057.092
368.339, 6081.133
370.267, 6113.901
372.196, 6161.384
374.125, 6194.975
376.053, 6196.888
377.981, 6193.717
379.910, 6198.508
381.838, 6204.347
383.767, 6197.854
385.695, 6183.124
387.624, 6187.292
389.552, 6212.247
391.481, 6228.466
393.409, 6224.854
395.338, 6227.868
397.266, 6255.510
399.194, 6282.501
401.123, 6287.644
403.052, 6284.683
404.980, 6302.121
406.908, 6335.176
408.837, 6346.715
410.765, 6331.557
412.694, 6329.674
414.622, 6361.262
416.551, 6383.586
418.479, 6378.708
420.408, 6366.180
422.336, 6355.830
424.265, 6348.823
426.193, 6346.082
428.122, 6348.225
430.050, 6361.365
431.978, 6387.408
433.907, 6408.993
435.835, 6418.274
437.764, 6431.220
439.692, 6459.454
441.621, 6485.121
443.549, 6493.637
445.478, 6494.380
447.406, 6503.442
449.335, 6518.229
451.263, 6525.757
453.192, 6524.974
455.120, 6526.208
457.049, 6531.086
458.977, 6537.032
460.905, 6542.975
462.834, 6549.307
464.762, 6555.995
466.691, 6563.268
468.619, 6576.315
470.548, 6589.769
472.476, 6584.479
474.405, 6562.460
476.333, 6550.599
478.262, 6551.480
480.190, 6564.052
482.119, 6600.166
484.047, 6630.964
485.976, 6647.376
487.904, 6655.348
489.832, 6658.675
491.761, 6656.312
493.689, 6643.105
495.618, 6623.203
497.546, 6612.390
499.475, 6612.299
501.403, 6604.760
503.332, 6577.332
505.260, 6568.987
507.189, 6598.652
509.117, 6632.344
511.046, 6666.947
512.974, 6690.465
514.903, 6685.116
516.831, 6665.191
518.760, 6649.132
520.688, 6640.175
522.617, 6658.374
524.545, 6707.533
526.473, 6740.992
528.402, 6748.847
530.330, 6751.272
532.259, 6749.254
534.187, 6746.824
536.116, 6745.515
538.044, 6744.076
539.973, 6741.949
541.901, 6738.364
543.830, 6726.479
545.758, 6713.052
547.687, 6722.023
549.615, 6753.775
551.544, 6775.909
553.472, 6784.748
555.400, 6786.761
557.329, 6778.682
559.257, 6770.770
561.186, 6760.300
563.114, 6757.023
565.043, 6777.803
566.971, 6797.837
568.900, 6785.359
570.828, 6758.588
572.757, 6743.987
574.685, 6742.216
576.614, 6761.015
578.542, 6805.600
580.470, 6823.051
582.399, 6786.565
584.327, 6772.206
586.256, 6812.134
588.184, 6835.315
590.113, 6807.237
592.041, 6777.520
593.970, 6777.697
595.898, 6784.702
597.827, 6774.155
599.755, 6756.567
601.683, 6747.133
603.612, 6745.230
605.541, 6749.179
607.469, 6760.302
609.397, 6764.109
611.326, 6754.008
613.254, 6752.457
615.183, 6774.047
617.111, 6781.921
619.040, 6755.718
620.968, 6733.894
622.897, 6739.127
624.825, 6745.686
626.754, 6729.769
628.682, 6709.915
630.610, 6706.750
632.539, 6713.811
634.468, 6718.780
636.396, 6721.461
638.324, 6721.010
640.253, 6716.341
642.181, 6713.650
644.110, 6717.627
646.038, 6714.573
647.967, 6703.537
649.895, 6688.057
651.824, 6655.285
653.752, 6638.913
655.681, 6671.229
657.609, 6699.397
659.537, 6676.522
661.466, 6647.282
663.394, 6658.516
665.323, 6683.834
667.251, 6679.017
669.180, 6652.675
671.108, 6637.204
673.037, 6632.826
674.965, 6636.027
676.894, 6652.482
678.822, 6655.700
680.751, 6636.258
682.679, 6627.691
684.608, 6639.567
686.536, 6645.164
688.464, 6632.404
690.393, 6623.607
692.321, 6634.214
694.250, 6641.491
696.178, 6628.259
698.107, 6610.526
700.035, 6596.604
701.964, 6589.322
703.892, 6596.512
705.821, 6611.058
707.749, 6615.925
709.678, 6612.878
711.606, 6614.283
713.535, 6620.411
715.463, 6617.848
717.391, 6603.863
719.320, 6589.492
721.248, 6569.448
723.177, 6569.766
725.105, 6604.040
727.034, 6628.194
728.962, 6634.710
730.891, 6624.654
732.819, 6586.579
734.748, 6553.523
736.676, 6541.254
738.605, 6540.726
740.533, 6550.896
742.462, 6564.249
744.390, 6576.453
746.318, 6585.789
748.247, 6592.605
750.175, 6593.776
752.104, 6577.728
754.032, 6550.745
755.961, 6539.474
757.889, 6542.848
759.818, 6539.445
761.746, 6527.904
763.675, 6527.280
765.603, 6538.817
767.532, 6547.608
769.460, 6552.877
771.389, 6550.677
773.317, 6538.860
775.245, 6525.715
777.174, 6512.328
779.102, 6501.934
781.031, 6495.198
782.959, 6494.070
784.888, 6504.682
786.816, 6513.284
788.745, 6502.395
790.673, 6500.648
792.602, 6537.284
794.530, 6576.747
796.459, 6588.071
798.387, 6586.304
800.316, 6588.378
802.244, 6589.666
804.172, 6583.217
806.101, 6569.876
808.029, 6545.900
809.958, 6517.182
811.886, 6507.410
813.815, 6513.055
815.743, 6515.485
817.672, 6514.358
819.600, 6500.062
821.529, 6473.912
823.457, 6467.918
825.386, 6485.247
827.314, 6486.091
829.243, 6464.196
831.171, 6457.699
833.099, 6476.421
835.028, 6479.201
836.956, 6450.679
838.885, 6435.366
840.813, 6448.757
842.742, 6460.269
844.670, 6458.088
846.599, 6460.925
848.527, 6487.224
850.456, 6498.904
852.384, 6464.199
854.313, 6440.892
856.241, 6462.444
858.170, 6487.296
860.098, 6503.095
862.027, 6503.176
863.955, 6464.779
865.883, 6432.053
867.812, 6460.041
869.740, 6488.055
871.669, 6437.343
873.597, 6378.529
875.526, 6400.505
877.454, 6451.472
879.383, 6468.892
881.311, 6466.477
883.240, 6456.015
885.168, 6446.303
887.097, 6458.458
889.025, 6480.569
890.954, 6490.561
892.882, 6489.491
894.810, 6477.867
896.739, 6458.811
898.667, 6436.832
900.596, 6416.089
902.524, 6409.243
904.453, 6415.387
906.381, 6433.997
908.310, 6460.085
910.238, 6463.010
912.167, 6445.759
914.095, 6445.523
916.024, 6461.298
917.952, 6464.188
919.881, 6453.055
921.809, 6439.742
923.737, 6424.895
925.666, 6424.021
927.594, 6440.055
929.523, 6434.661
931.451, 6401.695
933.380, 6391.807
935.308, 6413.308
937.237, 6426.350
939.165, 6429.178
941.094, 6419.411
943.022, 6387.572
944.951, 6383.229
946.879, 6422.085
948.808, 6441.400
950.736, 6428.154
952.664, 6420.147
954.593, 6415.480
956.521, 6425.342
958.450, 6465.998
960.378, 6482.900
962.307, 6459.691
964.235, 6444.265
966.164, 6450.716
968.092, 6441.448
970.021, 6397.054
971.949, 6373.861
973.878, 6389.766
975.806, 6395.812
977.735, 6380.299
979.663, 6374.151
981.591, 6379.438
983.520, 6392.164
985.448, 6423.832
987.377, 6438.837
989.305, 6430.172
991.234, 6415.564
993.162, 6391.038
995.091, 6371.715
997.019, 6354.756
998.948, 6352.157
1000.876, 6367.795
1002.805, 6390.550
1004.733, 6430.963
1006.662, 6446.511
1008.590, 6419.906
1010.518, 6409.528
1012.447, 6429.520
1014.375, 6436.245
1016.304, 6425.972
1018.232, 6405.282
1020.161, 6362.037
1022.089, 6354.834
1024.018, 6403.537
1025.946, 6420.572
1027.875, 6388.884
1029.803, 6380.903
1031.732, 6408.411
1033.660, 6415.450
1035.589, 6395.735
1037.517, 6381.559
1039.446, 6371.518
1041.374, 6384.154
1043.302, 6426.206
1045.231, 6433.782
1047.159, 6402.267
1049.088, 6385.352
1051.016, 6383.683
1052.945, 6371.675
1054.873, 6349.801
1056.802, 6342.276
1058.730, 6348.231
1060.659, 6340.182
1062.587, 6322.386
1064.516, 6335.123
1066.444, 6371.159
1068.373, 6388.958
1070.301, 6391.573
1072.229, 6390.986
1074.158, 6387.434
1076.086, 6382.727
1078.015, 6375.786
1079.943, 6362.140
1081.872, 6345.483
1083.800, 6330.016
1085.729, 6320.040
1087.657, 6329.493
1089.586, 6343.439
1091.514, 6339.009
1093.443, 6326.796
1095.371, 6317.552
1097.299, 6310.424
1099.228, 6301.399
1101.156, 6298.460
1103.085, 6318.177
1105.013, 6334.519
1106.942, 6325.044
1108.870, 6310.900
1110.799, 6287.673
1112.727, 6288.015
1114.656, 6356.654
1116.584, 6404.414
1118.513, 6388.945
1120.441, 6365.369
1122.370, 6341.326
1124.298, 6330.169
1126.226, 6342.211
1128.155, 6347.027
1130.083, 6333.967
1132.012, 6339.349
1133.940, 6377.728
1135.869, 6376.894
1137.797, 6320.313
1139.726, 6314.255
1141.654, 6369.795
1143.583, 6406.470
1145.511, 6418.204
1147.440, 6414.100
1149.368, 6398.578
1151.297, 6402.171
1153.225, 6418.916
1155.153, 6419.677
1157.082, 6407.207
1159.010, 6388.480
1160.939, 6366.446
1162.867, 6342.637
1164.796, 6323.076
1166.724, 6315.337
1168.653, 6319.233
1170.581, 6347.737
1172.510, 6370.911
1174.438, 6355.561
1176.367, 6331.499
1178.295, 6321.034
1180.224, 6305.327
1182.152, 6256.776
1184.080, 6230.444
1186.009, 6268.892
1187.937, 6292.513
1189.866, 6267.009
1191.794, 6256.290
1193.723, 6275.345
1195.651, 6287.271
1197.580, 6288.633
1199.508, 6288.361
1201.437, 6287.087
1203.365, 6285.109
1205.294, 6282.975
1207.222, 6285.840
1209.151, 6292.272
1211.079, 6297.916
1213.007, 6298.763
1214.936, 6276.483
1216.864, 6249.596
1218.793, 6248.074
1220.721, 6259.169
1222.650, 6280.581
1224.578, 6293.724
1226.507, 6281.485
1228.435, 6259.754
1230.364, 6225.730
1232.292, 6205.230
1234.221, 6219.120
1236.149, 6226.694
1238.078, 6206.040
1240.006, 6207.564
1241.934, 6254.699
1243.863, 6276.896
1245.791, 6266.909
1247.720, 6261.371
1249.648, 6260.103
1251.577, 6290.116
1253.505, 6338.679
1255.434, 6333.582
1257.362, 6300.270
1259.291, 6291.179
1261.219, 6301.459
1263.148, 6343.855
1265.076, 6377.123
1267.005, 6362.662
1268.933, 6336.560
1270.861, 6309.484
1272.790, 6297.448
1274.718, 6317.324
1276.647, 6317.821
1278.575, 6277.776
1280.504, 6255.843
1282.432, 6263.789
1284.361, 6269.338
1286.289, 6271.220
1288.218, 6273.383
1290.146, 6274.947
1292.075, 6266.634
1294.003, 6255.693
1295.932, 6260.557
1297.860, 6274.127
1299.788, 6292.719
1301.717, 6307.427
1303.645, 6318.124
1305.574, 6309.035
1307.502, 6255.092
1309.431, 6229.758
1311.359, 6265.997
1313.288, 6280.547
1315.216, 6255.003
1317.145, 6238.375
1319.073, 6235.655
1321.002, 6234.416
1322.930, 6232.857
1324.859, 6217.233
1326.787, 6197.444
1328.715, 6198.042
1330.644, 6207.076
1332.572, 6207.851
1334.501, 6210.567
1336.429, 6229.037
1338.358, 6239.897
1340.286, 6225.276
1342.215, 6226.442
1344.143, 6256.013
1346.072, 6279.350
1348.000, 6292.174
1349.929, 6296.893
1351.857, 6297.031
1353.786, 6322.405
1355.714, 6355.053
1357.642, 6343.945
1359.571, 6312.637
1361.499, 6288.187
1363.428, 6267.433
1365.356, 6248.006
1367.285, 6231.738
1369.213, 6229.197
1371.142, 6209.443
1373.070, 6159.348
1374.999, 6139.020
1376.927, 6153.293
1378.856, 6158.018
1380.784, 6149.823
1382.713, 6120.727
1384.641, 6082.001
1386.569, 6043.819
1388.498, 6023.283
1390.426, 6060.790
1392.355, 6088.466
1394.283, 6056.054
1396.212, 6023.932
1398.140, 6008.412
1400.069, 5997.137
1401.997, 5989.550
1403.926, 5984.555
1405.854, 5982.624
1407.783, 5993.477
1409.711, 6005.979
1411.640, 5995.232
1413.568, 5972.238
1415.496, 5940.441
1417.425, 5913.310
1419.353, 5895.629
1421.282, 5890.193
1423.210, 5913.499
1425.139, 5908.861
1427.067, 5863.592
1428.996, 5864.832
1430.924, 5902.170
1432.853, 5894.993
1434.781, 5866.559
1436.710, 5853.064
1438.638, 5853.648
1440.567, 5879.222
1442.495, 5897.369
1444.423, 5887.774
1446.352, 5882.200
1448.280, 5888.711
1450.209, 5895.434
1452.137, 5902.364
1454.066, 5897.640
1455.994, 5889.639
1457.923, 5920.498
1459.851, 5940.073
1461.780, 5862.247
1463.708, 5811.399
1465.637, 5874.314
1467.565, 5906.443
1469.494, 5856.881
1471.422, 5834.030
1473.350, 5848.112
1475.279, 5811.639
1477.207, 5751.321
1479.136, 5772.308
1481.064, 5808.387
1482.993, 5767.042
1484.921, 5722.223
1486.850, 5706.959
1488.778, 5705.641
1490.707, 5716.662
1492.635, 5720.594
1494.564, 5715.479
1496.492, 5732.217
1498.421, 5753.797
1500.349, 5716.842
1502.277, 5677.387
1504.206, 5711.774
1506.134, 5742.385
1508.063, 5735.960
1509.991, 5728.466
1511.920, 5726.211
1513.848, 5736.343
1515.777, 5756.351
1517.705, 5766.712
1519.634, 5769.250
1521.562, 5760.617
1523.491, 5756.289
1525.419, 5778.512
1527.348, 5788.643
1529.276, 5771.951
1531.204, 5777.915
1533.133, 5808.243
1535.061, 5777.215
1536.990, 5711.834
1538.918, 5696.754
1540.847, 5701.621
1542.775, 5705.883
1544.704, 5693.725
1546.632, 5649.074
1548.561, 5613.560
1550.489, 5592.682
1552.418, 5566.042
1554.346, 5538.339
1556.275, 5538.380
1558.203, 5545.703
1560.131, 5528.025
1562.060, 5514.238
1563.988, 5524.099
1565.917, 5535.985
1567.845, 5547.614
1569.774, 5554.785
1571.702, 5557.286
1573.631, 5554.389
1575.559, 5546.051
1577.488, 5528.217
1579.416, 5510.933
1581.345, 5501.680
1583.273, 5490.669
1585.202, 5478.100
1587.130, 5442.800
1589.058, 5392.655
1590.987, 5376.482
1592.915, 5377.921
1594.844, 5383.960
1596.772, 5381.942
1598.701, 5351.481
1600.629, 5343.723
1602.558, 5376.707
1604.486, 5370.962
1606.415, 5338.401
1608.343, 5350.241
1610.272, 5364.306
1612.200, 5327.417
1614.129, 5292.204
1616.057, 5284.667
1617.985, 5278.397
1619.914, 5270.987
1621.842, 5254.863
1623.771, 5238.685
1625.699, 5260.532
1627.628, 5275.148
1629.556, 5237.561
1631.485, 5211.181
1633.413, 5222.874
1635.342, 5219.733
1637.270, 5200.000
1639.199, 5168.210
1641.127, 5140.254
1643.056, 5151.596
1644.984, 5162.479
1646.912, 5152.229
1648.841, 5143.494
1650.769, 5141.200
1652.698, 5135.476
1654.626, 5125.077
1656.555, 5103.201
1658.483, 5078.518
1660.412, 5047.729
1662.340, 5049.411
1664.269, 5102.479
1666.197, 5103.434
1668.126, 5052.525
1670.054, 5014.195
1671.983, 4987.400
1673.911, 4975.796
1675.839, 4967.377
1677.768, 4959.122
1679.696, 4944.976
1681.625, 4925.607
1683.553, 4917.032
1685.482, 4918.271
1687.410, 4938.450
1689.339, 4947.157
1691.267, 4920.556
1693.196, 4890.609
1695.124, 4862.399
1697.053, 4872.443
1698.981, 4899.887
1700.910, 4888.031
1702.838, 4867.473
1704.766, 4860.801
1706.695, 4857.806
1708.623, 4857.000
1710.552, 4849.979
1712.480, 4837.422
1714.409, 4823.067
1716.337, 4807.498
1718.266, 4792.163
1720.194, 4774.620
1722.123, 4754.813
1724.051, 4734.546
1725.980, 4713.597
1727.908, 4679.011
1729.837, 4659.514
1731.765, 4704.634
1733.693, 4721.654
1735.622, 4681.343
1737.550, 4658.221
1739.479, 4651.205
1741.407, 4653.359
1743.336, 4652.860
1745.264, 4639.614
1747.193, 4620.317
1749.121, 4592.405
1751.050, 4587.988
1752.978, 4597.826
1754.907, 4588.301
1756.835, 4574.790
1758.764, 4568.782
1760.692, 4560.580
1762.620, 4545.705
1764.549, 4546.851
1766.477, 4556.893
1768.406, 4565.758
1770.334, 4557.167
1772.263, 4506.437
1774.191, 4482.745
1776.120, 4498.415
1778.048, 4505.161
1779.977, 4501.850
1781.905, 4478.138
1783.834, 4458.741
1785.762, 4456.590
1787.691, 4455.021
1789.619, 4451.269
1791.547, 4429.128
1793.476, 4411.481
1795.404, 4439.481
1797.333, 4448.153
1799.261, 4412.179
1801.190, 4394.235
1803.118, 4391.993
1805.047, 4391.742
1806.975, 4384.227
1808.904, 4357.709
1810.832, 4338.969
1812.761, 4333.597
1814.689, 4309.690
1816.618, 4284.831
1818.546, 4304.542
1820.474, 4317.440
1822.403, 4298.928
1824.331, 4286.746
1826.260, 4285.033
1828.188, 4292.383
1830.117, 4299.298
1832.045, 4299.264
1833.974, 4283.651
1835.902, 4251.254
1837.831, 4240.392
1839.759, 4242.346
1841.688, 4239.999
1843.616, 4234.583
1845.545, 4226.859
1847.473, 4203.499
1849.401, 4170.638
1851.330, 4175.222
1853.258, 4188.053
1855.187, 4178.484
1857.115, 4167.451
1859.044, 4158.803
1860.972, 4141.498
1862.901, 4123.981
1864.829, 4122.627
1866.758, 4123.569
1868.686, 4116.618
1870.615, 4126.791
1872.543, 4144.406
1874.472, 4113.833
1876.400, 4080.001
1878.328, 4089.777
1880.257, 4080.283
1882.185, 4045.299
1884.114, 4051.432
1886.042, 4070.321
1887.971, 4067.142
1889.899, 4053.450
1891.828, 4027.325
1893.756, 4013.721
1895.685, 4008.956
1897.613, 4005.006
1899.542, 4003.505
1901.470, 4013.937
1903.399, 3989.500
1905.327, 3941.383
1907.255, 3941.339
1909.184, 3953.043
1911.112, 3954.438
1913.041, 3945.885
1914.969, 3927.958
1916.898, 3898.456
1918.826, 3877.098
1920.755, 3886.415
1922.683, 3896.744
1924.612, 3900.607
1926.540, 3887.880
1928.469, 3868.761
1930.397, 3850.590
1932.326, 3853.704
1934.254, 3887.748
1936.182, 3886.109
1938.111, 3862.079
1940.039, 3845.123
1941.968, 3826.082
1943.896, 3800.452
1945.825, 3783.438
1947.753, 3772.985
1949.682, 3767.940
1951.610, 3761.328
1953.539, 3749.975
1955.467, 3736.879
1957.396, 3723.076
1959.324, 3727.220
1961.253, 3729.267
1963.181, 3715.270
1965.109, 3698.868
1967.038, 3683.036
1968.966, 3692.458
1970.895, 3695.656
1972.823, 3663.198
1974.752, 3634.739
1976.680, 3613.682
1978.609, 3608.865
1980.537, 3604.735
1982.466, 3577.971
1984.394, 3567.389
1986.323, 3571.817
1988.251, 3581.414
1990.180, 3587.933
1992.108, 3574.966
1994.036, 3559.764
1995.965, 3544.515
1997.893, 3522.531
1999.822, 3506.755
2001.750, 3507.754
2003.679, 3511.809
2005.607, 3514.286
2007.536, 3500.690
2009.464, 3491.601
2011.393, 3499.307
2013.321, 3490.952
2015.250, 3477.385
2017.178, 3465.783
2019.107, 3452.550
2021.035, 3448.820
2022.964, 3442.192
2024.892, 3430.421
2026.820, 3394.623
2028.749, 3366.935
2030.677, 3387.851
2032.606, 3376.283
2034.534, 3342.785
2036.463, 3338.499
2038.391, 3336.781
2040.320, 3337.845
2042.248, 3319.929
2044.177, 3292.787
2046.105, 3297.111
2048.034, 3295.905
2049.962, 3278.660
2051.891, 3269.949
2053.819, 3269.444
2055.748, 3272.427
2057.676, 3271.425
2059.604, 3262.191
2061.533, 3258.124
2063.461, 3255.283
2065.390, 3225.234
2067.318, 3203.865
2069.247, 3201.272
2071.175, 3187.502
2073.104, 3180.954
2075.032, 3186.984
2076.960, 3181.986
2078.889, 3175.316
2080.817, 3202.390
2082.746, 3208.304
2084.674, 3165.897
2086.603, 3117.001
2088.531, 3070.229
2090.460, 3017.908
2092.388, 3013.217
2094.317, 3056.365
2096.245, 3088.355
2098.174, 3107.626
2100.102, 3093.440
2102.031, 3089.731
2103.959, 3100.190
2105.887, 3085.831
2107.816, 3065.797
2109.744, 3053.212
2111.673, 3056.615
2113.601, 3067.448
2115.530, 3072.036
2117.458, 3064.342
2119.387, 3037.709
2121.315, 3006.620
2123.244, 2983.138
2125.172, 3002.885
2127.101, 3007.841
2129.029, 2984.974
2130.958, 2968.916
2132.886, 2964.255
2134.814, 2972.763
2136.743, 2951.108
2138.671, 2911.185
2140.600, 2918.776
2142.528, 2923.148
2144.457, 2888.618
2146.385, 2886.131
2148.314, 2901.373
2150.242, 2864.457
2152.171, 2844.062
2154.099, 2870.489
2156.028, 2861.304
2157.956, 2856.197
2159.885, 2889.875
2161.813, 2852.396
2163.741, 2798.524
2165.670, 2800.882
2167.598, 2790.993
2169.527, 2786.849
2171.455, 2774.519
2173.384, 2753.771
2175.312, 2753.197
2177.241, 2754.943
2179.169, 2749.869
2181.098, 2733.300
2183.026, 2728.130
2184.955, 2735.713
2186.883, 2735.772
2188.812, 2729.433
2190.740, 2711.030
2192.668, 2702.631
2194.597, 2701.595
2196.525, 2699.806
2198.454, 2691.048
2200.382, 2671.687
2202.311, 2667.430
2204.239, 2667.540
2206.168, 2661.118
2208.096, 2640.233
2210.025, 2623.996
2211.953, 2643.229
2213.882, 2648.571
2215.810, 2625.166
2217.739, 2608.562
2219.667, 2599.271
2221.595, 2591.252
2223.524, 2583.217
2225.452, 2574.991
2227.381, 2572.969
2229.309, 2565.792
2231.238, 2554.159
2233.166, 2531.845
2235.095, 2506.045
2237.023, 2485.568
2238.952, 2481.820
2240.880, 2489.333
2242.809, 2484.750
2244.737, 2479.433
2246.666, 2472.948
2248.594, 2472.082
2250.522, 2467.266
2252.451, 2449.073
2254.379, 2436.091
2256.308, 2429.972
2258.236, 2428.272
2260.165, 2422.776
2262.093, 2412.050
2264.022, 2390.415
2265.950, 2376.285
2267.879, 2377.088
2269.807, 2370.038
2271.736, 2362.671
2273.664, 2366.250
2275.593, 2365.878
2277.521, 2354.851
2279.449, 2317.312
2281.378, 2302.839
2283.306, 2313.000
2285.235, 2304.257
2287.163, 2295.716
2289.092, 2295.077
2291.020, 2314.080
2292.949, 2318.991
2294.877, 2279.182
2296.806, 2261.436
2298.734, 2255.628
2300.663, 2229.421
2302.591, 2220.530
2304.520, 2235.693
2306.448, 2247.172
2308.376, 2245.223
2310.305, 2227.556
2312.233, 2213.661
2314.162, 2203.774
2316.090, 2197.406
2318.019, 2197.112
2319.947, 2198.580
2321.876, 2184.014
2323.804, 2161.103
2325.733, 2138.868
2327.661, 2156.508
2329.590, 2173.518
2331.518, 2168.358
2333.447, 2163.947
2335.375, 2155.730
2337.303, 2146.263
2339.232, 2122.439
2341.160, 2096.046
2343.089, 2097.753
2345.017, 2090.138
2346.946, 2074.163
2348.874, 2072.225
2350.803, 2063.232
2352.731, 2041.299
2354.660, 2035.277
2356.588, 2032.212
2358.517, 2024.937
2360.445, 2025.184
2362.374, 2026.099
2364.302, 2024.053
2366.230, 2016.783
2368.159, 2009.321
2370.087, 2010.330
2372.016, 2002.491
2373.944, 1988.947
2375.873, 1983.019
2377.801, 1979.618
2379.730, 1977.495
2381.658, 1968.610
2383.587, 1954.495
2385.515, 1938.680
2387.444, 1933.837
2389.372, 1939.594
2391.301, 1958.047
2393.229, 1969.371
2395.157, 1962.302
2397.086, 1923.505
2399.014, 1918.095
2400.943, 1926.248
2402.871, 1910.195
2404.800, 1891.437
2406.728, 1877.732
2408.657, 1868.374
2410.585, 1863.780
2412.514, 1862.944
2414.442, 1849.774
2416.371, 1849.983
2418.299, 1867.552
2420.228, 1847.291
2422.156, 1828.337
2424.084, 1827.898
2426.013, 1823.652
2427.941, 1820.273
2429.870, 1825.678
2431.798, 1813.815
2433.727, 1792.003
2435.655, 1767.795
2437.584, 1769.386
2439.512, 1779.829
2441.441, 1763.041
2443.369, 1746.332
2445.298, 1739.926
2447.226, 1741.703
2449.155, 1726.080
2451.083, 1711.496
2453.011, 1726.262
2454.940, 1725.323
2456.868, 1707.713
2458.797, 1688.880
2460.725, 1685.680
2462.654, 1691.334
2464.582, 1697.826
2466.511, 1697.925
2468.439, 1689.302
2470.368, 1677.509
2472.296, 1662.425
2474.225, 1644.878
2476.153, 1633.603
2478.082, 1632.986
2480.010, 1623.784
2481.938, 1614.287
2483.867, 1615.348
2485.795, 1618.260
2487.724, 1591.037
2489.652, 1577.154
2491.581, 1608.617
2493.509, 1609.391
2495.438, 1594.583
2497.366, 1577.034
2499.295, 1578.868
2501.223, 1586.549
2503.152, 1560.934
2505.080, 1528.056
2507.009, 1518.876
2508.937, 1517.696
2510.865, 1521.574
2512.794, 1524.477
2514.722, 1496.000
2516.651, 1486.985
2518.579, 1490.407
2520.508, 1493.848
2522.436, 1495.381
2524.365, 1495.739
2526.293, 1482.210
2528.222, 1464.433
2530.150, 1454.113
2532.079, 1457.704
2534.007, 1448.578
2535.936, 1440.952
2537.864, 1443.361
2539.792, 1423.313
2541.721, 1408.819
2543.649, 1434.862
2545.578, 1424.979
2547.506, 1397.119
2549.435, 1401.991
2551.363, 1406.595
2553.292, 1402.442
2555.220, 1392.296
2557.149, 1367.272
2559.077, 1356.538
2561.006, 1356.600
2562.934, 1358.609
2564.863, 1348.094
2566.791, 1340.782
2568.719, 1335.787
2570.648, 1340.993
2572.576, 1343.203
2574.505, 1335.975
2576.433, 1329.546
2578.362, 1328.049
2580.290, 1325.013
2582.219, 1310.015
2584.147, 1315.562
2586.076, 1312.971
2588.004, 1295.260
2589.933, 1287.725
2591.861, 1292.890
2593.790, 1277.392
2595.718, 1262.273
2597.646, 1243.716
2599.575, 1244.067
2601.503, 1259.675
2603.432, 1255.358
2605.360, 1233.608
2607.289, 1218.043
2609.217, 1227.701
2611.146, 1230.150
2613.074, 1209.026
2615.003, 1194.343
2616.931, 1193.371
2618.860, 1189.803
2620.788, 1181.402
2622.717, 1175.762
2624.645, 1186.734
2626.573, 1186.190
2628.502, 1165.064
2630.430, 1152.867
2632.359, 1145.719
2634.287, 1147.971
2636.216, 1142.329
2638.144, 1137.599
2640.073, 1153.039
2642.001, 1139.440
2643.930, 1120.590
2645.858, 1109.680
2647.787, 1104.458
2649.715, 1093.664
2651.644, 1093.553
2653.572, 1090.580
2655.500, 1079.003
2657.429, 1091.099
2659.357, 1083.781
2661.286, 1079.190
2663.214, 1081.038
2665.143, 1058.985
2667.071, 1054.907
2669.000, 1063.166
2670.928, 1052.682
2672.857, 1052.642
2674.785, 1057.983
2676.714, 1050.818
2678.642, 1037.859
2680.571, 1028.721
2682.499, 1028.449
2684.427, 1018.990
2686.356, 1013.015
2688.284, 1001.372
2690.213, 995.853
2692.141, 994.315
2694.070, 982.608
2695.998, 971.950
2697.927, 969.743
2699.855, 970.635
2701.784, 974.310
2703.712, 978.480
2705.641, 973.201
2707.569, 962.542
2709.498, 946.373
2711.426, 938.849
2713.354, 952.763
2715.283, 940.158
2717.211, 926.345
2719.140, 922.810
2721.068, 917.150
2722.997, 909.155
2724.925, 910.429
2726.854, 911.468
2728.782, 902.922
2730.711, 895.385
2732.639, 880.553
2734.568, 876.864
2736.496, 878.513
2738.425, 874.274
2740.353, 869.541
2742.281, 863.844
2744.210, 869.316
2746.138, 856.608
2748.067, 851.480
2749.995, 864.154
2751.924, 853.567
2753.852, 835.708
2755.781, 820.609
2757.709, 810.637
2759.638, 812.156
2761.566, 818.944
2763.495, 817.442
2765.423, 810.378
2767.352, 805.043
2769.280, 805.307
2771.208, 796.985
2773.137, 787.170
2775.065, 776.685
2776.994, 777.830
2778.922, 785.845
2780.851, 790.668
2782.779, 781.554
2784.708, 762.625
2786.636, 746.301
2788.565, 734.292
2790.493, 725.208
2792.422, 736.569
2794.350, 757.508
2796.279, 733.310
2798.207, 719.061
2800.135, 714.823
2802.064, 706.564
2803.992, 699.728
2805.921, 699.073
2807.849, 710.058
2809.778, 699.002
2811.706, 693.338
2813.635, 696.850
2815.563, 675.891
2817.492, 667.378
2819.420, 672.058
2821.349, 684.005
2823.277, 675.163
2825.206, 661.311
2827.134, 653.904
2829.063, 643.065
2830.991, 647.668
2832.919, 662.117
2834.848, 650.901
2836.776, 641.119
2838.705, 636.000
2840.633, 631.260
2842.562, 633.169
2844.490, 635.137
2846.419, 625.961
2848.347, 622.713
2850.276, 626.279
2852.204, 623.719
2854.133, 600.187
2856.061, 607.840
2857.990, 619.574
2859.918, 612.881
2861.846, 600.838
2863.775, 594.303
2865.703, 590.862
2867.632, 585.536
2869.560, 567.524
2871.489, 557.352
2873.417, 561.841
2875.346, 561.742
2877.274, 556.438
2879.203, 554.207
2881.131, 565.697
2883.060, 564.167
2884.988, 550.815
2886.917, 538.086
2888.845, 528.735
2890.773, 524.738
2892.702, 524.863
2894.630, 539.718
2896.559, 531.505
2898.487, 516.827
2900.416, 512.550
2902.344, 510.153
2904.273, 499.317
2906.201, 481.961
2908.130, 499.995
2910.058, 496.510
2911.987, 485.763
2913.915, 490.204
2915.844, 482.208
2917.772, 473.763
2919.700, 460.228
2921.629, 462.490
2923.557, 458.592
2925.486, 450.647
2927.414, 449.591
2929.343, 458.996
2931.271, 457.133
2933.200, 442.149
2935.128, 441.482
2937.057, 435.601
2938.985, 432.034
2940.914, 436.649
2942.842, 436.147
2944.771, 430.574
2946.699, 427.197
2948.627, 425.862
2950.556, 416.586
2952.484, 414.172
2954.413, 418.644
2956.341, 410.382
2958.270, 404.457
2960.198, 410.726
2962.127, 416.365
2964.055, 410.957
2965.984, 397.875
2967.912, 386.252
2969.841, 390.641
2971.769, 390.844
2973.698, 387.893
2975.626, 381.407
2977.554, 383.163
2979.483, 376.319
2981.411, 362.351
2983.340, 352.209
2985.268, 352.283
2987.197, 352.346
2989.125, 340.479
2991.054, 341.441
2992.982, 343.258
2994.911, 348.173
2996.839, 358.986
2998.768, 356.410
3000.696, 340.068
3002.625, 329.070
3004.553, 321.675
3006.481, 324.339
3008.410, 329.222
3010.338, 322.651
3012.267, 313.954
3014.195, 319.763
3016.124, 324.290
3018.052, 320.943
3019.981, 321.149
3021.909, 303.108
3023.838, 274.162
3025.766, 281.101
3027.695, 288.114
3029.623, 288.332
3031.552, 280.569
3033.480, 284.758
3035.408, 286.620
3037.337, 278.625
3039.265, 271.480
3041.194, 270.967
3043.122, 279.624
3045.051, 277.316
3046.979, 269.796
3048.908, 284.063
3050.836, 273.001
3052.765, 258.422
3054.693, 276.531
3056.622, 260.360
3058.550, 257.066
3060.479, 264.049
3062.407, 252.779
3064.335, 249.518
3066.264, 264.348
3068.192, 274.876
3070.121, 238.094
3072.049, 225.094
3073.978, 228.365
3075.906, 231.849
3077.835, 236.614
3079.763, 228.732
3081.692, 221.040
3083.620, 221.206
3085.549, 218.794
3087.477, 222.641
3089.406, 224.308
3091.334, 214.760
3093.262, 203.824
3095.191, 212.786
3097.119, 218.069
3099.048, 197.339
3100.976, 204.947
3102.905, 202.210
3104.833, 192.088
3106.762, 195.006
3108.690, 195.839
3110.619, 194.461
3112.547, 190.448
3114.476, 174.941
3116.404, 167.333
3118.333, 170.270
3120.261, 176.432
3122.189, 181.107
3124.118, 186.029
3126.046, 193.006
3127.975, 194.693
3129.903, 188.591
3131.832, 179.609
3133.760, 183.771
3135.689, 181.840
3137.617, 137.520
3139.546, 158.403
3141.474, 167.602
3143.403, 154.656
3145.331, 167.276
3147.260, 176.382
3149.188, 179.251
3151.116, 176.057
3153.045, 157.649
3154.973, 155.820
3156.902, 162.197
3158.830, 164.358
3160.759, 157.596
3162.687, 144.097
3164.616, 151.808
3166.544, 166.468
3168.473, 151.441
3170.401, 132.844
3172.330, 146.790
3174.258, 158.602
3176.187, 132.273
3178.115, 128.103
3180.043, 138.414
3181.972, 144.033
3183.900, 133.152
3185.829, 115.400
3187.757, 115.939
3189.686, 129.447
3191.614, 142.816
3193.543, 125.752
3195.471, 133.909
3197.400, 138.313
3199.328, 124.304
3201.257, 113.923
3203.185, 132.353
3205.114, 136.121
3207.042, 122.141
3208.970, 121.697
3210.899, 127.376
3212.827, 120.626
3214.756, 112.183
3216.684, 126.509
3218.613, 127.468
3220.541, 130.045
3222.470, 130.628
3224.398, 121.532
3226.327, 96.586
3228.255, 98.467
3230.184, 107.810
3232.112, 109.243
3234.041, 113.835
3235.969, 110.626
3237.897, 103.203
3239.826, 98.765
3241.754, 107.711
3243.683, 118.260
3245.611, 115.882
3247.540, 106.983
3249.468, 106.387
3251.397, 103.067
3253.325, 106.412
3255.254, 108.529
3257.182, 104.720
3259.111, 108.820
3261.039, 109.340
3262.968, 97.105
3264.896, 85.426
3266.824, 112.325
3268.753, 102.366
3270.681, 91.789
3272.610, 92.380
3274.538, 101.483
3276.467, 92.313
3278.395, 81.375
3280.324, 83.685
3282.252, 95.420
3284.181, 81.009
3286.109, 78.085
3288.038, 95.593
3289.966, 117.812
3291.895, 118.283
3293.823, 87.345
3295.751, 85.107
3297.680, 89.749
3299.608, 82.800
3301.537, 94.997
3303.465, 100.776
3305.394, 101.222
3307.322, 96.563
3309.251, 86.215
3311.179, 84.958
3313.108, 73.633
3315.036, 69.792
3316.965, 80.894
3318.893, 92.584
3320.822, 108.049
3322.750, 106.685
3324.678, 97.486
3326.607, 99.732
3328.535, 83.198
3330.464, 91.723
3332.392, 102.245
3334.321, 101.074
3336.249, 102.528
3338.178, 89.642
3340.106, 84.356
3342.035, 86.118
3343.963, 89.160
3345.892, 93.843
3347.820, 86.929
3349.749, 77.231
3351.677, 72.799
3353.605, 83.862
3355.534, 87.608
3357.462, 83.888
3359.391, 68.093
3361.319, 50.724
3363.248, 72.634
3365.176, 61.696
3367.105, 69.415
3369.033, 74.274
3370.962, 52.969
3372.890, 68.016
3374.819, 54.530
3376.747, 57.624
3378.676, 72.085
3380.604, 68.332
3382.532, 60.005
3384.461, 60.706
3386.389, 58.510
3388.318, 55.232
3390.246, 75.256
3392.175, 76.621
3394.103, 82.511
3396.032, 79.738
3397.960, 64.956
3399.889, 69.140
3401.817, 81.012
3403.746, 81.348
3405.674, 73.362
3407.603, 69.315
3409.531, 85.336
3411.459, 78.575
3413.388, 78.032
3415.316, 84.102
3417.245, 85.493
3419.173, 70.970
3421.102, 60.671
3423.030, 66.936
3424.959, 66.343
3426.887, 47.191
3428.816, 64.675
3430.744, 44.485
3432.673, 51.953
3434.601, 64.886
3436.530, 48.927
3438.458, 46.056
3440.386, 39.666
3442.315, 50.006
3444.243, 55.339
3446.172, 40.866
3448.100, 51.233
3450.029, 47.697
3451.957, 50.967
3453.886, 57.679
3455.814, 57.078
3457.743, 43.583
3459.671, 42.821
3461.600, 43.419
3463.528, 38.761
3465.457, 35.305
3467.385, 57.503
3469.313, 55.239
3471.242, 52.090
3473.170, 44.019
3475.099, 35.429
3477.027, 50.359
3478.956, 44.024
3480.884, 41.948
3482.813, 42.167
3484.741, 40.845
3486.670, 38.304
3488.598, 46.968
3490.527, 55.548
3492.455, 59.479
3494.384, 56.309
3496.312, 46.754
3498.240, 42.134
3500.169, 46.653
3502.097, 46.935
3504.026, 47.850
3505.954, 52.350
3507.883, 47.428
3509.811, 40.549
3511.740, 41.244
3513.668, 46.767
3515.597, 49.053
3517.525, 39.935
3519.454, 23.260
3521.382, 28.256
3523.311, 38.169
3525.239, 42.159
3527.167, 40.144
3529.096, 40.741
3531.024, 44.705
3532.953, 47.024
3534.881, 52.743
3536.810, 59.044
3538.738, 52.340
3540.667, 11.559
3542.595, 35.138
3544.524, 40.658
3546.452, 26.038
3548.381, 30.996
3550.309, 60.478
3552.238, 52.273
3554.166, 37.803
3556.094, 39.850
3558.023, 48.754
3559.951, 40.378
3561.880, 34.068
3563.808, 38.995
3565.737, 55.925
3567.665, 51.109
3569.594, 22.638
3571.522, 38.720
3573.451, 37.197
3575.379, 38.434
3577.308, 37.150
3579.236, 32.471
3581.165, 31.272
3583.093, 51.122
3585.021, 29.822
3586.950, 34.850
3588.878, 50.799
3590.807, 52.125
3592.735, 33.353
3594.664, 30.549
3596.592, 30.650
3598.521, 40.846
3600.449, 49.796
3602.378, 39.193
3604.306, 3.935
3606.235, 16.636
3608.163, 24.906
3610.092, 45.372
3612.020, 50.803
3613.948, 35.685
3615.877, 27.347
3617.805, 36.271
3619.734, 25.018
3621.662, 30.567
3623.591, 33.461
3625.519, 21.726
3627.448, 14.332
3629.376, 53.274
3631.305, 46.519
3633.233, 31.663
3635.162, 29.099
3637.090, 37.185
3639.019, 44.621
3640.947, 39.801
3642.875, 30.896
3644.804, 35.853
3646.732, 28.314
3648.661, 20.972
3650.589, 40.342
3652.518, 55.452
3654.446, 36.623
3656.375, 32.117
3658.303, 29.786
3660.232, 27.735
3662.160, 28.835
3664.089, 18.191
3666.017, 41.199
3667.946, 45.011
3669.874, 29.793
3671.802, 21.691
3673.731, 25.682
3675.659, 22.377
3677.588, 18.795
3679.516, 18.866
3681.445, 23.763
3683.373, 19.554
3685.302, 7.112
3687.230, 0.982
3689.159, 11.913
3691.087, 7.231
3693.016, 10.524
3694.944, 12.394
3696.873, 9.419
3698.801, 14.167
3700.729, 36.819
3702.658, 25.416
3704.586, 24.645
3706.515, 18.546
3708.443, 28.855
3710.372, 35.514
3712.300, 20.967
3714.229, 16.769
3716.157, 24.190
3718.086, 40.453
3720.014, 19.646
3721.943, 16.781
3723.871, 31.300
3725.800, 24.902
3727.728, 23.787
3729.656, 21.288
3731.585, 9.497
3733.513, 29.554
3735.442, 38.694
3737.370, 29.395
3739.299, 32.929
3741.227, 30.419
3743.156, 29.646
3745.084, 21.416
3747.013, 27.670
3748.941, 23.625
3750.870, 18.175
3752.798, 34.114
3754.727, 20.332
3756.655, 27.848
3758.583, -4.037
3760.512, 11.385
3762.440, 23.041
3764.369, 8.816
3766.297, 2.173
3768.226, 12.353
3770.154, 23.181
3772.083, 4.725
3774.011, 12.990
3775.940, 6.444
3777.868, -2.722
3779.797, 6.449
3781.725, 4.446
3783.654, 22.927
3785.582, 3.701
3787.510, 7.267
3789.439, 1.075
3791.367, -0.087
3793.296, 9.047
3795.224, 9.439
3797.153, 14.104
3799.081, 32.299
3801.010, 14.287
3802.938, 20.301
3804.867, 20.604
3806.795, 11.141
3808.724, 13.102
3810.652, 25.590
3812.581, 4.190
3814.509, 14.310
3816.438, 27.069
3818.366, 24.242
3820.294, 23.512
3822.223, 19.775
3824.151, 11.480
3826.080, 25.363
3828.008, 3.433
3829.937, 26.952
3831.865, 21.212
3833.794, 36.841
3835.722, 34.162
3837.651, 15.272
3839.579, 14.627
3841.508, 18.062
3843.436, 28.974
3845.365, 32.360
3847.293, 16.422
3849.221, 6.905
3851.150, 13.971
3853.078, 19.044
3855.007, 12.673
3856.935, 9.144
3858.864, 6.221
3860.792, -7.088
3862.721, 15.703
3864.649, 14.415
3866.578, 1.848
3868.506, 11.192
3870.435, 25.215
3872.363, 11.486
3874.292, 8.982
3876.220, 10.472
3878.148, 19.195
3880.077, 7.977
3882.005, 1.478
3883.934, 15.039
3885.862, 26.597
3887.791, 21.480
3889.719, 17.823
3891.648, 25.882
3893.576, 24.799
3895.505, 21.708
3897.433, 7.318
3899.362, 7.633
3901.290, 12.096
3903.219, 7.174
3905.147, 6.137
3907.075, 19.336
3909.004, 2.795
3910.932, 25.392
3912.861, 4.243
3914.789, 14.726
3916.718, 19.959
3918.646, 9.679
3920.575, 24.979
3922.503, 40.439
3924.432, -2.214
3926.360, -4.654
3928.289, 12.854
3930.217, -5.555
3932.146, 5.042
3934.074, 19.145
3936.002, 9.931
3937.931, 9.561
3939.859, 18.997
3941.788, 17.383
3943.716, 24.319
3945.645, 16.637
3947.573, 2.362
3949.502, -1.753
3951.430, 8.282
3953.359, 32.319
3955.287, 40.280
3957.216, 15.719
3959.144, 5.868
3961.073, 33.576
3963.001, 31.049
3964.929, 32.494
3966.858, 19.589
3968.786, 37.731
3970.715, 27.463
3972.643, 17.355
3974.572, 14.423
3976.500, 24.980
3978.429, 20.365
3980.357, 4.912
3982.286, 22.673
3984.214, 6.476
3986.143, 8.127
3988.071, 8.613
3990.000, 8.053
3991.928, 2.131
3993.856, 8.231
3995.785, 4.819
3997.713, 7.211
3999.642, 19.004
4001.570, 24.207
4003.499, 24.535
4005.427, -3.610
4007.356, 20.472
4009.284, 16.161
4011.213, 12.573
4013.141, -2.598
4015.070, 11.150
4016.998, 16.953
4018.927, 0.027
4020.855, -0.115
4022.783, 13.933
4024.712, 8.843
4026.640, 21.778
4028.569, -1.709
4030.497, 8.640
4032.426, 24.010
4034.354, 7.648
4036.283, 6.089
4038.211, 16.870
4040.140, 26.895
4042.068, 24.445
4043.997, 18.741
4045.925, 23.398
4047.854, 32.015
4049.782, 34.476
4051.710, 28.345
4053.639, 5.970
4055.567, -4.162
4057.496, 4.856
4059.424, 2.304
4061.353, 20.862
4063.281, 24.763
4065.210, 23.253
4067.138, 27.151
4069.067, 15.324
4070.995, 7.068
4072.924, 27.856
4074.852, 8.790
4076.781, -3.836
4078.709, -3.072
4080.637, 17.451
4082.566, 18.944
4084.494, 1.637
4086.423, -10.916
4088.351, 4.543
4090.280, 9.959
4092.208, 8.444
4094.137, 3.806
4096.065, -9.439
4097.994, -6.206
4099.922, 20.018
4101.851, 13.005
4103.779, -5.367
4105.708, 19.617
4107.636, 20.570
4109.564, 6.821
4111.493, -6.925
4113.421, -4.657
4115.350, 12.525
4117.278, 17.824
4119.207, 21.815
4121.135, -1.192
4123.063, 8.673
4124.992, 24.224
4126.920, 8.160
4128.849, 25.049
4130.777, 12.135
4132.706, 13.266
4134.634, 17.407
4136.563, 15.099
4138.491, 11.018
4140.420, 8.089
4142.348, 7.545
4144.277, -15.964
4146.205, 3.616
4148.134, -2.750
4150.062, 12.206
4151.991, 15.764
4153.919, 9.790
4155.848, 17.877
4157.776, 16.979
4159.705, 9.497
4161.633, 16.013
4163.562, 10.277
4165.490, 0.509
4167.418, 15.502
4169.347, -11.675
4171.275, 25.796
4173.204, 4.014
4175.132, 12.864
4177.061, 8.099
4178.989, 24.202
4180.917, 23.297
4182.846, 0.458
4184.774, 0.904
4186.703, 26.630
4188.631, 22.255
4190.560, 18.797
4192.488, 37.006
4194.417, 38.289
4196.345, 18.920
4198.274, 18.071
4200.202, 21.379
4202.131, -5.670
4204.059, 34.862
4205.988, 5.034
4207.916, -12.231
4209.845, 7.744
4211.773, -25.898
4213.702, 21.749
4215.630, 26.024
4217.559, -5.141
4219.487, -15.744
4221.416, 9.658
4223.344, -10.855
4225.272, 10.851
4227.201, 12.769
4229.129, -9.515
4231.058, -1.316
4232.986, 0.523
4234.915, 4.191
4236.843, 7.199
4238.771, -1.444
4240.700, -4.184
4242.628, 13.220
4244.557, 17.882
4246.485, -0.547
4248.414, 21.410
4250.342, 21.758
4252.271, 14.727
4254.199, 13.903
4256.128, 22.769
4258.056, 3.079
4259.985, 35.087
4261.913, 12.426
4263.842, 15.102
4265.770, 27.147
4267.699, 48.746
4269.627, 33.211
4271.556, 18.366
4273.484, 7.697
4275.413, 6.173
4277.341, 15.213
4279.270, 9.897
4281.198, 6.093
4283.126, 18.837
4285.055, -0.048
4286.983, -2.127
4288.912, -8.943
4290.840, 4.239
4292.769, -2.119
4294.697, -6.484
4296.625, 2.475
4298.554, 0.593
4300.482, -7.781
4302.411, -0.041
4304.339, 11.323
4306.268, 12.393
4308.196, 7.597
4310.125, 1.157
4312.053, -1.481
4313.982, 1.478
4315.910, 16.781
4317.839, 9.989
4319.767, -7.203
4321.696, 24.910
4323.624, 18.341
4325.553, 15.632
4327.481, 3.249
4329.410, 20.905
4331.338, 19.193
4333.267, 15.474
4335.195, 22.448
4337.124, 30.715
4339.052, -12.198
4340.980, 34.547
4342.909, 5.401
4344.837, 8.970
##END=



