##NAMES=Tlapallite
##RRUFFID=R060888
##IDEAL CHEMISTRY=(Ca,Pb)_3_CaCu_6_[Te^4+^_3_Te^6+^O_12_]_2_(Te^4+^O_3_)_2_(SO_4_)_2_·3H_2_O
##LOCALITY=La Oriental mine, Moctezuma, Sonora, Mexico
##OWNER=RRUFF
##SOURCE=Bob Jenkins
##DESCRIPTION=Apple green botryoidal crust
##STATUS=The identification of this mineral is not yet confirmed
##URL=https://www.rruff.net/odr/rruff_sample/R060888
##FILETYPE=Raman RAW
##RAMAN WAVELENGTH=532

151.6162, 19532.95
153.5447, 19370.12
155.4731, 19421.27
157.4016, 19665.10
159.3301, 19946.25
161.2585, 20301.02
163.1870, 20671.53
165.1155, 20946.46
167.0439, 21129.78
168.9724, 21231.92
170.9009, 21253.17
172.8293, 21145.36
174.7578, 21066.61
176.6863, 21018.40
178.6147, 21007.93
180.5432, 21045.13
182.4717, 21160.13
184.4001, 21296.35
186.3286, 21415.94
188.2571, 21612.56
190.1855, 21690.35
192.1140, 21595.56
194.0425, 21349.33
195.9709, 21049.91
197.8994, 20633.60
199.8279, 20201.79
201.7563, 19869.73
203.6848, 19617.27
205.6133, 19470.87
207.5417, 19456.91
209.4702, 19567.58
211.3987, 19741.96
213.3272, 19958.40
215.2556, 20223.70
217.1841, 20562.25
219.1126, 21019.63
221.0410, 21493.15
222.9695, 21956.43
224.8980, 22454.00
226.8264, 22831.29
228.7549, 23075.46
230.6834, 23184.23
232.6118, 23202.44
234.5403, 23074.82
236.4688, 22899.22
238.3972, 22731.84
240.3257, 22531.32
242.2542, 22388.00
244.1826, 22290.40
246.1111, 22250.45
248.0396, 22304.57
249.9680, 22535.95
251.8965, 22821.39
253.8250, 23082.56
255.7534, 23494.38
257.6819, 23692.38
259.6104, 23536.97
261.5388, 23090.61
263.4673, 22593.28
265.3958, 21993.75
267.3242, 21395.73
269.2527, 20900.37
271.1812, 20479.29
273.1096, 20181.01
275.0381, 20042.71
276.9666, 20049.85
278.8950, 20143.64
280.8235, 20342.93
282.7520, 20607.47
284.6804, 20911.54
286.6089, 21315.37
288.5374, 21649.21
290.4658, 21869.53
292.3943, 21982.08
294.3228, 21957.69
296.2512, 21740.88
298.1797, 21419.64
300.1082, 21095.82
302.0366, 20732.03
303.9651, 20436.52
305.8936, 20250.72
307.8220, 20211.42
309.7505, 20168.98
311.6790, 20139.20
313.6074, 20101.36
315.5359, 20030.98
317.4644, 19910.90
319.3928, 19778.70
321.3213, 19638.33
323.2498, 19480.26
325.1782, 19345.30
327.1067, 19242.01
329.0352, 19158.76
330.9636, 19078.88
332.8921, 18993.38
334.8206, 18938.40
336.7491, 18928.12
338.6775, 18974.58
340.6060, 19041.99
342.5345, 19142.20
344.4629, 19261.46
346.3914, 19385.86
348.3199, 19523.85
350.2483, 19645.69
352.1768, 19727.58
354.1053, 19761.91
356.0337, 19823.74
357.9622, 19936.91
359.8907, 20060.36
361.8191, 20162.16
363.7476, 20219.43
365.6761, 20292.76
367.6045, 20392.72
369.5330, 20525.55
371.4615, 20684.02
373.3899, 20888.73
375.3184, 21110.49
377.2469, 21328.72
379.1753, 21545.57
381.1038, 21750.93
383.0323, 21936.89
384.9607, 22103.44
386.8892, 22261.96
388.8177, 22399.49
390.7461, 22539.80
392.6746, 22695.28
394.6031, 22878.21
396.5315, 23061.18
398.4600, 23232.46
400.3885, 23408.34
402.3169, 23616.77
404.2454, 23885.69
406.1739, 24152.72
408.1023, 24383.94
410.0308, 24540.98
411.9593, 24766.54
413.8877, 25074.78
415.8162, 25451.49
417.7447, 25863.97
419.6731, 26298.40
421.6016, 26805.08
423.5301, 27424.99
425.4585, 28176.78
427.3870, 28854.41
429.3155, 29462.54
431.2439, 29986.66
433.1724, 30435.78
435.1009, 30832.05
437.0293, 31070.44
438.9578, 31145.88
440.8863, 31056.71
442.8147, 30820.80
444.7432, 30361.70
446.6717, 29842.12
448.6001, 29315.59
450.5286, 28774.17
452.4571, 28295.16
454.3855, 27871.35
456.3140, 27518.39
458.2425, 27276.05
460.1709, 27156.46
462.0994, 27108.75
464.0279, 27132.71
465.9563, 27220.70
467.8848, 27332.82
469.8133, 27503.47
471.7417, 27664.72
473.6702, 27760.21
475.5987, 27784.64
477.5271, 27750.09
479.4556, 27627.80
481.3841, 27443.70
483.3125, 27253.49
485.2410, 27003.36
487.1695, 26801.24
489.0979, 26682.44
491.0264, 26652.76
492.9549, 26716.84
494.8833, 26914.24
496.8118, 27200.49
498.7403, 27529.78
500.6687, 27944.58
502.5972, 28343.62
504.5257, 28777.75
506.4541, 29199.90
508.3826, 29395.97
510.3111, 29321.42
512.2395, 29030.89
514.1680, 28547.70
516.0964, 27790.50
518.0249, 27081.67
519.9534, 26452.63
521.8818, 25892.88
523.8103, 25387.88
525.7388, 24960.00
527.6672, 24559.77
529.5957, 24160.42
531.5242, 23766.97
533.4526, 23450.47
535.3811, 23226.87
537.3096, 23056.01
539.2380, 22914.37
541.1665, 22789.15
543.0950, 22708.99
545.0234, 22704.20
546.9519, 22732.61
548.8804, 22745.74
550.8088, 22728.03
552.7373, 22710.35
554.6658, 22702.53
556.5942, 22706.19
558.5227, 22709.00
560.4512, 22705.85
562.3796, 22716.11
564.3081, 22750.77
566.2366, 22820.54
568.1650, 22882.54
570.0935, 22914.89
572.0220, 22942.65
573.9504, 22998.22
575.8789, 23083.75
577.8074, 23180.19
579.7358, 23290.35
581.6644, 23410.28
583.5928, 23517.02
585.5213, 23612.50
587.4498, 23699.61
589.3782, 23770.64
591.3067, 23826.05
593.2352, 23909.71
595.1636, 24056.44
597.0921, 24211.23
599.0206, 24327.64
600.9490, 24370.13
602.8775, 24430.41
604.8060, 24529.85
606.7344, 24649.79
608.6629, 24749.26
610.5914, 24817.53
612.5198, 24892.74
614.4483, 24998.92
616.3768, 25135.51
618.3052, 25253.24
620.2337, 25327.54
622.1622, 25398.68
624.0906, 25479.21
626.0191, 25564.10
627.9476, 25672.11
629.8760, 25806.03
631.8045, 25968.31
633.7330, 26159.00
635.6614, 26372.58
637.5899, 26651.71
639.5184, 27044.19
641.4468, 27511.75
643.3753, 27949.47
645.3038, 28341.94
647.2322, 28717.44
649.1607, 29094.10
651.0892, 29458.83
653.0176, 29731.31
654.9461, 29823.03
656.8746, 29878.29
658.8030, 29964.57
660.7315, 30097.47
662.6600, 30221.29
664.5884, 30321.49
666.5169, 30445.33
668.4454, 30630.92
670.3738, 30905.57
672.3023, 31186.99
674.2308, 31459.69
676.1592, 31722.62
678.0877, 31973.40
680.0162, 32184.12
681.9446, 32404.21
683.8731, 32646.46
685.8016, 32903.67
687.7300, 33159.02
689.6585, 33355.41
691.5870, 33627.24
693.5154, 34023.41
695.4439, 34556.98
697.3724, 35158.58
699.3008, 35896.66
701.2293, 36642.28
703.1578, 37387.30
705.0862, 38154.06
707.0147, 38645.46
708.9432, 38837.77
710.8716, 38725.11
712.8001, 38261.59
714.7286, 37238.68
716.6570, 36208.69
718.5855, 35117.11
720.5140, 34067.83
722.4424, 33155.48
724.3709, 32357.15
726.2994, 31755.97
728.2278, 31390.43
730.1563, 31218.43
732.0848, 31141.51
734.0132, 31186.03
735.9417, 31279.80
737.8702, 31419.47
739.7986, 31598.29
741.7271, 31789.58
743.6556, 31977.56
745.5840, 32205.35
747.5125, 32488.23
749.4410, 32829.23
751.3694, 33226.35
753.2979, 33666.14
755.2264, 34173.59
757.1548, 34786.07
759.0833, 35506.37
761.0118, 36234.21
762.9402, 36981.71
764.8687, 37708.41
766.7972, 38377.20
768.7256, 38956.61
770.6541, 39560.65
772.5826, 40180.13
774.5110, 40831.84
776.4395, 41533.97
778.3680, 42284.30
780.2964, 43083.11
782.2249, 43986.32
784.1534, 44917.32
786.0818, 45820.02
788.0103, 46783.86
789.9388, 47495.97
791.8672, 47991.75
793.7957, 48209.91
795.7242, 47995.02
797.6526, 47333.18
799.5811, 46351.32
801.5096, 44913.81
803.4380, 43187.50
805.3665, 41475.74
807.2950, 39722.90
809.2234, 38096.30
811.1519, 36607.05
813.0804, 35260.08
815.0089, 34099.16
816.9373, 33160.41
818.8658, 32343.25
820.7943, 31643.56
822.7227, 31057.73
824.6512, 30560.08
826.5797, 30185.31
828.5081, 29866.45
830.4366, 29570.91
832.3651, 29302.43
834.2935, 29100.66
836.2220, 28998.26
838.1505, 28920.07
840.0789, 28838.16
842.0074, 28751.98
843.9359, 28681.51
845.8643, 28630.07
847.7928, 28589.55
849.7213, 28558.86
851.6497, 28539.47
853.5782, 28526.66
855.5067, 28514.47
857.4351, 28518.73
859.3636, 28553.83
861.2921, 28620.67
863.2205, 28665.04
865.1490, 28654.12
867.0775, 28643.66
869.0059, 28667.89
870.9344, 28720.09
872.8629, 28751.43
874.7913, 28755.83
876.7198, 28743.25
878.6483, 28712.28
880.5767, 28661.53
882.5052, 28642.53
884.4337, 28684.58
886.3621, 28733.80
888.2906, 28757.73
890.2191, 28760.15
892.1475, 28776.91
894.0760, 28808.31
896.0045, 28854.30
897.9329, 28917.77
899.8614, 29001.06
901.7899, 29073.04
903.7183, 29125.30
905.6468, 29175.43
907.5753, 29230.61
909.5037, 29290.07
911.4322, 29344.45
913.3607, 29381.00
915.2891, 29422.53
917.2176, 29486.55
919.1461, 29567.46
921.0745, 29630.27
923.0030, 29676.15
924.9315, 29703.00
926.8599, 29699.33
928.7884, 29670.35
930.7169, 29676.31
932.6453, 29730.55
934.5738, 29801.45
936.5023, 29880.16
938.4307, 29963.98
940.3592, 30051.54
942.2877, 30149.27
944.2161, 30231.83
946.1446, 30271.90
948.0731, 30286.62
950.0015, 30349.63
951.9300, 30498.87
953.8585, 30661.91
955.7869, 30792.42
957.7154, 30931.65
959.6439, 31179.03
961.5723, 31514.49
963.5008, 31976.56
965.4293, 32644.06
967.3577, 33426.93
969.2862, 34251.76
971.2147, 35300.01
973.1431, 35937.70
975.0716, 35985.26
977.0001, 35619.05
978.9285, 35057.57
980.8570, 34083.05
982.7855, 33261.75
984.7139, 32633.42
986.6424, 32161.77
988.5709, 31826.74
990.4993, 31631.05
992.4278, 31501.18
994.3563, 31454.06
996.2847, 31455.51
998.2132, 31489.42
1000.142, 31566.55
1002.070, 31639.30
1003.999, 31681.93
1005.927, 31732.68
1007.856, 31809.10
1009.784, 31906.98
1011.712, 32005.69
1013.641, 32101.35
1015.569, 32186.11
1017.498, 32263.14
1019.426, 32327.70
1021.355, 32351.63
1023.283, 32306.44
1025.212, 32278.05
1027.140, 32313.66
1029.069, 32395.44
1030.997, 32454.46
1032.926, 32457.88
1034.854, 32481.52
1036.782, 32549.08
1038.711, 32633.10
1040.639, 32683.17
1042.568, 32684.29
1044.496, 32697.05
1046.425, 32748.71
1048.353, 32813.86
1050.282, 32872.54
1052.210, 32928.75
1054.139, 32989.23
1056.067, 33071.52
1057.996, 33154.62
1059.924, 33219.07
1061.853, 33256.23
1063.781, 33324.77
1065.709, 33435.35
1067.638, 33547.61
1069.566, 33634.19
1071.495, 33697.68
1073.423, 33769.41
1075.352, 33856.86
1077.280, 33936.32
1079.209, 34000.23
1081.137, 34052.46
1083.066, 34094.68
1084.994, 34113.90
1086.923, 34159.19
1088.851, 34241.86
1090.780, 34351.77
1092.708, 34485.18
1094.637, 34672.91
1096.565, 34819.00
1098.494, 34910.87
1100.422, 34982.37
1102.350, 35062.15
1104.279, 35147.41
1106.207, 35199.35
1108.136, 35211.23
1110.064, 35183.49
1111.993, 35074.81
1113.921, 34914.49
1115.850, 34825.59
1117.778, 34841.05
1119.707, 34867.89
1121.635, 34903.90
1123.564, 34935.55
1125.492, 34941.81
1127.421, 34909.63
1129.349, 34889.77
1131.277, 34889.00
1133.206, 34901.69
1135.134, 34929.39
1137.063, 34970.82
1138.991, 35008.27
1140.920, 35041.27
1142.848, 35066.93
1144.777, 35068.30
1146.705, 35059.39
1148.634, 35095.91
1150.562, 35213.36
1152.491, 35316.56
1154.419, 35385.24
1156.348, 35430.16
1158.276, 35461.32
1160.204, 35456.53
1162.133, 35484.81
1164.061, 35578.73
1165.990, 35677.43
1167.918, 35731.09
1169.847, 35747.72
1171.775, 35794.58
1173.704, 35900.26
1175.632, 35997.55
1177.561, 36043.43
1179.489, 36063.64
1181.418, 36107.79
1183.346, 36180.71
1185.275, 36256.77
1187.203, 36343.63
1189.131, 36418.91
1191.060, 36465.50
1192.988, 36483.23
1194.917, 36483.03
1196.845, 36444.66
1198.774, 36426.69
1200.702, 36463.21
1202.631, 36547.01
1204.559, 36638.12
1206.488, 36736.09
1208.416, 36828.15
1210.345, 36890.75
1212.273, 36941.11
1214.202, 37006.36
1216.130, 37087.07
1218.058, 37118.94
1219.987, 37064.27
1221.915, 37002.20
1223.844, 36970.27
1225.772, 36972.94
1227.701, 37000.97
1229.629, 37060.99
1231.558, 37150.38
1233.486, 37287.60
1235.415, 37439.15
1237.343, 37560.33
1239.272, 37634.86
1241.200, 37725.02
1243.129, 37849.41
1245.057, 37969.49
1246.985, 38053.48
1248.914, 38112.36
1250.842, 38187.38
1252.771, 38285.73
1254.699, 38372.19
1256.628, 38435.54
1258.556, 38480.13
1260.485, 38509.87
1262.413, 38528.08
1264.342, 38554.89
1266.270, 38620.80
1268.199, 38684.07
1270.127, 38724.29
1272.056, 38748.79
1273.984, 38783.73
1275.912, 38791.68
1277.841, 38845.76
1279.769, 38991.45
1281.698, 39144.98
1283.626, 39229.92
1285.555, 39244.44
1287.483, 39271.80
1289.412, 39338.98
1291.340, 39396.62
1293.269, 39402.66
1295.197, 39396.67
1297.126, 39439.61
1299.054, 39534.46
1300.983, 39641.48
1302.911, 39759.44
1304.839, 39878.15
1306.768, 39998.57
1308.696, 40121.83
1310.625, 40231.38
1312.553, 40319.05
1314.482, 40416.13
1316.410, 40525.46
1318.339, 40644.44
1320.267, 40772.46
1322.196, 40911.42
1324.124, 41017.05
1326.053, 41079.51
1327.981, 41113.60
1329.910, 41106.63
1331.838, 41082.14
1333.766, 41099.54
1335.695, 41183.22
1337.623, 41244.97
1339.552, 41240.61
1341.480, 41246.89
1343.409, 41315.96
1345.337, 41430.29
1347.266, 41542.40
1349.194, 41650.77
1351.123, 41731.95
1353.051, 41762.26
1354.980, 41768.48
1356.908, 41776.47
1358.837, 41788.65
1360.765, 41791.16
1362.693, 41798.01
1364.622, 41788.84
1366.550, 41730.68
1368.479, 41675.54
1370.407, 41702.01
1372.336, 41844.91
1374.264, 41973.07
1376.193, 42044.52
1378.121, 42136.37
1380.050, 42303.76
1381.978, 42500.69
1383.907, 42608.38
1385.835, 42561.07
1387.764, 42543.16
1389.692, 42605.39
1391.620, 42659.30
1393.549, 42656.88
1395.477, 42609.79
1397.406, 42557.07
1399.334, 42505.95
1401.263, 42461.76
1403.191, 42436.82
1405.120, 42418.71
1407.048, 42380.97
1408.977, 42334.73
1410.905, 42342.96
1412.834, 42419.11
1414.762, 42517.11
1416.691, 42649.04
1418.619, 42773.35
1420.547, 42851.03
1422.476, 42885.09
1424.404, 42921.38
1426.333, 42960.46
1428.261, 43007.60
1430.190, 43041.48
1432.118, 43088.47
1434.047, 43182.04
1435.975, 43327.77
1437.904, 43446.86
1439.832, 43538.89
1441.761, 43593.02
1443.689, 43590.61
1445.618, 43564.91
1447.546, 43566.15
1449.474, 43617.50
1451.403, 43641.83
1453.331, 43607.70
1455.260, 43604.18
1457.188, 43684.73
1459.117, 43795.44
1461.045, 43849.13
1462.974, 43826.05
1464.902, 43826.70
1466.831, 43850.92
1468.759, 43886.97
1470.688, 43958.88
1472.616, 44023.61
1474.545, 44012.55
1476.473, 43928.56
1478.401, 43858.77
1480.330, 43815.51
1482.258, 43801.50
1484.187, 43841.41
1486.115, 43906.94
1488.044, 43954.99
1489.972, 43984.35
1491.901, 44034.54
1493.829, 44107.97
1495.758, 44192.04
1497.686, 44290.19
1499.615, 44383.44
1501.543, 44452.09
1503.472, 44497.41
1505.400, 44538.22
1507.328, 44576.23
1509.257, 44626.65
1511.185, 44693.64
1513.114, 44782.11
1515.042, 44907.75
1516.971, 45069.88
1518.899, 45181.21
1520.828, 45181.97
1522.756, 45197.81
1524.685, 45259.12
1526.613, 45334.37
1528.542, 45408.09
1530.470, 45483.26
1532.399, 45523.82
1534.327, 45520.00
1536.255, 45522.05
1538.184, 45557.64
1540.112, 45598.61
1542.041, 45615.19
1543.969, 45612.73
1545.898, 45637.09
1547.826, 45696.07
1549.755, 45757.27
1551.683, 45806.99
1553.612, 45866.11
1555.540, 45960.64
1557.469, 46075.29
1559.397, 46160.39
1561.326, 46203.82
1563.254, 46244.13
1565.182, 46266.27
1567.111, 46296.11
1569.039, 46346.00
1570.968, 46404.99
1572.896, 46460.11
1574.825, 46516.54
1576.753, 46555.15
1578.682, 46595.21
1580.610, 46605.80
1582.539, 46540.93
1584.467, 46474.63
1586.396, 46492.52
1588.324, 46593.15
1590.253, 46697.18
1592.181, 46805.59
1594.109, 46897.53
1596.038, 46969.61
1597.966, 47015.63
1599.895, 47029.67
1601.823, 47015.23
1603.752, 46985.81
1605.680, 46945.30
1607.609, 46904.59
1609.537, 46841.07
1611.466, 46816.09
1613.394, 46881.70
1615.323, 46992.71
1617.251, 47066.29
1619.180, 47094.88
1621.108, 47136.93
1623.036, 47208.58
1624.965, 47245.92
1626.893, 47205.90
1628.822, 47132.92
1630.750, 47074.99
1632.679, 47032.67
1634.607, 46984.23
1636.536, 46938.48
1638.464, 46896.46
1640.393, 46858.76
1642.321, 46836.36
1644.250, 46830.29
1646.178, 46837.40
1648.107, 46850.61
1650.035, 46861.63
1651.964, 46876.58
1653.892, 46901.46
1655.820, 46909.06
1657.749, 46888.92
1659.677, 46852.09
1661.606, 46810.33
1663.534, 46770.92
1665.463, 46735.95
1667.391, 46703.48
1669.320, 46720.39
1671.248, 46838.68
1673.177, 46957.92
1675.105, 46991.59
1677.034, 46998.93
1678.962, 47083.62
1680.891, 47236.91
1682.819, 47340.57
1684.747, 47351.55
1686.676, 47370.28
1688.604, 47464.76
1690.533, 47551.35
1692.461, 47543.15
1694.390, 47485.52
1696.318, 47507.27
1698.247, 47627.20
1700.175, 47698.44
1702.104, 47663.11
1704.032, 47628.76
1705.961, 47649.68
1707.889, 47684.71
1709.818, 47686.22
1711.746, 47665.18
1713.674, 47675.77
1715.603, 47741.05
1717.531, 47773.00
1719.460, 47720.99
1721.388, 47667.46
1723.317, 47636.69
1725.245, 47631.71
1727.174, 47678.16
1729.102, 47772.76
1731.031, 47810.59
1732.959, 47768.11
1734.888, 47724.15
1736.816, 47673.55
1738.745, 47654.40
1740.673, 47695.71
1742.601, 47778.12
1744.530, 47868.84
1746.458, 47965.26
1748.387, 48054.63
1750.315, 48124.20
1752.244, 48198.59
1754.172, 48337.74
1756.101, 48423.41
1758.029, 48324.86
1759.958, 48129.58
1761.886, 48047.16
1763.815, 48112.03
1765.743, 48149.95
1767.672, 48163.55
1769.600, 48163.76
1771.528, 48122.68
1773.457, 48108.64
1775.385, 48180.66
1777.314, 48310.02
1779.242, 48421.27
1781.171, 48493.35
1783.099, 48594.97
1785.028, 48753.67
1786.956, 48874.59
1788.885, 48931.09
1790.813, 48947.93
1792.742, 48951.85
1794.670, 48932.30
1796.599, 48845.95
1798.527, 48667.30
1800.455, 48589.72
1802.384, 48717.18
1804.312, 48781.84
1806.241, 48691.96
1808.169, 48583.57
1810.098, 48511.84
1812.026, 48484.88
1813.955, 48532.46
1815.883, 48657.80
1817.812, 48755.44
1819.740, 48800.50
1821.669, 48858.91
1823.597, 48930.42
1825.526, 49021.29
1827.454, 49160.57
1829.382, 49292.27
1831.311, 49335.65
1833.239, 49301.69
1835.168, 49270.42
1837.096, 49251.72
1839.025, 49240.03
1840.953, 49239.36
1842.882, 49249.44
1844.810, 49274.45
1846.739, 49303.12
1848.667, 49325.43
1850.596, 49336.54
1852.524, 49330.57
1854.453, 49307.98
1856.381, 49263.70
1858.309, 49185.04
1860.238, 49127.04
1862.166, 49129.19
1864.095, 49153.56
1866.023, 49171.96
1867.952, 49193.73
1869.880, 49230.94
1871.809, 49276.62
1873.737, 49346.33
1875.666, 49443.32
1877.594, 49532.63
1879.523, 49605.17
1881.451, 49665.23
1883.380, 49718.93
1885.308, 49762.54
1887.236, 49787.60
1889.165, 49799.30
1891.093, 49825.80
1893.022, 49881.85
1894.950, 49903.08
1896.879, 49856.17
1898.807, 49816.97
1900.736, 49809.71
1902.664, 49808.72
1904.593, 49815.89
1906.521, 49817.05
1908.450, 49774.28
1910.378, 49696.28
1912.307, 49649.60
1914.235, 49645.20
1916.163, 49649.71
1918.092, 49644.77
1920.020, 49663.34
1921.949, 49729.64
1923.877, 49807.08
1925.806, 49874.36
1927.734, 49921.08
1929.663, 49921.05
1931.591, 49871.79
1933.520, 49840.29
1935.448, 49855.47
1937.377, 49843.92
1939.305, 49764.41
1941.234, 49705.24
1943.162, 49709.16
1945.090, 49752.20
1947.019, 49829.00
1948.947, 49919.57
1950.876, 49942.92
1952.804, 49861.64
1954.733, 49848.48
1956.661, 49934.23
1958.590, 50029.32
1960.518, 50167.72
1962.447, 50260.66
1964.375, 50220.45
1966.304, 50158.89
1968.232, 50197.97
1970.161, 50304.30
1972.089, 50394.75
1974.017, 50466.11
1975.946, 50438.75
1977.874, 50260.93
1979.803, 50147.70
1981.731, 50215.35
1983.660, 50288.45
1985.588, 50280.45
1987.517, 50245.46
1989.445, 50209.47
1991.374, 50188.27
1993.302, 50241.11
1995.231, 50377.50
1997.159, 50463.93
1999.088, 50467.61
2001.016, 50474.93
2002.944, 50495.98
2004.873, 50518.96
2006.801, 50537.80
2008.730, 50561.93
2010.658, 50603.98
2012.587, 50654.37
2014.515, 50691.95
2016.444, 50717.23
2018.372, 50747.41
2020.301, 50780.83
2022.229, 50816.29
2024.158, 50837.77
2026.086, 50887.95
2028.015, 51030.46
2029.943, 51135.71
2031.871, 51087.75
2033.800, 50989.92
2035.728, 50987.14
2037.657, 51049.45
2039.585, 51040.05
2041.514, 50944.73
2043.442, 50897.98
2045.371, 50911.33
2047.299, 50952.21
2049.228, 51038.47
2051.156, 51113.02
2053.084, 51141.89
2055.013, 51161.96
2056.941, 51213.22
2058.870, 51269.68
2060.798, 51277.63
2062.727, 51246.38
2064.656, 51230.35
2066.584, 51226.94
2068.512, 51256.98
2070.441, 51353.92
2072.369, 51377.42
2074.298, 51229.23
2076.226, 51095.37
2078.155, 51083.40
2080.083, 51113.57
2082.012, 51126.44
2083.940, 51131.78
2085.869, 51134.65
2087.797, 51133.69
2089.726, 51167.20
2091.654, 51251.73
2093.583, 51287.63
2095.511, 51237.80
2097.439, 51198.17
2099.368, 51201.27
2101.296, 51198.36
2103.225, 51165.02
2105.153, 51133.78
2107.082, 51143.33
2109.010, 51169.37
2110.939, 51179.66
2112.867, 51174.07
2114.796, 51131.96
2116.724, 51042.42
2118.653, 51004.91
2120.581, 51030.64
2122.510, 51094.74
2124.438, 51215.95
2126.366, 51341.71
2128.295, 51464.15
2130.223, 51565.92
2132.152, 51619.48
2134.080, 51645.14
2136.009, 51677.99
2137.937, 51700.55
2139.866, 51651.64
2141.794, 51540.42
2143.723, 51488.07
2145.651, 51527.82
2147.580, 51534.28
2149.508, 51478.92
2151.437, 51436.43
2153.365, 51407.93
2155.293, 51423.19
2157.222, 51530.30
2159.150, 51641.54
2161.079, 51657.91
2163.007, 51634.18
2164.936, 51672.93
2166.864, 51760.42
2168.793, 51819.25
2170.721, 51848.71
2172.650, 51873.93
2174.578, 51896.32
2176.507, 51908.25
2178.435, 51907.87
2180.364, 51892.70
2182.292, 51821.78
2184.220, 51784.50
2186.149, 51869.02
2188.077, 51965.38
2190.006, 51971.19
2191.934, 51938.31
2193.863, 51957.23
2195.791, 52013.11
2197.720, 52013.24
2199.648, 51953.23
2201.577, 51945.77
2203.505, 51998.98
2205.434, 52029.96
2207.362, 52022.90
2209.291, 51990.76
2211.219, 51927.50
2213.147, 51862.46
2215.076, 51809.38
2217.004, 51770.00
2218.933, 51762.55
2220.861, 51763.98
2222.790, 51736.66
2224.718, 51696.35
2226.647, 51674.95
2228.575, 51674.33
2230.504, 51739.97
2232.432, 51879.23
2234.361, 51918.17
2236.289, 51800.59
2238.218, 51775.02
2240.146, 51938.74
2242.074, 52073.54
2244.003, 52089.56
2245.931, 52078.38
2247.860, 52067.91
2249.788, 52058.77
2251.717, 52072.80
2253.645, 52081.61
2255.574, 52042.54
2257.502, 51975.25
2259.431, 51912.18
2261.359, 51860.38
2263.288, 51860.90
2265.216, 51914.66
2267.145, 51939.09
2269.073, 51918.86
2271.001, 51917.81
2272.930, 51964.67
2274.858, 52009.85
2276.787, 52024.15
2278.715, 52062.73
2280.644, 52149.20
2282.572, 52243.41
2284.501, 52329.85
2286.429, 52388.83
2288.358, 52387.52
2290.286, 52356.14
2292.215, 52340.40
2294.143, 52341.21
2296.072, 52366.77
2298.000, 52418.98
2299.928, 52412.20
2301.857, 52333.70
2303.785, 52259.92
2305.714, 52163.13
2307.642, 52149.75
2309.571, 52280.88
2311.499, 52362.16
2313.428, 52310.84
2315.356, 52275.70
2317.285, 52328.89
2319.213, 52396.96
2321.142, 52438.47
2323.070, 52467.29
2324.999, 52499.71
2326.927, 52520.50
2328.855, 52506.07
2330.784, 52468.66
2332.712, 52452.39
2334.641, 52450.18
2336.569, 52379.08
2338.498, 52248.48
2340.426, 52155.29
2342.355, 52109.25
2344.283, 52087.87
2346.212, 52059.59
2348.140, 52126.94
2350.069, 52399.63
2351.997, 52601.55
2353.926, 52626.03
2355.854, 52638.44
2357.782, 52689.23
2359.711, 52732.78
2361.639, 52742.99
2363.568, 52734.68
2365.496, 52704.67
2367.425, 52680.05
2369.353, 52722.96
2371.282, 52783.70
2373.210, 52752.21
2375.139, 52656.97
2377.067, 52589.05
2378.996, 52550.50
2380.924, 52577.31
2382.853, 52666.82
2384.781, 52694.34
2386.709, 52643.89
2388.638, 52566.06
2390.566, 52457.77
2392.495, 52352.86
2394.423, 52227.39
2396.352, 52166.97
2398.280, 52250.92
2400.209, 52320.40
2402.137, 52319.29
2404.066, 52309.93
2405.994, 52297.52
2407.923, 52300.10
2409.851, 52342.31
2411.780, 52380.93
2413.708, 52374.37
2415.636, 52342.74
2417.565, 52319.04
2419.493, 52301.60
2421.422, 52272.16
2423.350, 52245.66
2425.279, 52272.79
2427.207, 52341.59
2429.136, 52384.58
2431.064, 52393.61
2432.993, 52391.55
2434.921, 52365.26
2436.850, 52360.96
2438.778, 52422.15
2440.707, 52405.25
2442.635, 52263.97
2444.563, 52185.40
2446.492, 52233.86
2448.420, 52262.58
2450.349, 52212.13
2452.277, 52176.23
2454.206, 52198.70
2456.134, 52231.01
2458.063, 52262.15
2459.991, 52275.87
2461.920, 52252.44
2463.848, 52213.18
2465.777, 52155.85
2467.705, 52110.99
2469.634, 52130.63
2471.562, 52166.77
2473.490, 52150.15
2475.419, 52106.21
2477.347, 52075.48
2479.276, 52056.77
2481.204, 52052.55
2483.133, 52056.25
2485.061, 52053.99
2486.990, 52042.26
2488.918, 51986.65
2490.847, 51893.26
2492.775, 51859.27
2494.704, 51916.71
2496.632, 51961.08
2498.561, 51993.68
2500.489, 52004.92
2502.417, 51955.15
2504.346, 51991.68
2506.274, 52162.20
2508.203, 52261.28
2510.131, 52186.90
2512.060, 52148.40
2513.988, 52275.32
2515.917, 52350.84
2517.845, 52284.16
2519.774, 52213.96
2521.702, 52182.50
2523.631, 52157.52
2525.559, 52117.03
2527.488, 52064.79
2529.416, 51995.96
2531.344, 51924.91
2533.273, 51901.48
2535.201, 51862.56
2537.130, 51735.58
2539.058, 51595.18
2540.987, 51497.38
2542.915, 51463.75
2544.844, 51533.77
2546.772, 51661.65
2548.701, 51786.75
2550.629, 51893.07
2552.558, 51945.49
2554.486, 51953.05
2556.415, 51972.61
2558.343, 51994.21
2560.271, 51980.52
2562.200, 51941.48
2564.128, 51903.44
2566.057, 51875.40
2567.985, 51898.12
2569.914, 51981.51
2571.842, 51992.73
2573.771, 51919.58
2575.699, 51863.54
2577.628, 51823.33
2579.556, 51798.70
2581.485, 51795.30
2583.413, 51764.34
2585.342, 51680.10
2587.270, 51642.70
2589.198, 51681.73
2591.127, 51706.30
2593.055, 51705.79
2594.984, 51703.58
2596.912, 51696.00
2598.841, 51693.27
2600.769, 51690.80
2602.698, 51692.13
2604.626, 51726.91
2606.555, 51711.59
2608.483, 51600.13
2610.412, 51519.94
2612.340, 51525.71
2614.269, 51546.78
2616.197, 51564.58
2618.125, 51583.64
2620.054, 51618.24
2621.982, 51626.23
2623.911, 51555.19
2625.839, 51490.80
2627.768, 51463.94
2629.696, 51451.03
2631.625, 51470.48
2633.553, 51466.15
2635.482, 51369.83
2637.410, 51296.38
2639.339, 51348.91
2641.267, 51417.06
2643.196, 51429.63
2645.124, 51424.18
2647.052, 51395.99
2648.981, 51384.86
2650.909, 51435.22
2652.838, 51501.27
2654.766, 51589.79
2656.695, 51630.72
2658.623, 51507.26
2660.552, 51368.73
2662.480, 51384.00
2664.409, 51430.18
2666.337, 51355.85
2668.266, 51249.64
2670.194, 51202.01
2672.123, 51190.80
2674.051, 51207.57
2675.979, 51226.83
2677.908, 51217.84
2679.836, 51196.75
2681.765, 51179.97
2683.693, 51175.92
2685.622, 51229.94
2687.550, 51277.64
2689.479, 51161.59
2691.407, 51020.35
2693.336, 51070.93
2695.264, 51202.54
2697.193, 51250.91
2699.121, 51248.98
2701.050, 51292.62
2702.978, 51304.76
2704.906, 51053.17
2706.835, 50759.58
2708.763, 50832.77
2710.692, 51067.06
2712.620, 51089.40
2714.549, 51014.39
2716.477, 51035.12
2718.406, 51112.88
2720.334, 51208.24
2722.263, 51278.95
2724.191, 51235.33
2726.120, 51139.73
2728.048, 51117.73
2729.977, 51129.62
2731.905, 51111.58
2733.833, 51075.40
2735.762, 51042.19
2737.690, 51001.36
2739.619, 50903.07
2741.547, 50803.52
2743.476, 50815.16
2745.404, 50876.61
2747.333, 50893.92
2749.261, 50882.36
2751.190, 50864.61
2753.118, 50834.26
2755.047, 50778.36
2756.975, 50706.42
2758.904, 50623.26
2760.832, 50545.31
2762.760, 50496.99
2764.689, 50473.29
2766.617, 50474.24
2768.546, 50490.79
2770.474, 50513.95
2772.403, 50536.58
2774.331, 50538.73
2776.260, 50539.15
2778.188, 50573.10
2780.117, 50601.73
2782.045, 50571.43
2783.974, 50543.28
2785.902, 50582.26
2787.831, 50657.28
2789.759, 50752.51
2791.688, 50845.87
2793.616, 50892.14
2795.544, 50941.46
2797.473, 51067.38
2799.401, 51154.08
2801.330, 51097.09
2803.258, 50991.45
2805.187, 50879.25
2807.115, 50782.40
2809.044, 50732.88
2810.972, 50697.89
2812.901, 50676.52
2814.829, 50651.91
2816.758, 50620.25
2818.686, 50579.51
2820.615, 50501.09
2822.543, 50448.43
2824.471, 50436.19
2826.400, 50463.47
2828.328, 50561.50
2830.257, 50618.97
2832.185, 50592.10
2834.114, 50545.36
2836.042, 50486.27
2837.971, 50447.20
2839.899, 50423.51
2841.828, 50476.14
2843.756, 50646.58
2845.685, 50778.87
2847.613, 50822.30
2849.542, 50845.05
2851.470, 50822.93
2853.398, 50826.32
2855.327, 50872.19
2857.255, 50811.18
2859.184, 50614.21
2861.112, 50534.63
2863.041, 50651.19
2864.969, 50655.74
2866.898, 50540.29
2868.826, 50472.79
2870.755, 50450.57
2872.683, 50419.05
2874.612, 50375.13
2876.540, 50348.71
2878.469, 50338.78
2880.397, 50300.48
2882.325, 50239.84
2884.254, 50137.54
2886.182, 50029.02
2888.111, 50035.30
2890.039, 50102.91
2891.968, 50110.06
2893.896, 50078.57
2895.825, 50034.45
2897.753, 49992.60
2899.682, 49983.27
2901.610, 49977.10
2903.539, 49894.49
2905.467, 49845.64
2907.396, 50000.60
2909.324, 50140.99
2911.252, 50068.31
2913.181, 49979.07
2915.109, 50023.55
2917.038, 50068.28
2918.966, 50061.17
2920.895, 50034.42
2922.823, 49941.52
2924.752, 49922.77
2926.680, 50083.85
2928.609, 50185.32
2930.537, 50158.07
2932.466, 50151.30
2934.394, 50222.57
2936.323, 50233.85
2938.251, 50136.27
2940.179, 50086.51
2942.108, 50095.86
2944.036, 50097.59
2945.965, 50085.75
2947.893, 50095.36
2949.822, 50131.36
2951.750, 50039.43
2953.679, 49859.77
2955.607, 49855.90
2957.536, 49977.96
2959.464, 50030.62
2961.393, 50036.33
2963.321, 50039.20
2965.250, 50047.11
2967.178, 50107.48
2969.106, 50157.78
2971.035, 50116.95
2972.963, 50042.06
2974.892, 49963.76
2976.820, 49912.46
2978.749, 49907.57
2980.677, 49928.11
2982.606, 50019.47
2984.534, 50033.36
2986.463, 49830.21
2988.391, 49702.39
2990.320, 49757.53
2992.248, 49789.62
2994.177, 49723.34
2996.105, 49696.82
2998.033, 49732.13
2999.962, 49757.73
3001.890, 49768.17
3003.819, 49733.82
3005.747, 49642.40
3007.676, 49661.47
3009.604, 49768.19
3011.533, 49791.18
3013.461, 49756.20
3015.390, 49780.33
3017.318, 49817.12
3019.247, 49784.96
3021.175, 49693.93
3023.104, 49504.72
3025.032, 49334.36
3026.960, 49288.57
3028.889, 49305.10
3030.817, 49394.53
3032.746, 49423.44
3034.674, 49286.67
3036.603, 49168.05
3038.531, 49148.61
3040.460, 49159.11
3042.388, 49212.14
3044.317, 49235.42
3046.245, 49208.46
3048.174, 49242.21
3050.102, 49363.65
3052.031, 49396.72
3053.959, 49337.49
3055.887, 49333.68
3057.816, 49366.89
3059.744, 49349.82
3061.673, 49305.27
3063.601, 49283.49
3065.530, 49282.00
3067.458, 49299.84
3069.387, 49322.35
3071.315, 49320.54
3073.244, 49316.64
3075.172, 49314.60
3077.101, 49312.65
3079.029, 49304.40
3080.958, 49300.66
3082.886, 49353.02
3084.814, 49333.10
3086.743, 49219.26
3088.671, 49155.99
3090.600, 49164.36
3092.528, 49255.63
3094.457, 49422.05
3096.385, 49584.84
3098.314, 49716.89
3100.242, 49724.68
3102.171, 49649.93
3104.099, 49603.51
3106.028, 49564.32
3107.956, 49532.89
3109.885, 49476.33
3111.813, 49340.59
3113.741, 49221.24
3115.670, 49167.22
3117.598, 49157.25
3119.527, 49186.79
3121.455, 49213.59
3123.384, 49215.54
3125.312, 49210.30
3127.241, 49197.27
3129.169, 49200.53
3131.098, 49225.10
3133.026, 49225.17
3134.955, 49210.27
3136.883, 49211.25
3138.812, 49231.01
3140.740, 49289.21
3142.668, 49347.74
3144.597, 49323.55
3146.525, 49312.46
3148.454, 49429.92
3150.382, 49510.18
3152.311, 49437.75
3154.239, 49360.19
3156.168, 49323.86
3158.096, 49285.56
3160.025, 49251.35
3161.953, 49187.93
3163.882, 49091.86
3165.810, 49063.45
3167.739, 49084.83
3169.667, 48991.38
3171.595, 48852.39
3173.524, 48834.49
3175.452, 48871.06
3177.381, 48880.38
3179.309, 48889.04
3181.238, 48898.29
3183.166, 48939.08
3185.095, 49063.37
3187.023, 49130.82
3188.952, 49088.35
3190.880, 49085.04
3192.809, 49162.84
3194.737, 49238.81
3196.666, 49310.35
3198.594, 49233.06
3200.522, 49066.40
3202.451, 49016.95
3204.379, 49036.50
3206.308, 49088.74
3208.236, 49101.31
3210.165, 48970.67
3212.093, 48848.40
3214.022, 48834.36
3215.950, 48839.25
3217.879, 48842.11
3219.807, 48882.75
3221.736, 49002.15
3223.664, 49014.88
3225.593, 48918.69
3227.521, 48922.66
3229.449, 48989.82
3231.378, 48999.19
3233.306, 48963.18
3235.235, 48889.14
3237.163, 48828.93
3239.092, 48876.54
3241.020, 48906.80
3242.949, 48819.34
3244.877, 48787.47
3246.806, 48852.00
3248.734, 48919.94
3250.663, 48960.79
3252.591, 48981.12
3254.520, 48975.39
3256.448, 48994.84
3258.376, 49010.16
3260.305, 48961.81
3262.233, 48861.77
3264.162, 48691.79
3266.090, 48544.54
3268.019, 48501.27
3269.947, 48463.20
3271.876, 48381.09
3273.804, 48362.49
3275.733, 48433.69
3277.661, 48485.64
3279.590, 48506.78
3281.518, 48521.24
3283.447, 48518.96
3285.375, 48448.16
3287.303, 48386.41
3289.232, 48492.32
3291.160, 48603.98
3293.089, 48617.34
3295.017, 48611.21
3296.946, 48612.05
3298.874, 48599.73
3300.803, 48560.56
3302.731, 48611.99
3304.660, 48750.43
3306.588, 48728.82
3308.517, 48610.00
3310.445, 48581.12
3312.374, 48602.55
3314.302, 48672.27
3316.230, 48701.57
3318.159, 48599.45
3320.087, 48529.25
3322.016, 48604.64
3323.944, 48582.83
3325.873, 48444.13
3327.801, 48397.11
3329.730, 48436.95
3331.658, 48403.28
3333.587, 48347.86
3335.515, 48382.74
3337.444, 48441.55
3339.372, 48476.69
3341.301, 48483.73
3343.229, 48447.90
3345.157, 48428.23
3347.086, 48453.57
3349.014, 48432.46
3350.943, 48364.57
3352.871, 48399.97
3354.800, 48488.54
3356.728, 48475.65
3358.657, 48434.76
3360.585, 48470.07
3362.514, 48492.80
3364.442, 48445.17
3366.371, 48395.15
3368.299, 48364.83
3370.228, 48348.86
3372.156, 48353.17
3374.084, 48325.43
3376.013, 48293.46
3377.941, 48409.04
3379.870, 48537.58
3381.798, 48464.66
3383.727, 48389.27
3385.655, 48466.21
3387.584, 48510.05
3389.512, 48472.63
3391.441, 48450.12
3393.369, 48469.21
3395.298, 48351.29
3397.226, 48183.09
3399.155, 48249.68
3401.083, 48397.61
3403.011, 48412.25
3404.940, 48408.84
3406.868, 48435.31
3408.797, 48478.33
3410.725, 48553.59
3412.654, 48538.95
3414.582, 48433.14
3416.511, 48391.64
3418.439, 48394.73
3420.368, 48376.28
3422.296, 48353.91
3424.225, 48321.87
3426.153, 48336.27
3428.082, 48451.95
3430.010, 48519.33
3431.938, 48488.63
3433.867, 48479.97
3435.795, 48491.33
3437.724, 48548.23
3439.652, 48593.68
3441.581, 48508.17
3443.509, 48404.37
3445.438, 48379.23
3447.366, 48358.23
3449.295, 48287.18
3451.223, 48324.90
3453.152, 48474.18
3455.080, 48531.34
3457.009, 48512.01
3458.937, 48475.61
3460.865, 48439.59
3462.794, 48417.42
3464.722, 48418.52
3466.651, 48507.23
3468.579, 48476.21
3470.508, 48280.51
3472.436, 48272.46
3474.365, 48427.43
3476.293, 48533.63
3478.222, 48565.05
3480.150, 48439.69
3482.079, 48314.77
3484.007, 48290.37
3485.936, 48302.55
3487.864, 48363.64
3489.792, 48314.41
3491.721, 48163.39
3493.649, 48137.36
3495.578, 48172.98
3497.506, 48182.66
3499.435, 48143.09
3501.363, 47995.27
3503.292, 47912.46
3505.220, 48019.75
3507.149, 48076.02
3509.077, 48080.45
3511.006, 47979.33
3512.934, 47858.91
3514.863, 47903.08
3516.791, 48024.63
3518.719, 48219.15
3520.648, 48309.22
3522.576, 48208.64
3524.505, 48149.57
3526.433, 48153.54
3528.362, 48197.18
3530.290, 48235.30
3532.219, 48125.00
3534.147, 48010.52
3536.076, 48044.41
3538.004, 48027.68
3539.933, 47911.13
3541.861, 47808.64
3543.790, 47739.30
3545.718, 47739.16
3547.646, 47777.27
3549.575, 47786.05
3551.503, 47806.69
3553.432, 47879.09
3555.360, 47924.89
3557.289, 47896.08
3559.217, 47952.34
3561.146, 48072.46
3563.074, 48118.54
3565.003, 48073.87
3566.931, 47846.46
3568.860, 47652.23
3570.788, 47611.29
3572.717, 47648.66
3574.645, 47795.60
3576.573, 47774.16
3578.502, 47649.98
3580.430, 47647.34
3582.359, 47707.28
3584.287, 47769.25
3586.216, 47837.42
3588.144, 47941.97
3590.073, 47954.52
3592.001, 47878.73
3593.930, 47866.05
3595.858, 47899.47
3597.787, 47958.32
3599.715, 47985.29
3601.644, 47896.55
3603.572, 47855.60
3605.500, 47907.41
3607.429, 47880.29
3609.357, 47784.58
3611.286, 47739.44
3613.214, 47724.86
3615.143, 47697.25
3617.071, 47707.36
3619.000, 47822.40
3620.928, 47850.02
3622.857, 47773.91
3624.785, 47627.74
3626.714, 47467.48
3628.642, 47423.71
3630.571, 47425.02
3632.499, 47434.89
3634.427, 47450.34
3636.356, 47464.93
3638.284, 47459.92
3640.213, 47430.69
3642.141, 47352.69
3644.070, 47303.93
3645.998, 47416.46
3647.927, 47494.06
3649.855, 47473.67
3651.784, 47481.83
3653.712, 47529.88
3655.641, 47529.87
3657.569, 47495.38
3659.498, 47414.09
3661.426, 47371.11
3663.354, 47421.14
3665.283, 47473.40
3667.211, 47519.47
3669.140, 47497.28
3671.068, 47460.12
3672.997, 47529.48
3674.925, 47618.84
3676.854, 47658.93
3678.782, 47694.24
3680.711, 47720.11
3682.639, 47787.26
3684.568, 47842.37
3686.496, 47676.79
3688.425, 47482.99
3690.353, 47448.65
3692.281, 47411.04
3694.210, 47334.95
3696.138, 47351.68
3698.067, 47434.52
3699.995, 47460.61
3701.924, 47462.34
3703.852, 47473.80
3705.781, 47456.07
3707.709, 47398.94
3709.638, 47374.79
3711.566, 47393.91
3713.495, 47459.21
3715.423, 47535.60
3717.352, 47567.04
3719.280, 47603.02
3721.208, 47649.90
3723.137, 47655.89
3725.065, 47611.53
3726.994, 47450.48
3728.922, 47291.29
3730.851, 47304.82
3732.779, 47300.12
3734.708, 47228.54
3736.636, 47157.26
3738.565, 47097.49
3740.493, 47080.48
3742.422, 47115.07
3744.350, 47248.54
3746.279, 47350.17
3748.207, 47381.41
3750.135, 47394.17
3752.064, 47386.52
3753.992, 47278.72
3755.921, 47177.58
3757.849, 47208.54
3759.778, 47239.88
3761.706, 47247.43
3763.635, 47184.69
3765.563, 47090.96
3767.492, 47163.03
3769.420, 47235.65
3771.349, 47136.94
3773.277, 47105.59
3775.206, 47190.13
3777.134, 47195.50
3779.063, 47171.07
3780.991, 47279.85
3782.919, 47389.69
3784.848, 47410.34
3786.776, 47385.04
3788.705, 47319.40
3790.633, 47288.17
3792.562, 47291.10
3794.490, 47334.23
3796.419, 47381.70
3798.347, 47412.37
3800.276, 47424.19
3802.204, 47409.17
3804.133, 47372.21
3806.061, 47327.23
3807.990, 47321.36
3809.918, 47270.68
3811.846, 47140.52
3813.775, 47113.88
3815.703, 47157.70
3817.632, 47035.27
3819.560, 46938.24
3821.489, 47034.89
3823.417, 47168.50
3825.346, 47309.12
3827.274, 47279.48
3829.203, 47158.61
3831.131, 47115.24
3833.060, 47091.32
3834.988, 47052.14
3836.917, 47086.28
3838.845, 47173.27
3840.773, 46997.07
3842.702, 46801.59
3844.630, 46943.43
3846.559, 47062.41
3848.487, 46994.03
3850.416, 47017.72
3852.344, 47071.64
3854.273, 47033.82
3856.201, 46984.55
3858.130, 47000.23
3860.058, 46928.97
3861.987, 46743.65
3863.915, 46812.79
3865.844, 46953.66
3867.772, 46910.75
3869.700, 46801.22
3871.629, 46649.57
3873.557, 46635.80
3875.486, 46708.97
3877.414, 46592.96
3879.343, 46467.07
3881.271, 46469.07
3883.200, 46448.62
3885.128, 46411.70
3887.057, 46369.97
3888.985, 46308.93
3890.914, 46237.33
3892.842, 46201.45
3894.771, 46204.39
3896.699, 46175.69
3898.627, 46145.71
3900.556, 46171.77
3902.484, 46166.11
3904.413, 46071.43
3906.341, 45964.00
3908.270, 45885.53
3910.198, 45927.85
3912.127, 45954.75
3914.055, 45857.31
3915.984, 45766.13
3917.912, 45677.79
3919.841, 45558.65
3921.769, 45481.54
3923.698, 45534.73
3925.626, 45566.82
3927.554, 45545.09
3929.483, 45568.14
3931.411, 45601.52
3933.340, 45474.37
3935.268, 45341.24
3937.197, 45363.52
3939.125, 45354.55
3941.054, 45283.81
3942.982, 45236.19
3944.911, 45188.98
3946.839, 45114.29
3948.768, 45028.03
3950.696, 44941.11
3952.625, 44937.70
3954.553, 44982.55
3956.481, 44979.75
3958.410, 44898.11
3960.338, 44774.20
3962.267, 44754.21
3964.195, 44752.84
3966.124, 44672.33
3968.052, 44588.27
3969.981, 44454.55
3971.909, 44424.91
3973.838, 44497.50
3975.766, 44454.23
3977.695, 44386.47
3979.623, 44416.46
3981.552, 44425.49
3983.480, 44361.38
3985.408, 44292.93
3987.337, 44269.64
3989.265, 44313.96
3991.194, 44324.11
3993.122, 44287.27
3995.051, 44211.20
3996.979, 44110.96
3998.908, 43971.73
4000.836, 43896.87
4002.765, 43940.11
4004.693, 43905.18
4006.622, 43840.27
4008.550, 43921.37
4010.479, 43965.26
4012.407, 43836.22
4014.335, 43828.18
4016.264, 43897.01
4018.192, 43823.07
4020.121, 43757.36
4022.049, 43808.45
4023.978, 43792.40
4025.906, 43701.59
4027.835, 43666.41
4029.763, 43632.68
4031.692, 43535.63
4033.620, 43455.25
4035.549, 43405.11
4037.477, 43344.70
4039.406, 43315.57
4041.334, 43374.25
4043.262, 43375.95
4045.191, 43311.55
4047.119, 43262.68
4049.048, 43225.52
4050.976, 43227.86
4052.905, 43255.65
4054.833, 43306.39
4056.762, 43290.95
4058.690, 43195.64
4060.619, 43060.57
4062.547, 42947.35
4064.476, 42882.05
4066.404, 42839.83
4068.333, 42828.62
4070.261, 42814.83
4072.189, 42795.36
4074.118, 42773.80
4076.046, 42745.75
4077.975, 42739.27
4079.903, 42759.46
4081.832, 42738.44
4083.760, 42644.46
4085.689, 42543.18
4087.617, 42469.00
4089.546, 42521.74
4091.474, 42596.70
4093.403, 42429.50
4095.331, 42263.43
4097.260, 42218.30
4099.188, 42247.00
4101.117, 42267.95
4103.045, 42276.68
4104.974, 42289.82
4106.902, 42255.07
4108.831, 42221.36
4110.759, 42154.95
4112.688, 42116.85
4114.616, 42135.85
4116.544, 42080.32
4118.473, 41943.45
4120.401, 41820.60
4122.330, 41770.13
4124.258, 41767.11
4126.187, 41751.22
4128.115, 41708.48
4130.043, 41646.20
4131.972, 41588.15
4133.900, 41527.85
4135.829, 41489.45
4137.757, 41463.95
4139.686, 41444.35
4141.614, 41469.01
4143.543, 41532.31
4145.471, 41547.36
4147.400, 41496.77
4149.328, 41429.67
4151.257, 41395.24
4153.185, 41368.61
4155.114, 41395.02
4157.042, 41417.02
4158.971, 41405.33
4160.899, 41377.98
4162.828, 41285.71
4164.756, 41137.78
4166.685, 41048.50
4168.613, 41059.70
4170.542, 41013.06
4172.470, 40915.90
4174.398, 40879.37
4176.327, 40877.73
4178.255, 40891.79
4180.184, 40869.60
4182.112, 40820.92
4184.041, 40828.93
4185.969, 40830.13
4187.897, 40850.25
4189.826, 40766.10
4191.754, 40610.62
4193.683, 40696.25
4195.611, 40787.09
4197.540, 40709.84
4199.468, 40632.57
4201.397, 40550.98
4203.325, 40292.52
4205.254, 40111.69
4207.182, 40229.04
4209.111, 40287.30
4211.039, 40279.95
4212.968, 40266.18
4214.896, 40240.66
4216.825, 40204.40
4218.753, 40144.23
4220.682, 40078.22
4222.610, 40081.93
4224.539, 40040.24
4226.467, 39886.13
4228.396, 39841.76
4230.324, 39859.39
4232.252, 39787.59
4234.181, 39748.86
4236.109, 39783.29
4238.038, 39805.13
4239.966, 39804.54
4241.895, 39753.76
4243.823, 39745.47
4245.751, 39817.20
4247.680, 39788.36
4249.608, 39708.69
4251.537, 39631.48
4253.465, 39605.71
4255.394, 39635.95
4257.322, 39619.25
4259.251, 39610.11
4261.179, 39688.85
4263.108, 39731.11
4265.036, 39713.20
4266.965, 39610.24
4268.893, 39501.54
4270.822, 39449.95
4272.750, 39442.72
4274.679, 39468.15
4276.607, 39446.29
4278.536, 39462.30
4280.464, 39577.45
4282.393, 39633.93
4284.321, 39651.13
4286.250, 39735.79
4288.178, 39794.26
4290.106, 39788.82
4292.035, 39787.34
4293.963, 39769.16
4295.892, 39660.24
4297.820, 39609.88
4299.749, 39656.35
4301.677, 39690.12
4303.605, 39711.21
4305.534, 39733.48
4307.462, 39700.83
4309.391, 39622.40
4311.319, 39682.34
4313.248, 39749.33
4315.176, 39693.07
4317.105, 39730.36
4319.033, 39820.63
4320.962, 39743.18
4322.890, 39664.98
4324.819, 39651.98
4326.747, 39753.90
4328.676, 39893.35
4330.604, 39954.27
4332.533, 39915.76
4334.461, 39760.28
4336.390, 39827.42
4338.318, 39918.55
4340.247, 39767.12
4342.175, 39749.73
4344.104, 39866.41
4346.032, 39835.49
4347.960, 39770.88
4349.889, 39737.34
4351.817, 39738.37
4353.746, 39745.44
4355.674, 39648.23
4357.603, 39611.82
4359.531, 39676.88
4361.459, 39713.71
4363.388, 39720.54
4365.316, 39671.20
4367.245, 39725.61
4369.173, 39859.93
4371.102, 39842.48
4373.030, 39781.56
4374.959, 39743.75
4376.887, 39625.05
4378.816, 39495.77
4380.744, 39524.98
4382.673, 39538.45
4384.601, 39495.94
4386.530, 39630.64
4388.458, 39771.52
4390.387, 39722.48
4392.315, 39665.95
4394.244, 39623.53
4396.172, 39597.98
4398.101, 39618.42
4400.029, 39729.71
4401.958, 39734.73
4403.886, 39676.10
4405.814, 39597.82
4407.743, 39551.45
4409.671, 39547.78
4411.600, 39611.90
4413.528, 39662.72
4415.457, 39644.66
4417.385, 39626.24
4419.313, 39625.57
4421.242, 39686.11
4423.170, 39728.15
4425.099, 39730.06
4427.027, 39678.63
4428.956, 39623.75
4430.884, 39621.91
4432.813, 39601.86
4434.741, 39566.85
4436.670, 39505.20
4438.598, 39512.03
4440.527, 39631.93
4442.455, 39741.84
4444.384, 39796.01
4446.312, 39704.72
4448.241, 39675.79
4450.169, 39705.24
4452.098, 39710.58
4454.026, 39688.33
4455.955, 39642.85
4457.883, 39514.62
4459.812, 39419.86
4461.740, 39521.92
4463.668, 39556.18
4465.597, 39518.64
4467.525, 39501.31
4469.454, 39518.64
4471.382, 39581.69
4473.311, 39588.77
4475.239, 39577.92
4477.167, 39594.27
4479.096, 39628.07
4481.024, 39670.15
4482.953, 39682.48
4484.881, 39685.57
4486.810, 39684.65
4488.738, 39682.89
4490.667, 39671.76
4492.595, 39644.90
4494.524, 39601.10
4496.452, 39556.97
4498.381, 39549.14
4500.309, 39574.48
4502.238, 39635.62
4504.166, 39560.40
4506.095, 39471.95
4508.023, 39479.63
4509.952, 39537.71
4511.880, 39602.02
4513.809, 39551.92
4515.737, 39555.78
4517.666, 39633.67
4519.594, 39559.04
4521.522, 39496.56
4523.451, 39556.87
4525.379, 39572.05
4527.308, 39534.61
4529.236, 39419.63
4531.165, 39361.21
4533.093, 39380.13
4535.021, 39510.75
4536.950, 39567.30
4538.878, 39462.52
4540.807, 39489.67
4542.735, 39568.35
4544.664, 39606.93
4546.592, 39648.69
4548.521, 39692.76
4550.449, 39750.11
4552.378, 39745.52
4554.306, 39660.07
4556.235, 39606.48
4558.163, 39581.16
4560.092, 39599.79
4562.020, 39606.05
4563.949, 39555.27
4565.877, 39308.85
4567.806, 39294.86
4569.734, 39471.82
4571.663, 39471.67
4573.591, 39497.68
4575.520, 39619.14
4577.448, 39687.92
4579.376, 39662.00
4581.305, 39471.05
4583.233, 39449.67
4585.162, 39525.11
4587.090, 39560.13
4589.019, 39549.82
4590.947, 39501.83
4592.875, 39433.76
4594.804, 39385.02
4596.732, 39368.31
4598.661, 39476.30
4600.589, 39544.23
4602.518, 39428.28
4604.446, 39294.18
4606.375, 39220.48
4608.303, 39334.98
4610.232, 39458.04
4612.160, 39533.22
4614.089, 39478.99
4616.017, 39376.66
4617.946, 39256.65
4619.874, 39247.80
4621.803, 39333.39
4623.731, 39526.11
4625.660, 39529.35
4627.588, 39443.57
4629.517, 39387.70
4631.445, 39402.66
4633.374, 39442.78
4635.302, 39364.84
4637.230, 39334.92
4639.159, 39382.88
4641.087, 39372.05
4643.016, 39364.81
4644.944, 39383.54
4646.873, 39322.84
4648.801, 39276.20
4650.729, 39353.48
4652.658, 39358.64
4654.586, 39315.38
4656.515, 39251.86
4658.443, 39253.15
4660.372, 39300.03
4662.300, 39275.61
4664.229, 39316.61
4666.157, 39418.40
4668.086, 39318.70
4670.014, 39234.32
4671.943, 39312.69
4673.871, 39212.03
4675.800, 39118.66
4677.728, 39180.38
4679.657, 39235.60
4681.585, 39234.85
4683.514, 39107.86
4685.442, 39019.03
4687.371, 38988.28
4689.299, 39027.50
4691.228, 39049.02
4693.156, 39042.70
4695.084, 39093.73
4697.013, 39091.73
4698.941, 39006.05
4700.870, 38999.44
4702.798, 39024.30
4704.727, 39064.73
4706.655, 39017.94
4708.583, 38977.52
4710.512, 39040.16
4712.440, 39018.03
4714.369, 38977.33
4716.297, 39071.82
4718.226, 39073.91
4720.154, 38982.76
4722.083, 38838.54
4724.011, 38775.97
4725.940, 38803.69
4727.868, 38849.63
4729.797, 38873.59
4731.725, 38859.02
4733.654, 38845.54
4735.582, 38823.35
4737.511, 38789.34
4739.439, 38846.88
4741.368, 38897.90
4743.296, 38870.30
4745.225, 38865.28
4747.153, 38865.16
4749.082, 38843.13
4751.010, 38788.71
4752.938, 38749.03
4754.867, 38826.63
4756.795, 38850.51
4758.724, 38810.99
4760.652, 38695.09
4762.581, 38674.88
4764.509, 38734.54
4766.438, 38699.69
4768.366, 38651.16
4770.294, 38630.77
4772.223, 38772.45
4774.151, 38846.07
4776.080, 38768.65
4778.008, 38744.14
4779.937, 38737.72
4781.865, 38730.07
4783.794, 38797.04
4785.722, 38838.08
4787.651, 38783.62
4789.579, 38690.65
4791.508, 38644.04
4793.436, 38719.74
4795.365, 38661.22
4797.293, 38601.88
4799.222, 38788.25
4801.150, 38735.94
4803.079, 38589.88
4805.007, 38578.76
4806.936, 38604.79
4808.864, 38632.02
4810.792, 38623.54
4812.721, 38570.00
4814.649, 38503.32
4816.578, 38493.91
4818.506, 38564.85
4820.435, 38657.64
4822.363, 38573.18
4824.292, 38557.57
4826.220, 38612.91
4828.148, 38500.70
4830.077, 38380.38
4832.005, 38314.09
4833.934, 38424.52
4835.862, 38456.95
4837.791, 38356.98
4839.719, 38420.35
4841.648, 38464.92
4843.576, 38433.31
4845.505, 38401.08
4847.433, 38356.51
4849.362, 38294.69
4851.290, 38247.27
4853.219, 38233.19
4855.147, 38258.39
4857.076, 38361.41
4859.004, 38364.68
4860.933, 38178.63
4862.861, 38201.40
4864.790, 38285.84
4866.718, 38346.91
4868.646, 38222.48
4870.575, 38129.67
4872.503, 38207.00
4874.432, 38116.63
4876.360, 38031.28
4878.289, 38097.48
4880.217, 38068.11
4882.146, 38030.87
4884.074, 38050.25
4886.002, 37930.00
4887.931, 37820.58
4889.859, 37884.16
4891.788, 37850.19
4893.716, 37846.82
4895.645, 37970.84
4897.573, 37929.42
4899.502, 37855.84
4901.430, 37867.14
4903.359, 37973.13
4905.287, 38003.14
4907.216, 37830.73
4909.144, 37662.21
4911.073, 37592.46
4913.001, 37714.30
4914.930, 37596.54
4916.858, 37469.49
4918.787, 37513.02
4920.715, 37525.36
4922.644, 37550.60
4924.572, 37629.48
4926.500, 37553.95
4928.429, 37455.81
4930.357, 37460.67
4932.286, 37410.28
4934.214, 37358.89
4936.143, 37339.94
4938.071, 37343.86
4940.000, 37364.68
4941.928, 37394.71
4943.856, 37378.42
4945.785, 37382.32
4947.713, 37436.89
4949.642, 37451.76
4951.570, 37382.41
4953.499, 37220.76
4955.427, 37204.97
4957.356, 37153.10
4959.284, 36987.13
4961.213, 36915.15
4963.141, 36835.77
4965.070, 36744.81
4966.998, 36895.34
4968.927, 36949.50
4970.855, 36826.78
4972.784, 36966.58
4974.712, 36996.86
4976.641, 36859.46
4978.569, 36836.01
4980.498, 36847.35
4982.426, 36852.23
4984.354, 36724.65
4986.283, 36684.77
4988.211, 36720.59
4990.140, 36633.77
4992.068, 36568.80
4993.997, 36567.47
4995.925, 36711.31
4997.854, 36773.74
4999.782, 36720.06
5001.710, 36499.25
5003.639, 36423.36
5005.567, 36469.86
5007.496, 36586.82
5009.424, 36486.82
5011.353, 36399.12
5013.281, 36659.15
5015.210, 36627.42
5017.138, 36521.95
5019.067, 36516.56
5020.995, 36492.73
5022.924, 36445.66
5024.852, 36380.00
5026.781, 36295.95
5028.709, 36160.07
5030.638, 35975.97
5032.566, 36077.21
5034.495, 36187.37
5036.423, 36208.82
5038.352, 36100.99
5040.280, 36095.49
5042.208, 36168.97
5044.137, 35969.61
5046.065, 35948.86
5047.994, 36070.59
5049.922, 36083.32
5051.851, 36065.02
5053.779, 36011.70
5055.708, 35897.87
5057.636, 35808.46
5059.564, 35763.77
5061.493, 35786.36
5063.421, 35738.19
5065.350, 35692.56
5067.278, 35697.39
5069.207, 35814.98
5071.135, 35849.82
5073.064, 35715.75
5074.992, 35634.27
5076.921, 35559.95
5078.849, 35496.04
5080.778, 35509.75
5082.706, 35539.21
5084.635, 35550.60
5086.563, 35479.95
5088.492, 35431.39
5090.420, 35402.79
5092.349, 35379.75
5094.277, 35345.14
5096.206, 35289.81
5098.134, 35194.11
5100.063, 35284.93
5101.991, 35349.31
5103.919, 35239.27
5105.848, 35079.85
5107.776, 34955.41
5109.705, 34902.18
5111.633, 34950.05
5113.562, 34901.16
5115.490, 34794.56
5117.418, 34929.02
5119.347, 34847.02
5121.275, 34649.76
5123.204, 34597.34
5125.132, 34571.06
5127.061, 34584.52
5128.989, 34661.37
5130.918, 34699.02
5132.846, 34683.17
5134.775, 34609.56
5136.703, 34624.02
5138.632, 34601.80
5140.560, 34528.57
5142.489, 34511.42
5144.417, 34520.75
5146.346, 34520.79
5148.274, 34429.84
5150.203, 34436.97
5152.131, 34455.16
5154.060, 34371.25
5155.988, 34333.24
5157.917, 34282.25
5159.845, 34189.16
5161.773, 34071.86
5163.702, 34062.15
5165.630, 34164.23
5167.559, 34204.51
5169.487, 34247.75
5171.416, 34250.92
5173.344, 34093.68
5175.272, 34092.77
5177.201, 34155.67
5179.129, 34173.38
5181.058, 34127.41
5182.986, 34070.65
5184.915, 34026.97
5186.843, 33876.11
5188.772, 33898.37
5190.700, 34027.36
5192.629, 33878.93
5194.557, 33740.18
5196.486, 33645.56
5198.414, 33579.21
5200.343, 33611.75
5202.271, 33608.57
5204.200, 33481.36
5206.128, 33463.25
5208.057, 33483.46
5209.985, 33504.57
5211.914, 33459.43
5213.842, 33483.30
5215.771, 33510.35
5217.699, 33376.65
5219.627, 33344.92
5221.556, 33394.33
5223.484, 33501.82
5225.413, 33324.72
5227.341, 33259.13
5229.270, 33349.64
5231.198, 33234.46
5233.126, 33220.89
5235.055, 33245.18
5236.983, 33124.45
5238.912, 33126.92
5240.840, 33074.68
5242.769, 32870.53
5244.697, 32881.60
5246.626, 32832.78
5248.554, 32696.22
5250.483, 32657.11
5252.411, 32692.14
5254.340, 32755.79
5256.268, 32822.44
5258.197, 32763.32
5260.125, 32687.36
5262.054, 32639.73
5263.982, 32468.00
5265.911, 32417.36
5267.839, 32449.20
5269.768, 32318.92
5271.696, 32299.76
5273.625, 32323.17
5275.553, 32303.64
5277.481, 32262.59
5279.410, 32220.28
5281.338, 32184.66
5283.267, 32160.12
5285.195, 32163.01
5287.124, 32159.70
5289.052, 32078.11
5290.980, 32185.66
5292.909, 32237.22
5294.837, 32104.67
5296.766, 32019.78
5298.694, 31970.67
5300.623, 31926.26
5302.551, 31832.43
5304.480, 31805.08
5306.408, 31728.27
5308.337, 31506.77
5310.265, 31617.11
5312.194, 31746.71
5314.122, 31782.15
5316.051, 31706.66
5317.979, 31634.17
5319.908, 31572.85
5321.836, 31512.57
5323.765, 31521.65
5325.693, 31542.85
5327.622, 31537.79
5329.550, 31432.63
5331.479, 31376.61
5333.407, 31370.26
5335.335, 31390.27
5337.264, 31326.75
5339.192, 31253.90
5341.121, 31231.65
5343.049, 31416.10
5344.978, 31464.63
5346.906, 31347.52
5348.834, 31035.31
5350.763, 31068.56
5352.691, 31115.12
5354.620, 31040.68
5356.548, 30980.88
5358.477, 30901.43
5360.405, 30847.61
5362.334, 30877.00
5364.262, 30807.32
5366.191, 30767.04
5368.119, 30794.44
5370.048, 30751.00
5371.976, 30681.91
5373.905, 30676.96
5375.833, 30848.06
5377.762, 30784.12
5379.690, 30710.65
5381.619, 30700.29
5383.547, 30655.86
5385.476, 30605.18
5387.404, 30576.46
5389.333, 30596.45
5391.261, 30594.67
5393.189, 30552.11
5395.118, 30471.38
5397.046, 30372.33
5398.975, 30290.63
5400.903, 30290.63
5402.832, 30398.95
5404.760, 30273.20
5406.688, 30196.17
5408.617, 30197.64
5410.545, 30144.41
5412.474, 30201.11
5414.402, 30180.98
5416.331, 29993.33
5418.259, 29966.70
5420.188, 29924.19
5422.116, 29865.84
5424.045, 29841.12
5425.973, 29804.59
5427.902, 29829.86
5429.830, 29891.27
5431.759, 29743.16
5433.687, 29744.58
5435.616, 29768.78
5437.544, 29646.87
5439.473, 29743.92
5441.401, 29702.40
5443.330, 29540.83
5445.258, 29518.97
5447.187, 29462.53
5449.115, 29376.98
5451.043, 29286.87
5452.972, 29241.09
5454.900, 29190.42
5456.829, 29134.92
5458.757, 29075.06
5460.686, 29080.97
5462.614, 29129.14
5464.542, 29165.43
5466.471, 29056.60
5468.399, 29070.17
5470.328, 29095.24
5472.256, 29056.72
5474.185, 29055.86
5476.113, 29038.88
5478.042, 29000.55
5479.970, 28948.22
5481.899, 28903.13
5483.827, 28823.19
5485.756, 28737.18
5487.684, 28771.75
5489.613, 28788.63
5491.541, 28706.98
5493.470, 28540.82
5495.398, 28592.96
5497.327, 28618.64
5499.255, 28597.10
5501.184, 28549.33
5503.112, 28395.79
5505.041, 28319.19
5506.969, 28358.81
5508.897, 28528.48
5510.826, 28479.52
5512.754, 28372.67
5514.683, 28303.91
5516.611, 28382.72
5518.540, 28259.75
5520.468, 28098.88
5522.396, 28052.39
5524.325, 28180.53
5526.253, 28092.42
5528.182, 27984.43
5530.110, 28134.93
5532.039, 28031.55
5533.967, 28023.89
5535.896, 28079.88
5537.824, 27897.65
5539.753, 27788.11
5541.681, 27814.49
5543.610, 27918.21
5545.538, 27846.61
5547.467, 27817.63
5549.395, 27797.16
5551.324, 27754.59
5553.252, 27745.05
5555.181, 27688.70
5557.109, 27613.15
5559.038, 27549.16
5560.966, 27467.01
5562.895, 27401.05
5564.823, 27386.79
5566.751, 27496.83
5568.680, 27388.04
5570.608, 27324.70
5572.537, 27347.63
5574.465, 27376.89
5576.394, 27355.60
5578.322, 27251.73
5580.250, 27123.00
5582.179, 27139.77
5584.107, 27135.34
5586.036, 27081.05
5587.964, 26990.37
5589.893, 26899.39
5591.821, 26945.38
5593.750, 27012.93
5595.678, 27016.23
5597.607, 26957.65
5599.535, 26873.25
5601.464, 26755.72
5603.392, 26612.85
5605.321, 26581.35
5607.249, 26488.45
5609.178, 26369.76
5611.106, 26296.21
5613.035, 26353.88
5614.963, 26531.51
5616.892, 26629.24
5618.820, 26446.62
5620.749, 26353.54
5622.677, 26366.35
5624.605, 26397.85
5626.534, 26326.11
5628.462, 26228.05
5630.391, 26187.17
5632.319, 26181.55
5634.248, 26138.07
5636.176, 26141.85
5638.104, 26111.35
5640.033, 26051.30
5641.961, 26015.29
5643.890, 25984.79
5645.818, 25947.47
5647.747, 25920.91
5649.675, 25951.38
5651.604, 25788.19
5653.532, 25776.75
5655.461, 25898.01
5657.389, 25815.07
5659.318, 25840.80
5661.246, 25851.44
5663.175, 25786.30
5665.103, 25611.99
5667.032, 25658.06
5668.960, 25660.33
5670.889, 25575.92
5672.817, 25517.73
5674.746, 25493.90
5676.674, 25458.39
5678.603, 25411.54
5680.531, 25392.47
5682.459, 25260.95
5684.388, 25209.52
5686.316, 25256.93
5688.245, 25322.35
5690.173, 25205.73
5692.102, 25076.43
5694.030, 25039.52
5695.958, 25219.55
5697.887, 25111.14
5699.815, 24954.97
5701.744, 24896.51
5703.672, 25027.85
5705.601, 24996.23
5707.529, 24876.39
5709.458, 24771.46
5711.386, 24763.45
5713.315, 24727.72
5715.243, 24681.76
5717.172, 24640.36
5719.100, 24613.88
5721.029, 24600.64
5722.957, 24576.16
5724.886, 24510.75
5726.814, 24402.19
5728.743, 24491.87
5730.671, 24524.63
5732.600, 24530.85
5734.528, 24548.06
5736.457, 24440.55
5738.385, 24399.13
5740.313, 24359.17
5742.242, 24300.75
5744.170, 24363.92
5746.099, 24196.16
5748.027, 24047.49
5749.956, 24019.77
5751.884, 24030.83
5753.813, 24045.07
5755.741, 24035.00
5757.669, 23988.15
5759.598, 23901.85
5761.526, 23855.04
5763.455, 23813.20
5765.383, 23783.05
5767.312, 23783.44
5769.240, 23723.18
5771.169, 23735.65
5773.097, 23750.74
5775.026, 23690.49
5776.954, 23669.57
5778.883, 23646.78
5780.811, 23595.63
5782.740, 23518.98
5784.668, 23438.47
5786.597, 23436.96
5788.525, 23452.63
5790.454, 23473.76
5792.382, 23552.60
5794.311, 23424.96
5796.239, 23282.60
5798.167, 23250.11
5800.096, 23368.00
5802.024, 23295.35
5803.953, 23156.39
5805.881, 23039.75
5807.810, 22989.08
5809.738, 22994.89
5811.667, 23013.13
5813.595, 22981.28
5815.523, 22920.59
5817.452, 22996.87
5819.380, 22984.65
5821.309, 22947.99
5823.237, 22895.88
5825.166, 22788.81
5827.094, 22807.06
5829.023, 22859.23
5830.951, 22794.53
5832.880, 22556.01
5834.808, 22529.28
5836.737, 22453.05
5838.665, 22431.69
5840.594, 22461.62
5842.522, 22330.86
5844.451, 22405.11
5846.379, 22441.03
5848.308, 22382.38
5850.236, 22278.64
5852.165, 22110.79
5854.093, 22172.98
5856.021, 22235.12
5857.950, 22145.96
5859.878, 22128.18
5861.807, 22106.52
5863.735, 22068.78
5865.664, 22022.54
5867.592, 21982.17
5869.521, 22054.53
5871.449, 21961.80
5873.377, 21854.74
5875.306, 21887.83
5877.234, 21926.74
5879.163, 21839.48
5881.091, 21770.50
5883.020, 21763.95
5884.948, 21756.55
5886.877, 21730.38
5888.805, 21686.53
5890.734, 21578.19
5892.662, 21399.58
5894.591, 21429.59
5896.519, 21543.51
5898.448, 21599.05
5900.376, 21575.60
5902.305, 21554.34
5904.233, 21447.13
5906.162, 21426.71
5908.090, 21440.33
5910.019, 21383.77
5911.947, 21105.16
5913.875, 21242.40
5915.804, 21330.60
5917.732, 21243.88
5919.661, 21166.93
5921.589, 21187.90
5923.518, 21042.09
5925.446, 20972.51
5927.375, 21104.02
5929.303, 21081.92
5931.231, 20979.41
5933.160, 20923.30
5935.088, 20891.66
5937.017, 20823.70
5938.945, 20907.82
5940.874, 20884.30
5942.802, 20841.43
5944.731, 20811.26
5946.659, 20705.68
5948.588, 20775.33
5950.516, 20720.22
5952.445, 20639.36
5954.373, 20651.67
5956.302, 20614.37
5958.230, 20520.76
5960.159, 20534.56
5962.087, 20580.93
5964.016, 20502.52
5965.944, 20549.94
5967.873, 20425.64
5969.801, 20283.79
5971.729, 20236.30
5973.658, 20277.11
5975.586, 20269.50
5977.515, 20220.62
5979.443, 20213.69
5981.372, 20267.43
5983.300, 20225.26
5985.229, 20179.19
5987.157, 20148.10
5989.085, 20117.58
5991.014, 20068.35
5992.942, 19959.89
5994.871, 20001.93
5996.799, 19971.75
5998.728, 19871.86
6000.656, 19851.36
6002.585, 19928.49
6004.513, 19835.04
6006.442, 19775.86
6008.370, 19806.92
6010.299, 19783.94
6012.227, 19833.82
6014.156, 19825.96
6016.084, 19746.78
6018.013, 19643.23
6019.941, 19595.74
6021.870, 19624.66
6023.798, 19568.02
6025.727, 19540.14
6027.655, 19599.28
6029.583, 19602.53
6031.512, 19403.06
6033.440, 19438.07
6035.369, 19498.93
6037.297, 19392.71
6039.226, 19436.61
6041.154, 19498.23
6043.083, 19442.83
6045.011, 19380.09
6046.939, 19392.15
6048.868, 19215.32
6050.796, 19225.74
6052.725, 19227.77
6054.653, 19200.03
6056.582, 19191.27
6058.510, 19208.05
6060.439, 19176.53
6062.367, 19160.25
6064.296, 19107.04
6066.224, 19000.67
6068.153, 19132.69
6070.081, 19037.61
6072.010, 18962.00
6073.938, 18896.40
6075.867, 18773.63
6077.795, 18756.37
6079.724, 18667.61
6081.652, 18610.66
6083.581, 18642.36
6085.509, 18715.49
6087.438, 18576.70
6089.366, 18619.19
6091.294, 18605.55
6093.223, 18600.54
6095.151, 18648.89
6097.080, 18496.63
6099.008, 18551.22
6100.937, 18506.02
6102.865, 18448.06
6104.793, 18443.59
6106.722, 18330.33
6108.650, 18274.59
6110.579, 18167.54
6112.507, 18177.24
6114.436, 18291.17
6116.364, 18262.93
6118.293, 18254.18
6120.221, 18119.41
6122.150, 18058.55
6124.078, 18097.80
6126.007, 18095.62
6127.935, 18050.90
6129.864, 17983.10
6131.792, 17992.38
6133.721, 18013.88
6135.649, 17944.91
6137.578, 17955.57
6139.506, 17868.76
6141.435, 17790.96
6143.363, 17784.26
6145.292, 17835.15
6147.220, 17843.26
6149.148, 17803.19
6151.077, 17683.93
6153.005, 17712.94
6154.934, 17846.44
6156.862, 17653.93
6158.791, 17622.07
6160.719, 17683.73
6162.647, 17649.78
6164.576, 17537.34
6166.504, 17477.03
6168.433, 17499.87
6170.361, 17512.24
6172.290, 17451.79
6174.218, 17394.91
6176.147, 17390.16
6178.075, 17318.96
6180.004, 17371.38
6181.932, 17410.90
6183.861, 17356.13
6185.789, 17223.13
6187.718, 17098.42
6189.646, 17204.52
6191.575, 17179.94
6193.503, 17111.35
6195.432, 17089.32
6197.360, 17125.35
6199.289, 17149.61
6201.217, 17116.92
6203.146, 17070.96
6205.074, 16987.19
6207.002, 16897.00
6208.931, 16876.66
6210.859, 16888.72
6212.788, 16817.94
6214.716, 16761.50
6216.645, 16790.94
6218.573, 16848.90
6220.501, 16710.91
6222.430, 16685.61
6224.358, 16724.33
6226.287, 16731.52
6228.215, 16708.33
6230.144, 16701.44
6232.072, 16624.57
6234.001, 16520.36
6235.929, 16451.60
6237.858, 16472.73
6239.786, 16540.57
6241.715, 16509.48
6243.643, 16357.75
6245.572, 16384.78
6247.500, 16396.98
6249.429, 16317.01
6251.357, 16215.16
6253.286, 16268.99
6255.214, 16203.42
6257.143, 16163.73
6259.071, 16083.25
6261.000, 16037.59
6262.928, 16147.40
6264.856, 16100.79
6266.785, 16073.33
6268.713, 16084.54
6270.642, 16057.86
6272.570, 15993.81
6274.499, 15962.42
6276.427, 15866.24
6278.355, 15882.88
6280.284, 15921.35
6282.212, 15908.67
6284.141, 15848.42
6286.069, 15793.81
6287.998, 15685.78
6289.926, 15709.67
6291.855, 15704.02
6293.783, 15706.27
6295.712, 15726.76
6297.640, 15647.57
6299.569, 15631.81
6301.497, 15589.68
6303.426, 15551.07
6305.354, 15545.67
6307.283, 15562.85
6309.211, 15553.90
6311.140, 15488.42
6313.068, 15346.47
6314.997, 15375.00
6316.925, 15443.96
6318.854, 15410.73
6320.782, 15346.97
6322.710, 15270.43
6324.639, 15178.50
6326.567, 15195.85
6328.496, 15178.16
6330.424, 15098.60
6332.353, 15170.62
6334.281, 15143.91
6336.209, 15123.97
6338.138, 15065.92
6340.066, 15019.01
6341.995, 14987.19
6343.923, 14930.59
6345.852, 15072.83
6347.780, 14943.76
6349.709, 14917.38
6351.637, 14991.60
6353.566, 15012.63
6355.494, 14921.96
6357.423, 14939.14
6359.351, 14797.53
6361.280, 14766.35
6363.208, 14720.22
6365.137, 14679.21
6367.065, 14709.57
6368.994, 14624.68
6370.922, 14708.33
6372.851, 14661.84
6374.779, 14651.13
6376.708, 14639.67
6378.636, 14564.94
6380.564, 14498.86
6382.493, 14402.05
6384.421, 14407.21
6386.350, 14490.67
6388.278, 14505.87
6390.207, 14444.56
6392.135, 14413.31
6394.063, 14433.80
6395.992, 14254.39
6397.920, 14227.27
6399.849, 14260.93
6401.777, 14266.06
6403.706, 14223.86
6405.634, 14133.59
6407.563, 14066.26
6409.491, 14172.45
6411.420, 14165.61
6413.348, 14107.23
6415.277, 14048.09
6417.205, 13973.43
6419.134, 14107.79
6421.062, 13986.34
6422.991, 13862.03
6424.919, 13903.35
6426.848, 13946.18
6428.776, 13865.21
6430.705, 13758.47
6432.633, 13732.54
6434.562, 13749.63
6436.490, 13735.75
6438.418, 13701.96
6440.347, 13736.72
6442.275, 13796.57
6444.204, 13639.24
6446.132, 13630.35
6448.061, 13623.90
6449.989, 13617.90
6451.917, 13610.60
6453.846, 13567.99
6455.774, 13484.80
6457.703, 13455.41
6459.631, 13378.45
6461.560, 13422.38
6463.488, 13397.61
6465.417, 13325.09
6467.345, 13278.95
6469.274, 13263.27
6471.202, 13223.60
6473.131, 13279.95
6475.059, 13285.26
6476.988, 13172.87
6478.916, 13099.94
6480.845, 13144.35
6482.773, 13210.87
6484.702, 13077.29
6486.630, 13144.46
6488.559, 13158.88
6490.487, 13102.68
6492.416, 13010.87
6494.344, 12955.51
6496.272, 12948.64
6498.201, 12863.95
6500.129, 12867.89
6502.058, 12807.27
6503.986, 12846.14
6505.915, 12825.25
6507.843, 12773.85
6509.771, 12791.56
6511.700, 12769.08
6513.628, 12629.50
6515.557, 12692.16
6517.485, 12603.22
6519.414, 12592.45
6521.342, 12650.27
6523.271, 12639.78
6525.199, 12558.08
6527.128, 12469.73
6529.056, 12538.35
6530.985, 12470.61
6532.913, 12394.87
6534.842, 12382.34
6536.770, 12399.19
6538.699, 12400.57
6540.627, 12400.45
6542.556, 12402.99
6544.484, 12329.87
6546.413, 12312.37
6548.341, 12219.14
6550.270, 12183.13
6552.198, 12246.03
6554.126, 12181.71
6556.055, 12123.59
6557.983, 12169.55
6559.912, 12107.99
6561.840, 12096.10
6563.769, 12052.94
6565.697, 12016.67
6567.625, 12072.57
6569.554, 12089.51
6571.482, 12052.14
6573.411, 11987.24
6575.339, 11894.65
6577.268, 11875.17
6579.196, 11903.66
##END=



