##NAMES=Tochilinite
##RRUFFID=R060887
##IDEAL CHEMISTRY=6(Fe_0.9_S)·5[(Mg,Fe)(OH)_2_]
##LOCALITY=Cornwall, Pennsylvania, USA
##OWNER=RRUFF
##SOURCE=Bob Jenkins
##DESCRIPTION=Black elongated prismatic crystals
##STATUS=The identification of this mineral is not yet confirmed
##URL=https://www.rruff.net/odr/rruff_sample/R060887
##FILETYPE=Raman RAW
##RAMAN WAVELENGTH=785

183.2063, 688.3356
185.1348, 691.2197
187.0632, 690.5363
188.9917, 682.2515
190.9202, 675.8120
192.8486, 675.0707
194.7771, 674.4978
196.7056, 668.9526
198.6340, 660.3813
200.5625, 655.3373
202.4910, 656.9471
204.4194, 655.4485
206.3479, 645.4359
208.2764, 638.8694
210.2048, 645.1632
212.1333, 654.1074
214.0618, 653.0411
215.9902, 641.3549
217.9187, 637.8625
219.8472, 646.4149
221.7756, 657.6371
223.7041, 676.3315
225.6326, 691.8200
227.5610, 696.3523
229.4895, 694.0719
231.4180, 691.0681
233.3464, 685.9855
235.2749, 685.8892
237.2034, 697.2664
239.1318, 703.0166
241.0603, 698.0038
242.9888, 687.0654
244.9172, 670.7789
246.8457, 651.8403
248.7742, 639.6290
250.7026, 636.7995
252.6311, 634.3044
254.5596, 632.6165
256.4880, 630.4789
258.4165, 624.9099
260.3449, 621.1064
262.2734, 625.3573
264.2019, 635.5472
266.1303, 639.1617
268.0588, 629.5787
269.9873, 628.5310
271.9157, 641.6055
273.8442, 654.5499
275.7727, 658.7601
277.7011, 662.9622
279.6296, 675.1133
281.5581, 694.3098
283.4865, 714.5790
285.4150, 737.2478
287.3435, 757.3153
289.2719, 770.2762
291.2004, 787.9977
293.1289, 824.3895
295.0573, 859.6985
296.9858, 876.3481
298.9143, 876.8326
300.8427, 875.0425
302.7712, 873.1386
304.6997, 861.2225
306.6281, 834.7308
308.5566, 806.2176
310.4851, 779.5586
312.4135, 753.6935
314.3420, 726.9474
316.2705, 700.3989
318.1989, 677.8052
320.1274, 660.1475
322.0559, 643.0136
323.9843, 625.1688
325.9128, 610.6649
327.8413, 603.0513
329.7697, 596.4268
331.6982, 586.0619
333.6267, 574.4185
335.5551, 566.4115
337.4836, 562.3489
339.4121, 559.1959
341.3405, 556.1862
343.2690, 556.7823
345.1975, 566.0645
347.1259, 572.4257
349.0544, 565.2061
350.9829, 555.5445
352.9113, 558.6803
354.8398, 572.3787
356.7683, 576.0215
358.6967, 568.0820
360.6252, 558.8160
362.5537, 547.2781
364.4821, 538.6302
366.4106, 539.7401
368.3391, 539.4685
370.2675, 527.7623
372.1960, 510.2531
374.1245, 499.2991
376.0529, 495.4070
377.9814, 493.5275
379.9099, 494.7517
381.8383, 493.3966
383.7668, 485.9534
385.6953, 479.5178
387.6237, 478.4528
389.5522, 478.9339
391.4807, 478.2887
393.4091, 476.1891
395.3376, 470.2338
397.2661, 459.9373
399.1945, 452.8278
401.1230, 444.3706
403.0515, 449.6430
404.9799, 452.9362
406.9084, 454.3568
408.8369, 448.2955
410.7654, 451.8954
412.6938, 442.9615
414.6223, 446.4373
416.5508, 448.5609
418.4792, 449.4753
420.4077, 447.8991
422.3362, 442.5713
424.2646, 438.5674
426.1931, 438.7982
428.1216, 438.9702
430.0500, 436.6513
431.9785, 433.5738
433.9070, 431.1096
435.8354, 429.5475
437.7639, 431.3691
439.6924, 436.5365
441.6208, 436.6363
443.5493, 429.5298
445.4778, 422.6622
447.4062, 416.2190
449.3347, 413.4479
451.2631, 419.5504
453.1916, 426.1632
455.1201, 423.4945
457.0485, 415.7322
458.9770, 414.6899
460.9055, 419.5472
462.8339, 421.6682
464.7624, 419.8764
466.6909, 420.2641
468.6193, 426.4055
470.5478, 430.5638
472.4763, 429.7732
474.4047, 426.9777
476.3332, 422.7593
478.2617, 418.5097
480.1901, 416.1285
482.1186, 415.6036
484.0471, 417.1132
485.9755, 420.6490
487.9040, 422.6298
489.8325, 422.7735
491.7609, 420.6858
493.6894, 412.1312
495.6179, 406.8951
497.5463, 411.9416
499.4748, 418.0257
501.4033, 416.2869
503.3317, 410.8429
505.2602, 410.2982
507.1887, 413.0440
509.1171, 411.2083
511.0456, 404.1491
512.9741, 400.1417
514.9025, 401.1694
516.8310, 403.1435
518.7595, 406.8650
520.6879, 408.8795
522.6164, 407.2711
524.5449, 404.1255
526.4733, 399.6166
528.4018, 395.5811
530.3303, 396.7302
532.2587, 401.0803
534.1872, 400.8706
536.1157, 395.7337
538.0441, 394.6029
539.9726, 401.5308
541.9011, 403.4388
543.8295, 391.3018
545.7580, 383.0179
547.6865, 386.2664
549.6149, 391.7811
551.5434, 395.1237
553.4719, 396.0771
555.4003, 392.8815
557.3288, 387.5442
559.2573, 384.2086
561.1857, 382.9663
563.1142, 384.5699
565.0427, 389.9056
566.9711, 393.2367
568.8996, 392.5405
570.8281, 392.0612
572.7565, 393.7726
574.6850, 394.0348
576.6135, 389.6543
578.5419, 385.2285
580.4704, 384.9322
582.3989, 386.2345
584.3273, 386.1223
586.2558, 384.7589
588.1843, 381.3749
590.1127, 376.4050
592.0412, 375.6381
593.9697, 380.1250
595.8981, 385.5748
597.8266, 394.1830
599.7551, 399.0831
601.6835, 397.1728
603.6120, 394.9011
605.5405, 396.2283
607.4689, 395.8293
609.3974, 387.7287
611.3259, 378.2792
613.2543, 373.8298
615.1828, 373.2185
617.1113, 376.1893
619.0397, 381.5508
620.9682, 382.9067
622.8967, 379.5537
624.8251, 377.3029
626.7536, 376.2167
628.6821, 376.8246
630.6105, 383.4793
632.5390, 384.6324
634.4675, 371.0659
636.3959, 362.0139
638.3244, 368.8549
640.2529, 378.2637
642.1813, 383.7919
644.1098, 384.9515
646.0383, 378.8706
647.9667, 369.6957
649.8952, 364.0267
651.8237, 361.7800
653.7521, 362.9365
655.6806, 367.9591
657.6091, 371.0852
659.5375, 371.2097
661.4660, 372.0294
663.3945, 373.6982
665.3229, 375.7097
667.2514, 378.6096
669.1799, 380.9015
671.1083, 383.0925
673.0368, 383.3273
674.9653, 379.2220
676.8937, 374.5710
678.8222, 371.1810
680.7507, 369.6753
682.6791, 372.0353
684.6076, 376.0313
686.5361, 377.3242
688.4645, 376.3382
690.3930, 375.2723
692.3215, 374.1584
694.2499, 371.9559
696.1784, 367.9037
698.1069, 365.5942
700.0353, 364.8050
701.9638, 366.5313
703.8923, 373.2802
705.8207, 376.8395
707.7492, 374.3661
709.6777, 370.4695
711.6061, 366.0977
713.5346, 361.9479
715.4631, 358.3651
717.3915, 355.1881
719.3200, 351.3077
721.2485, 348.6954
723.1769, 349.6916
725.1054, 353.1946
727.0339, 359.2585
728.9623, 365.8655
730.8908, 364.9735
732.8193, 357.5816
734.7477, 355.1844
736.6762, 358.4478
738.6047, 358.4349
740.5331, 353.6525
742.4616, 354.5740
744.3901, 363.8659
746.3185, 369.1236
748.2470, 367.7612
750.1755, 365.1256
752.1039, 361.5687
754.0324, 359.3090
755.9609, 359.6426
757.8893, 360.5187
759.8178, 361.3329
761.7463, 361.8851
763.6747, 363.4412
765.6032, 363.0681
767.5317, 355.8179
769.4601, 348.0778
771.3886, 348.0875
773.3171, 351.3123
775.2455, 350.1067
777.1740, 346.6603
779.1025, 346.6833
781.0309, 349.2368
782.9594, 349.2787
784.8879, 347.3395
786.8163, 351.2891
788.7448, 361.0052
790.6733, 365.1397
792.6017, 363.2545
794.5302, 357.6758
796.4587, 347.5917
798.3871, 343.4386
800.3156, 347.6660
802.2441, 352.5881
804.1725, 357.6483
806.1010, 359.6733
808.0295, 356.1408
809.9579, 353.6702
811.8864, 354.4029
813.8149, 356.4432
815.7433, 361.5753
817.6718, 364.3531
819.6003, 360.5151
821.5287, 356.4761
823.4572, 357.4002
825.3856, 357.6741
827.3141, 348.8771
829.2426, 342.0562
831.1710, 354.1594
833.0995, 368.2119
835.0280, 359.8918
836.9564, 342.8727
838.8849, 337.9116
840.8134, 339.8773
842.7418, 338.1743
844.6703, 335.3100
846.5988, 339.6790
848.5272, 348.2662
850.4557, 350.0427
852.3842, 346.4245
854.3126, 342.7033
856.2411, 339.3817
858.1696, 339.6329
860.0980, 343.0680
862.0265, 344.8837
863.9550, 344.7629
865.8834, 339.8680
867.8119, 329.6018
869.7404, 329.6871
871.6688, 343.0541
873.5973, 352.8450
875.5258, 357.0014
877.4542, 358.0659
879.3827, 356.0406
881.3112, 351.6067
883.2396, 342.1213
885.1681, 337.9507
887.0966, 343.7350
889.0250, 348.4420
890.9535, 351.0915
892.8820, 350.9123
894.8104, 344.8819
896.7389, 340.9322
898.6674, 342.3737
900.5958, 343.5458
902.5243, 343.4399
904.4528, 342.0673
906.3812, 335.5463
908.3097, 333.6993
910.2382, 345.6474
912.1666, 355.1722
914.0951, 354.4031
916.0236, 350.1888
917.9520, 343.0733
919.8805, 337.5459
921.8090, 335.7368
923.7374, 336.8988
925.6659, 343.6385
927.5944, 349.2008
929.5228, 346.6572
931.4513, 344.3549
933.3798, 350.7932
935.3082, 356.8850
937.2367, 353.8662
939.1652, 349.6111
941.0936, 351.1931
943.0221, 353.7156
944.9506, 354.2091
946.8790, 352.1567
948.8075, 344.1104
950.7360, 336.4819
952.6644, 335.4524
954.5929, 337.7590
956.5214, 342.0942
958.4498, 346.1480
960.3783, 348.5296
962.3068, 348.4897
964.2352, 341.7824
966.1637, 335.8125
968.0922, 340.8068
970.0206, 348.2271
971.9491, 348.8564
973.8776, 347.2590
975.8060, 349.0249
977.7345, 350.6683
979.6630, 345.2609
981.5914, 340.5744
983.5199, 348.9099
985.4484, 359.3582
987.3768, 357.5126
989.3053, 352.8645
991.2338, 357.9831
993.1622, 364.4916
995.0907, 361.9186
997.0192, 356.5416
998.9476, 355.3077
1000.876, 355.0848
1002.805, 352.5033
1004.733, 349.0613
1006.661, 345.9081
1008.590, 343.1997
1010.518, 339.9349
1012.447, 338.5152
1014.375, 343.1180
1016.304, 348.7031
1018.232, 351.4769
1020.161, 351.9380
1022.089, 350.0859
1024.018, 346.5930
1025.946, 338.1276
1027.875, 332.9706
1029.803, 341.0720
1031.732, 350.8119
1033.660, 354.9523
1035.589, 356.0371
1037.517, 353.7356
1039.445, 351.7078
1041.374, 352.0725
1043.302, 353.5649
1045.231, 356.7887
1047.159, 358.9358
1049.088, 358.7911
1051.016, 356.7050
1052.945, 350.7058
1054.873, 346.6641
1056.802, 348.4748
1058.730, 350.3030
1060.659, 349.7186
1062.587, 349.0374
1064.516, 349.2973
1066.444, 349.0372
1068.372, 347.2468
1070.301, 346.3200
1072.229, 347.3656
1074.158, 347.9985
1076.086, 347.4664
1078.015, 347.0023
1079.943, 347.0538
1081.872, 346.3465
1083.800, 344.4514
1085.729, 342.5429
1087.657, 340.5202
1089.586, 341.6277
1091.514, 346.9485
1093.443, 346.0202
1095.371, 337.2440
1097.299, 336.6474
1099.228, 345.4758
1101.156, 348.4526
1103.085, 345.1799
1105.013, 347.6713
1106.942, 355.2507
1108.870, 356.0732
1110.799, 351.3081
1112.727, 350.3885
1114.656, 352.0151
1116.584, 349.5970
1118.513, 344.8546
1120.441, 342.3968
1122.370, 341.8412
1124.298, 343.7776
1126.226, 345.9106
1128.155, 342.9195
1130.083, 339.0370
1132.012, 340.0774
1133.940, 343.4266
1135.869, 348.0145
1137.797, 351.2116
1139.726, 347.9736
1141.654, 346.0958
1143.583, 354.9543
1145.511, 361.1374
1147.440, 352.4031
1149.368, 346.7618
1151.297, 357.5845
1153.225, 362.9524
1155.153, 350.0837
1157.082, 342.2513
1159.010, 349.2532
1160.939, 350.3148
1162.867, 339.2925
1164.796, 334.3652
1166.724, 338.0844
1168.653, 343.1941
1170.581, 349.7575
1172.510, 351.8904
1174.438, 349.4255
1176.367, 345.2698
1178.295, 340.4663
1180.224, 343.1334
1182.152, 350.6249
1184.080, 353.1824
1186.009, 352.4277
1187.937, 351.1919
1189.866, 350.3080
1191.794, 351.8091
1193.723, 353.3957
1195.651, 352.0581
1197.580, 350.4373
1199.508, 350.8273
1201.437, 351.5468
1203.365, 352.1299
1205.294, 351.8684
1207.222, 349.2694
1209.151, 348.0055
1211.079, 350.7368
1213.007, 351.4970
1214.936, 347.6508
1216.864, 345.4761
1218.793, 345.7485
1220.721, 346.8887
1222.650, 348.8937
1224.578, 352.0946
1226.507, 356.4185
1228.435, 359.5078
1230.364, 361.2138
1232.292, 360.8846
1234.221, 358.5277
1236.149, 351.4091
1238.078, 344.9501
1240.006, 349.5755
1241.934, 355.7592
1243.863, 353.7524
1245.791, 351.7909
1247.720, 357.6566
1249.648, 358.2722
1251.577, 342.8273
1253.505, 336.0449
1255.434, 349.8941
1257.362, 354.6831
1259.291, 341.2969
1261.219, 339.8191
1263.148, 355.5179
1265.076, 359.7395
1267.005, 352.5968
1268.933, 351.6533
1270.861, 354.9325
1272.790, 353.5179
1274.718, 349.9337
1276.647, 348.1079
1278.575, 349.1284
1280.504, 357.6693
1282.432, 365.3351
1284.361, 366.3450
1286.289, 362.6765
1288.218, 351.4826
1290.146, 344.8210
1292.075, 346.8085
1294.003, 352.1350
1295.932, 360.7856
1297.860, 361.5402
1299.788, 353.2523
1301.717, 350.0435
1303.645, 352.1787
1305.574, 355.8484
1307.502, 360.0941
1309.431, 363.4122
1311.359, 364.3096
1313.288, 357.3147
1315.216, 350.7484
1317.145, 354.0998
1319.073, 358.2603
1321.002, 360.1541
1322.930, 357.3374
1324.859, 343.9581
1326.787, 345.4894
1328.715, 369.3573
1330.644, 374.4447
1332.572, 358.3040
1334.501, 352.5939
1336.429, 356.0078
1338.358, 353.5517
1340.286, 349.3965
1342.215, 353.6964
1344.143, 360.4404
1346.072, 364.3281
1348.000, 364.7302
1349.929, 357.4234
1351.857, 352.9607
1353.786, 360.2257
1355.714, 360.7277
1357.642, 349.8015
1359.571, 341.7728
1361.499, 337.7259
1363.428, 340.0142
1365.356, 346.5500
1367.285, 346.4436
1369.213, 344.0030
1371.142, 349.8232
1373.070, 355.7935
1374.999, 352.0164
1376.927, 346.8918
1378.856, 344.8171
1380.784, 344.1033
1382.713, 345.0865
1384.641, 345.0861
1386.569, 342.6234
1388.498, 347.2074
1390.426, 358.1244
1392.355, 354.7052
1394.283, 343.9903
1396.212, 349.9678
1398.140, 359.6603
1400.069, 356.8511
1401.997, 350.7504
1403.926, 345.5685
1405.854, 342.9415
1407.783, 344.6102
1409.711, 346.4604
1411.640, 347.6540
1413.568, 350.8202
1415.496, 355.8895
1417.425, 351.7093
1419.353, 342.5934
1421.282, 342.0208
1423.210, 345.1036
1425.139, 347.2489
1427.067, 348.2056
1428.996, 347.6012
1430.924, 346.0200
1432.853, 342.3193
1434.781, 342.9881
1436.710, 350.9797
1438.638, 349.7702
1440.567, 341.2417
1442.495, 340.1260
1444.423, 343.4088
1446.352, 347.4102
1448.280, 349.1316
1450.209, 345.0454
1452.137, 339.9530
1454.066, 334.6521
1455.994, 333.5564
1457.923, 338.7479
1459.851, 338.2428
1461.780, 331.8386
1463.708, 332.3438
1465.637, 335.8301
1467.565, 329.3588
1469.494, 323.1946
1471.422, 333.4777
1473.350, 339.5515
1475.279, 329.7554
1477.207, 324.2031
1479.136, 327.7019
1481.064, 332.7491
1482.993, 337.9659
1484.921, 335.1988
1486.850, 327.6536
1488.778, 319.9952
1490.707, 316.7041
1492.635, 328.2693
1494.564, 335.8814
1496.492, 330.3454
1498.421, 325.0767
1500.349, 322.4213
1502.277, 319.5829
1504.206, 317.2357
1506.134, 323.6805
1508.063, 332.0896
1509.991, 325.2393
1511.920, 319.3747
1513.848, 335.7762
1515.777, 342.7768
1517.705, 325.6145
1519.634, 322.5574
1521.562, 337.1889
1523.491, 331.6361
1525.419, 312.6973
1527.348, 310.9480
1529.276, 314.4558
1531.204, 305.0000
1533.133, 299.4657
1535.061, 312.3744
1536.990, 321.1848
1538.918, 322.2842
1540.847, 320.7388
1542.775, 317.3464
1544.704, 314.1312
1546.632, 311.7791
1548.561, 311.8476
1550.489, 312.2825
1552.418, 309.9477
1554.346, 310.9888
1556.275, 320.0419
1558.203, 321.7926
1560.131, 316.3376
1562.060, 316.0582
1563.988, 319.1145
1565.917, 323.3084
1567.845, 325.1044
1569.774, 320.6049
1571.702, 314.8604
1573.631, 306.1635
1575.559, 306.4891
1577.488, 316.5197
1579.416, 316.3222
1581.344, 309.6500
1583.273, 302.3446
1585.201, 298.7353
1587.130, 305.6389
1589.058, 309.7135
1590.987, 305.0016
1592.915, 301.2383
1594.844, 298.9792
1596.772, 301.4579
1598.701, 305.5829
1600.629, 304.2802
1602.558, 301.7293
1604.486, 300.4978
1606.415, 299.0110
1608.343, 296.5705
1610.271, 294.1109
1612.200, 292.2703
1614.128, 298.7797
1616.057, 308.3051
1617.985, 313.4130
1619.914, 315.2635
1621.842, 314.3401
1623.771, 309.8442
1625.699, 300.8457
1627.628, 298.3539
1629.556, 301.2628
1631.485, 307.1335
1633.413, 311.0746
1635.342, 304.6266
1637.270, 300.6172
1639.198, 304.3387
1641.127, 301.8163
1643.055, 292.1231
1644.984, 295.4241
1646.912, 304.2493
1648.841, 303.7939
1650.769, 300.5530
1652.698, 297.9654
1654.626, 295.4472
1656.555, 292.8198
1658.483, 293.8864
1660.412, 297.3393
1662.340, 297.0037
1664.269, 296.4643
1666.197, 302.2856
1668.125, 303.0776
1670.054, 294.0294
1671.982, 292.5350
1673.911, 298.5288
1675.839, 300.1300
1677.768, 298.4877
1679.696, 293.5662
1681.625, 289.9813
1683.553, 291.6522
1685.482, 289.1484
1687.410, 282.0183
1689.339, 278.6254
1691.267, 279.8531
1693.196, 292.0257
1695.124, 299.8520
1697.052, 288.1568
1698.981, 279.1906
1700.909, 275.8560
1702.838, 278.8641
1704.766, 284.7971
1706.695, 284.2084
1708.623, 283.4608
1710.552, 289.1501
1712.480, 293.0370
1714.409, 293.9948
1716.337, 287.7459
1718.266, 278.3012
1720.194, 279.6120
1722.123, 283.8933
1724.051, 287.4936
1725.979, 286.0197
1727.908, 276.6207
1729.836, 269.7768
1731.765, 265.5824
1733.693, 265.1452
1735.622, 265.7361
1737.550, 262.7707
1739.479, 266.1513
1741.407, 283.4182
1743.336, 285.4256
1745.264, 275.6533
1747.193, 261.0732
1749.121, 251.3109
1751.050, 255.8473
1752.978, 260.1283
1754.906, 259.5991
1756.835, 265.5040
1758.763, 273.9453
1760.692, 273.6629
1762.620, 268.8661
1764.549, 260.0256
1766.477, 255.8275
1768.406, 258.7097
1770.334, 261.0647
1772.263, 262.2296
1774.191, 259.0103
1776.120, 257.2756
1778.048, 260.7791
1779.977, 260.9417
1781.905, 256.7581
1783.833, 258.3773
1785.762, 260.7477
1787.690, 251.8937
1789.619, 249.7021
1791.547, 262.1803
1793.476, 263.4404
1795.404, 254.5660
1797.333, 255.8861
1799.261, 259.8287
1801.190, 258.1199
1803.118, 257.6655
1805.047, 259.8772
1806.975, 261.0953
1808.904, 260.6250
1810.832, 256.7938
1812.760, 251.8227
1814.689, 245.9774
1816.617, 243.1876
1818.546, 243.9103
1820.474, 248.5559
1822.403, 254.4931
1824.331, 260.7145
1826.260, 260.9435
1828.188, 252.5156
1830.117, 247.8326
1832.045, 246.2335
1833.974, 242.0837
1835.902, 238.0358
1837.831, 234.8314
1839.759, 236.7269
1841.688, 243.7784
1843.616, 248.7569
1845.544, 251.0864
1847.473, 250.8543
1849.401, 246.7664
1851.330, 236.0240
1853.258, 232.7623
1855.187, 235.3293
1857.115, 236.6718
1859.044, 237.7404
1860.972, 239.0996
1862.901, 241.2202
1864.829, 243.9783
1866.758, 241.8680
1868.686, 238.4415
1870.615, 239.2917
1872.543, 237.7115
1874.471, 229.3310
1876.400, 228.8293
1878.328, 232.1392
1880.257, 228.6318
1882.185, 224.5631
1884.114, 221.4757
1886.042, 223.8458
1887.971, 230.7824
1889.899, 235.6076
1891.828, 236.2136
1893.756, 229.3537
1895.685, 222.5215
1897.613, 217.7935
1899.542, 217.1027
1901.470, 220.5012
1903.398, 233.0953
1905.327, 237.4010
1907.255, 226.5733
1909.184, 217.8209
1911.112, 213.4707
1913.041, 221.5394
1914.969, 226.1322
1916.898, 220.3583
1918.826, 216.5605
1920.755, 215.4252
1922.683, 219.6459
1924.612, 225.5497
1926.540, 230.2406
1928.469, 229.4087
1930.397, 225.1727
1932.325, 218.6708
1934.254, 211.5767
1936.182, 205.8574
1938.111, 210.4436
1940.039, 223.2358
1941.968, 220.9292
1943.896, 214.4538
1945.825, 216.2215
1947.753, 218.7364
1949.682, 220.5385
1951.610, 213.1021
1953.539, 204.5183
1955.467, 207.6373
1957.396, 210.5072
1959.324, 210.8201
1961.252, 204.2821
1963.181, 198.2731
1965.109, 211.1651
1967.038, 217.0143
1968.966, 208.6258
1970.895, 209.1493
1972.823, 211.8440
1974.752, 204.9638
1976.680, 196.0761
1978.609, 186.5718
1980.537, 191.6439
1982.466, 201.3028
1984.394, 199.3710
1986.323, 197.1178
1988.251, 197.9171
1990.179, 197.4202
1992.108, 196.2183
1994.036, 194.1814
1995.965, 194.1374
1997.893, 197.0344
1999.822, 208.2929
2001.750, 218.2849
2003.679, 204.8455
2005.607, 192.7642
2007.536, 194.1599
2009.464, 193.1007
2011.393, 191.0423
2013.321, 192.5555
2015.250, 196.2459
2017.178, 201.2228
2019.106, 197.2191
2021.035, 188.6860
2022.963, 186.9189
2024.892, 187.9136
2026.820, 186.7139
2028.749, 187.6221
2030.677, 189.8027
2032.606, 191.8369
2034.534, 189.5709
2036.463, 180.8373
2038.391, 180.5304
2040.320, 184.5788
2042.248, 184.8658
2044.177, 182.5600
2046.105, 181.2775
2048.033, 185.8728
2049.962, 186.2851
2051.890, 173.8866
2053.819, 168.8839
2055.747, 171.2205
2057.676, 177.5007
2059.604, 180.4977
2061.533, 173.1806
2063.461, 168.9993
2065.390, 169.3007
2067.318, 175.1339
2069.247, 179.9249
2071.175, 181.0318
2073.104, 175.6751
2075.032, 169.2361
2076.960, 171.0979
2078.889, 173.7800
2080.817, 173.4309
2082.746, 174.8616
2084.674, 175.9953
2086.603, 173.7909
2088.531, 162.6692
2090.460, 145.5772
2092.388, 152.1556
2094.317, 164.2771
2096.245, 167.2701
2098.174, 166.6541
2100.102, 164.0379
2102.031, 165.2915
2103.959, 168.1085
2105.887, 171.8624
2107.816, 169.3839
2109.744, 164.1823
2111.673, 159.6373
2113.601, 156.7766
2115.530, 159.9312
2117.458, 164.5024
2119.387, 163.5841
2121.315, 158.2360
2123.244, 152.5584
2125.172, 149.8780
2127.101, 151.9145
2129.029, 154.3620
2130.958, 158.9046
2132.886, 153.4192
2134.814, 146.8172
2136.743, 161.2405
2138.671, 168.4402
2140.600, 155.6492
2142.528, 149.5736
2144.457, 150.6989
2146.385, 153.9818
2148.314, 152.0029
2150.242, 147.6151
2152.171, 156.5464
2154.099, 162.2522
2156.028, 156.4761
2157.956, 156.3656
2159.885, 160.4500
2161.813, 159.8193
2163.741, 155.6255
2165.670, 153.5319
2167.598, 153.6878
2169.527, 150.9691
2171.455, 148.4943
2173.384, 152.6792
2175.312, 153.0688
2177.241, 137.5086
2179.169, 133.8346
2181.098, 143.4304
2183.026, 142.4230
2184.955, 137.6307
2186.883, 137.3689
2188.812, 142.8886
2190.740, 147.5562
2192.668, 141.9249
2194.597, 141.3010
2196.525, 146.9804
2198.454, 147.5913
2200.382, 142.8896
2202.311, 134.6002
2204.239, 138.0467
2206.168, 143.7396
2208.096, 137.8976
2210.025, 135.2515
2211.953, 136.7162
2213.882, 134.1265
2215.810, 133.0557
2217.739, 135.6341
2219.667, 135.6949
2221.595, 133.8656
2223.524, 126.7546
2225.452, 128.8068
2227.381, 142.0822
2229.309, 135.8646
2231.238, 128.9248
2233.166, 130.3015
2235.095, 128.8920
2237.023, 128.6316
2238.952, 129.6711
2240.880, 130.4829
2242.809, 131.5277
2244.737, 125.3259
2246.666, 118.9787
2248.594, 117.7233
2250.522, 121.4993
2252.451, 127.4025
2254.379, 130.3438
2256.308, 128.0662
2258.236, 124.6039
2260.165, 126.6201
2262.093, 128.3960
2264.022, 130.2637
2265.950, 125.6625
2267.879, 120.2913
2269.807, 119.4423
2271.736, 117.0213
2273.664, 115.2918
2275.593, 113.2898
2277.521, 116.0933
2279.449, 123.8331
2281.378, 123.3331
2283.306, 121.3699
2285.235, 121.8313
2287.163, 119.7610
2289.092, 116.1411
2291.020, 111.2842
2292.949, 109.9625
2294.877, 111.0984
2296.806, 110.1913
2298.734, 114.0561
2300.663, 121.2886
2302.591, 115.4857
2304.520, 111.6405
2306.448, 117.7881
2308.376, 114.2166
2310.305, 108.0353
2312.233, 109.1630
2314.162, 105.9668
2316.090, 102.8241
2318.019, 111.3590
2319.947, 113.3396
2321.876, 108.8448
2323.804, 107.1088
2325.733, 107.9535
2327.661, 111.9382
2329.590, 112.4115
2331.518, 111.1347
2333.447, 107.8063
2335.375, 105.8693
2337.303, 104.4273
2339.232, 101.0743
2341.160, 99.01832
2343.089, 99.76435
2345.017, 104.5867
2346.946, 107.5543
2348.874, 106.9767
2350.803, 98.74461
2352.731, 96.76889
2354.660, 108.8619
2356.588, 105.9837
2358.517, 101.1011
2360.445, 106.6678
2362.374, 102.4553
2364.302, 93.91888
2366.230, 90.29011
2368.159, 94.24520
2370.087, 101.6672
2372.016, 97.62118
2373.944, 95.59225
2375.873, 97.90330
2377.801, 92.76782
2379.730, 91.61807
2381.658, 98.79807
2383.587, 99.73947
2385.515, 99.49786
2387.444, 102.7197
2389.372, 99.55756
2391.301, 94.03375
2393.229, 90.14143
2395.157, 93.07874
2397.086, 97.78114
2399.014, 92.89547
2400.943, 91.11499
2402.871, 93.07842
2404.800, 92.42404
2406.728, 91.30415
2408.657, 91.21680
2410.585, 91.33052
2412.514, 91.85365
2414.442, 92.21481
2416.371, 88.85580
2418.299, 87.12293
2420.228, 91.62016
2422.156, 89.84454
2424.084, 87.08025
2426.013, 87.08232
2427.941, 87.64508
2429.870, 88.17944
2431.798, 85.15105
2433.727, 88.33826
2435.655, 91.88113
2437.584, 88.82806
2439.512, 86.31059
2441.441, 84.80520
2443.369, 88.23769
2445.298, 90.30108
2447.226, 90.36337
2449.155, 86.90968
2451.083, 82.78519
2453.011, 81.46554
2454.940, 82.64464
2456.868, 83.50418
2458.797, 83.86208
2460.725, 84.97004
2462.654, 86.37364
2464.582, 84.70440
2466.511, 77.16244
2468.439, 73.38655
2470.368, 75.79304
2472.296, 78.57003
2474.225, 77.33099
2476.153, 76.06006
2478.082, 77.45986
2480.010, 76.84759
2481.938, 76.38405
2483.867, 77.29909
2485.795, 75.88264
2487.724, 72.41346
2489.652, 72.23390
2491.581, 79.83234
2493.509, 83.76672
2495.438, 78.34337
2497.366, 74.26787
2499.295, 75.12597
2501.223, 75.01888
2503.152, 75.03993
2505.080, 73.32904
2507.009, 72.05864
2508.937, 68.46073
2510.865, 69.02814
2512.794, 74.89739
2514.722, 75.24409
2516.651, 73.18867
2518.579, 71.74945
2520.508, 69.37836
2522.436, 69.44338
2524.365, 71.02521
2526.293, 71.98407
2528.222, 76.33834
2530.150, 76.85658
2532.079, 72.98740
2534.007, 66.90247
2535.936, 64.67097
2537.864, 67.60285
2539.792, 64.58513
2541.721, 60.40581
2543.649, 62.21704
2545.578, 62.45451
2547.506, 64.39873
2549.435, 69.82843
2551.363, 69.81318
2553.292, 66.75951
2555.220, 64.93471
2557.149, 62.05325
2559.077, 59.23013
2561.006, 61.13024
2562.934, 65.27652
2564.863, 58.79836
2566.791, 63.07505
2568.719, 65.37265
2570.648, 65.79738
2572.576, 58.74039
2574.505, 61.34451
2576.433, 60.30332
2578.362, 60.86460
2580.290, 60.54071
2582.219, 61.96931
2584.147, 62.60941
2586.076, 71.11021
2588.004, 68.23949
2589.933, 64.03855
2591.861, 66.08511
2593.790, 66.48302
2595.718, 64.74702
2597.646, 63.26803
2599.575, 61.91077
2601.503, 55.10270
2603.432, 56.16125
2605.360, 62.47018
2607.289, 58.38342
2609.217, 52.19034
2611.146, 55.68555
2613.074, 59.32386
2615.003, 58.73656
2616.931, 58.62804
2618.860, 59.66555
2620.788, 54.35977
2622.717, 48.88818
2624.645, 55.61496
2626.573, 60.05437
2628.502, 56.52956
2630.430, 55.66771
2632.359, 57.67345
2634.287, 55.40221
2636.216, 52.05144
2638.144, 52.59849
2640.073, 54.86479
2642.001, 53.24734
2643.930, 55.73521
2645.858, 58.79471
2647.787, 57.96504
2649.715, 53.42133
2651.644, 47.74191
2653.572, 49.84788
2655.500, 46.95032
2657.429, 42.50159
2659.357, 43.74262
2661.286, 39.66663
2663.214, 42.96758
2665.143, 48.65118
2667.071, 49.83012
2669.000, 52.09832
2670.928, 52.97842
2672.857, 50.61583
2674.785, 49.31661
2676.714, 48.96688
2678.642, 38.00493
2680.571, 37.85294
2682.499, 43.58233
2684.427, 45.27465
2686.356, 43.31313
2688.284, 44.11953
2690.213, 48.26302
2692.141, 46.88050
2694.070, 45.29674
2695.998, 46.95189
2697.927, 47.43477
2699.855, 50.67917
2701.784, 47.72556
2703.712, 45.75865
2705.641, 51.02806
2707.569, 51.72806
2709.498, 46.51413
2711.426, 37.90340
2713.354, 36.61757
2715.283, 44.54663
2717.211, 46.34839
2719.140, 45.52678
2721.068, 45.52221
2722.997, 47.07329
2724.925, 46.83042
2726.854, 34.22656
2728.782, 35.58647
2730.711, 41.13911
2732.639, 41.66508
2734.568, 44.27569
2736.496, 37.50047
2738.425, 34.35670
2740.353, 43.14874
2742.281, 47.61050
2744.210, 44.28149
2746.138, 34.35217
2748.067, 36.70536
2749.995, 38.91056
2751.924, 39.73086
2753.852, 44.95074
2755.781, 44.53659
2757.709, 39.76504
2759.638, 32.13451
2761.566, 29.70961
2763.495, 37.14274
2765.423, 39.24949
2767.352, 34.21831
2769.280, 31.50888
2771.208, 30.60810
2773.137, 36.09294
2775.065, 40.09507
2776.994, 41.01345
2778.922, 39.08372
2780.851, 36.46796
2782.779, 35.73510
2784.708, 32.70656
2786.636, 31.96340
2788.565, 33.35605
2790.493, 34.58885
2792.422, 37.43497
2794.350, 38.37779
2796.279, 37.02300
2798.207, 35.74833
2800.135, 33.91573
2802.064, 35.06731
2803.992, 33.76678
2805.921, 34.49915
2807.849, 35.94958
2809.778, 34.79299
2811.706, 29.55597
2813.635, 25.77543
2815.563, 25.43170
2817.492, 30.81648
2819.420, 33.45533
2821.349, 31.53742
2823.277, 24.61186
2825.206, 30.19887
2827.134, 35.06972
2829.063, 29.70624
2830.991, 29.50489
2832.919, 28.40889
2834.848, 28.12719
2836.776, 35.25081
2838.705, 34.92863
2840.633, 29.88627
2842.562, 31.08230
2844.490, 28.95661
2846.419, 30.03993
2848.347, 37.02903
2850.276, 35.93423
2852.204, 32.27759
2854.133, 29.13123
2856.061, 29.48300
2857.990, 27.16684
2859.918, 23.93016
2861.846, 21.76642
2863.775, 28.18140
2865.703, 30.52777
2867.632, 27.50747
2869.560, 24.90667
2871.489, 27.72427
2873.417, 26.59538
2875.346, 16.80799
2877.274, 21.27262
2879.203, 26.44961
2881.131, 28.21375
2883.060, 28.38889
2884.988, 26.07625
2886.917, 24.75587
2888.845, 28.02956
2890.773, 26.84371
2892.702, 25.06911
2894.630, 25.33799
2896.559, 26.52559
2898.487, 24.75461
2900.416, 26.51913
2902.344, 36.14184
2904.273, 27.65032
2906.201, 23.87637
2908.130, 27.10289
2910.058, 19.88689
2911.987, 21.98801
2913.915, 28.52434
2915.844, 27.69603
2917.772, 25.33172
2919.700, 25.99238
2921.629, 26.34728
2923.557, 26.93382
2925.486, 24.95367
2927.414, 21.90932
2929.343, 18.60855
2931.271, 19.56495
2933.200, 22.86413
2935.128, 26.83765
2937.057, 29.73392
2938.985, 27.54475
2940.914, 21.23135
2942.842, 19.55822
2944.771, 27.11598
2946.699, 25.67716
2948.627, 23.80625
2950.556, 25.20326
2952.484, 25.51156
2954.413, 26.39927
2956.341, 24.74650
2958.270, 24.04982
2960.198, 22.44556
2962.127, 22.23474
2964.055, 20.84022
2965.984, 19.08295
2967.912, 20.18924
2969.841, 22.93290
2971.769, 21.30125
2973.698, 16.87419
2975.626, 16.13251
2977.554, 14.17623
2979.483, 17.19926
2981.411, 19.46056
2983.340, 19.44165
2985.268, 18.83185
2987.197, 11.37472
2989.125, 14.11927
2991.054, 23.12953
2992.982, 19.60469
2994.911, 15.01371
2996.839, 11.85410
2998.768, 19.18875
3000.696, 14.06738
3002.625, 17.59122
3004.553, 23.04610
3006.481, 17.85497
3008.410, 17.35606
3010.338, 14.74975
3012.267, 12.59667
3014.195, 13.64988
3016.124, 16.83664
3018.052, 21.03775
3019.981, 22.80387
3021.909, 23.80341
3023.838, 16.75847
3025.766, 13.40194
3027.695, 15.17182
3029.623, 16.93885
3031.552, 16.24484
3033.480, 10.93374
3035.408, 13.16389
3037.337, 10.84000
3039.265, 13.16340
3041.194, 19.32095
3043.122, 17.87174
3045.051, 18.77383
3046.979, 16.60800
3048.907, 9.514748
3050.836, 9.926263
3052.764, 16.41992
3054.693, 19.50081
3056.621, 20.08197
3058.550, 12.83623
3060.478, 11.90532
3062.407, 11.65974
3064.335, 13.47981
3066.264, 8.020298
3068.192, 9.173281
3070.121, 15.83536
3072.049, 10.00080
3073.978, 9.663279
3075.906, 10.15002
3077.834, 8.901135
3079.763, 4.794543
3081.691, 10.95953
3083.620, 13.71887
3085.548, 8.627427
3087.477, 14.45051
3089.405, 17.20720
3091.334, 15.73302
3093.262, 16.32800
3095.191, 16.17563
3097.119, 10.26598
3099.048, 3.467774
3100.976, 5.429935
3102.905, 7.482539
3104.833, 6.764324
3106.761, 5.523108
3108.690, 3.633381
3110.618, 4.275841
3112.547, 8.179357
3114.475, 12.19229
3116.404, 10.82911
3118.332, 9.625295
3120.261, 9.408185
3122.189, 9.882092
3124.118, 13.32586
3126.046, 18.36106
3127.975, 13.83466
3129.903, 9.053407
3131.832, 13.74870
3133.760, 7.943553
3135.688, 8.475583
3137.617, 11.48253
3139.545, 4.362603
3141.474, 4.857304
3143.402, 6.375566
3145.331, 7.291229
3147.259, 13.83031
3149.188, 1.536042
3151.116, 5.497189
3153.045, 13.55347
3154.973, 12.19189
3156.902, 7.354338
3158.830, 2.576890
3160.759, 1.380353
3162.687, -3.579559
3164.615, 0.4611637
3166.544, 14.23923
3168.472, 16.91627
3170.401, 1.517997
3172.329, 3.153355
3174.258, 10.51665
3176.186, 10.46303
3178.115, 4.231678
3180.043, 6.086294
3181.972, 7.234560
3183.900, 9.572525
3185.829, 10.97699
3187.757, 7.114717
3189.686, 5.081280
3191.614, 2.742071
3193.542, 3.683296
3195.471, 9.617040
3197.399, 5.323941
3199.328, 8.297610
3201.256, 13.36368
3203.185, 6.686317
3205.113, 2.987249
3207.042, 5.315321
3208.970, 8.325146
3210.899, 2.451907
3212.827, -5.126349
3214.756, 3.965397
3216.684, 11.83315
3218.613, 5.367521
3220.541, 3.434046
3222.469, 9.421741
3224.398, 9.445535
3226.326, 0.2360382
3228.255, 5.415409
3230.183, 4.806118
3232.112, 2.096653
3234.040, 1.797974
3235.969, 6.817451
3237.897, 13.31118
3239.826, 14.87694
3241.754, 11.36300
3243.683, 4.635807
3245.611, 4.957467
3247.540, 5.355649
3249.468, 5.551594
3251.396, 5.118346
3253.325, 4.967515
3255.253, 3.734661
3257.182, 5.053887
3259.110, 8.379003
3261.039, 5.327240
3262.967, 1.681812
3264.896, 4.361360
3266.824, 9.556440
3268.753, 11.25951
3270.681, 0.9611133
3272.610, 5.061202
3274.538, 9.487762
3276.467, 5.162176
3278.395, 7.961944
3280.323, 8.906226
3282.252, 5.123899
3284.180, -0.3539463
3286.109, 0.1509887
3288.037, 7.052630
3289.966, 8.309965
3291.894, 2.004383
3293.823, -7.084200
3295.751, 7.022985
3297.680, 6.061421
3299.608, 0.9245504
3301.537, 1.215376
3303.465, 8.627826
3305.394, 1.017340
3307.322, 0.1220203
3309.250, 5.791523
3311.179, 10.57558
3313.107, 5.641317
3315.036, 5.968027
3316.964, 4.556103
3318.893, 0.6459292
3320.821, 2.6078310E-02
3322.750, -2.622214
3324.678, -4.630852
3326.607, 1.906089
3328.535, 14.92475
3330.464, 1.766410
3332.392, -5.834717
3334.321, -3.488988
3336.249, 3.061437
3338.177, 6.195205
3340.106, 3.860709
3342.034, 6.819921
3343.963, 9.471767
3345.891, 8.544250
3347.820, 7.938546
3349.748, 4.758859
3351.677, 4.411490
3353.605, 5.971839
3355.534, 6.283349
3357.462, 3.825029
3359.391, -0.2873545
3361.319, 0.8599187
3363.248, 5.891248
3365.176, 8.814162
3367.104, 11.21225
3369.033, 9.053939
3370.961, 6.429805
3372.890, 4.006599
3374.818, -3.805691
3376.747, -5.278723
3378.675, 1.254690
3380.604, 0.7685534
3382.532, -10.09781
3384.461, -0.1054891
3386.389, 1.455738
3388.318, 7.538821
3390.246, 8.777020
3392.175, -4.079889
3394.103, 1.368130
3396.031, 7.901054
3397.960, 9.244402
3399.888, 6.110608
3401.817, 3.697739
3403.745, 8.863694
3405.674, 1.836650
3407.602, -0.1414153
3409.531, 3.285966
3411.459, 0.2586658
3413.388, 1.070369
3415.316, 8.799558
3417.245, 3.674183
3419.173, -7.301348
3421.102, 2.369949
3423.030, 3.116775
3424.958, 9.229183
3426.887, 4.924414
3428.815, -5.335347
3430.744, 1.452528
3432.672, 2.423816
3434.601, 3.853964
3436.529, 2.307335
3438.458, -1.438912
3440.386, -1.247991
3442.315, 11.62185
3444.243, 14.39116
3446.172, 8.734711
3448.100, 4.665479
3450.029, 11.25988
3451.957, 7.398093
3453.885, -4.654700
3455.814, -4.528483
3457.742, 3.221770
3459.671, -1.139564
3461.599, 4.451262
3463.528, -1.317012
3465.456, -0.3339870
3467.385, 8.223627
3469.313, 12.79697
3471.242, 4.742335
3473.170, 3.197242
3475.099, 5.411199
3477.027, 3.708618
3478.956, -4.610689
3480.884, -3.150580
3482.813, 6.278030
3484.741, 10.96660
3486.669, 6.866956
3488.598, -2.014334
3490.526, -2.609498
3492.455, -3.252630
3494.383, 0.5241245
3496.312, 1.362995
3498.240, -2.790921
3500.169, -4.584854
3502.097, 4.417107
3504.026, 3.076402
3505.954, 4.541381
3507.883, 4.253046
3509.811, -9.522302
3511.740, -4.651818
3513.668, 0.5844283
3515.596, -1.976972
3517.525, -4.962969
3519.453, 0.1884500
3521.382, 12.44884
3523.310, -1.450953
3525.239, 3.435720
3527.167, 9.043403
3529.096, 5.213267
3531.024, 3.069894
3532.953, -0.4240602
3534.881, -0.6833808
3536.810, -4.413952
3538.738, -4.360029
3540.667, 3.726447
3542.595, 1.073948
3544.523, -6.092288
3546.452, 8.000543
3548.380, 9.551528
3550.309, -5.090329
3552.237, -5.387955
3554.166, -4.113487
3556.094, -5.569624
3558.023, -2.697664
3559.951, 1.614047
3561.880, 3.847135
3563.808, 7.310544
3565.737, 9.645287
3567.665, 6.652430
3569.594, -0.2104962
3571.522, -7.484265
3573.450, -11.50640
3575.379, -5.303787
3577.307, -3.309239
3579.236, -0.7037784
3581.164, -2.474032
3583.093, -4.205392
3585.021, 5.535908
3586.950, 5.975470
3588.878, 4.0778771E-02
3590.807, 2.732859
3592.735, 6.340301
3594.664, 1.604528
3596.592, -10.31185
3598.521, -11.06275
3600.449, -7.560718
3602.377, -3.759423
3604.306, -0.7096975
3606.234, 1.416720
3608.163, 1.789588
3610.091, -4.892275
3612.020, 0.3616059
3613.948, 5.050781
3615.877, 1.232959
3617.805, -4.603288
3619.734, 4.234620
3621.662, 4.966525
3623.591, 8.807144
3625.519, 6.569875
3627.448, -1.114533
3629.376, -4.422761
3631.304, 7.124001
3633.233, 0.6052491
3635.161, -1.003084
3637.090, 3.039267
3639.018, 1.331954
3640.947, -6.937658
3642.875, -7.111633
3644.804, -5.698639
3646.732, 3.338248
3648.661, 1.475074
3650.589, -5.656354
3652.518, -9.940036
3654.446, -11.15003
3656.375, -4.757587
3658.303, 1.317294
3660.231, 8.011602
3662.160, 5.261257
3664.088, -0.6820818
3666.017, 2.538663
3667.945, 0.9081097
3669.874, -6.335928
3671.802, 2.041261
3673.731, 3.353415
3675.659, -1.965883
3677.588, -2.166844
3679.516, 3.380301
3681.445, 5.315252
3683.373, -5.685764
3685.302, -6.529365
3687.230, 2.477206
3689.158, 7.692872
3691.087, 2.958379
3693.015, 10.12485
3694.944, 0.5477402
3696.872, -2.474232
3698.801, 6.479103
3700.729, 9.149831
3702.658, -2.957952
3704.586, -9.271378
3706.515, -5.249847
3708.443, 7.412177
3710.372, 4.350833
3712.300, 6.008663
3714.229, 9.800253
3716.157, 1.501048
3718.085, 0.9728398
3720.014, 6.257525
3721.942, 1.780924
3723.871, -1.874813
3725.799, -6.720109
3727.728, -9.427614
3729.656, -2.911415
3731.585, -3.109809
3733.513, 2.083323
3735.442, 6.063372
3737.370, 4.895390
3739.299, 1.970415
3741.227, -7.5409278E-02
3743.156, -2.476137
3745.084, -8.612031
3747.012, -1.592878
3748.941, -3.646348
3750.869, -5.258497
3752.798, 5.139077
3754.726, 15.03285
3756.655, 5.969968
3758.583, 8.216038
3760.512, -0.1500589
3762.440, -11.22064
3764.369, -12.29896
3766.297, -2.684259
3768.226, 3.215786
3770.154, -1.887558
3772.083, 5.451022
3774.011, 7.516146
3775.939, -1.892505
3777.868, -2.710102
3779.796, -1.905944
3781.725, -5.150974
3783.653, -6.771952
3785.582, -0.4371937
3787.510, -1.214110
3789.439, 0.8085401
3791.367, -0.4007168
3793.296, -0.1320821
3795.224, -2.500055
3797.153, -2.818541
3799.081, 7.247345
3801.010, -0.6008602
3802.938, -13.58595
3804.866, -6.892832
3806.795, -6.834130
3808.723, -3.447801
3810.652, -0.5914184
3812.580, -2.615827
3814.509, 5.867777
3816.437, -16.80617
3818.366, -10.52446
3820.294, -7.932035
3822.223, -1.751804
3824.151, 2.545970
3826.080, 2.534547
3828.008, 2.675803
3829.937, 2.597266
3831.865, -1.867685
3833.793, -1.796149
3835.722, 0.9184093
3837.650, -2.011467
3839.579, -1.406928
3841.507, 2.175958
3843.436, 3.367785
3845.364, 7.913232
3847.293, -1.486967
3849.221, 0.5786471
3851.150, 0.7510614
3853.078, -0.4657911
3855.007, -6.511297
3856.935, -8.458932
3858.864, -0.1415022
3860.792, 6.343914
3862.720, -4.159396
3864.649, -0.4753612
3866.577, 5.047141
3868.506, 6.040533
3870.434, -0.4175636
3872.363, -8.005616
3874.291, -9.769548
3876.220, -4.960155
3878.148, 3.626318
3880.077, -10.80203
3882.005, 0.1314729
3883.934, 5.234650
3885.862, -2.773036
3887.791, -1.914064
3889.719, 0.1502113
3891.647, -4.673986
3893.576, -0.2862116
3895.504, -7.0072867E-02
3897.433, 3.699372
3899.361, -12.06701
3901.290, -4.909716
3903.218, 12.69968
3905.147, -0.7818107
3907.075, -12.40678
3909.004, 1.212252
3910.932, -1.975393
3912.861, 4.845372
3914.789, -0.6914555
3916.718, 3.054941
3918.646, 1.492841
3920.574, -0.5684247
3922.503, -2.302241
3924.431, -0.1347365
3926.360, -1.514643
3928.288, -14.83724
3930.217, -15.49956
3932.145, 0.3685606
3934.074, -11.59245
3936.002, -7.331375
3937.931, 6.408062
3939.859, 2.536315
3941.788, -3.604230
3943.716, 0.4882993
3945.645, 3.302961
3947.573, -3.983901
3949.501, -5.643993
3951.430, 0.7439547
3953.358, -3.116340
3955.287, 7.744783
3957.215, 0.9115846
3959.144, -6.090471
3961.072, -7.081568
3963.001, -10.32709
3964.929, -10.13918
3966.858, 1.533036
3968.786, -6.546519
3970.715, -0.9613025
3972.643, 0.8492965
3974.572, -7.202792
3976.500, -0.8641279
3978.428, -0.6173275
3980.357, -0.2664150
3982.285, -2.042279
3984.214, -4.071623
3986.142, 4.163446
3988.071, -4.381625
3989.999, 11.61519
3991.928, 4.318523
3993.856, 3.448403
3995.785, 8.074637
3997.713, 3.585222
3999.642, -7.1513467E-02
4001.570, -3.461859
4003.499, -7.878840
4005.427, -8.070102
4007.355, -2.627136
4009.284, 6.719556
4011.212, 16.93279
4013.141, 4.202690
4015.069, -0.8551364
4016.998, -10.80184
4018.926, -7.699143
4020.855, -2.393485
4022.783, -8.784510
4024.712, -6.863391
4026.640, -3.844952
4028.569, -11.80068
4030.497, 8.246766
4032.426, -3.514363
4034.354, -3.884203
4036.282, 8.521557
4038.211, 2.948935
4040.139, 7.376086
4042.068, -11.54408
4043.996, -13.30357
4045.925, -7.190864
4047.853, -8.692043
4049.782, -2.201375
4051.710, 8.199650
4053.639, -1.282300
4055.567, -1.473871
4057.496, -5.3934868E-02
4059.424, -1.361856
4061.353, -0.4390019
4063.281, 0.9050325
4065.209, 2.955138
4067.138, 1.386652
4069.066, -6.486456
4070.995, -7.549067
4072.923, -5.701553
4074.852, -2.932221
4076.780, 3.426712
4078.709, -4.924290
4080.637, -9.437723
4082.566, 2.283937
4084.494, -7.706819
4086.423, -4.467165
4088.351, 1.540684
4090.280, 3.233985
4092.208, 2.752422
4094.136, -9.857969
4096.065, -7.029187
4097.993, -2.031433
4099.922, -0.5853413
4101.850, 7.625709
4103.779, 11.30602
4105.707, 4.537725
4107.636, -6.998924
4109.564, 3.709402
4111.493, 3.682135
4113.421, -6.855902
4115.350, 4.683978
4117.278, -6.400808
4119.207, -0.4029092
4121.135, 9.133247
4123.063, 5.481460
4124.992, 1.550470
4126.920, -3.087249
4128.849, -7.857342
4130.777, -6.396516
4132.706, 0.7141665
4134.634, 6.232055
4136.563, -4.509134
4138.491, -8.431830
4140.419, -2.089607
4142.348, 1.159144
4144.276, 2.415033
4146.205, -8.534119
4148.133, -5.940771
4150.062, -4.035107
4151.990, 1.244696
4153.919, 1.526305
4155.847, -2.309287
4157.776, 1.164824
4159.704, -2.758424
4161.633, -6.666343
4163.561, 3.732507
4165.490, 7.852191
4167.418, 0.8154453
4169.347, 2.438743
4171.275, -4.341706
4173.204, -5.766549
4175.132, -7.275488
4177.061, -6.111262
4178.989, -4.956019
4180.917, 3.6593981E-02
4182.846, -7.985374
4184.774, 0.8232117
4186.703, -2.845911
4188.631, -7.746922
4190.560, -8.966529
4192.488, -8.852546
4194.417, -4.354142
4196.345, 3.270503
4198.273, 3.330379
4200.202, 1.588940
4202.130, 0.3008726
4204.059, -2.046049
4205.987, 3.397568
4207.916, -3.526734
4209.844, -8.647347
4211.773, -8.904241
4213.701, -10.35941
4215.630, -8.107428
4217.558, 3.033159
4219.487, 9.607610
4221.415, -7.874266
4223.344, 6.731758
4225.272, 13.05213
4227.201, 1.589558
4229.129, -7.737992
4231.058, -16.02479
4232.986, 5.5512551E-02
4234.915, 6.816269
4236.843, -7.127693
4238.771, -16.01719
4240.700, -4.128311
4242.628, 2.648044
4244.557, -3.561880
4246.485, -14.11597
4248.414, -11.24312
4250.342, 4.775519
4252.271, 6.590685
4254.199, 7.392177
4256.127, 0.5933667
4258.056, -8.586795
4259.984, -3.125766
4261.913, -13.92190
4263.841, -3.460226
4265.770, -13.79088
4267.698, 6.638695
4269.627, -2.283689
4271.555, -0.6768453
4273.484, 6.229513
4275.412, -6.831911
4277.341, 5.648801
4279.269, 1.438490
4281.198, 12.58862
4283.126, 0.6624490
4285.055, -2.698511
4286.983, 5.492331
4288.912, -4.787210
4290.840, 0.9395589
4292.769, -4.956140
4294.697, -1.660776
4296.625, -0.6372248
4298.554, 8.575045
4300.482, -1.915456
4302.411, -8.392141
4304.339, 0.3147371
4306.268, 3.794870
4308.196, 4.331974
4310.125, -4.576735
4312.053, 2.635242
4313.981, 4.820559
4315.910, -14.43432
4317.838, -10.12391
4319.767, 0.1344211
4321.695, 0.8572834
4323.624, -0.2970443
4325.552, -9.317479
4327.481, -9.361039
4329.409, -2.572386
4331.338, 8.048442
4333.266, 0.8130069
4335.195, -6.068823
##END=



