##NAMES=Tourmaline
##RRUFFID=R110132
##IDEAL CHEMISTRY=
##LOCALITY=Blue Mountain Saddle, King County, Washington, USA
##OWNER=RRUFF
##SOURCE=Bart Cannon
##DESCRIPTION=Sprays of green parallel acicular crystals
##STATUS=The identification of this mineral has been confirmed only by single crystal X-ray diffraction
##URL=https://www.rruff.net/odr/rruff_sample/R110132
##DIFFRACTION SAMPLE DESCRIPTION=Single crystal, powder profile is calculated
##CELL PARAMETERS=a: 16 b: 16 c: 7.229 alpha: 90 beta: 90 gamma: 120 volume: 1602.5 crystal system: hexagonal
##FILETYPE=Raman Processed
##RAMAN WAVELENGTH=532

179.0960, 129.1577
181.0245, 133.7369
182.9530, 138.1207
184.8814, 142.2643
186.8099, 146.3292
188.7384, 150.4883
190.6668, 154.2692
192.5953, 158.7296
194.5238, 164.2995
196.4522, 170.8105
198.3807, 177.4272
200.3092, 183.9667
202.2376, 190.6201
204.1661, 197.5785
206.0946, 205.1849
208.0230, 212.5496
209.9515, 219.5441
211.8800, 226.2341
213.8084, 232.1379
215.7369, 237.8043
217.6654, 242.6319
219.5938, 245.8513
221.5223, 247.4157
223.4508, 247.8699
225.3792, 247.4024
227.3077, 245.9125
229.2362, 244.0462
231.1646, 241.6513
233.0931, 239.1461
235.0216, 236.7801
236.9500, 234.9278
238.8785, 232.2437
240.8070, 228.1839
242.7354, 222.8189
244.6639, 217.6034
246.5924, 212.6833
248.5208, 208.0060
250.4493, 203.4782
252.3778, 198.9735
254.3062, 194.8428
256.2347, 191.2587
258.1632, 188.1811
260.0916, 185.2792
262.0201, 182.5715
263.9486, 179.8319
265.8770, 176.9897
267.8055, 174.0030
269.7340, 171.0818
271.6624, 168.2608
273.5909, 165.4558
275.5194, 162.6017
277.4478, 159.6921
279.3763, 156.8465
281.3048, 153.9417
283.2332, 150.9414
285.1617, 148.2460
287.0902, 146.0786
289.0186, 144.3136
290.9471, 142.9624
292.8756, 142.1581
294.8040, 141.6267
296.7325, 141.2456
298.6610, 141.0251
300.5894, 141.3494
302.5179, 142.4846
304.4464, 143.9661
306.3748, 145.5358
308.3033, 147.3142
310.2318, 148.7099
312.1602, 149.3985
314.0887, 149.5177
316.0172, 149.4714
317.9456, 148.8753
319.8741, 148.3418
321.8026, 148.2115
323.7310, 148.4772
325.6595, 149.2088
327.5880, 150.2736
329.5164, 151.8966
331.4449, 154.6655
333.3734, 158.7396
335.3018, 163.4033
337.2303, 168.5698
339.1588, 174.2354
341.0872, 180.0117
343.0157, 185.4883
344.9442, 191.5701
346.8727, 199.0826
348.8011, 208.0322
350.7296, 217.5928
352.6581, 228.0983
354.5865, 239.0199
356.5150, 248.2990
358.4435, 255.9352
360.3719, 261.2592
362.3004, 263.7879
364.2289, 263.6560
366.1573, 261.0594
368.0858, 255.5760
370.0143, 248.3328
371.9427, 240.3335
373.8712, 231.7854
375.7997, 223.3598
377.7281, 215.4296
379.6566, 208.1342
381.5851, 201.7280
383.5135, 196.3019
385.4420, 191.2843
387.3705, 186.3646
389.2989, 181.4718
391.2274, 177.1179
393.1559, 173.4914
395.0843, 170.4733
397.0128, 168.0633
398.9413, 166.1930
400.8697, 164.3915
402.7982, 162.6777
404.7267, 161.1307
406.6551, 159.6889
408.5836, 157.9535
410.5121, 156.2457
412.4405, 154.8401
414.3690, 153.9602
416.2975, 153.0326
418.2259, 151.9079
420.1544, 150.6695
422.0829, 149.4523
424.0113, 148.1308
425.9398, 146.9975
427.8683, 146.2188
429.7967, 145.6544
431.7252, 144.9433
433.6537, 143.9088
435.5821, 142.9458
437.5106, 142.2559
439.4391, 142.2793
441.3675, 142.2756
443.2960, 141.7926
445.2245, 141.1102
447.1529, 140.7400
449.0814, 141.1593
451.0099, 141.6767
452.9383, 142.1752
454.8668, 142.5650
456.7953, 142.8381
458.7237, 142.9035
460.6522, 142.9380
462.5807, 143.0097
464.5091, 143.1488
466.4376, 143.3840
468.3661, 143.5847
470.2945, 143.8988
472.2230, 144.4555
474.1515, 145.3742
476.0799, 146.5068
478.0084, 147.8531
479.9369, 149.2906
481.8653, 150.6184
483.7938, 151.8350
485.7223, 153.2373
487.6507, 155.1378
489.5792, 157.1444
491.5077, 158.9328
493.4361, 160.5646
495.3646, 162.1211
497.2931, 163.4538
499.2215, 164.6461
501.1500, 165.7234
503.0785, 166.5326
505.0069, 167.2902
506.9354, 167.8022
508.8639, 167.8395
510.7923, 167.8127
512.7208, 167.8782
514.6493, 167.9684
516.5778, 167.7533
518.5062, 167.0324
520.4347, 166.1735
522.3632, 165.2198
524.2916, 164.3049
526.2201, 163.7632
528.1486, 163.8553
530.0770, 164.0098
532.0055, 163.9451
533.9340, 163.5307
535.8624, 162.9619
537.7909, 162.4101
539.7194, 161.7741
541.6478, 160.7016
543.5763, 158.9416
545.5048, 157.2107
547.4332, 155.7408
549.3617, 154.4021
551.2902, 152.8212
553.2186, 150.6848
555.1471, 148.8546
557.0756, 147.6564
559.0040, 146.9680
560.9325, 146.2014
562.8610, 145.1136
564.7894, 144.2217
566.7179, 143.8938
568.6464, 144.3199
570.5748, 144.4241
572.5033, 143.8914
574.4318, 143.3423
576.3602, 143.2313
578.2887, 143.5208
580.2172, 143.8758
582.1456, 144.2794
584.0741, 144.7209
586.0026, 145.1098
587.9310, 145.2136
589.8595, 145.5106
591.7880, 146.2845
593.7164, 147.2677
595.6449, 147.9498
597.5734, 148.0378
599.5018, 148.2556
601.4303, 148.8757
603.3588, 149.8110
605.2872, 150.5943
607.2157, 150.8731
609.1442, 151.3923
611.0726, 152.6083
613.0011, 154.5114
614.9296, 156.1938
616.8580, 157.1770
618.7865, 158.1938
620.7150, 159.7488
622.6434, 161.9540
624.5719, 164.2703
626.5004, 166.5150
628.4288, 168.9388
630.3573, 171.8180
632.2858, 175.4765
634.2142, 178.9818
636.1427, 182.2110
638.0712, 185.2577
639.9996, 188.2914
641.9281, 191.3451
643.8566, 194.2238
645.7850, 197.0561
647.7135, 199.6678
649.6420, 201.6122
651.5704, 202.6020
653.4989, 203.3063
655.4274, 203.7511
657.3558, 203.9862
659.2843, 204.1948
661.2128, 204.4176
663.1412, 204.6018
665.0697, 204.5283
666.9982, 204.1019
668.9266, 204.4287
670.8551, 206.0876
672.7836, 207.8904
674.7120, 209.2059
676.6405, 210.0456
678.5690, 210.7030
680.4974, 210.7894
682.4259, 211.0397
684.3544, 211.8776
686.2828, 213.4535
688.2113, 215.5394
690.1398, 218.4849
692.0682, 221.7619
693.9967, 225.1949
695.9252, 229.0225
697.8536, 231.2920
699.7821, 231.3981
701.7106, 230.2692
703.6390, 228.2077
705.5675, 224.8876
707.4960, 221.0234
709.4244, 216.5339
711.3529, 211.7103
713.2814, 206.8165
715.2098, 201.6987
717.1383, 196.7999
719.0668, 192.1103
720.9952, 187.7332
722.9237, 183.8467
724.8522, 180.3352
726.7806, 177.5238
728.7091, 175.8261
730.6376, 174.7686
732.5660, 173.7557
734.4945, 172.7747
736.4230, 171.8361
738.3514, 170.8624
740.2799, 169.9777
742.2084, 169.2112
744.1368, 168.6305
746.0653, 167.9595
747.9938, 166.9890
749.9222, 165.8476
751.8507, 164.8901
753.7792, 164.3825
755.7076, 163.8511
757.6361, 163.0697
759.5646, 162.1268
761.4930, 161.4093
763.4215, 160.9360
765.3500, 160.5459
767.2784, 160.1872
769.2069, 159.9917
771.1354, 159.9409
773.0638, 160.2052
774.9923, 160.2999
776.9208, 160.1832
778.8492, 159.9688
780.7777, 159.7253
782.7062, 159.4141
784.6346, 159.1142
786.5631, 158.9582
788.4916, 158.9190
790.4200, 158.6429
792.3485, 157.7743
794.2770, 156.8856
796.2054, 156.5166
798.1339, 156.6281
800.0624, 156.5141
801.9908, 156.0167
803.9193, 155.5489
805.8478, 155.3754
807.7762, 155.2065
809.7047, 154.9414
811.6332, 154.4777
813.5616, 154.3191
815.4901, 154.5825
817.4186, 154.7876
819.3470, 154.6399
821.2755, 154.1741
823.2040, 153.7758
825.1324, 153.3324
827.0609, 152.5224
828.9894, 151.8136
830.9178, 151.4859
832.8463, 151.7863
834.7748, 152.4654
836.7032, 152.6731
838.6317, 152.4985
840.5602, 152.1861
842.4886, 152.3506
844.4171, 152.2708
846.3456, 152.7007
848.2740, 152.5589
850.2025, 152.6858
852.1310, 153.1067
854.0594, 153.3227
855.9879, 153.2856
857.9164, 153.1145
859.8448, 152.8163
861.7733, 152.5070
863.7018, 152.4864
865.6302, 152.6635
867.5587, 152.8031
869.4872, 152.8305
871.4156, 152.6781
873.3441, 152.2705
875.2726, 151.9187
877.2010, 151.7570
879.1295, 151.8369
881.0580, 152.1816
882.9865, 152.8759
884.9149, 153.3076
886.8434, 153.3506
888.7719, 153.2159
890.7003, 153.2872
892.6288, 153.5628
894.5573, 153.7540
896.4857, 153.9031
898.4142, 154.1150
900.3427, 154.5020
902.2711, 155.1384
904.1996, 156.1112
906.1281, 156.9776
908.0565, 157.4778
909.9850, 157.6706
911.9135, 157.7626
913.8419, 158.0247
915.7704, 158.5519
917.6989, 159.2385
919.6273, 159.8285
921.5558, 160.2255
923.4843, 160.6491
925.4127, 161.0221
927.3412, 161.2372
929.2697, 161.6018
931.1981, 162.3848
933.1266, 163.4857
935.0551, 164.7112
936.9835, 165.9486
938.9120, 166.8691
940.8405, 167.5678
942.7689, 168.4899
944.6974, 169.8968
946.6259, 171.1969
948.5543, 172.1632
950.4828, 172.9381
952.4113, 173.7486
954.3397, 174.7125
956.2682, 175.6402
958.1967, 176.6404
960.1251, 177.8248
962.0536, 179.1193
963.9821, 180.1982
965.9105, 180.9847
967.8390, 182.0447
969.7675, 183.4546
971.6959, 184.9995
973.6244, 186.2040
975.5529, 187.3120
977.4813, 188.5684
979.4098, 189.6560
981.3383, 190.5510
983.2667, 191.4797
985.1952, 192.5214
987.1237, 193.4843
989.0521, 194.7655
990.9806, 196.6422
992.9091, 198.7128
994.8375, 200.4803
996.7660, 202.0316
998.6945, 204.0249
1000.623, 206.3180
1002.551, 208.5636
1004.480, 210.5804
1006.408, 212.5325
1008.337, 214.7128
1010.265, 217.0138
1012.194, 218.8688
1014.122, 220.1676
1016.051, 220.9632
1017.979, 221.3345
1019.908, 221.0701
1021.836, 220.4704
1023.765, 219.6408
1025.693, 218.7315
1027.621, 217.5017
1029.550, 216.0113
1031.478, 214.6533
1033.407, 213.5126
1035.335, 212.2240
1037.264, 210.4578
1039.192, 208.8214
1041.121, 207.9068
1043.049, 207.3789
1044.978, 206.7089
1046.906, 205.8288
1048.835, 205.1814
1050.763, 204.8562
1052.692, 204.5090
1054.620, 204.1057
1056.548, 203.7310
1058.477, 203.2879
1060.405, 202.6004
1062.334, 201.8841
1064.262, 201.2625
1066.191, 200.5978
1068.119, 199.8332
1070.048, 199.0696
1071.976, 198.3026
1073.905, 197.2654
1075.833, 195.9918
1077.762, 194.5789
1079.690, 192.9675
1081.619, 191.2766
1083.547, 189.4736
1085.475, 187.7579
1087.404, 186.4783
1089.332, 185.8727
1091.261, 185.4176
1093.189, 185.0147
1095.118, 184.4173
1097.046, 183.8718
1098.975, 183.3691
1100.903, 182.7742
1102.832, 181.9831
1104.760, 181.3696
1106.689, 180.8954
1108.617, 180.4329
1110.546, 180.0307
1112.474, 179.9198
1114.402, 179.5679
1116.331, 178.5913
1118.259, 177.7077
1120.188, 177.4531
1122.116, 177.8105
1124.045, 177.9882
1125.973, 177.9098
1127.902, 177.8083
1129.830, 177.5784
1131.759, 177.2210
1133.687, 177.0051
1135.616, 177.0263
1137.544, 177.0449
1139.473, 177.0609
1141.401, 177.1151
1143.329, 177.0897
1145.258, 176.8535
1147.186, 176.7189
1149.115, 176.8101
1151.043, 177.0286
1152.972, 177.1600
1154.900, 177.1821
1156.829, 177.3174
1158.757, 177.6978
1160.686, 178.0128
1162.614, 178.0194
1164.543, 177.8391
1166.471, 177.8852
1168.400, 178.2882
1170.328, 178.7812
1172.256, 179.3732
1174.185, 179.8809
1176.113, 180.1686
1178.042, 180.2089
1179.970, 180.2831
1181.899, 180.2196
1183.827, 180.2839
1185.756, 180.8267
1187.684, 181.7262
1189.613, 182.2410
1191.541, 182.1995
1193.470, 182.2661
1195.398, 182.7149
1197.327, 183.3390
1199.255, 183.9556
1201.183, 184.5607
1203.112, 185.1081
1205.040, 185.5166
1206.969, 185.9077
1208.897, 186.2933
1210.826, 186.6558
1212.754, 187.0310
1214.683, 187.5542
1216.611, 187.9215
1218.540, 187.8937
1220.468, 187.9336
1222.397, 188.5429
1224.325, 189.6961
1226.254, 190.6520
1228.182, 191.2025
1230.110, 191.7788
1232.039, 192.6138
1233.967, 193.5164
1235.896, 194.1891
1237.824, 194.5499
1239.753, 194.8615
1241.681, 195.2544
1243.610, 195.5562
1245.538, 195.5795
1247.467, 195.3439
1249.395, 195.4269
1251.324, 196.2296
1253.252, 196.8658
1255.181, 197.0008
1257.109, 197.0260
1259.037, 197.4128
1260.966, 198.1179
1262.894, 198.6505
1264.823, 198.8100
1266.751, 198.9900
1268.680, 199.4024
1270.608, 199.9993
1272.537, 200.5277
1274.465, 200.8879
1276.394, 201.2095
1278.322, 201.6484
1280.251, 202.1535
1282.179, 202.4765
1284.108, 202.5237
1286.036, 202.7951
1287.964, 203.4395
1289.893, 204.1162
1291.821, 204.7577
1293.750, 205.3656
1295.678, 205.9325
1297.607, 206.5741
1299.535, 207.2176
1301.464, 207.6301
1303.392, 208.0472
1305.321, 208.7390
1307.249, 209.6564
1309.178, 210.4561
1311.106, 211.2471
1313.035, 211.8025
1314.963, 211.7815
1316.891, 211.7178
1318.820, 212.0864
1320.748, 212.7039
1322.677, 213.1227
1324.605, 213.1792
1326.534, 213.3541
1328.462, 213.8053
1330.391, 214.4452
1332.319, 215.1552
1334.248, 215.8373
1336.176, 216.1343
1338.105, 215.7940
1340.033, 215.6157
1341.962, 216.0293
1343.890, 216.6815
1345.818, 216.8880
1347.747, 216.5323
1349.675, 216.4864
1351.604, 217.1309
1353.532, 217.8973
1355.461, 218.4939
1357.389, 218.7274
1359.318, 218.8769
1361.246, 219.1477
1363.175, 219.2807
1365.103, 219.0840
1367.032, 218.9165
1368.960, 219.0393
1370.889, 219.3166
1372.817, 219.4949
1374.745, 219.5441
1376.674, 219.6873
1378.602, 219.8132
1380.531, 220.0328
1382.459, 220.6231
1384.388, 221.7002
1386.316, 222.2822
1388.245, 221.8497
1390.173, 221.5096
1392.102, 221.4496
1394.030, 221.5053
1395.959, 221.5171
1397.887, 221.5754
1399.816, 221.8402
1401.744, 222.4203
1403.672, 222.8883
1405.601, 223.2438
1407.529, 223.4382
1409.458, 223.2879
1411.386, 222.7564
1413.315, 222.3510
1415.243, 222.0973
1417.172, 221.8711
1419.100, 221.4584
1421.029, 221.2080
1422.957, 221.6366
1424.886, 222.8421
1426.814, 223.6468
1428.743, 223.4576
1430.671, 223.3238
1432.599, 223.7587
1434.528, 224.5045
1436.456, 225.2074
1438.385, 225.8114
1440.313, 226.0548
1442.242, 225.5581
1444.170, 225.1367
1446.099, 224.9675
1448.027, 225.0723
1449.956, 225.5459
1451.884, 226.5240
1453.813, 226.9138
1455.741, 226.3372
1457.670, 225.9344
1459.598, 225.9210
1461.526, 226.0398
1463.455, 226.0799
1465.383, 226.2408
1467.312, 226.7874
1469.240, 227.7062
1471.169, 228.4187
1473.097, 228.8935
1475.026, 229.3273
1476.954, 229.7067
1478.883, 229.8771
1480.811, 230.0216
1482.740, 230.2555
1484.668, 230.5083
1486.597, 231.0134
1488.525, 231.4831
1490.453, 231.4066
1492.382, 230.8974
1494.310, 231.0928
1496.239, 232.4087
1498.167, 233.6106
1500.096, 234.0950
1502.024, 234.4143
1503.953, 234.8840
1505.881, 235.3961
1507.810, 235.6849
1509.738, 235.8600
1511.667, 235.9663
1513.595, 236.1656
1515.524, 236.4504
1517.452, 236.5482
1519.380, 236.5340
1521.309, 236.9745
1523.237, 238.3426
1525.166, 239.2977
1527.094, 239.4209
1529.023, 239.4011
1530.951, 239.4198
1532.880, 239.6017
1534.808, 240.2060
1536.737, 241.4664
1538.665, 242.1461
1540.594, 241.8814
1542.522, 241.6672
1544.451, 241.6082
1546.379, 241.8596
1548.307, 242.8374
1550.236, 244.5734
1552.164, 245.4518
1554.093, 244.6236
1556.021, 244.3356
1557.950, 245.7901
1559.878, 247.4786
1561.807, 247.9774
1563.735, 247.5802
1565.664, 247.7825
1567.592, 248.8629
1569.521, 249.6087
1571.449, 249.5220
1573.378, 249.3031
1575.306, 249.2016
1577.234, 249.2860
1579.163, 249.7473
1581.091, 250.6107
1583.020, 251.1795
1584.948, 251.2703
1586.877, 251.2872
1588.805, 251.0654
1590.734, 251.1496
1592.662, 252.2800
1594.591, 254.2079
1596.519, 255.4679
1598.448, 255.7803
1600.376, 256.0021
1602.305, 256.2670
1604.233, 256.4948
1606.161, 256.6042
1608.090, 256.6617
1610.018, 256.9034
1611.947, 257.3874
1613.875, 257.5380
1615.804, 257.2369
1617.732, 256.7564
1619.661, 256.1623
1621.589, 255.5474
1623.518, 254.9787
1625.446, 254.4788
1627.375, 254.1864
1629.303, 254.1501
1631.232, 254.1019
1633.160, 254.0112
1635.089, 253.7417
1637.017, 252.9241
1638.945, 251.9306
1640.874, 251.7941
1642.802, 252.7543
1644.731, 253.0733
1646.659, 252.2063
1648.588, 251.4310
1650.516, 251.1447
1652.445, 251.0963
1654.373, 251.1236
1656.302, 251.1972
1658.230, 251.1324
1660.159, 250.7691
1662.087, 250.6424
1664.016, 251.0823
1665.944, 251.4375
1667.872, 251.3161
1669.801, 251.0704
1671.729, 251.2784
1673.658, 252.0227
1675.586, 252.3056
1677.515, 251.9136
1679.443, 251.5125
1681.372, 251.0184
1683.300, 250.7629
1685.229, 251.0477
1687.157, 251.6495
1689.086, 252.1338
1691.014, 252.4994
1692.943, 252.5829
1694.871, 251.8928
1696.799, 251.6406
1698.728, 252.5283
1700.656, 253.4897
1702.585, 253.7103
1704.513, 253.4326
1706.442, 253.4300
1708.370, 253.8526
1710.299, 254.0623
1712.227, 253.6677
1714.156, 253.5497
1716.084, 254.1229
1718.013, 254.8408
1719.941, 255.2599
1721.870, 255.4182
1723.798, 255.4724
1725.726, 255.2678
1727.655, 255.5148
1729.583, 257.0709
1731.512, 258.0011
1733.440, 257.1966
1735.369, 256.0404
1737.297, 255.7302
1739.226, 256.1858
1741.154, 256.9504
1743.083, 258.1803
1745.011, 259.1725
1746.940, 259.8284
1748.868, 260.2452
1750.797, 260.3390
1752.725, 260.2611
1754.653, 260.0617
1756.582, 259.7698
1758.510, 259.6172
1760.439, 259.5976
1762.367, 259.7709
1764.296, 260.4086
1766.224, 260.8636
1768.153, 260.7760
1770.081, 260.6266
1772.010, 260.8160
1773.938, 261.2853
1775.867, 261.7660
1777.795, 262.2452
1779.724, 262.8550
1781.652, 263.9114
1783.580, 264.4447
1785.509, 263.3669
1787.437, 262.3642
1789.366, 262.6930
1791.294, 263.9196
1793.223, 265.2450
1795.151, 266.6680
1797.080, 267.3976
1799.008, 267.1687
1800.937, 266.7638
1802.865, 266.1762
1804.794, 265.8201
1806.722, 266.1891
1808.651, 266.8524
1810.579, 267.0682
1812.507, 266.9046
1814.436, 267.1782
1816.364, 268.1182
1818.293, 268.7127
1820.221, 268.3961
1822.150, 268.1171
1824.078, 268.3127
1826.007, 268.8320
1827.935, 269.6849
1829.864, 270.7640
1831.792, 271.6228
1833.721, 272.3276
1835.649, 272.4481
1837.578, 271.3646
1839.506, 270.5998
1841.434, 270.7060
1843.363, 271.2104
1845.291, 271.8714
1847.220, 272.6033
1849.148, 273.2668
1851.077, 273.8648
1853.005, 274.2758
1854.934, 274.4112
1856.862, 274.5337
1858.791, 274.5550
1860.719, 274.7361
1862.648, 275.4538
1864.576, 276.2209
1866.505, 276.3783
1868.433, 276.0229
1870.361, 275.7757
1872.290, 275.5536
1874.218, 275.6485
1876.147, 276.3041
1878.075, 276.9489
1880.004, 277.5502
1881.932, 278.0467
1883.861, 278.2424
1885.789, 278.3716
1887.718, 279.0039
1889.646, 280.1110
1891.575, 280.2858
1893.503, 279.0240
1895.432, 278.4757
1897.360, 279.4727
1899.288, 280.3780
1901.217, 280.3989
1903.145, 280.3736
1905.074, 281.2169
1907.002, 282.4034
1908.931, 282.6415
1910.859, 282.0030
1912.788, 281.7241
1914.716, 281.8756
1916.645, 282.2946
1918.573, 283.1376
1920.502, 283.8095
1922.430, 283.7593
1924.359, 283.6712
1926.287, 284.4322
1928.215, 285.5889
1930.144, 285.9307
1932.072, 285.4572
1934.001, 285.1343
1935.929, 284.9551
1937.858, 285.0297
1939.786, 285.5638
1941.715, 286.0891
1943.643, 286.5704
1945.572, 286.8224
1947.500, 286.4454
1949.429, 285.7631
1951.357, 285.5916
1953.286, 285.9612
1955.214, 286.4550
1957.143, 287.3285
1959.071, 287.6974
1961.000, 286.9338
1962.928, 286.4698
1964.856, 286.9772
1966.785, 287.7279
1968.713, 288.3262
1970.642, 288.7843
1972.570, 289.0305
1974.499, 289.1088
1976.427, 289.2837
1978.356, 289.5110
1980.284, 290.2855
1982.213, 292.1861
1984.141, 293.4184
1986.070, 292.6250
1987.998, 291.7838
1989.927, 292.2216
1991.855, 293.1702
1993.783, 293.7139
1995.712, 293.9229
1997.640, 294.1263
1999.569, 294.3988
2001.497, 294.3715
2003.426, 293.6002
2005.354, 293.2680
2007.283, 294.0395
2009.211, 294.5080
2011.140, 293.4625
2013.068, 292.5539
2014.997, 293.5946
2016.925, 295.6011
2018.854, 296.4885
2020.782, 296.3333
2022.710, 296.5204
2024.639, 297.1979
2026.567, 297.4791
2028.496, 297.0150
2030.424, 296.7278
2032.353, 296.9586
2034.281, 297.3080
2036.210, 297.6306
2038.138, 297.8828
2040.067, 297.9695
2041.995, 297.9662
2043.924, 297.9864
2045.852, 298.0311
2047.781, 298.5528
2049.709, 300.0043
2051.637, 300.6790
2053.566, 299.7297
2055.494, 299.0876
2057.423, 299.3191
2059.351, 299.8067
2061.280, 300.3288
2063.208, 300.9101
2065.137, 301.8414
2067.065, 302.8159
2068.994, 302.6891
2070.922, 301.5226
2072.851, 301.0628
2074.779, 301.4613
2076.708, 301.6757
2078.636, 301.2653
2080.564, 301.2272
2082.493, 302.3804
2084.421, 303.2384
2086.350, 302.6883
2088.278, 301.8633
2090.207, 301.8903
2092.135, 302.4475
2094.064, 302.9268
2095.992, 303.3324
2097.921, 303.4439
2099.849, 302.9404
2101.778, 303.0271
2103.706, 304.0782
2105.635, 304.9283
2107.563, 305.3997
2109.491, 305.6967
2111.420, 306.0741
2113.348, 306.1647
2115.277, 305.3947
2117.205, 304.5074
2119.134, 304.4844
2121.062, 305.0925
2122.991, 305.7492
2124.919, 306.4103
2126.848, 306.8759
2128.776, 307.0724
2130.705, 307.1684
2132.633, 307.0419
2134.562, 307.0000
2136.490, 307.0239
2138.418, 307.2629
2140.347, 308.0401
2142.275, 308.8292
2144.204, 309.2220
2146.132, 309.3726
2148.061, 309.4144
2149.989, 309.4245
2151.918, 309.7706
2153.846, 309.9661
2155.775, 310.2524
2157.703, 310.7563
2159.632, 310.9235
2161.560, 311.5709
2163.489, 311.9343
2165.417, 311.5970
2167.345, 311.1492
2169.274, 310.6197
2171.202, 310.3255
2173.131, 310.7659
2175.059, 311.4389
2176.988, 311.4642
2178.916, 311.2031
2180.845, 311.9717
2182.773, 313.7335
2184.702, 314.6622
2186.630, 314.6022
2188.559, 314.6980
2190.487, 315.0780
2192.416, 315.4771
2194.344, 315.7594
2196.272, 316.1523
2198.201, 317.1002
2200.129, 317.7467
2202.058, 317.4487
2203.986, 316.8163
2205.915, 316.1503
2207.843, 315.7121
2209.772, 316.1969
2211.700, 317.3360
2213.629, 317.7938
2215.557, 317.5747
2217.486, 317.2753
2219.414, 316.8413
2221.343, 317.2368
2223.271, 319.0528
2225.199, 319.9800
2227.128, 318.7597
2229.056, 317.8087
2230.985, 318.1624
2232.913, 318.7954
2234.842, 319.2658
2236.770, 319.6454
2238.699, 319.9101
2240.627, 320.2140
2242.556, 320.9328
2244.484, 321.8725
2246.413, 322.2609
2248.341, 322.1530
2250.270, 322.1705
2252.198, 322.3171
2254.126, 322.7816
2256.055, 323.6454
2257.983, 324.4811
2259.912, 325.2976
2261.840, 325.8702
2263.769, 326.1649
2265.697, 326.1542
2267.626, 325.5698
2269.554, 324.9935
2271.483, 324.7932
2273.411, 324.8387
2275.340, 325.2426
2277.268, 325.7124
2279.197, 325.5685
2281.125, 325.1272
2283.053, 325.1857
2284.982, 325.7275
2286.910, 326.7623
2288.839, 328.4361
2290.767, 329.1494
2292.696, 328.0708
2294.624, 327.5136
2296.553, 327.8299
2298.481, 328.1667
2300.410, 328.5438
2302.338, 328.7743
2304.267, 328.7186
2306.195, 328.6834
2308.124, 328.6689
2310.052, 328.9554
2311.980, 330.1144
2313.909, 331.3804
2315.837, 331.6332
2317.766, 332.4703
2319.694, 332.8979
2321.623, 333.0693
2323.551, 333.4598
2325.480, 333.1376
2327.408, 333.1606
2329.337, 333.5531
2331.265, 333.8747
2333.194, 334.1347
2335.122, 333.9771
2337.051, 333.0765
2338.979, 332.6754
2340.907, 333.6890
2342.836, 334.3641
2344.764, 333.8823
2346.693, 333.5561
2348.621, 333.9424
2350.550, 334.6005
2352.478, 335.3461
2354.407, 336.0277
2356.335, 336.6374
2358.264, 336.9310
2360.192, 336.4964
2362.121, 335.6654
2364.049, 334.8888
2365.978, 334.3516
2367.906, 334.8420
2369.834, 336.3443
2371.763, 336.9976
2373.691, 336.6170
2375.620, 336.6412
2377.548, 337.1032
2379.477, 337.3870
2381.405, 337.2690
2383.334, 337.5634
2385.262, 338.7943
2387.191, 339.5058
2389.119, 338.9697
2391.048, 338.4894
2392.976, 338.4228
2394.905, 338.6077
2396.833, 338.9995
2398.761, 339.5745
2400.690, 340.4912
2402.618, 341.3260
2404.547, 341.6938
2406.475, 341.8237
2408.404, 341.9693
2410.332, 342.0576
2412.261, 341.9236
2414.189, 341.6884
2416.118, 341.6078
2418.046, 341.7049
2419.975, 342.1628
2421.903, 342.9286
2423.832, 342.6646
2425.760, 341.3990
2427.688, 342.1735
2429.617, 345.4995
2431.545, 346.9982
2433.474, 345.5027
2435.402, 344.4210
2437.331, 344.1616
2439.259, 344.2382
2441.188, 344.8891
2443.116, 345.3860
2445.045, 345.4532
2446.973, 345.6867
2448.902, 346.4295
2450.830, 347.0948
2452.759, 347.2868
2454.687, 347.4147
2456.615, 347.5974
2458.544, 347.9105
2460.472, 348.7897
2462.401, 349.4648
2464.329, 348.7257
2466.258, 347.8736
2468.186, 348.8724
2470.115, 348.5063
2472.043, 350.3249
2473.972, 349.4835
2475.900, 349.8275
2477.829, 350.9405
2479.757, 351.5559
2481.686, 351.7324
2483.614, 352.0490
2485.542, 352.4648
2487.471, 351.8460
2489.399, 352.1669
2491.328, 352.2367
2493.256, 351.7784
2495.185, 352.5110
2497.113, 351.7246
2499.042, 351.6842
2500.970, 352.6884
2502.899, 353.5070
2504.827, 353.9890
2506.756, 354.4809
2508.684, 355.1605
2510.613, 355.4074
2512.541, 354.7251
2514.469, 354.4541
2516.398, 355.7164
2518.326, 356.3191
2520.255, 354.8653
2522.183, 353.8582
2524.112, 354.4026
2526.040, 355.0641
2527.969, 355.1389
2529.897, 355.2697
2531.826, 355.8886
2533.754, 356.6385
2535.683, 357.3320
2537.611, 358.0287
2539.540, 358.8676
2541.468, 359.6346
2543.396, 360.1494
2545.325, 360.4138
2547.253, 360.0502
2549.182, 359.7324
2551.110, 360.6725
2553.039, 361.9263
2554.967, 361.7652
2556.896, 361.0614
2558.824, 361.9159
2560.753, 361.5001
2562.681, 363.0193
2564.610, 361.5141
2566.538, 360.7202
2568.467, 360.6175
2570.395, 361.2836
2572.323, 362.4806
2574.252, 362.9953
2576.180, 362.8697
2578.109, 363.0927
2580.037, 363.6092
2581.966, 363.4784
2583.894, 363.8389
2585.823, 364.2738
2587.751, 364.3155
2589.680, 365.2227
2591.608, 365.6877
2593.537, 366.1686
2595.465, 366.6132
2597.394, 367.2071
2599.322, 367.9504
2601.250, 368.3042
2603.179, 368.0913
2605.107, 368.3217
2607.036, 369.3222
2608.964, 370.2531
2610.893, 371.3536
2612.821, 371.6535
2614.750, 370.9026
2616.678, 370.2686
2618.607, 369.7588
2620.535, 370.1373
2622.464, 370.0366
2624.392, 369.8431
2626.321, 370.9882
2628.249, 369.8008
2630.177, 370.8109
2632.106, 371.4261
2634.034, 371.0918
2635.963, 370.6962
2637.891, 370.1569
2639.820, 370.3072
2641.748, 371.9068
2643.677, 373.2528
2645.605, 373.9095
2647.534, 374.5035
2649.462, 375.1853
2651.391, 375.6939
2653.319, 375.9430
2655.248, 375.9465
2657.176, 375.4410
2659.104, 375.0924
2661.033, 375.3549
2662.961, 375.3786
2664.890, 374.7785
2666.818, 374.4168
2668.747, 374.7516
2670.675, 375.1732
2672.604, 375.3462
2674.532, 375.7493
2676.461, 376.9568
2678.389, 377.6615
2680.318, 376.8337
2682.246, 376.6436
2684.175, 378.7144
2686.103, 379.9988
2688.031, 378.3835
2689.960, 377.1068
2691.888, 377.6085
2693.817, 378.4331
2695.745, 379.5350
2697.674, 380.1539
2699.602, 379.6723
2701.531, 379.2686
2703.459, 379.4597
2705.388, 379.7372
2707.316, 379.8768
2709.245, 380.0568
2711.173, 380.3190
2713.102, 380.5857
2715.030, 380.7573
2716.958, 381.0324
2718.887, 381.4863
2720.815, 382.0619
2722.744, 382.9658
2724.672, 383.6767
2726.601, 384.1474
2728.529, 384.2858
2730.458, 383.8257
2732.386, 383.5176
2734.315, 383.4775
2736.243, 383.8232
2738.172, 385.1289
2740.100, 385.7866
2742.029, 385.1259
2743.957, 384.6378
2745.885, 384.7763
2747.814, 385.2537
2749.742, 386.1868
2751.671, 387.2243
2753.599, 388.6036
2755.528, 389.3799
2757.456, 389.1215
2759.385, 388.9053
2761.313, 388.6955
2763.242, 389.1361
2765.170, 389.3996
2767.099, 389.7646
2769.027, 390.9597
2770.956, 390.7637
2772.884, 392.3941
2774.813, 392.9570
2776.741, 391.4010
2778.669, 390.5518
2780.598, 391.0582
2782.526, 391.2885
2784.455, 391.0654
2786.383, 391.5002
2788.312, 392.8366
2790.240, 393.3633
2792.169, 392.2815
2794.097, 392.7281
2796.026, 395.1725
2797.954, 395.7136
2799.883, 394.2505
2801.811, 393.1878
2803.740, 392.7132
2805.668, 392.4395
2807.596, 392.3810
2809.525, 392.3187
2811.453, 392.2507
2813.382, 392.0334
2815.310, 391.7500
2817.239, 391.9869
2819.167, 392.6757
2821.096, 393.5543
2823.024, 394.5104
2824.953, 394.9990
2826.881, 395.1140
2828.810, 394.9269
2830.738, 394.7184
2832.667, 395.3997
2834.595, 395.1228
2836.523, 396.1313
2838.452, 395.5354
2840.380, 396.1537
2842.309, 397.1349
2844.237, 397.4570
2846.166, 397.4359
2848.094, 396.9949
2850.023, 396.8650
2851.951, 398.5246
2853.880, 399.8738
2855.808, 398.8631
2857.737, 397.5613
2859.665, 397.3650
2861.594, 397.5144
2863.522, 397.6635
2865.450, 397.8866
2867.379, 398.0371
2869.307, 398.5877
2871.236, 400.4711
2873.164, 401.5365
2875.093, 400.3038
2877.021, 399.5376
2878.950, 399.8794
2880.878, 400.3077
2882.807, 400.5759
2884.735, 401.0208
2886.664, 402.2656
2888.592, 402.4376
2890.521, 401.2377
2892.449, 400.2655
2894.377, 399.5904
2896.306, 400.3083
2898.234, 402.7983
2900.163, 403.9243
2902.091, 403.6516
2904.020, 404.0190
2905.948, 404.8823
2907.877, 405.0472
2909.805, 404.8015
2911.734, 405.5915
2913.662, 405.8472
2915.591, 407.2270
2917.519, 407.0317
2919.448, 407.7156
2921.376, 408.4318
2923.304, 407.8287
2925.233, 406.7698
2927.161, 405.9942
2929.090, 405.6588
2931.018, 406.1712
2932.947, 406.7572
2934.875, 406.9848
2936.804, 406.9860
2938.732, 406.3849
2940.661, 406.3249
2942.589, 407.5341
2944.518, 408.4722
2946.446, 408.6385
2948.375, 408.4172
2950.303, 407.4224
2952.231, 407.2721
2954.160, 408.2900
2956.088, 408.9021
2958.017, 408.7805
2959.945, 409.0247
2961.874, 409.7460
2963.802, 410.1548
2965.731, 410.2599
2967.659, 409.9211
2969.588, 409.2915
2971.516, 408.8136
2973.445, 408.6613
2975.373, 409.8559
2977.302, 411.2973
2979.230, 410.5302
2981.158, 408.9910
2983.087, 408.0605
2985.015, 407.6931
2986.944, 408.1281
2988.872, 408.8268
2990.801, 409.7446
2992.729, 410.3893
2994.658, 410.1126
2996.586, 410.1665
2998.515, 411.0966
3000.443, 412.0822
3002.372, 413.1221
3004.300, 413.5114
3006.229, 413.0352
3008.157, 412.0464
3010.085, 410.4539
3012.014, 409.4444
3013.942, 409.0634
3015.871, 409.1589
3017.799, 409.6635
3019.728, 410.4149
3021.656, 411.2142
3023.585, 411.3269
3025.513, 411.0066
3027.442, 410.3591
3029.370, 409.9245
3031.299, 410.1738
3033.227, 411.2143
3035.156, 414.0594
3037.084, 416.2122
3039.012, 415.9734
3040.941, 415.0961
3042.869, 414.0432
3044.798, 412.9320
3046.726, 412.7801
3048.655, 411.2141
3050.583, 412.6479
3052.512, 413.5863
3054.440, 413.8306
3056.369, 414.0961
3058.297, 414.4118
3060.226, 415.0440
3062.154, 415.7679
3064.083, 415.2402
3066.011, 415.6515
3067.939, 414.5778
3069.868, 415.3323
3071.796, 415.0100
3073.725, 414.4047
3075.653, 414.5105
3077.582, 414.2615
3079.510, 412.4330
3081.439, 411.6516
3083.367, 414.1122
3085.296, 415.7642
3087.224, 415.3941
3089.153, 415.4791
3091.081, 416.2977
3093.010, 416.6062
3094.938, 416.2224
3096.866, 415.8808
3098.795, 415.6139
3100.723, 415.7654
3102.652, 416.2519
3104.580, 417.0450
3106.509, 417.7670
3108.437, 417.5793
3110.366, 417.3239
3112.294, 418.0277
3114.223, 418.4917
3116.151, 417.6666
3118.080, 417.0927
3120.008, 417.4512
3121.937, 417.7274
3123.865, 417.6862
3125.793, 417.8820
3127.722, 418.5916
3129.650, 418.1195
3131.579, 418.4762
3133.507, 416.8720
3135.436, 418.1418
3137.364, 417.4819
3139.293, 416.3411
3141.221, 418.3291
3143.150, 420.3699
3145.078, 418.6893
3147.007, 417.0042
3148.935, 418.3359
3150.864, 419.2300
3152.792, 418.3276
3154.720, 417.6307
3156.649, 417.7583
3158.577, 417.7917
3160.506, 417.6744
3162.434, 418.0591
3164.363, 418.7735
3166.291, 417.7897
3168.220, 416.0500
3170.148, 416.6132
3172.077, 418.2072
3174.005, 419.3583
3175.934, 420.0016
3177.862, 419.8304
3179.791, 419.5650
3181.719, 419.4429
3183.647, 419.6531
3185.576, 420.3000
3187.504, 421.0844
3189.433, 421.9738
3191.361, 422.3924
3193.290, 422.3067
3195.218, 422.2805
3197.147, 422.2910
3199.075, 422.4404
3201.004, 422.4691
3202.932, 421.8011
3204.861, 421.0550
3206.789, 420.3688
3208.718, 420.4557
3210.646, 420.1760
3212.574, 419.9222
3214.503, 420.8434
3216.431, 419.8598
3218.360, 421.1987
3220.288, 421.9097
3222.217, 422.0410
3224.145, 421.9391
3226.074, 421.7922
3228.002, 422.0335
3229.931, 422.4686
3231.859, 423.2489
3233.788, 423.4331
3235.716, 421.4845
3237.645, 420.1941
3239.573, 420.7256
3241.501, 421.5612
3243.430, 422.4897
3245.358, 423.3185
3247.287, 424.0405
3249.215, 424.3761
3251.144, 424.4262
3253.072, 424.6514
3255.001, 424.8527
3256.929, 424.3957
3258.858, 424.1856
3260.786, 425.3860
3262.715, 426.2331
3264.643, 425.5536
3266.572, 424.8749
3268.500, 424.2894
3270.428, 424.7411
3272.357, 424.6810
3274.285, 425.0334
3276.214, 425.6465
3278.142, 425.8918
3280.071, 426.6221
3281.999, 426.7837
3283.928, 426.8609
3285.856, 427.4483
3287.785, 427.8272
3289.713, 427.6652
3291.642, 427.5746
3293.570, 427.6895
3295.499, 428.1711
3297.427, 428.9709
3299.355, 429.2686
3301.284, 429.1245
3303.212, 428.6463
3305.141, 428.1621
3307.069, 428.5098
3308.998, 428.5195
3310.926, 426.8938
3312.855, 425.7977
3314.783, 425.9406
3316.712, 426.1346
3318.640, 426.1057
3320.569, 427.0408
3322.497, 428.7863
3324.426, 430.2397
3326.354, 431.0206
3328.282, 429.8678
3330.211, 428.5132
3332.139, 428.7789
3334.068, 429.1579
3335.996, 428.7365
3337.925, 429.2573
3339.853, 429.6841
3341.782, 430.0842
3343.710, 430.9321
3345.639, 430.9928
3347.567, 431.6034
3349.496, 431.1541
3351.424, 430.4357
3353.353, 430.1433
3355.281, 430.0687
3357.209, 430.0385
3359.138, 430.6320
3361.066, 432.3524
3362.995, 431.8866
3364.923, 429.0746
3366.852, 428.7382
3368.780, 430.0570
3370.709, 431.2570
3372.637, 432.1520
3374.566, 432.3443
3376.494, 432.3911
3378.423, 432.4532
3380.351, 432.5897
3382.280, 432.5953
3384.208, 433.7614
3386.136, 435.8615
3388.065, 436.3376
3389.993, 435.7987
3391.922, 435.4137
3393.850, 435.3824
3395.779, 436.2052
3397.707, 436.8476
3399.636, 436.8213
3401.564, 436.5627
3403.493, 436.0973
3405.421, 435.9814
3407.350, 436.2954
3409.278, 437.8925
3411.207, 439.8231
3413.135, 440.3761
3415.063, 440.6736
3416.992, 442.0627
3418.920, 442.3951
3420.849, 440.5616
3422.777, 440.1859
3424.706, 441.8133
3426.634, 443.3270
3428.563, 444.9273
3430.491, 447.5614
3432.420, 450.1869
3434.348, 451.5508
3436.277, 452.3583
3438.205, 452.6960
3440.134, 453.1719
3442.062, 453.7238
3443.990, 455.5817
3445.919, 458.6524
3447.847, 462.1659
3449.776, 465.7905
3451.704, 468.2871
3453.633, 471.6169
3455.561, 478.0242
3457.490, 483.6444
3459.418, 487.2648
3461.347, 492.0326
3463.275, 498.2187
3465.204, 503.9727
3467.132, 509.8913
3469.061, 517.4646
3470.989, 526.0122
3472.917, 535.0958
3474.846, 544.9208
3476.774, 554.7786
3478.703, 566.1114
3480.631, 576.3178
3482.560, 587.7003
3484.488, 600.0968
3486.417, 613.3997
3488.345, 627.1229
3490.274, 640.6603
3492.202, 654.9926
3494.131, 670.4018
3496.059, 687.0406
3497.988, 704.9427
3499.916, 722.6522
3501.844, 740.8488
3503.773, 761.9268
3505.701, 783.9090
3507.630, 804.7891
3509.558, 825.8076
3511.487, 847.6711
3513.415, 869.7367
3515.344, 892.0545
3517.272, 912.0525
3519.201, 929.9657
3521.129, 946.1710
3523.058, 961.3881
3524.986, 977.4965
3526.915, 990.2581
3528.843, 997.0667
3530.771, 1001.628
3532.700, 1004.055
3534.628, 1003.413
3536.557, 1000.888
3538.485, 1000.138
3540.414, 997.3049
3542.342, 987.9302
3544.271, 979.2246
3546.199, 973.7045
3548.128, 965.7795
3550.056, 955.4617
3551.985, 947.5055
3553.913, 940.5615
3555.842, 932.8754
3557.770, 923.9201
3559.698, 912.1796
3561.627, 901.7891
3563.555, 893.4736
3565.484, 884.2590
3567.412, 874.0616
3569.341, 863.9297
3571.269, 852.8431
3573.198, 839.4703
3575.126, 825.4879
3577.055, 811.8260
3578.983, 797.4586
3580.912, 782.2940
3582.840, 766.5489
3584.769, 750.2042
3586.697, 732.9084
3588.625, 714.9572
3590.554, 696.2791
3592.482, 677.2050
3594.411, 657.6974
3596.339, 638.1114
3598.268, 618.6808
3600.196, 600.8011
3602.125, 584.1431
3604.053, 568.1696
3605.982, 553.1484
3607.910, 538.6390
3609.839, 527.4567
3611.767, 517.0434
3613.696, 511.0898
3615.624, 502.0736
3617.552, 497.7461
3619.481, 494.9292
3621.409, 491.2659
3623.338, 488.9937
3625.266, 488.7984
3627.195, 488.3413
3629.123, 487.6531
3631.052, 487.6178
3632.980, 487.2336
3634.909, 485.3373
3636.837, 482.8362
3638.766, 479.9135
3640.694, 477.1688
3642.623, 474.5754
3644.551, 470.3245
3646.479, 465.7592
3648.408, 462.8176
3650.336, 459.9930
3652.265, 456.3610
3654.193, 454.0678
3656.122, 453.4358
3658.050, 452.4207
3659.979, 451.1548
3661.907, 449.5749
3663.836, 448.4925
3665.764, 448.5226
3667.693, 448.6541
3669.621, 448.6860
3671.550, 449.3868
3673.478, 450.4252
3675.406, 450.9073
3677.335, 451.3671
3679.263, 452.2213
3681.192, 452.9738
3683.120, 453.4913
3685.049, 454.3432
3686.977, 455.5144
3688.906, 457.3073
3690.834, 458.6914
3692.763, 457.9122
3694.691, 458.4035
3696.620, 460.8806
3698.548, 464.4815
3700.477, 468.8264
3702.405, 473.0185
3704.333, 477.0273
3706.262, 480.9981
3708.190, 484.2150
3710.119, 486.4790
3712.047, 488.1446
3713.976, 489.5155
3715.904, 491.8878
3717.833, 494.1185
3719.761, 495.9395
3721.690, 495.5770
3723.618, 495.4389
3725.547, 491.5918
3727.475, 491.6759
3729.404, 488.1305
3731.332, 483.7018
3733.260, 480.4290
3735.189, 477.0783
3737.117, 473.4576
3739.046, 469.3217
3740.974, 465.1369
3742.903, 462.4399
3744.831, 459.9466
3746.760, 455.9137
3748.688, 454.1634
3750.617, 455.1096
3752.545, 454.1181
3754.474, 451.7046
3756.402, 448.1661
3758.331, 445.9579
3760.259, 447.4732
3762.188, 448.6288
3764.116, 448.9910
3766.044, 448.6717
3767.973, 448.1183
3769.901, 448.3834
3771.830, 448.3000
3773.758, 446.9434
3775.687, 446.3817
3777.615, 446.6071
3779.544, 446.5918
3781.472, 446.4404
3783.401, 446.1206
3785.329, 445.9999
3787.258, 446.0594
3789.186, 447.1457
3791.115, 448.5852
3793.043, 447.4919
3794.971, 446.3711
3796.900, 447.8613
3798.828, 448.3583
3800.757, 446.6851
3802.685, 445.9108
3804.614, 446.0431
3806.542, 447.1152
3808.471, 448.6912
3810.399, 448.0058
3812.328, 450.7661
3814.256, 447.6480
3816.185, 447.4701
3818.113, 448.2914
3820.042, 447.6029
3821.970, 447.0670
3823.898, 447.2224
3825.827, 447.4957
3827.755, 447.8030
3829.684, 448.3329
3831.612, 448.3383
3833.541, 448.3312
3835.469, 448.7524
3837.398, 447.9814
3839.326, 448.8930
3841.255, 448.8966
3843.183, 447.9817
3845.112, 447.7310
3847.040, 447.3256
3848.969, 447.2893
3850.897, 447.1795
3852.825, 447.8033
3854.754, 449.2219
3856.682, 450.0207
3858.611, 450.0962
3860.539, 449.3990
3862.468, 448.5576
3864.396, 448.1620
3866.325, 450.0304
3868.253, 451.3052
3870.182, 450.5273
3872.110, 450.1756
3874.039, 450.1905
3875.967, 448.7024
3877.896, 447.3380
3879.824, 447.5247
3881.752, 448.3815
3883.681, 449.9432
3885.609, 450.2854
3887.538, 450.0828
3889.466, 450.4813
3891.395, 450.7326
3893.323, 450.5253
3895.252, 451.6235
3897.180, 451.6877
3899.109, 452.9761
3901.037, 452.3529
3902.966, 452.1405
3904.894, 452.0063
3906.823, 451.7766
3908.751, 451.1519
3910.679, 451.1915
3912.608, 451.4895
3914.536, 451.9289
3916.465, 452.7430
3918.393, 452.9372
3920.322, 453.9532
3922.250, 453.1771
3924.179, 452.7267
3926.107, 454.0491
3928.036, 453.3942
3929.964, 451.1621
3931.893, 450.8432
3933.821, 451.4067
3935.750, 452.3065
3937.678, 453.2316
3939.606, 454.0364
3941.535, 454.8502
3943.463, 455.2196
3945.392, 453.8154
3947.320, 453.0724
3949.249, 453.3947
3951.177, 454.1222
3953.106, 454.7218
3955.034, 454.9892
3956.963, 455.0428
3958.891, 455.0043
3960.820, 454.8084
3962.748, 454.5254
3964.677, 453.5963
3966.605, 453.9291
3968.533, 453.9936
3970.462, 454.1830
3972.390, 454.4932
3974.319, 454.2837
3976.247, 454.1307
3978.176, 454.9326
3980.104, 455.1368
3982.033, 454.5832
3983.961, 454.1197
3985.890, 453.8047
3987.818, 454.2878
3989.747, 454.5049
3991.675, 453.8885
3993.604, 452.7657
3995.532, 452.3162
3997.460, 454.3210
3999.389, 455.6388
4001.317, 455.6754
4003.246, 456.1634
4005.174, 456.3317
4007.103, 455.9971
4009.031, 454.2933
4010.960, 455.1151
4012.888, 454.9015
4014.817, 454.3282
4016.745, 455.1675
4018.674, 455.3808
4020.602, 455.4714
4022.531, 455.7701
4024.459, 455.9178
4026.387, 455.9879
4028.316, 456.1446
4030.244, 456.4898
4032.173, 456.5280
4034.101, 456.4424
4036.030, 456.6362
4037.958, 456.5318
4039.887, 456.4487
4041.815, 456.5316
4043.744, 456.5360
4045.672, 456.4843
4047.601, 456.7215
4049.529, 456.8792
4051.458, 457.0141
4053.386, 457.5012
4055.314, 457.5657
4057.243, 458.0957
4059.171, 457.8477
4061.100, 457.8655
4063.028, 457.8319
4064.957, 457.3835
4066.885, 457.5502
4068.814, 457.9132
4070.742, 457.6619
4072.671, 457.0594
4074.599, 457.0708
4076.528, 457.4654
4078.456, 457.2844
4080.385, 458.0597
4082.313, 458.0747
4084.241, 459.7216
4086.170, 458.5511
4088.098, 457.7957
4090.027, 458.1079
4091.955, 460.4775
4093.884, 461.6706
4095.812, 460.1142
4097.741, 459.2415
4099.669, 459.2208
4101.598, 459.3535
4103.526, 459.8277
4105.455, 461.1031
4107.383, 461.6074
4109.312, 461.5062
4111.240, 461.6183
4113.168, 461.2220
4115.097, 461.1640
4117.025, 461.4423
4118.954, 461.6000
4120.882, 462.1280
4122.811, 462.7310
4124.739, 462.8271
4126.668, 461.7054
4128.596, 460.7865
4130.525, 461.1297
4132.453, 462.1469
4134.382, 462.8301
4136.310, 462.5524
4138.239, 462.2474
4140.167, 462.9023
4142.096, 463.7237
4144.024, 463.6165
4145.953, 463.1480
4147.881, 463.0309
4149.810, 463.4516
4151.738, 463.9227
4153.667, 464.9106
4155.595, 465.3374
4157.523, 465.8749
4159.452, 466.5512
4161.380, 466.7531
4163.309, 467.2587
4165.237, 467.6764
4167.166, 467.1258
4169.094, 466.6008
4171.022, 466.7522
4172.951, 467.2348
4174.879, 467.7223
4176.808, 468.1010
4178.736, 466.6899
4180.665, 465.1689
4182.593, 465.6835
4184.522, 467.0884
4186.450, 469.0305
4188.379, 469.6494
4190.307, 469.5194
4192.236, 469.2858
4194.164, 468.3429
4196.093, 466.9855
4198.021, 467.3755
4199.950, 467.8906
4201.878, 466.4391
4203.807, 465.2782
4205.735, 464.7424
4207.664, 466.4437
4209.592, 467.9248
4211.521, 466.3255
4213.449, 465.7604
4215.377, 466.5499
4217.306, 466.3647
4219.234, 466.0582
4221.163, 466.4174
4223.091, 466.0745
4225.020, 465.9145
4226.948, 465.2776
4228.876, 465.3542
4230.805, 464.7855
4232.733, 464.4079
4234.662, 464.3695
4236.590, 465.2287
4238.519, 466.3080
4240.447, 467.4155
4242.376, 466.6743
4244.304, 465.1257
4246.233, 464.7616
4248.161, 465.2345
4250.090, 466.5311
4252.018, 467.3918
4253.947, 467.5039
4255.875, 465.9946
4257.804, 464.9565
4259.732, 464.8574
4261.661, 464.7238
4263.589, 464.5431
4265.518, 463.9096
4267.446, 465.0538
4269.375, 467.6482
4271.303, 467.7592
4273.231, 466.6791
4275.160, 464.5496
4277.088, 465.2385
4279.017, 467.5244
4280.945, 466.8530
4282.874, 466.0204
4284.802, 466.0601
4286.730, 466.2275
4288.659, 466.4778
4290.587, 467.0800
4292.516, 467.0557
4294.444, 466.2166
4296.373, 464.6738
4298.301, 463.7278
4300.230, 464.8099
4302.158, 465.9828
4304.087, 466.7825
4306.015, 465.5118
4307.944, 465.1010
4309.872, 464.8590
4311.801, 466.6533
4313.729, 464.0453
4315.658, 464.6455
4317.586, 464.6584
4319.515, 463.0747
4321.443, 463.9785
4323.372, 465.3600
4325.300, 464.7807
4327.229, 464.1621
4329.157, 463.8526
4331.085, 464.4776
4333.014, 465.0113
4334.942, 464.8838
4336.871, 464.4065
4338.799, 463.8234
4340.728, 463.5141
4342.656, 463.4913
4344.584, 463.7621
4346.513, 464.3607
4348.441, 464.9241
4350.370, 465.3661
4352.298, 464.2917
4354.227, 462.2372
4356.155, 462.2136
4358.084, 463.2802
4360.012, 465.2838
4361.941, 466.0864
4363.869, 466.1487
4365.798, 466.2397
4367.726, 466.5572
4369.655, 467.1234
4371.583, 468.4996
4373.512, 469.0745
4375.440, 469.1877
4377.369, 466.4334
4379.297, 468.3774
4381.226, 466.3711
4383.154, 464.3806
4385.083, 463.7448
4387.011, 464.3974
4388.939, 465.7792
4390.868, 467.8237
4392.796, 468.3913
4394.725, 467.4491
4396.653, 465.4845
4398.582, 464.4554
4400.510, 465.2498
4402.438, 466.9155
4404.367, 468.1885
4406.295, 466.7490
4408.224, 466.1075
4410.152, 466.5740
4412.081, 466.9886
4414.009, 466.6143
4415.938, 464.8575
4417.866, 463.7798
4419.795, 463.4533
4421.723, 463.9606
4423.652, 464.6482
4425.580, 465.2552
4427.509, 465.1516
4429.437, 462.8861
4431.366, 464.5844
4433.294, 464.5260
4435.223, 463.7796
4437.151, 465.4242
4439.080, 465.4065
4441.008, 465.3436
4442.937, 465.4475
4444.865, 464.8810
4446.793, 464.5272
4448.722, 463.6987
4450.650, 463.1688
4452.579, 462.9558
4454.507, 462.6939
4456.436, 462.6970
4458.364, 462.3988
4460.292, 462.4874
4462.221, 461.7633
4464.149, 462.1291
4466.078, 462.8725
4468.006, 462.6915
4469.935, 462.0912
4471.863, 461.2321
4473.792, 461.1172
4475.720, 461.0776
4477.649, 460.8532
4479.577, 459.8841
4481.506, 459.8042
4483.434, 463.4391
4485.363, 465.5230
4487.291, 465.3289
4489.220, 461.7599
4491.148, 459.9716
4493.077, 461.9189
4495.005, 461.6355
4496.934, 460.7007
4498.862, 460.8975
4500.791, 460.9321
4502.719, 460.7152
4504.647, 459.8522
4506.576, 460.0849
4508.504, 461.7513
4510.433, 460.6420
4512.361, 459.9740
4514.290, 461.8906
4516.218, 461.8397
4518.146, 460.9393
4520.075, 460.9380
4522.003, 462.3851
4523.932, 461.2353
4525.860, 462.4579
4527.789, 460.8348
4529.717, 461.3928
4531.646, 462.3877
4533.574, 463.3575
4535.503, 464.1341
4537.431, 462.9569
4539.360, 461.1065
4541.288, 461.5815
4543.217, 461.9365
4545.145, 461.9137
4547.074, 464.3790
4549.002, 464.4442
4550.931, 458.7665
4552.859, 459.1553
4554.788, 461.5457
4556.716, 461.0894
4558.645, 461.9922
4560.573, 463.5703
4562.501, 463.2156
4564.430, 462.4842
4566.358, 461.8298
4568.287, 461.6147
4570.215, 461.9317
4572.144, 462.8777
4574.072, 462.7451
4576.000, 462.1688
4577.929, 461.5739
4579.857, 462.3526
4581.786, 463.1564
4583.714, 460.0021
4585.643, 458.3866
4587.571, 458.9544
4589.500, 458.4131
4591.428, 458.6129
4593.357, 460.2950
4595.285, 461.7034
4597.214, 461.8791
4599.142, 458.8733
4601.071, 458.3786
4602.999, 459.3049
4604.928, 459.9603
4606.856, 458.9514
4608.785, 459.6296
4610.713, 458.6796
4612.642, 459.2931
4614.570, 457.8312
4616.499, 456.9266
4618.427, 456.5465
4620.355, 456.5729
4622.284, 456.0299
4624.212, 459.2352
4626.141, 456.4508
4628.069, 457.2896
4629.998, 459.5123
4631.926, 456.6284
4633.854, 455.0571
4635.783, 455.6058
4637.711, 457.2579
4639.640, 457.5764
4641.568, 455.7651
4643.497, 454.6828
4645.425, 454.6691
4647.354, 455.9850
4649.282, 454.9577
4651.211, 453.9764
4653.139, 456.4460
4655.068, 455.9913
4656.996, 453.9371
4658.925, 453.2347
4660.853, 453.4163
4662.782, 454.0309
4664.710, 453.7178
4666.639, 453.0023
4668.567, 452.1660
4670.496, 452.5120
4672.424, 452.0509
4674.353, 449.4644
4676.281, 451.2483
4678.209, 453.3486
4680.138, 453.0803
4682.066, 450.3373
4683.995, 447.8144
4685.923, 448.7663
4687.852, 449.2669
4689.780, 449.4740
4691.708, 450.8507
4693.637, 450.6805
4695.565, 449.4261
4697.494, 450.0124
4699.422, 450.1648
4701.351, 449.5327
4703.279, 448.7798
4705.208, 448.5372
4707.136, 449.0439
4709.065, 449.1012
4710.993, 448.9036
4712.922, 448.5290
4714.850, 449.5288
4716.779, 450.1435
4718.707, 448.6748
4720.636, 447.1398
4722.564, 446.2651
4724.493, 447.3568
4726.421, 446.3306
4728.350, 444.3586
4730.278, 443.8235
4732.207, 444.8322
4734.135, 446.5539
4736.063, 446.8652
4737.992, 447.1386
4739.920, 447.2262
4741.849, 443.9642
4743.777, 442.4657
4745.706, 443.5467
4747.634, 443.8036
4749.563, 443.8272
4751.491, 443.8841
4753.419, 443.3454
4755.348, 443.4140
4757.276, 444.6485
4759.205, 445.0335
4761.133, 444.4596
4763.062, 442.5075
4764.990, 442.5173
4766.919, 442.3747
4768.847, 439.6727
4770.776, 440.3994
4772.704, 441.9013
4774.633, 439.8603
4776.561, 439.6797
4778.490, 440.9867
4780.418, 443.0397
4782.347, 443.6163
4784.275, 443.1452
4786.204, 443.2530
4788.132, 440.9930
4790.061, 437.8066
4791.989, 439.4489
4793.917, 440.4794
4795.846, 440.0050
4797.774, 437.5872
4799.703, 437.0785
4801.631, 438.6504
4803.560, 438.8365
4805.488, 438.2858
4807.417, 437.5743
4809.345, 441.6325
4811.273, 443.2437
4813.202, 440.7712
4815.130, 438.6950
4817.059, 437.6841
4818.987, 437.9445
4820.916, 440.5257
4822.844, 441.9571
4824.773, 440.9286
4826.701, 439.8027
4828.630, 438.4950
4830.558, 436.8997
4832.487, 437.1856
4834.415, 437.4572
4836.344, 436.6861
4838.272, 434.5953
4840.201, 433.0350
4842.129, 433.2197
4844.058, 435.0570
4845.986, 435.9403
4847.915, 434.1507
4849.843, 434.4779
4851.771, 435.3414
4853.700, 435.4662
4855.628, 434.5842
4857.557, 434.1587
4859.485, 435.3481
4861.414, 434.7354
4863.342, 433.8194
4865.271, 434.0258
4867.199, 434.1528
4869.127, 434.0229
4871.056, 433.5728
4872.984, 432.1415
4874.913, 431.7177
4876.841, 434.3230
4878.770, 434.7723
4880.698, 434.4164
4882.627, 434.6222
4884.555, 433.9805
4886.484, 432.8146
4888.412, 431.3307
4890.341, 432.3531
4892.269, 433.4680
4894.198, 432.3327
4896.126, 432.8463
4898.055, 433.3864
4899.983, 432.5716
4901.912, 432.2247
4903.840, 432.2977
4905.769, 433.1485
4907.697, 430.9746
4909.625, 429.2197
4911.554, 430.1889
4913.482, 429.6178
4915.411, 429.5378
4917.339, 432.1060
4919.268, 430.7271
4921.196, 429.0482
4923.125, 429.0314
4925.053, 429.1991
4926.981, 429.7005
4928.910, 430.7607
4930.838, 427.4260
4932.767, 425.6693
4934.695, 427.7170
4936.624, 426.2803
4938.552, 424.2888
4940.481, 423.1797
4942.409, 425.2301
4944.338, 426.2370
4946.266, 424.9607
4948.195, 424.5589
4950.123, 425.0269
4952.052, 425.9042
4953.980, 424.6094
4955.909, 424.0060
4957.837, 424.5953
4959.766, 425.3241
4961.694, 425.4571
4963.623, 424.8643
4965.551, 423.2746
4967.479, 422.1954
4969.408, 422.2356
4971.336, 424.9554
4973.265, 426.2482
4975.193, 425.6557
4977.122, 422.8770
4979.050, 421.3026
4980.979, 420.9348
4982.907, 421.4486
4984.835, 422.5971
4986.764, 423.4647
4988.692, 423.1319
4990.621, 421.1238
4992.549, 419.9972
4994.478, 422.5673
4996.406, 422.5211
4998.335, 421.7645
5000.263, 421.4814
5002.192, 420.9418
5004.120, 419.5387
5006.049, 417.3098
5007.977, 419.2261
5009.906, 420.0337
5011.834, 418.3007
5013.763, 418.3908
5015.691, 419.1869
5017.620, 419.7806
5019.548, 417.8803
5021.477, 416.5094
5023.405, 416.1194
5025.333, 416.3432
5027.262, 416.8428
5029.190, 417.4629
5031.119, 418.2059
5033.047, 417.8530
5034.976, 416.6469
5036.904, 414.7143
5038.833, 413.2028
5040.761, 413.3737
5042.689, 415.9898
5044.618, 415.9720
5046.546, 415.0190
5048.475, 414.1879
5050.403, 414.5340
5052.332, 413.6196
5054.260, 411.2756
5056.189, 412.0900
5058.117, 411.5059
5060.046, 409.8663
5061.974, 411.3992
5063.903, 411.5466
5065.831, 410.7803
5067.760, 411.2115
5069.688, 411.2560
5071.617, 410.7246
5073.545, 409.4776
5075.474, 410.4450
5077.402, 411.2475
5079.331, 409.8805
5081.259, 410.6737
5083.188, 411.4223
5085.116, 411.3992
5087.044, 412.9087
5088.973, 411.1481
5090.901, 407.0474
5092.830, 409.3729
5094.758, 409.0344
5096.687, 407.0981
5098.615, 408.2207
5100.543, 409.6626
5102.472, 410.4547
5104.400, 409.8669
5106.329, 408.9947
5108.257, 407.5845
5110.186, 405.3929
5112.114, 405.9868
5114.043, 406.1100
5115.971, 405.4443
5117.900, 408.9679
5119.828, 407.5510
5121.757, 403.2682
5123.685, 406.3667
5125.614, 406.0457
5127.542, 404.5436
5129.471, 406.0706
5131.399, 407.6199
5133.328, 407.4205
5135.256, 404.4848
5137.185, 404.0294
5139.113, 403.5941
5141.042, 402.5363
5142.970, 403.0609
5144.898, 403.2257
5146.827, 403.3050
5148.755, 405.5850
5150.684, 404.0450
5152.612, 401.8171
5154.541, 403.0373
5156.469, 403.4722
5158.397, 402.8003
5160.326, 401.1767
5162.254, 400.3325
5164.183, 400.9645
5166.111, 402.1546
5168.040, 398.8871
5169.968, 398.0928
5171.897, 399.0329
5173.825, 398.9153
5175.754, 398.9162
5177.682, 399.1037
5179.611, 399.4447
5181.539, 398.9099
5183.468, 397.8583
5185.396, 396.7983
5187.325, 397.9956
5189.253, 398.3390
5191.182, 397.7623
5193.110, 397.4400
5195.039, 394.9436
5196.967, 393.3163
5198.896, 395.8820
5200.824, 393.9073
5202.752, 393.7657
5204.681, 396.9372
5206.609, 397.1276
5208.538, 395.6430
5210.466, 393.9599
5212.395, 394.6992
5214.323, 392.9579
5216.251, 391.3783
5218.180, 392.3771
5220.108, 393.6723
5222.037, 393.6881
5223.965, 392.4220
5225.894, 392.2053
5227.822, 391.7085
5229.751, 390.9374
5231.679, 390.2531
5233.608, 389.6027
5235.536, 388.4684
5237.465, 386.7126
5239.393, 388.1896
5241.322, 390.5382
5243.250, 392.0641
5245.179, 389.7368
5247.107, 387.8974
5249.036, 387.3152
5250.964, 388.5371
5252.893, 387.8491
5254.821, 386.1944
5256.750, 384.5213
5258.678, 385.7948
5260.606, 384.9616
5262.535, 383.1976
5264.463, 385.3473
5266.392, 384.9355
5268.320, 383.7936
5270.249, 383.5243
5272.177, 384.1159
5274.105, 384.1540
5276.034, 383.4036
5277.962, 381.9736
5279.891, 382.1120
5281.819, 382.8106
5283.748, 382.8948
5285.676, 382.2394
5287.605, 380.3487
5289.533, 378.0419
5291.462, 380.3167
5293.390, 381.1548
5295.319, 380.6532
5297.247, 380.1810
5299.176, 379.9148
5301.104, 379.9439
5303.033, 380.1934
5304.961, 379.7286
5306.890, 379.6328
5308.818, 379.7069
5310.747, 379.2625
5312.675, 379.4104
5314.604, 379.0650
5316.532, 377.9157
5318.460, 382.0188
5320.389, 382.8738
5322.317, 380.2319
5324.246, 377.1215
5326.174, 375.7049
5328.103, 375.3349
5330.031, 375.3890
5331.959, 375.5953
5333.888, 376.0043
5335.816, 376.0089
5337.745, 374.3326
5339.673, 371.3422
5341.602, 370.3043
5343.530, 372.5735
5345.459, 371.9759
5347.387, 371.3988
5349.316, 371.1564
5351.244, 370.4818
5353.173, 370.1486
5355.101, 370.5486
5357.030, 371.5590
5358.958, 368.9822
5360.887, 367.5032
5362.815, 367.6228
5364.744, 368.5279
5366.672, 368.6332
5368.601, 368.3421
5370.529, 367.9739
5372.458, 367.5607
5374.386, 368.0156
5376.314, 368.1240
5378.243, 365.9637
5380.171, 364.8763
5382.100, 365.5005
5384.028, 366.8207
5385.957, 363.9762
5387.885, 364.0741
5389.813, 365.1754
5391.742, 364.5495
5393.670, 364.9037
5395.599, 364.7343
5397.527, 364.1875
5399.456, 365.3742
5401.384, 362.6610
5403.313, 360.8780
5405.241, 362.9005
5407.170, 363.5009
5409.098, 362.0854
5411.027, 360.1352
5412.955, 360.1947
5414.884, 359.2381
5416.812, 358.7919
5418.741, 359.5435
5420.669, 362.1662
5422.598, 359.6606
5424.526, 356.5890
5426.455, 357.6647
5428.383, 356.9957
5430.312, 356.3177
5432.240, 356.3463
5434.168, 357.9031
5436.097, 355.6762
5438.025, 354.9189
5439.954, 357.4053
5441.882, 355.4613
5443.811, 354.5548
5445.739, 354.5126
5447.667, 354.0773
5449.596, 351.5866
5451.524, 351.8532
5453.453, 354.3581
5455.381, 354.7361
5457.310, 352.6593
5459.238, 351.2853
5461.167, 352.4515
5463.095, 358.6208
5465.024, 355.9953
5466.952, 350.9341
5468.881, 351.6637
5470.809, 350.4225
5472.738, 350.8404
5474.666, 351.6751
5476.595, 347.1669
5478.523, 346.8623
5480.452, 347.8322
5482.380, 348.5400
5484.309, 350.3864
5486.237, 347.6117
5488.166, 345.2466
5490.094, 347.1178
5492.022, 345.8444
5493.951, 344.7923
5495.879, 344.7661
5497.808, 345.8019
5499.736, 345.9825
##END=



