##NAMES=Tridymite
##RRUFFID=R040143
##IDEAL CHEMISTRY=SiO_2_
##LOCALITY=Big Lue Mountain, Highway 78, Greenlee County, Arizona, USA
##OWNER=RRUFF
##SOURCE=University of Arizona Mineral Museum
##DESCRIPTION=Colorless thin hexagonal plates. Masami Kanzaki (Okayama University) suggests this is polytype tridymite PO-10.
##STATUS=The identification of this mineral is confirmed by single-crystal X-ray diffraction and chemical analysis
##URL=https://www.rruff.net/odr/rruff_sample/R040143
##MEASURED CHEMISTRY=(Si_0.99_Al_0.01_)O_2_
##DIFFRACTION SAMPLE DESCRIPTION=Single crystal, powder profile is calculated
##CELL PARAMETERS=a: 9.9222 b: 17.1967 c: 81.89 alpha: 89.992 beta: 90.039 gamma: 89.971 volume: 13973 crystal system: triclinic
##FILETYPE=Raman RAW
##RAMAN WAVELENGTH=785

172.4709, 2716.937
174.3994, 2753.783
176.3279, 2789.906
178.2563, 2805.647
180.1848, 2803.425
182.1133, 2836.554
184.0417, 2929.384
185.9702, 3002.871
187.8987, 3037.592
189.8271, 3065.308
191.7556, 3100.247
193.6841, 3141.522
195.6125, 3190.458
197.5410, 3250.932
199.4695, 3298.571
201.3979, 3332.127
203.3264, 3356.678
205.2549, 3376.339
207.1833, 3384.036
209.1118, 3372.213
211.0403, 3344.247
212.9688, 3314.010
214.8972, 3280.609
216.8257, 3248.135
218.7542, 3217.144
220.6826, 3186.594
222.6111, 3154.128
224.5396, 3123.305
226.4680, 3097.367
228.3965, 3076.318
230.3250, 3060.359
232.2534, 3049.620
234.1819, 3042.638
236.1104, 3045.847
238.0388, 3042.056
239.9673, 3013.950
241.8958, 2980.129
243.8242, 2969.528
245.7527, 2982.545
247.6812, 2979.101
249.6096, 2953.932
251.5381, 2933.167
253.4666, 2917.961
255.3950, 2917.201
257.3235, 2943.627
259.2520, 2981.882
261.1804, 3003.903
263.1089, 3009.196
265.0374, 3036.770
266.9658, 3095.797
268.8943, 3142.395
270.8228, 3152.988
272.7512, 3162.349
274.6797, 3186.290
276.6082, 3220.527
278.5366, 3260.216
280.4651, 3305.274
282.3936, 3349.585
284.3220, 3394.127
286.2505, 3433.832
288.1790, 3470.414
290.1074, 3496.923
292.0359, 3508.655
293.9644, 3509.678
295.8928, 3506.443
297.8213, 3497.713
299.7498, 3474.292
301.6782, 3432.474
303.6067, 3396.349
305.5352, 3369.297
307.4636, 3353.137
309.3921, 3355.073
311.3206, 3362.714
313.2490, 3360.493
315.1775, 3352.122
317.1060, 3353.829
319.0344, 3366.013
320.9629, 3382.706
322.8914, 3407.086
324.8198, 3427.822
326.7483, 3434.600
328.6768, 3443.569
330.6052, 3471.014
332.5337, 3508.776
334.4622, 3535.799
336.3906, 3553.339
338.3191, 3577.432
340.2476, 3609.975
342.1760, 3649.160
344.1045, 3695.384
346.0330, 3746.617
347.9614, 3801.264
349.8899, 3860.888
351.8184, 3933.258
353.7468, 4012.521
355.6753, 4080.096
357.6038, 4136.271
359.5322, 4171.285
361.4607, 4174.203
363.3892, 4167.993
365.3176, 4154.794
367.2461, 4137.582
369.1746, 4111.117
371.1030, 4085.618
373.0315, 4076.433
374.9600, 4083.601
376.8884, 4109.540
378.8169, 4155.699
380.7454, 4217.478
382.6738, 4302.322
384.6023, 4390.613
386.5308, 4468.429
388.4592, 4553.483
390.3877, 4671.832
392.3162, 4805.645
394.2446, 4919.486
396.1731, 5012.835
398.1016, 5109.561
400.0300, 5234.383
401.9585, 5312.213
403.8870, 5322.258
405.8154, 5303.599
407.7439, 5256.494
409.6724, 5200.217
411.6008, 5153.311
413.5293, 5110.473
415.4578, 5061.779
417.3862, 5007.002
419.3147, 4950.720
421.2432, 4903.072
423.1716, 4833.863
425.1001, 4736.098
427.0286, 4623.667
428.9570, 4484.466
430.8855, 4348.806
432.8140, 4244.498
434.7424, 4160.047
436.6709, 4076.782
438.5994, 3994.799
440.5278, 3928.278
442.4563, 3880.247
444.3848, 3843.449
446.3132, 3829.693
448.2417, 3808.920
450.1702, 3764.272
452.0986, 3720.282
454.0271, 3702.854
455.9556, 3688.016
457.8840, 3644.048
459.8125, 3575.546
461.7410, 3509.963
463.6694, 3441.930
465.5979, 3397.289
467.5264, 3393.555
469.4548, 3377.789
471.3833, 3331.632
473.3118, 3289.357
475.2402, 3267.345
477.1687, 3254.616
479.0972, 3243.006
481.0256, 3233.787
482.9541, 3228.266
484.8826, 3226.597
486.8110, 3235.643
488.7395, 3263.420
490.6680, 3279.067
492.5964, 3278.569
494.5249, 3274.641
496.4534, 3266.386
498.3818, 3261.450
500.3103, 3262.817
502.2388, 3270.600
504.1672, 3289.703
506.0957, 3313.335
508.0242, 3329.078
509.9526, 3336.805
511.8811, 3329.918
513.8096, 3301.027
515.7380, 3293.860
517.6665, 3319.347
519.5950, 3339.519
521.5234, 3341.827
523.4519, 3342.494
525.3804, 3348.898
527.3088, 3357.495
529.2373, 3367.068
531.1658, 3376.558
533.0942, 3385.375
535.0227, 3392.815
536.9512, 3392.900
538.8796, 3384.401
540.8081, 3384.864
542.7366, 3397.028
544.6650, 3406.395
546.5935, 3407.369
548.5220, 3412.596
550.4504, 3434.873
552.3789, 3451.748
554.3074, 3445.811
556.2358, 3434.914
558.1643, 3435.735
560.0928, 3444.828
562.0212, 3454.710
563.9497, 3465.931
565.8782, 3484.769
567.8066, 3511.496
569.7351, 3530.645
571.6636, 3540.824
573.5920, 3542.784
575.5205, 3531.075
577.4490, 3523.578
579.3774, 3528.576
581.3059, 3537.076
583.2344, 3543.555
585.1628, 3552.983
587.0913, 3574.654
589.0198, 3599.995
590.9482, 3609.634
592.8767, 3608.993
594.8052, 3626.857
596.7336, 3660.822
598.6621, 3672.389
600.5906, 3655.221
602.5190, 3645.917
604.4475, 3651.625
606.3760, 3663.341
608.3044, 3686.271
610.2329, 3704.176
612.1614, 3704.282
614.0898, 3706.860
616.0183, 3728.869
617.9468, 3756.785
619.8752, 3779.269
621.8037, 3794.847
623.7322, 3793.747
625.6606, 3783.747
627.5891, 3794.902
629.5176, 3826.092
631.4460, 3848.086
633.3745, 3858.566
635.3030, 3857.275
637.2314, 3830.249
639.1599, 3823.923
641.0884, 3864.285
643.0168, 3899.330
644.9453, 3912.953
646.8738, 3919.740
648.8022, 3921.960
650.7307, 3926.516
652.6592, 3943.880
654.5876, 3964.195
656.5161, 3970.524
658.4446, 3970.757
660.3730, 3982.952
662.3015, 4004.192
664.2300, 4020.073
666.1584, 4030.096
668.0869, 4028.592
670.0154, 4007.576
671.9438, 4002.984
673.8723, 4031.460
675.8008, 4053.300
677.7292, 4059.329
679.6577, 4066.957
681.5862, 4082.301
683.5146, 4098.013
685.4431, 4111.843
687.3716, 4123.455
689.3000, 4131.570
691.2285, 4138.296
693.1570, 4140.950
695.0854, 4147.033
697.0139, 4173.735
698.9424, 4211.572
700.8708, 4231.340
702.7993, 4234.500
704.7278, 4243.163
706.6563, 4259.575
708.5847, 4266.316
710.5132, 4252.336
712.4417, 4256.488
714.3701, 4294.395
716.2986, 4319.625
718.2271, 4319.865
720.1555, 4324.627
722.0840, 4344.592
724.0125, 4362.183
725.9409, 4371.609
727.8694, 4375.955
729.7979, 4368.730
731.7263, 4367.074
733.6548, 4384.971
735.5833, 4413.509
737.5117, 4454.218
739.4402, 4493.172
741.3687, 4506.651
743.2971, 4504.026
745.2256, 4506.312
747.1541, 4513.226
749.0825, 4523.016
751.0110, 4535.727
752.9395, 4553.574
754.8679, 4576.755
756.7964, 4604.406
758.7249, 4637.954
760.6533, 4669.040
762.5818, 4697.603
764.5103, 4721.162
766.4387, 4734.323
768.3672, 4761.804
770.2957, 4821.247
772.2241, 4860.880
774.1526, 4851.283
776.0811, 4846.833
778.0095, 4872.675
779.9380, 4905.669
781.8665, 4942.662
783.7949, 4971.728
785.7234, 4983.336
787.6519, 4987.076
789.5803, 4989.699
791.5088, 4989.491
793.4373, 4984.032
795.3657, 4974.923
797.2942, 4960.111
799.2227, 4945.844
801.1511, 4950.010
803.0796, 4964.555
805.0081, 4960.481
806.9365, 4943.356
808.8650, 4945.417
810.7935, 4964.236
812.7219, 4972.321
814.6504, 4970.239
816.5789, 4970.870
818.5073, 4974.706
820.4358, 4971.745
822.3643, 4959.912
824.2927, 4970.388
826.2212, 5011.432
828.1497, 5034.606
830.0781, 5026.617
832.0066, 5030.982
833.9351, 5065.036
835.8635, 5081.215
837.7920, 5057.344
839.7205, 5041.699
841.6489, 5052.473
843.5774, 5062.760
845.5059, 5062.631
847.4343, 5064.813
849.3628, 5070.997
851.2913, 5083.731
853.2197, 5116.167
855.1482, 5138.617
857.0767, 5115.502
859.0051, 5103.799
860.9336, 5158.434
862.8621, 5215.562
864.7905, 5226.218
866.7190, 5218.354
868.6475, 5203.914
870.5759, 5196.751
872.5044, 5216.514
874.4329, 5246.331
876.3613, 5268.997
878.2898, 5287.309
880.2183, 5308.228
882.1467, 5324.854
884.0752, 5318.120
886.0037, 5305.488
887.9321, 5322.687
889.8606, 5352.481
891.7891, 5361.063
893.7175, 5357.227
895.6460, 5358.749
897.5745, 5365.248
899.5029, 5374.838
901.4314, 5387.974
903.3599, 5411.606
905.2883, 5439.716
907.2168, 5442.876
909.1453, 5426.798
911.0737, 5424.415
913.0022, 5435.652
914.9307, 5459.228
916.8591, 5492.967
918.7876, 5500.869
920.7161, 5483.439
922.6445, 5502.618
924.5730, 5561.260
926.5015, 5581.559
928.4299, 5557.824
930.3584, 5563.246
932.2869, 5605.010
934.2153, 5613.377
936.1438, 5578.300
938.0723, 5581.821
940.0007, 5635.574
941.9292, 5656.364
943.8577, 5632.028
945.7861, 5640.348
947.7146, 5692.547
949.6431, 5723.522
951.5715, 5727.901
953.5000, 5735.153
955.4285, 5746.283
957.3569, 5755.157
959.2854, 5758.764
961.2139, 5773.582
963.1423, 5803.499
965.0708, 5830.526
966.9993, 5859.443
968.9277, 5859.847
970.8562, 5820.400
972.7847, 5809.332
974.7131, 5834.288
976.6416, 5852.366
978.5701, 5861.075
980.4985, 5871.568
982.4270, 5884.845
984.3555, 5893.804
986.2839, 5896.239
988.2124, 5913.505
990.1409, 5949.572
992.0693, 5965.611
993.9978, 5956.640
995.9263, 5972.742
997.8547, 6018.415
999.7832, 6051.963
1001.712, 6072.074
1003.640, 6061.885
1005.569, 6019.232
1007.497, 6028.117
1009.426, 6091.468
1011.354, 6115.653
1013.282, 6099.125
1015.211, 6111.391
1017.139, 6152.656
1019.068, 6185.870
1020.996, 6209.690
1022.925, 6215.764
1024.853, 6206.563
1026.782, 6210.215
1028.710, 6224.481
1030.639, 6224.212
1032.567, 6214.493
1034.496, 6231.218
1036.424, 6268.250
1038.353, 6294.145
1040.281, 6313.026
1042.209, 6348.250
1044.138, 6388.222
1046.066, 6386.886
1047.995, 6363.284
1049.923, 6367.600
1051.852, 6390.766
1053.780, 6413.986
1055.709, 6439.300
1057.637, 6473.133
1059.566, 6509.971
1061.494, 6545.485
1063.423, 6573.140
1065.351, 6578.123
1067.280, 6574.553
1069.208, 6575.458
1071.136, 6583.274
1073.065, 6603.554
1074.993, 6628.720
1076.922, 6659.871
1078.850, 6682.008
1080.779, 6676.141
1082.707, 6665.313
1084.636, 6655.949
1086.564, 6661.451
1088.493, 6708.648
1090.421, 6744.314
1092.350, 6731.384
1094.278, 6717.402
1096.207, 6720.333
1098.135, 6728.242
1100.063, 6740.964
1101.992, 6751.643
1103.920, 6754.164
1105.849, 6762.723
1107.777, 6777.949
1109.706, 6802.797
1111.634, 6855.786
1113.563, 6879.756
1115.491, 6851.013
1117.420, 6854.309
1119.348, 6909.627
1121.277, 6924.266
1123.205, 6885.305
1125.134, 6882.499
1127.062, 6918.951
1128.990, 6935.415
1130.919, 6933.658
1132.847, 6943.280
1134.776, 6962.391
1136.704, 6989.104
1138.633, 7012.745
1140.561, 6984.087
1142.490, 6937.816
1144.418, 6948.833
1146.347, 6987.992
1148.275, 7024.362
1150.204, 7050.660
1152.132, 7050.663
1154.061, 7047.345
1155.989, 7056.438
1157.917, 7072.208
1159.846, 7093.167
1161.774, 7116.269
1163.703, 7143.239
1165.631, 7165.027
1167.560, 7179.997
1169.488, 7182.037
1171.417, 7161.399
1173.345, 7158.528
1175.274, 7186.143
1177.202, 7211.634
1179.131, 7231.457
1181.059, 7237.151
1182.988, 7225.675
1184.916, 7241.166
1186.844, 7284.131
1188.773, 7313.194
1190.701, 7330.185
1192.630, 7345.398
1194.558, 7358.524
1196.487, 7366.044
1198.415, 7372.830
1200.344, 7391.089
1202.272, 7411.476
1204.201, 7424.349
1206.129, 7430.047
1208.058, 7425.698
1209.986, 7418.855
1211.915, 7405.641
1213.843, 7405.541
1215.771, 7432.379
1217.700, 7458.970
1219.628, 7477.483
1221.557, 7501.738
1223.485, 7540.880
1225.414, 7535.181
1227.342, 7473.682
1229.271, 7464.521
1231.199, 7510.784
1233.128, 7522.770
1235.056, 7507.107
1236.985, 7523.138
1238.913, 7559.396
1240.842, 7591.197
1242.770, 7610.222
1244.698, 7584.505
1246.627, 7559.184
1248.555, 7596.108
1250.484, 7639.651
1252.412, 7646.739
1254.341, 7649.050
1256.269, 7668.896
1258.198, 7674.705
1260.126, 7635.993
1262.055, 7630.198
1263.983, 7681.856
1265.912, 7696.839
1267.840, 7663.806
1269.769, 7672.592
1271.697, 7720.356
1273.625, 7740.566
1275.554, 7738.746
1277.482, 7735.751
1279.411, 7732.983
1281.339, 7724.431
1283.268, 7726.312
1285.196, 7772.373
1287.125, 7812.659
1289.053, 7796.034
1290.982, 7789.331
1292.910, 7832.500
1294.839, 7872.178
1296.767, 7903.711
1298.696, 7911.583
1300.624, 7883.188
1302.552, 7870.708
1304.481, 7874.860
1306.409, 7882.281
1308.338, 7892.246
1310.266, 7898.042
1312.195, 7905.361
1314.123, 7932.998
1316.052, 7961.037
1317.980, 7970.547
1319.909, 7968.100
1321.837, 7947.419
1323.766, 7939.271
1325.694, 7965.625
1327.623, 7975.953
1329.551, 7947.870
1331.479, 7951.099
1333.408, 8000.366
1335.336, 8025.479
1337.265, 8027.621
1339.193, 8003.226
1341.122, 7975.315
1343.050, 8026.603
1344.979, 8092.058
1346.907, 8074.637
1348.836, 8047.670
1350.764, 8063.604
1352.693, 8075.878
1354.621, 8061.652
1356.550, 8062.646
1358.478, 8091.855
1360.406, 8109.186
1362.335, 8109.823
1364.263, 8116.144
1366.192, 8126.948
1368.120, 8131.491
1370.049, 8133.200
1371.977, 8140.926
1373.906, 8147.729
1375.834, 8143.462
1377.763, 8139.782
1379.691, 8148.693
1381.620, 8143.896
1383.548, 8109.968
1385.477, 8111.724
1387.405, 8159.021
1389.333, 8186.621
1391.262, 8192.435
1393.190, 8192.750
1395.119, 8190.756
1397.047, 8197.573
1398.976, 8199.655
1400.904, 8170.621
1402.833, 8146.976
1404.761, 8154.740
1406.690, 8167.519
1408.618, 8183.657
1410.547, 8187.250
1412.475, 8176.550
1414.404, 8146.572
1416.332, 8107.902
1418.260, 8117.014
1420.189, 8153.356
1422.117, 8191.609
1424.046, 8215.039
1425.974, 8193.166
1427.903, 8174.928
1429.831, 8191.639
1431.760, 8202.646
1433.688, 8201.894
1435.617, 8187.378
1437.545, 8160.717
1439.474, 8181.354
1441.402, 8229.265
1443.331, 8239.099
1445.259, 8236.536
1447.188, 8255.393
1449.116, 8270.364
1451.044, 8258.938
1452.973, 8252.193
1454.901, 8262.333
1456.830, 8272.472
1458.758, 8284.270
1460.687, 8267.590
1462.615, 8234.223
1464.544, 8240.063
1466.472, 8264.469
1468.401, 8284.905
1470.329, 8301.100
1472.258, 8315.319
1474.186, 8319.135
1476.115, 8307.808
1478.043, 8290.243
1479.971, 8265.167
1481.900, 8270.935
1483.828, 8292.335
1485.757, 8256.768
1487.685, 8210.642
1489.614, 8215.451
1491.542, 8236.403
1493.471, 8264.828
1495.399, 8280.118
1497.328, 8275.705
1499.256, 8260.024
1501.185, 8235.238
1503.113, 8250.492
1505.042, 8279.084
1506.970, 8233.093
1508.898, 8186.049
1510.827, 8227.765
1512.755, 8262.034
1514.684, 8252.523
1516.612, 8244.830
1518.541, 8246.894
1520.469, 8258.702
1522.398, 8273.128
1524.326, 8254.333
1526.255, 8221.265
1528.183, 8195.305
1530.112, 8178.843
1532.040, 8176.049
1533.969, 8175.444
1535.897, 8174.783
1537.825, 8177.497
1539.754, 8182.258
1541.682, 8175.136
1543.611, 8163.798
1545.539, 8167.964
1547.468, 8167.555
1549.396, 8131.232
1551.325, 8119.584
1553.253, 8155.263
1555.182, 8161.608
1557.110, 8136.524
1559.039, 8133.774
1560.967, 8140.896
1562.896, 8126.461
1564.824, 8108.551
1566.752, 8104.250
1568.681, 8098.687
1570.609, 8091.095
1572.538, 8061.667
1574.466, 8013.623
1576.395, 8010.440
1578.323, 8032.571
1580.252, 8039.285
1582.180, 8041.447
1584.109, 8052.155
1586.037, 8052.134
1587.966, 8028.130
1589.894, 8018.358
1591.823, 8021.837
1593.751, 8002.962
1595.679, 7977.655
1597.608, 7978.105
1599.536, 7980.078
1601.465, 7968.128
1603.393, 7950.972
1605.322, 7925.362
1607.250, 7913.014
1609.179, 7912.009
1611.107, 7910.036
1613.036, 7906.127
1614.964, 7899.139
1616.893, 7889.420
1618.821, 7871.602
1620.750, 7869.974
1622.678, 7892.607
1624.606, 7889.321
1626.535, 7870.913
1628.463, 7876.200
1630.392, 7880.043
1632.320, 7855.350
1634.249, 7843.889
1636.177, 7867.413
1638.106, 7857.025
1640.034, 7811.614
1641.963, 7758.175
1643.891, 7717.977
1645.820, 7744.601
1647.748, 7767.313
1649.677, 7754.010
1651.605, 7726.175
1653.533, 7687.191
1655.462, 7690.248
1657.390, 7710.778
1659.319, 7667.710
1661.247, 7623.985
1663.176, 7640.011
1665.104, 7638.163
1667.033, 7597.564
1668.961, 7604.669
1670.890, 7647.292
1672.818, 7644.892
1674.747, 7614.926
1676.675, 7556.236
1678.604, 7522.735
1680.532, 7538.206
1682.460, 7519.937
1684.389, 7467.904
1686.317, 7438.893
1688.246, 7427.179
1690.174, 7426.447
1692.103, 7434.178
1694.031, 7455.125
1695.960, 7462.075
1697.888, 7452.861
1699.817, 7426.988
1701.745, 7399.236
1703.674, 7396.582
1705.602, 7397.008
1707.531, 7397.452
1709.459, 7366.317
1711.387, 7304.024
1713.316, 7292.979
1715.244, 7306.007
1717.173, 7295.689
1719.101, 7270.965
1721.030, 7219.030
1722.958, 7203.129
1724.887, 7229.117
1726.815, 7221.486
1728.744, 7188.675
1730.672, 7132.503
1732.601, 7094.426
1734.529, 7116.028
1736.458, 7120.218
1738.386, 7099.117
1740.314, 7081.291
1742.243, 7066.667
1744.171, 7059.728
1746.100, 7045.438
1748.028, 7003.523
1749.957, 6997.333
1751.885, 7029.244
1753.814, 6999.959
1755.742, 6951.533
1757.671, 6951.261
1759.599, 6945.393
1761.528, 6909.869
1763.456, 6870.591
1765.385, 6831.478
1767.313, 6805.329
1769.241, 6785.381
1771.170, 6760.055
1773.098, 6749.501
1775.027, 6763.024
1776.955, 6773.671
1778.884, 6773.223
1780.812, 6717.025
1782.741, 6665.692
1784.669, 6674.291
1786.598, 6669.352
1788.526, 6634.834
1790.455, 6639.311
1792.383, 6655.951
1794.312, 6605.058
1796.240, 6567.891
1798.168, 6592.885
1800.097, 6581.917
1802.025, 6527.609
1803.954, 6497.270
1805.882, 6481.491
1807.811, 6477.475
1809.739, 6457.317
1811.668, 6409.997
1813.596, 6405.175
1815.525, 6426.165
1817.453, 6396.246
1819.382, 6360.277
1821.310, 6363.730
1823.239, 6344.927
1825.167, 6298.841
1827.095, 6243.681
1829.024, 6201.784
1830.952, 6218.963
1832.881, 6233.129
1834.809, 6219.756
1836.738, 6206.692
1838.666, 6195.375
1840.595, 6174.746
1842.523, 6150.582
1844.452, 6128.925
1846.380, 6108.605
1848.309, 6089.718
1850.237, 6076.523
1852.166, 6056.425
1854.094, 5997.360
1856.022, 5958.658
1857.951, 5979.252
1859.879, 5961.561
1861.808, 5917.217
1863.736, 5894.532
1865.665, 5872.797
1867.593, 5829.947
1869.522, 5809.764
1871.450, 5810.151
1873.379, 5818.797
1875.307, 5813.803
1877.236, 5755.601
1879.164, 5717.554
1881.093, 5724.122
1883.021, 5714.112
1884.949, 5689.583
1886.878, 5641.313
1888.806, 5614.761
1890.735, 5638.282
1892.663, 5613.631
1894.592, 5558.894
1896.520, 5544.228
1898.449, 5541.762
1900.377, 5538.250
1902.306, 5517.826
1904.234, 5483.452
1906.163, 5457.446
1908.091, 5442.729
1910.020, 5441.482
1911.948, 5435.282
1913.876, 5417.757
1915.805, 5340.488
1917.733, 5260.957
1919.662, 5250.413
1921.590, 5261.225
1923.519, 5287.501
1925.447, 5275.715
1927.376, 5230.715
1929.304, 5155.719
1931.233, 5111.484
1933.161, 5111.579
1935.090, 5105.679
1937.018, 5093.319
1938.947, 5090.410
1940.875, 5073.088
1942.803, 5031.140
1944.732, 5022.434
1946.660, 5026.872
1948.589, 4986.212
1950.517, 4949.077
1952.446, 4944.802
1954.374, 4910.664
1956.303, 4854.843
1958.231, 4819.333
1960.160, 4793.174
1962.088, 4759.090
1964.017, 4726.611
1965.945, 4705.113
1967.874, 4708.570
1969.802, 4719.007
1971.730, 4733.463
1973.659, 4723.780
1975.587, 4695.334
1977.516, 4662.218
1979.444, 4628.575
1981.373, 4596.724
1983.301, 4567.862
1985.230, 4544.316
1987.158, 4547.591
1989.087, 4541.657
1991.015, 4501.087
1992.944, 4447.410
1994.872, 4388.322
1996.801, 4361.909
1998.729, 4355.022
2000.657, 4366.125
2002.586, 4348.395
2004.514, 4305.065
2006.443, 4276.421
2008.371, 4255.214
2010.300, 4232.868
2012.228, 4213.496
2014.157, 4201.518
2016.085, 4200.895
2018.014, 4179.750
2019.942, 4130.127
2021.871, 4117.420
2023.799, 4123.433
2025.728, 4097.440
2027.656, 4055.732
2029.584, 4007.906
2031.513, 3986.208
2033.441, 3974.347
2035.370, 3948.204
2037.298, 3927.789
2039.227, 3911.974
2041.155, 3897.235
2043.084, 3887.491
2045.012, 3887.749
2046.941, 3864.452
2048.869, 3817.472
2050.798, 3784.411
2052.726, 3760.932
2054.655, 3751.502
2056.583, 3752.507
2058.511, 3754.776
2060.440, 3717.742
2062.368, 3679.456
2064.297, 3679.012
2066.225, 3651.440
2068.154, 3605.970
2070.082, 3597.034
2072.011, 3593.570
2073.939, 3580.854
2075.868, 3561.705
2077.796, 3538.080
2079.725, 3513.362
2081.653, 3490.168
2083.582, 3470.697
2085.510, 3450.681
2087.438, 3429.484
2089.367, 3407.677
2091.295, 3379.818
2093.224, 3344.724
2095.152, 3346.330
2097.081, 3347.636
2099.009, 3311.693
2100.938, 3285.092
2102.866, 3269.771
2104.795, 3263.018
2106.723, 3251.816
2108.652, 3227.658
2110.580, 3189.878
2112.509, 3153.155
2114.437, 3145.886
2116.365, 3131.943
2118.294, 3101.971
2120.222, 3103.436
2122.151, 3105.643
2124.079, 3082.671
2126.008, 3050.658
2127.936, 3016.085
2129.865, 2988.317
2131.793, 2975.655
2133.722, 2983.902
2135.650, 2970.735
2137.579, 2941.707
2139.507, 2901.634
2141.436, 2875.463
2143.364, 2868.103
2145.292, 2862.818
2147.221, 2848.136
2149.149, 2813.174
2151.078, 2796.893
2153.006, 2793.514
2154.935, 2767.580
2156.863, 2739.775
2158.792, 2719.446
2160.720, 2717.948
2162.649, 2718.494
2164.577, 2702.805
2166.506, 2672.392
2168.434, 2637.873
2170.363, 2633.138
2172.291, 2618.466
2174.219, 2575.272
2176.148, 2558.013
2178.076, 2553.658
2180.005, 2555.469
2181.933, 2547.991
2183.862, 2526.836
2185.790, 2499.656
2187.719, 2476.624
2189.647, 2462.470
2191.576, 2440.648
2193.504, 2418.853
2195.433, 2412.305
2197.361, 2394.991
2199.290, 2370.627
2201.218, 2359.361
2203.146, 2348.492
2205.075, 2339.150
2207.003, 2331.968
2208.932, 2319.563
2210.860, 2304.540
2212.789, 2286.830
2214.717, 2256.069
2216.646, 2229.063
2218.574, 2215.363
2220.503, 2210.863
2222.431, 2206.454
2224.360, 2198.284
2226.288, 2180.657
2228.217, 2161.087
2230.145, 2144.302
2232.073, 2137.201
2234.002, 2127.699
2235.930, 2105.356
2237.859, 2099.897
2239.787, 2095.504
2241.716, 2070.061
2243.644, 2051.923
2245.573, 2042.705
2247.501, 2028.426
2249.430, 2014.441
2251.358, 2007.594
2253.287, 1979.175
2255.215, 1950.164
2257.144, 1934.000
2259.072, 1926.355
2261.000, 1924.622
2262.929, 1918.196
2264.857, 1898.621
2266.786, 1878.316
2268.714, 1864.778
2270.643, 1850.224
2272.571, 1829.650
2274.500, 1811.240
2276.428, 1798.692
2278.357, 1791.530
2280.285, 1791.214
2282.214, 1791.616
2284.142, 1782.724
2286.071, 1758.078
2287.999, 1728.035
2289.927, 1720.254
2291.856, 1713.794
2293.784, 1704.594
2295.713, 1690.337
2297.641, 1686.237
2299.570, 1692.056
2301.498, 1668.679
2303.427, 1643.226
2305.355, 1643.248
2307.284, 1630.988
2309.212, 1602.578
2311.141, 1584.648
2313.069, 1580.846
2314.998, 1571.973
2316.926, 1558.873
2318.854, 1554.150
2320.783, 1543.667
2322.711, 1524.488
2324.640, 1513.347
2326.568, 1499.475
2328.497, 1484.559
2330.425, 1488.328
2332.354, 1481.166
2334.282, 1457.364
2336.211, 1442.005
2338.139, 1431.165
2340.068, 1410.386
2341.996, 1401.358
2343.925, 1401.617
2345.853, 1391.439
2347.781, 1366.122
2349.710, 1375.511
2351.638, 1378.226
2353.567, 1338.927
2355.495, 1327.576
2357.424, 1325.876
2359.352, 1318.411
2361.281, 1308.662
2363.209, 1295.825
2365.138, 1293.655
2367.066, 1291.169
2368.995, 1278.225
2370.923, 1257.669
2372.852, 1256.700
2374.780, 1272.386
2376.708, 1251.177
2378.637, 1215.958
2380.565, 1188.207
2382.494, 1193.360
2384.422, 1205.186
2386.351, 1192.946
2388.279, 1182.459
2390.208, 1174.282
2392.136, 1163.183
2394.065, 1154.209
2395.993, 1143.268
2397.922, 1137.014
2399.850, 1130.984
2401.779, 1120.269
2403.707, 1103.524
2405.635, 1092.906
2407.564, 1088.487
2409.492, 1069.734
2411.421, 1058.857
2413.349, 1065.491
2415.278, 1066.776
2417.206, 1060.680
2419.135, 1052.200
2421.063, 1036.792
2422.992, 1022.587
2424.920, 1018.396
2426.849, 1004.459
2428.777, 983.9792
2430.706, 977.3445
2432.634, 982.9628
2434.563, 996.0325
2436.491, 978.9678
2438.419, 959.6425
2440.348, 951.7386
2442.276, 946.3539
2444.205, 935.8570
2446.133, 927.7696
2448.062, 923.2517
2449.990, 917.4350
2451.919, 904.5607
2453.847, 884.7301
2455.776, 879.1000
2457.704, 892.0736
2459.633, 887.2505
2461.561, 874.6589
2463.490, 866.3181
2465.418, 852.8200
2467.346, 847.8640
2469.275, 840.4387
2471.203, 830.4228
2473.132, 832.3301
2475.060, 832.5231
2476.989, 811.6169
2478.917, 797.2106
2480.846, 791.4025
2482.774, 784.3967
2484.703, 778.0000
2486.631, 778.2452
2488.560, 774.2943
2490.488, 769.6364
2492.417, 773.1049
2494.345, 758.4206
2496.273, 743.5148
2498.202, 744.3024
2500.130, 737.9702
2502.059, 732.2842
2503.987, 728.2162
2505.916, 722.2411
2507.844, 715.3971
2509.773, 707.7690
2511.701, 699.5408
2513.630, 689.9783
2515.558, 685.7249
2517.487, 685.2205
2519.415, 683.9946
2521.344, 671.5900
2523.272, 654.5490
2525.200, 644.5052
2527.129, 656.5029
2529.057, 654.1068
2530.986, 640.9943
2532.914, 625.2474
2534.843, 630.9153
2536.771, 637.8930
2538.700, 602.8135
2540.628, 597.4659
2542.557, 610.6699
2544.485, 605.0203
2546.414, 598.7027
2548.342, 594.7452
2550.271, 593.2394
2552.199, 584.7044
2554.127, 575.8716
2556.056, 574.8708
2557.984, 565.1259
2559.913, 555.8998
2561.841, 568.9478
2563.770, 559.6266
2565.698, 542.5193
2567.627, 547.5295
2569.555, 544.6541
2571.484, 535.7922
2573.412, 530.0761
2575.341, 523.8492
2577.269, 517.5338
2579.198, 513.2241
2581.126, 502.9446
2583.054, 497.4348
2584.983, 509.9220
2586.911, 508.2476
2588.840, 496.4682
2590.768, 480.3036
2592.697, 471.2803
2594.625, 470.7646
2596.554, 479.0654
2598.482, 471.4195
2600.411, 460.2525
2602.339, 454.6259
2604.268, 459.6642
2606.196, 464.5970
2608.125, 462.9591
2610.053, 443.4605
2611.981, 433.3178
2613.910, 440.3547
2615.838, 436.2306
2617.767, 433.2717
2619.695, 433.6383
2621.624, 422.3326
2623.552, 412.3653
2625.481, 409.3128
2627.409, 413.4317
2629.338, 413.2878
2631.266, 408.3328
2633.195, 408.0535
2635.123, 401.4445
2637.052, 390.9443
2638.980, 387.8820
2640.908, 387.0086
2642.837, 385.7886
2644.765, 384.4962
2646.694, 380.3278
2648.622, 372.8360
2650.551, 360.4221
2652.479, 363.7035
2654.408, 370.6745
2656.336, 362.4323
2658.265, 351.7962
2660.193, 349.0244
2662.122, 354.2050
2664.050, 349.4032
2665.979, 345.3432
2667.907, 344.9834
2669.835, 340.0388
2671.764, 334.1557
2673.692, 326.7766
2675.621, 322.8080
2677.549, 319.7349
2679.478, 317.1281
2681.406, 314.4580
2683.335, 314.1356
2685.263, 316.1155
2687.192, 315.1682
2689.120, 310.2419
2691.049, 306.4160
2692.977, 305.3852
2694.906, 303.8202
2696.834, 298.9892
2698.762, 291.5568
2700.691, 296.9620
2702.619, 291.5965
2704.548, 277.8492
2706.476, 282.5915
2708.405, 283.1084
2710.333, 281.5468
2712.262, 277.9686
2714.190, 269.1216
2716.119, 265.8852
2718.047, 272.9756
2719.976, 268.4387
2721.904, 263.7173
2723.833, 261.9666
2725.761, 257.3671
2727.689, 254.5215
2729.618, 259.1807
2731.546, 248.3824
2733.475, 243.8717
2735.403, 249.2289
2737.332, 243.4552
2739.260, 238.4754
2741.189, 237.1148
2743.117, 235.7753
2745.046, 237.7638
2746.974, 237.1308
2748.903, 231.7908
2750.831, 225.7416
2752.760, 225.8887
2754.688, 225.2431
2756.616, 215.0964
2758.545, 211.5713
2760.473, 211.8511
2762.402, 210.5896
2764.330, 206.7756
2766.259, 204.7617
2768.187, 202.1300
2770.116, 206.9880
2772.044, 211.4916
2773.973, 199.2389
2775.901, 196.4478
2777.830, 202.2290
2779.758, 198.8428
2781.687, 194.2598
2783.615, 190.2943
2785.543, 191.0399
2787.472, 193.7650
2789.400, 191.4475
2791.329, 186.9117
2793.257, 184.0273
2795.186, 177.0428
2797.114, 177.9871
2799.043, 177.5892
2800.971, 179.5985
2802.900, 180.1976
2804.828, 172.0192
2806.757, 164.8593
2808.685, 169.3913
2810.614, 170.4439
2812.542, 163.8843
2814.470, 165.0777
2816.399, 164.7682
2818.327, 160.3396
2820.256, 159.3695
2822.184, 158.9150
2824.113, 159.7673
2826.041, 157.2814
2827.970, 154.2242
2829.898, 153.6662
2831.827, 155.4805
2833.755, 156.9795
2835.684, 148.9932
2837.612, 144.1702
2839.541, 144.3690
2841.469, 140.2500
2843.397, 139.8696
2845.326, 143.4340
2847.254, 144.4424
2849.183, 143.1275
2851.111, 140.6943
2853.040, 140.2241
2854.968, 139.6240
2856.897, 129.3536
2858.825, 134.4700
2860.754, 135.3259
2862.682, 132.6754
2864.611, 132.4697
2866.539, 126.7429
2868.468, 124.0496
2870.396, 121.7695
2872.324, 123.1236
2874.253, 120.7340
2876.181, 118.6666
2878.110, 122.2450
2880.038, 119.0213
2881.967, 113.2647
2883.895, 115.2994
2885.824, 115.9949
2887.752, 114.0917
2889.681, 107.8116
2891.609, 108.7791
2893.538, 114.8156
2895.466, 117.9357
2897.395, 114.4181
2899.323, 108.9577
2901.251, 104.7402
2903.180, 106.2831
2905.108, 108.0509
2907.037, 107.9100
2908.965, 103.4310
2910.894, 99.58653
2912.822, 98.78261
2914.751, 98.86530
2916.679, 101.1195
2918.608, 100.1867
2920.536, 95.12366
2922.465, 91.70779
2924.393, 91.10902
2926.322, 88.34503
2928.250, 90.34792
2930.178, 92.48883
2932.107, 92.27583
2934.035, 93.98749
2935.964, 89.67004
2937.892, 83.87569
2939.821, 81.77530
2941.749, 82.10867
2943.678, 81.53616
2945.606, 81.47514
2947.535, 83.65352
2949.463, 82.54166
2951.392, 79.06245
2953.320, 77.40470
2955.249, 82.05886
2957.177, 86.93930
2959.105, 82.02487
2961.034, 82.33047
2962.962, 80.20590
2964.891, 76.38018
2966.819, 73.93083
2968.748, 75.44863
2970.676, 76.59260
2972.605, 73.54859
2974.533, 77.49528
2976.462, 75.19582
2978.390, 69.88580
2980.319, 71.49306
2982.247, 69.48295
2984.176, 68.11251
2986.104, 69.08841
2988.032, 70.34379
2989.961, 69.42048
2991.889, 66.90868
2993.818, 66.95924
2995.746, 63.92007
2997.675, 67.48373
2999.603, 70.45164
3001.532, 65.11069
3003.460, 63.28316
3005.389, 59.58765
3007.317, 55.22221
3009.246, 60.09753
3011.174, 62.69291
3013.103, 62.71914
3015.031, 63.12238
3016.959, 61.89848
3018.888, 63.56618
3020.816, 61.15403
3022.745, 52.08362
3024.673, 58.00353
3026.602, 58.30873
3028.530, 56.78871
3030.459, 58.08638
3032.387, 57.95250
3034.316, 57.76521
3036.244, 57.46197
3038.173, 55.54697
3040.101, 49.88770
3042.030, 51.71352
3043.958, 58.93758
3045.886, 54.17350
3047.815, 50.06664
3049.743, 49.00181
3051.672, 50.14326
3053.600, 48.94933
3055.529, 48.65528
3057.457, 48.78563
3059.386, 48.16117
3061.314, 45.96152
3063.243, 48.28721
3065.171, 51.38781
3067.100, 50.44875
3069.028, 46.93262
3070.957, 45.29951
3072.885, 45.19518
3074.813, 44.84494
3076.742, 44.51257
3078.670, 43.82092
3080.599, 43.04025
3082.527, 42.73142
3084.456, 43.30900
3086.384, 42.69183
3088.313, 41.71179
3090.241, 44.59740
3092.170, 46.90699
3094.098, 44.62756
3096.027, 39.20361
3097.955, 40.35607
3099.884, 44.69537
3101.812, 48.21148
3103.740, 48.63424
3105.669, 41.79090
3107.597, 43.99791
3109.526, 44.14628
3111.454, 37.91111
3113.383, 38.46467
3115.311, 38.05170
3117.240, 37.35669
3119.168, 37.13563
3121.097, 38.73309
3123.025, 33.73769
3124.954, 29.95743
3126.882, 31.76676
3128.811, 36.33819
3130.739, 37.01146
3132.667, 36.14154
3134.596, 34.79349
3136.524, 34.90253
3138.453, 34.43684
3140.381, 35.57332
3142.310, 37.72393
3144.238, 34.62524
3146.167, 34.22431
3148.095, 34.50410
3150.024, 35.36697
3151.952, 34.29077
3153.881, 34.17674
3155.809, 35.71040
3157.738, 37.59519
3159.666, 37.53989
3161.594, 27.48365
3163.523, 25.71117
3165.451, 31.59776
3167.380, 29.15624
3169.308, 32.04269
3171.237, 31.21900
3173.165, 27.66192
3175.094, 27.01957
3177.022, 29.69053
3178.951, 31.92913
3180.879, 31.44256
3182.808, 30.94357
3184.736, 33.65358
3186.665, 31.96129
3188.593, 30.93395
3190.521, 37.15633
3192.450, 34.56482
3194.378, 32.43983
3196.307, 30.79500
3198.235, 31.06521
3200.164, 28.47189
3202.092, 32.65156
3204.021, 37.00197
3205.949, 34.83858
3207.878, 23.15974
3209.806, 31.29896
3211.735, 36.19260
3213.663, 30.04614
3215.592, 33.40323
3217.520, 32.42502
3219.448, 33.42655
3221.377, 34.02686
3223.305, 27.76064
3225.234, 31.47853
3227.162, 32.33130
3229.091, 30.16443
3231.019, 30.47752
3232.948, 33.37835
3234.876, 32.56400
3236.805, 32.22123
3238.733, 33.73989
3240.662, 30.33415
3242.590, 35.42163
3244.519, 34.86702
3246.447, 28.71432
3248.375, 27.06183
3250.304, 29.45912
3252.232, 29.82795
3254.161, 29.35287
3256.089, 29.52177
3258.018, 27.42823
3259.946, 28.68951
3261.875, 30.21043
3263.803, 32.85552
3265.732, 36.98064
3267.660, 30.90355
3269.589, 29.54037
3271.517, 31.31188
3273.446, 28.27613
3275.374, 31.65174
3277.302, 33.95132
3279.231, 33.67992
3281.159, 32.59914
3283.088, 31.35687
3285.016, 30.89108
3286.945, 30.90235
3288.873, 31.31051
3290.802, 29.27579
3292.730, 28.22727
3294.659, 30.10211
3296.587, 32.32676
3298.516, 29.73001
3300.444, 30.67783
3302.373, 27.59459
3304.301, 25.60254
3306.229, 26.08330
3308.158, 24.90746
3310.086, 24.27514
3312.015, 26.34475
3313.943, 27.81367
3315.872, 26.16446
3317.800, 28.70282
3319.729, 24.50116
3321.657, 23.08442
3323.586, 26.42628
3325.514, 22.52923
3327.443, 21.66535
3329.371, 26.81769
3331.300, 28.28829
3333.228, 21.26867
3335.156, 19.39146
3337.085, 29.21625
3339.013, 30.34828
3340.942, 22.83137
3342.870, 18.93152
3344.799, 28.47220
3346.727, 26.86309
3348.656, 23.83570
3350.584, 24.95133
3352.513, 19.16761
3354.441, 18.93381
3356.370, 24.94790
3358.298, 25.79619
3360.227, 18.89886
3362.155, 22.96199
3364.083, 24.79221
3366.012, 21.71113
3367.940, 18.27783
3369.869, 21.03227
3371.797, 29.16401
3373.726, 26.33908
3375.654, 23.60159
3377.583, 23.86639
3379.511, 20.02165
3381.440, 21.55973
3383.368, 22.20094
3385.297, 15.82526
3387.225, 8.624125
3389.154, 17.01157
3391.082, 18.30198
3393.010, 18.64233
3394.939, 20.53535
3396.867, 22.13159
3398.796, 19.71549
3400.724, 23.91180
3402.653, 26.40544
3404.581, 25.11261
3406.510, 22.35891
3408.438, 25.52439
3410.367, 25.59797
3412.295, 24.18366
3414.224, 22.10061
3416.152, 19.16065
3418.081, 15.06717
3420.009, 11.50743
3421.938, 13.83968
3423.866, 17.44206
3425.794, 17.49087
3427.723, 21.66633
3429.651, 23.26264
3431.580, 20.21421
3433.508, 18.54028
3435.437, 21.32097
3437.365, 14.82036
3439.294, 17.40087
3441.222, 23.93273
3443.151, 22.58862
3445.079, 12.35914
3447.008, 21.41805
3448.936, 18.02588
3450.865, 20.92144
3452.793, 19.59748
3454.721, 9.900526
3456.650, 19.69117
3458.578, 21.91128
3460.507, 16.20936
3462.435, 11.17735
3464.364, 11.75277
3466.292, 16.09673
3468.221, 14.37724
3470.149, 16.48128
3472.078, 16.86980
3474.006, 13.98933
3475.935, 13.56997
3477.863, 19.80615
3479.792, 23.02065
3481.720, 18.09285
3483.648, 12.26074
3485.577, 15.16384
3487.505, 13.70797
3489.434, 18.33795
3491.362, 19.92584
3493.291, 17.02226
3495.219, 14.10627
3497.148, 20.08837
3499.076, 15.87903
3501.005, 15.70297
3502.933, 18.67011
3504.862, 20.58964
3506.790, 20.63837
3508.719, 21.50273
3510.647, 15.80284
3512.575, 14.89945
3514.504, 17.75268
3516.432, 15.53428
3518.361, 18.72731
3520.289, 18.09998
3522.218, 20.60536
3524.146, 20.40115
3526.075, 14.51305
3528.003, 15.15437
3529.932, 17.25617
3531.860, 19.28723
3533.789, 18.54199
3535.717, 15.25805
3537.646, 11.96596
3539.574, 11.05488
3541.502, 16.28574
3543.431, 15.88721
3545.359, 15.82586
3547.288, 18.69670
3549.216, 12.75075
3551.145, 25.23791
3553.073, 19.76833
3555.002, 10.57068
3556.930, 11.17824
3558.859, 20.28102
3560.787, 15.48023
3562.716, 14.36244
3564.644, 14.52312
3566.573, 13.99432
3568.501, 13.05923
3570.429, 13.00800
3572.358, 13.98677
3574.286, 15.53590
3576.215, 13.70926
3578.143, 15.38497
3580.072, 20.52443
3582.000, 16.22803
3583.929, 17.02564
3585.857, 14.99445
3587.786, 16.58134
3589.714, 17.21072
3591.643, 13.20253
3593.571, 14.67900
3595.500, 10.57755
3597.428, 9.527793
3599.356, 7.664012
3601.285, 7.361827
3603.213, 11.67566
3605.142, 14.46268
3607.070, 11.75743
3608.999, 8.869547
3610.927, 13.10954
3612.856, 15.72539
3614.784, 9.704418
3616.713, 11.98187
3618.641, 6.543693
3620.570, 14.51439
3622.498, 19.20055
3624.427, 16.35652
3626.355, 13.50503
3628.283, 15.57007
3630.212, 16.04787
3632.140, 15.43199
3634.069, 13.62057
3635.997, 11.74044
3637.926, 10.59884
3639.854, 9.435160
3641.783, 9.157340
3643.711, 10.75458
3645.640, 7.351663
3647.568, 7.761183
3649.497, 12.50234
3651.425, 8.197777
3653.354, 11.34975
3655.282, 10.64057
3657.210, 13.15651
3659.139, 13.50206
3661.067, 10.49562
3662.996, 9.359251
3664.924, 10.70472
3666.853, 9.062956
3668.781, 6.320193
3670.710, 6.136036
3672.638, 5.679382
3674.567, 3.991982
3676.495, 10.95257
3678.424, 15.05276
3680.352, 17.92738
3682.281, 13.85383
3684.209, 8.264418
3686.137, 7.044750
3688.066, 10.49463
3689.994, 12.23645
3691.923, 8.268128
3693.851, 13.02336
3695.780, 15.44608
3697.708, 12.49258
3699.637, 9.570193
3701.565, 10.59203
3703.494, 11.98563
3705.422, 11.20796
3707.351, 11.24736
3709.279, 8.749949
3711.208, 7.941331
3713.136, 13.20171
3715.064, 12.48375
3716.993, 9.907106
3718.921, 11.12199
3720.850, 7.429340
3722.778, 3.155150
3724.707, 5.810266
3726.635, 14.45446
3728.564, 13.80744
3730.492, 12.35439
3732.421, 13.21723
3734.349, 12.75230
3736.278, 13.21135
3738.206, 12.46070
3740.135, 6.925424
3742.063, 9.558073
3743.991, 4.756897
3745.920, 7.570312
3747.848, 8.770574
3749.777, 12.53055
3751.705, 15.08131
3753.634, 8.352355
3755.562, 10.35204
3757.491, 15.35052
3759.419, 6.147730
3761.348, 5.413525
3763.276, 9.214411
3765.205, 8.280870
3767.133, 4.399168
3769.062, 8.904751
3770.990, 13.16921
3772.918, 11.41452
3774.847, 12.65934
3776.775, 12.96360
3778.704, 12.94690
3780.632, 13.25165
3782.561, 9.852267
3784.489, 9.598294
3786.418, 9.146058
3788.346, 13.17666
3790.275, 9.104006
3792.203, 7.244945
3794.132, 8.369797
3796.060, 6.075587
3797.989, 13.19501
3799.917, 11.36868
3801.845, 8.096753
3803.774, 37.03941
3805.702, 32.21158
3807.631, 6.708617
3809.559, -6.1157331E-02
3811.488, 6.722012
3813.416, 5.407153
3815.345, 8.983620
3817.273, 8.240869
3819.202, 10.80019
3821.130, 12.42428
3823.059, 9.482567
3824.987, 5.594015
3826.916, 6.860408
3828.844, 9.471028
3830.772, 8.597430
3832.701, 8.316465
3834.629, 8.159327
3836.558, 7.729085
3838.486, 13.80570
3840.415, 19.20000
3842.343, 7.590662
3844.272, 6.854038
3846.200, 7.429545
3848.129, 14.48961
3850.057, 9.040012
3851.986, 7.215228
3853.914, 10.86717
3855.843, 11.81190
3857.771, 10.25634
3859.699, 13.93997
3861.628, 9.345246
3863.556, 7.159358
3865.485, 8.045994
3867.413, 7.640336
3869.342, 6.853244
3871.270, 7.038047
3873.199, 9.165109
3875.127, 12.67150
3877.056, 4.734806
3878.984, 8.373890
3880.913, 13.13616
3882.841, 12.98592
3884.770, 8.168181
3886.698, 7.033931
3888.626, 6.888880
3890.555, 5.008072
3892.483, 14.89844
3894.412, 9.054277
3896.340, 11.10638
3898.269, 7.919116
3900.197, 8.911364
3902.126, 9.636114
3904.054, 6.261739
3905.983, 5.615668
3907.911, 11.75592
3909.840, 13.83829
3911.768, 6.559433
3913.697, 3.463036
3915.625, 13.91879
3917.553, 9.042602
3919.482, -8.4183447E-02
3921.410, 3.426055
3923.339, 9.019868
3925.267, 6.984260
3927.196, 8.784638
3929.124, 15.16936
3931.053, 14.91784
3932.981, 8.598161
3934.910, 6.283623
3936.838, 11.33426
3938.767, 14.97423
3940.695, 11.61163
3942.624, 6.645299
3944.552, 8.006398
3946.480, 14.15410
3948.409, 9.079199
3950.337, 7.444699
3952.266, 6.019412
3954.194, 5.026833
3956.123, 9.409537
3958.051, 9.708879
3959.980, 9.768481
3961.908, 11.25413
3963.837, 9.912654
3965.765, 6.712049
3967.694, 0.3198056
3969.622, 7.482514
3971.551, 8.165213
3973.479, 12.72124
3975.407, 7.981482
3977.336, 0.6527916
3979.264, 5.661602
3981.193, 8.989310
3983.121, 4.727778
3985.050, 7.784013
3986.978, 9.777212
3988.907, 0.2311438
3990.835, 9.921628
3992.764, 10.51829
3994.692, 9.538589
3996.621, 5.077435
3998.549, 8.784363
4000.478, 8.627744
4002.406, 7.298549
4004.334, 10.11193
4006.263, 8.242123
4008.191, 2.948475
4010.120, -0.2797604
4012.048, 14.44868
4013.977, 10.32572
4015.905, 6.380401
4017.834, 6.742985
4019.762, 7.567409
4021.691, 4.861519
4023.619, 7.991495
4025.548, 12.11781
4027.476, 10.53859
4029.405, 11.43653
4031.333, 8.512084
4033.261, 4.072347
4035.190, 15.52094
4037.118, 2.979703
4039.047, 11.38169
4040.975, 13.89957
4042.904, 12.05807
4044.832, 6.548692
4046.761, 6.772635
4048.689, 10.06706
4050.618, 11.20288
4052.546, 10.06858
4054.475, 1.744803
4056.403, 6.939937
4058.332, 10.10106
4060.260, 7.468713
4062.188, 9.923265
4064.117, 8.731222
4066.045, 3.048191
4067.974, 3.193899
4069.902, 3.733426
4071.831, 6.452963
4073.759, 12.66456
4075.688, 12.13288
4077.616, 4.007756
4079.545, 5.324974
4081.473, 12.59888
4083.402, 7.769147
4085.330, 7.442587
4087.259, 6.489403
4089.187, 1.507734
4091.115, 8.417229
4093.044, 6.694064
4094.972, 10.43099
4096.901, 7.281030
4098.829, 2.133190
4100.758, 1.470162
4102.687, 5.114561
4104.615, 7.219223
4106.543, 3.759029
4108.472, 8.837810
4110.400, 8.960945
4112.329, 4.697457
4114.257, 5.741861
4116.186, 5.090585
4118.114, 13.66430
4120.042, 8.710417
4121.971, 12.33481
4123.899, 8.544115
4125.828, 7.092987
4127.756, 6.124799
4129.685, 3.335401
4131.613, 4.380942
4133.542, 7.929685
4135.470, 8.788415
4137.398, 6.735300
4139.327, 5.066511
4141.256, 11.84410
4143.184, 15.02578
4145.112, 5.426491
4147.041, 4.245676
4148.970, 6.119398
4150.898, 15.62749
4152.826, 8.227211
4154.755, 9.027834
4156.684, 10.80449
4158.612, 8.524373
4160.540, 8.248271
4162.469, 9.604033
4164.397, 6.586758
4166.326, 2.853325
4168.254, 3.502955
4170.183, 4.036135
4172.111, 3.326855
4174.040, 6.116655
4175.968, 7.399335
4177.896, 6.170492
4179.825, 6.077547
4181.753, 0.2203749
4183.682, 5.473215
4185.610, 2.722033
4187.539, 10.49339
4189.467, 10.07082
4191.396, 7.205068
4193.324, 3.460432
4195.253, 6.389816
4197.181, 4.704606
4199.109, 4.018762
4201.038, 3.103145
4202.967, 5.506437
4204.895, 9.497110
4206.823, 11.48296
4208.752, 11.03209
4210.681, 7.072534
4212.609, 3.359004
4214.537, 3.282128
4216.466, 14.75548
4218.395, 7.637740
4220.323, 6.083171
4222.251, 4.564784
4224.180, 7.191612
4226.108, 11.69358
4228.037, 12.37946
4229.965, 9.445096
4231.894, 10.35819
4233.822, 11.54834
4235.750, 2.873840
4237.679, 6.934009
4239.607, 10.90754
4241.536, 6.445214
4243.464, 4.992275
4245.393, 8.278286
4247.321, 14.72020
4249.250, 8.261680
4251.178, 4.950132
4253.106, 8.847187
4255.035, 11.32206
4256.964, 12.80711
4258.892, 10.14445
4260.820, 6.250215
4262.749, 6.158063
4264.678, 2.983881
4266.606, -0.8596557
4268.534, 3.435421
4270.463, 6.244721
4272.392, 7.884926
4274.320, 8.856697
4276.248, 4.699169
4278.177, 6.228791
4280.105, 11.98410
4282.034, 13.84051
4283.962, 12.71504
4285.891, 5.322761
4287.819, 3.037908
4289.748, 6.010049
4291.676, 2.919984
4293.604, 10.13039
4295.533, 5.105136
4297.461, 9.834263
4299.390, 9.239085
4301.318, 12.34377
4303.247, 7.790859
4305.175, 4.694994
4307.104, 7.575340
4309.032, 2.629216
4310.961, 5.328938
4312.889, 12.38550
4314.817, 2.591883
4316.746, 9.390794
4318.675, 4.626471
4320.603, 5.754101
4322.531, 11.54112
4324.460, 18.48084
4326.389, 9.518864
##END=



