##NAMES=Triphylite
##RRUFFID=R100156
##IDEAL CHEMISTRY=LiFe^2+^(PO_4_)
##LOCALITY=Conselheira Pena, Minas Geraìs, Brazil
##OWNER=RRUFF
##SOURCE=William W. Pinch
##DESCRIPTION=Brownish-orange cut stone
##STATUS=The identification of this mineral has been confirmed by single-crystal X-ray diffraction
##URL=https://www.rruff.net/odr/rruff_sample/R100156
##DIFFRACTION SAMPLE DESCRIPTION=Single crystal, powder profile is calculated
##CELL PARAMETERS=a: 4.718 b: 10.391 c: 6.051 alpha: 90 beta: 90 gamma: 90 volume: 296.62 crystal system: orthorhombic
##FILETYPE=Raman RAW
##RAMAN WAVELENGTH=780

120.5459, 308.6733
122.4744, 316.6528
124.4028, 331.0731
126.3313, 349.5306
128.2598, 374.2169
130.1882, 407.4704
132.1167, 448.2685
134.0452, 503.6334
135.9736, 572.3088
137.9021, 659.3128
139.8306, 780.8752
141.7590, 917.8588
143.6875, 1043.284
145.6160, 1159.230
147.5444, 1236.097
149.4729, 1273.196
151.4014, 1264.004
153.3298, 1192.363
155.2583, 1077.170
157.1868, 935.7025
159.1152, 768.5218
161.0437, 622.6248
162.9722, 502.9940
164.9006, 407.5921
166.8291, 343.4993
168.7576, 299.8394
170.6860, 268.1492
172.6145, 247.3404
174.5430, 231.4407
176.4714, 221.9718
178.3999, 215.1586
180.3284, 210.5028
182.2568, 208.7021
184.1853, 209.4440
186.1138, 213.2801
188.0422, 222.5089
189.9707, 236.6350
191.8992, 258.2105
193.8276, 294.1999
195.7561, 329.6732
197.6846, 363.7492
199.6130, 390.0804
201.5415, 396.7233
203.4700, 379.6201
205.3984, 356.9880
207.3269, 322.7144
209.2554, 293.5781
211.1838, 274.3948
213.1123, 263.3861
215.0408, 258.9937
216.9692, 261.2255
218.8977, 269.9629
220.8262, 283.6589
222.7546, 306.6799
224.6831, 337.9589
226.6116, 382.0594
228.5400, 444.2137
230.4685, 518.3522
232.3970, 595.1336
234.3254, 678.0651
236.2539, 740.0750
238.1824, 774.6975
240.1108, 800.8214
242.0393, 828.7200
243.9678, 849.2397
245.8962, 858.9828
247.8247, 855.2958
249.7532, 819.3267
251.6816, 748.0109
253.6101, 668.8491
255.5386, 578.5051
257.4670, 495.5067
259.3955, 426.9901
261.3240, 371.4766
263.2524, 328.1933
265.1809, 296.7798
267.1094, 271.8980
269.0378, 253.6869
270.9663, 240.9812
272.8948, 234.1964
274.8232, 231.6845
276.7517, 233.3706
278.6802, 238.6125
280.6086, 246.2820
282.5371, 256.3304
284.4656, 265.6049
286.3940, 275.3288
288.3225, 280.8705
290.2510, 280.9108
292.1794, 276.5916
294.1079, 267.3947
296.0364, 254.6780
297.9648, 241.6872
299.8933, 228.1239
301.8218, 217.0298
303.7502, 209.3558
305.6787, 203.7661
307.6072, 200.2565
309.5356, 198.4518
311.4641, 199.0944
313.3926, 201.0724
315.3210, 201.3339
317.2495, 199.6009
319.1780, 196.4122
321.1064, 191.5643
323.0349, 185.7959
324.9634, 178.5957
326.8918, 171.1682
328.8203, 164.4056
330.7488, 158.3933
332.6772, 153.5916
334.6057, 150.2300
336.5342, 147.6514
338.4626, 146.2201
340.3911, 144.9608
342.3196, 143.3624
344.2480, 141.9796
346.1765, 141.0540
348.1050, 140.6753
350.0334, 141.4051
351.9619, 144.0297
353.8904, 145.8324
355.8188, 145.9106
357.7473, 146.6366
359.6758, 148.8347
361.6042, 151.9388
363.5327, 155.5827
365.4612, 159.7164
367.3896, 164.1913
369.3181, 169.0394
371.2466, 173.9625
373.1750, 178.1080
375.1035, 184.2242
377.0320, 193.2138
378.9604, 204.3741
380.8889, 216.9096
382.8174, 231.2337
384.7458, 247.6244
386.6743, 266.1285
388.6028, 289.2507
390.5313, 317.1985
392.4597, 348.5024
394.3882, 384.3475
396.3167, 421.1905
398.2451, 460.4221
400.1736, 497.2158
402.1021, 527.4725
404.0305, 550.8293
405.9590, 565.2053
407.8875, 570.6088
409.8159, 572.3124
411.7444, 568.5517
413.6729, 567.2443
415.6013, 568.3591
417.5298, 575.7841
419.4583, 591.6136
421.3867, 615.5414
423.3152, 647.5637
425.2437, 687.4743
427.1721, 734.5103
429.1006, 788.5692
431.0291, 850.4071
432.9575, 928.2484
434.8860, 1002.249
436.8145, 1073.213
438.7429, 1131.467
440.6714, 1172.838
442.5999, 1193.055
444.5283, 1185.041
446.4568, 1149.704
448.3853, 1093.682
450.3137, 1011.688
452.2422, 925.1155
454.1707, 831.6730
456.0991, 742.7395
458.0276, 661.2013
459.9561, 587.3612
461.8845, 521.4275
463.8130, 463.6806
465.7415, 415.8510
467.6699, 378.1125
469.5984, 344.1910
471.5269, 313.2280
473.4553, 287.0855
475.3838, 267.4513
477.3123, 250.4423
479.2407, 234.9018
481.1692, 221.0306
483.0977, 209.3454
485.0261, 199.3259
486.9546, 190.0714
488.8831, 181.5715
490.8115, 174.1350
492.7400, 168.1440
494.6685, 162.6780
496.5969, 157.7670
498.5254, 153.3269
500.4539, 149.4658
502.3823, 145.9181
504.3108, 142.2698
506.2393, 138.9280
508.1677, 136.7330
510.0962, 135.6151
512.0247, 134.2566
513.9531, 132.6639
515.8816, 130.6891
517.8101, 127.8856
519.7385, 125.7578
521.6670, 125.0035
523.5955, 124.6073
525.5239, 123.7726
527.4524, 123.2130
529.3809, 123.5806
531.3093, 124.8082
533.2378, 126.6419
535.1663, 129.0940
537.0947, 132.5374
539.0232, 137.0470
540.9517, 142.0739
542.8801, 147.4743
544.8086, 153.4693
546.7371, 159.1388
548.6655, 166.6930
550.5940, 177.2644
552.5225, 190.4830
554.4509, 205.2554
556.3794, 222.2811
558.3079, 243.5792
560.2363, 269.1117
562.1648, 302.3042
564.0933, 342.6058
566.0217, 395.5299
567.9502, 464.8477
569.8787, 542.5688
571.8071, 639.9413
573.7356, 727.6214
575.6641, 794.7075
577.5925, 838.7330
579.5210, 843.7813
581.4495, 826.5374
583.3779, 827.5265
585.3064, 846.1072
587.2349, 886.3107
589.1633, 956.9939
591.0918, 992.4965
593.0203, 985.5903
594.9487, 933.9530
596.8772, 813.1251
598.8057, 681.9891
600.7341, 551.1305
602.6626, 435.7791
604.5911, 349.8505
606.5195, 288.6505
608.4480, 245.1521
610.3765, 218.1970
612.3049, 204.2185
614.2334, 203.2475
616.1619, 213.0480
618.0903, 233.9705
620.0188, 265.2156
621.9473, 315.4256
623.8757, 361.8352
625.8042, 411.7555
627.7327, 440.7432
629.6611, 430.5197
631.5896, 398.6398
633.5181, 351.4953
635.4465, 298.7840
637.3750, 254.7447
639.3035, 219.1670
641.2319, 190.9924
643.1604, 170.8230
645.0889, 154.5376
647.0173, 143.2316
648.9458, 132.9126
650.8743, 123.0198
652.8027, 114.9849
654.7312, 109.6707
656.6597, 105.4047
658.5881, 101.4668
660.5166, 98.18530
662.4451, 95.84438
664.3735, 94.18967
666.3020, 92.93125
668.2305, 92.10006
670.1589, 91.97532
672.0874, 92.49947
674.0159, 92.40694
675.9443, 91.62720
677.8728, 91.10141
679.8013, 90.84197
681.7297, 91.07336
683.6582, 92.13862
685.5867, 92.81138
687.5151, 92.27436
689.4436, 91.90196
691.3721, 92.34483
693.3005, 93.06487
695.2290, 93.88332
697.1575, 94.63047
699.0859, 94.88076
701.0144, 95.00932
702.9429, 96.03076
704.8713, 97.69711
706.7998, 98.72685
708.7283, 99.16935
710.6567, 99.68038
712.5852, 100.2971
714.5137, 101.0354
716.4421, 101.8286
718.3706, 102.9700
720.2991, 104.8720
722.2275, 106.5722
724.1560, 107.7672
726.0845, 108.8229
728.0129, 109.9603
729.9414, 110.9546
731.8699, 111.3144
733.7983, 111.7161
735.7268, 113.1706
737.6553, 115.0882
739.5837, 116.2898
741.5122, 117.1487
743.4407, 119.0957
745.3691, 121.9375
747.2976, 123.2121
749.2261, 122.5529
751.1545, 122.3223
753.0830, 122.8267
755.0115, 123.3594
756.9399, 124.1975
758.8684, 124.4990
760.7969, 123.7025
762.7253, 123.0696
764.6538, 122.8957
766.5823, 123.0671
768.5107, 123.7383
770.4392, 124.4992
772.3677, 125.3359
774.2961, 125.8452
776.2246, 125.2715
778.1531, 124.4442
780.0815, 124.5793
782.0100, 125.4145
783.9385, 126.4146
785.8669, 127.5126
787.7954, 128.2420
789.7239, 128.5951
791.6523, 128.7780
793.5808, 128.6816
795.5093, 129.0432
797.4377, 130.0465
799.3662, 130.6175
801.2947, 130.4806
803.2231, 130.5564
805.1516, 131.0437
807.0801, 131.7131
809.0085, 132.5187
810.9370, 133.4470
812.8655, 134.2379
814.7939, 135.5642
816.7224, 138.0525
818.6509, 140.7803
820.5793, 143.2742
822.5078, 145.6173
824.4363, 147.4111
826.3647, 149.4993
828.2932, 153.1440
830.2217, 157.7611
832.1501, 162.2359
834.0786, 166.8098
836.0071, 172.3241
837.9355, 178.5558
839.8640, 184.8454
841.7925, 190.9557
843.7209, 195.2206
845.6494, 197.6302
847.5779, 199.0816
849.5063, 199.6422
851.4348, 199.0257
853.3633, 197.1308
855.2917, 194.3634
857.2202, 190.3743
859.1487, 186.7856
861.0771, 183.8351
863.0056, 181.3675
864.9341, 179.7482
866.8625, 177.9428
868.7910, 175.2548
870.7195, 173.0803
872.6479, 171.6714
874.5764, 171.1946
876.5049, 172.4631
878.4333, 173.7108
880.3618, 173.5057
882.2903, 173.3613
884.2188, 174.2354
886.1472, 175.8463
888.0757, 177.8829
890.0042, 180.5850
891.9326, 183.9716
893.8611, 188.3926
895.7896, 194.1992
897.7180, 201.4324
899.6465, 209.4456
901.5750, 219.2662
903.5034, 230.9275
905.4319, 246.9707
907.3604, 273.4453
909.2888, 312.0782
911.2173, 373.5826
913.1458, 457.2014
915.0742, 557.4305
917.0027, 674.2142
918.9312, 779.5159
920.8596, 873.6778
922.7881, 945.9346
924.7166, 990.0178
926.6450, 1046.955
928.5735, 1108.332
930.5020, 1230.780
932.4304, 1404.879
934.3589, 1703.899
936.2874, 2109.068
938.2158, 2775.145
940.1443, 3678.897
942.0728, 5125.607
944.0012, 7219.217
945.9297, 9712.092
947.8582, 12887.64
949.7866, 15097.86
951.7151, 16077.62
953.6436, 15608.14
955.5720, 13198.09
957.5005, 10524.92
959.4290, 7747.888
961.3574, 5453.583
963.2859, 3852.678
965.2144, 2679.007
967.1428, 1984.338
969.0713, 1500.356
970.9998, 1219.104
972.9282, 1028.321
974.8567, 918.3093
976.7852, 850.4493
978.7136, 816.5931
980.6421, 812.3461
982.5706, 834.5695
984.4990, 887.9248
986.4275, 966.7247
988.3560, 1088.781
990.2844, 1253.877
992.2129, 1478.877
994.1414, 1790.882
996.0698, 2142.504
997.9983, 2579.332
999.9268, 2946.153
1001.855, 3195.365
1003.784, 3272.684
1005.712, 3096.065
1007.641, 2792.821
1009.569, 2379.610
1011.498, 1965.786
1013.426, 1608.293
1015.354, 1307.659
1017.283, 1074.696
1019.211, 886.5643
1021.140, 735.2449
1023.068, 611.2719
1024.997, 511.5708
1026.925, 431.0994
1028.854, 369.4455
1030.782, 321.1436
1032.711, 284.4530
1034.639, 256.3554
1036.568, 237.3542
1038.496, 222.5088
1040.425, 208.3530
1042.353, 196.7521
1044.281, 189.6617
1046.210, 184.8633
1048.138, 180.9852
1050.067, 178.6142
1051.995, 177.5645
1053.924, 178.9040
1055.852, 182.5602
1057.781, 189.8841
1059.709, 200.8643
1061.638, 217.0154
1063.566, 242.8271
1065.495, 269.3853
1067.423, 295.6225
1069.352, 314.8925
1071.280, 320.6779
1073.208, 322.0974
1075.137, 321.7980
1077.065, 321.9953
1078.994, 329.0179
1080.922, 329.2456
1082.851, 315.7932
1084.779, 294.2358
1086.708, 261.3300
1088.636, 229.6552
1090.565, 202.5743
1092.493, 180.7177
1094.422, 165.4208
1096.350, 153.6606
1098.279, 145.3388
1100.207, 138.8736
1102.135, 134.3696
1104.064, 130.6857
1105.992, 127.8071
1107.921, 125.2430
1109.849, 122.4567
1111.778, 120.7622
1113.706, 121.4579
1115.635, 121.3043
1117.563, 118.6792
1119.492, 117.4887
1121.420, 119.4540
1123.349, 119.9725
1125.277, 117.7771
1127.206, 116.3652
1129.134, 116.3790
1131.063, 115.9454
1132.991, 114.8304
1134.919, 113.7867
1136.848, 112.8674
1138.776, 111.8330
1140.705, 110.6667
1142.633, 109.3970
1144.562, 107.9731
1146.490, 107.0606
1148.419, 106.6758
1150.347, 106.2943
1152.276, 105.8849
1154.204, 104.5980
1156.133, 102.7500
1158.061, 102.3737
1159.990, 103.1848
1161.918, 104.3063
1163.846, 105.6108
1165.775, 106.6633
1167.703, 107.7191
1169.632, 109.3057
1171.560, 111.2556
1173.489, 113.5543
1175.417, 115.8095
1177.346, 117.5994
1179.274, 119.0133
1181.203, 120.7234
1183.131, 121.3337
1185.060, 119.0523
1186.988, 116.1973
1188.917, 114.4891
1190.845, 112.2007
1192.773, 107.9236
1194.702, 103.8166
1196.630, 100.4848
1198.559, 97.68140
1200.487, 95.44717
1202.416, 93.44131
1204.344, 91.49622
1206.273, 90.17118
1208.201, 89.72893
1210.130, 88.99377
1212.058, 87.75858
1213.987, 86.75063
1215.915, 86.04131
1217.844, 85.87920
1219.772, 86.24726
1221.700, 86.74660
1223.629, 87.32760
1225.557, 87.94549
1227.486, 88.49330
1229.414, 88.36961
1231.343, 88.05515
1233.271, 88.77332
1235.200, 90.00488
1237.128, 91.03259
1239.057, 91.94785
1240.985, 92.59508
1242.914, 93.51320
1244.842, 94.97679
1246.771, 97.19258
1248.699, 101.3501
1250.627, 104.6236
1252.556, 104.8957
1254.484, 105.2830
1256.413, 107.0962
1258.341, 108.6300
1260.270, 109.2864
1262.198, 110.2402
1264.127, 111.9239
1266.055, 113.0134
1267.984, 113.3607
1269.912, 113.5380
1271.841, 113.5611
1273.769, 112.8503
1275.698, 111.4960
1277.626, 110.0129
1279.554, 108.6649
1281.483, 108.5896
1283.411, 109.0769
1285.340, 108.9254
1287.268, 108.3617
1289.197, 107.5205
1291.125, 106.5950
1293.054, 106.0163
1294.982, 104.9751
1296.911, 102.5673
1298.839, 100.6702
1300.768, 100.1681
1302.696, 99.43822
1304.625, 97.93340
1306.553, 97.01242
1308.481, 96.93791
1310.410, 97.10204
1312.338, 97.38703
1314.267, 96.06585
1316.195, 93.51151
1318.124, 92.79012
1320.052, 93.30466
1321.981, 93.25605
1323.909, 92.80564
1325.838, 91.99380
1327.766, 91.22807
1329.695, 90.94478
1331.623, 90.95101
1333.552, 91.34037
1335.480, 91.59297
1337.408, 91.32598
1339.337, 91.13783
1341.265, 91.36809
1343.194, 91.27109
1345.122, 90.62436
1347.051, 90.30528
1348.979, 90.35708
1350.908, 90.92953
1352.836, 90.87585
1354.765, 91.88114
1356.693, 91.37302
1358.622, 91.51667
1360.550, 91.75304
1362.479, 91.19457
1364.407, 90.48537
1366.335, 90.05651
1368.264, 89.83546
1370.192, 89.69838
1372.121, 89.97732
1374.049, 90.00031
1375.978, 90.17365
1377.906, 90.75970
1379.835, 90.72641
1381.763, 91.74585
1383.692, 92.40099
1385.620, 92.65622
1387.549, 91.82822
1389.477, 90.67203
1391.406, 91.46493
1393.334, 90.55161
1395.262, 91.50387
1397.191, 90.37270
1399.119, 90.32280
1401.048, 91.02823
1402.976, 92.75896
1404.905, 93.88442
1406.833, 93.97327
1408.762, 93.96950
1410.690, 93.99158
1412.619, 93.22700
1414.547, 91.89894
1416.476, 91.77121
1418.404, 92.33091
1420.333, 92.62033
1422.261, 92.58543
1424.189, 91.52647
1426.118, 91.03992
1428.046, 93.13487
1429.975, 94.43765
1431.903, 93.59278
1433.832, 92.62514
1435.760, 91.73070
1437.689, 91.49000
1439.617, 91.91206
1441.546, 92.79020
1443.474, 93.70637
1445.403, 93.13645
1447.331, 91.94258
1449.260, 90.91384
1451.188, 90.51656
1453.116, 91.89511
1455.045, 92.72527
1456.973, 91.46361
1458.902, 90.42661
1460.830, 90.07327
1462.759, 89.85563
1464.687, 89.77615
1466.616, 89.58739
1468.544, 89.35664
1470.473, 89.31498
1472.401, 89.49812
1474.330, 90.26417
1476.258, 90.81468
1478.187, 90.38864
1480.115, 89.92879
1482.043, 89.73720
1483.972, 89.81778
1485.900, 89.77636
1487.829, 90.40611
1489.757, 90.17114
1491.686, 90.35902
1493.614, 90.68491
1495.543, 89.99976
1497.471, 89.29356
1499.400, 89.79963
1501.328, 90.77322
1503.257, 92.13123
1505.185, 93.02869
1507.114, 93.22569
1509.042, 92.84798
1510.970, 93.19699
1512.899, 91.97704
1514.827, 92.59212
1516.756, 91.64207
1518.684, 90.30421
1520.613, 90.34274
1522.541, 90.89229
1524.470, 91.33281
1526.398, 92.19482
1528.327, 93.92274
1530.255, 94.51537
1532.184, 93.75610
1534.112, 93.21654
1536.041, 93.01488
1537.969, 93.42044
1539.897, 93.86781
1541.826, 93.41230
1543.754, 92.77483
1545.683, 92.69429
1547.611, 92.11175
1549.540, 90.30373
1551.468, 89.34464
1553.397, 89.37885
1555.325, 88.89471
1557.254, 88.17165
1559.182, 88.61314
1561.111, 89.19400
1563.039, 88.56755
1564.968, 87.79775
1566.896, 87.48286
1568.824, 87.22928
1570.753, 86.76131
1572.681, 86.94336
1574.610, 87.74721
1576.538, 87.71982
1578.467, 87.19316
1580.395, 86.90222
1582.324, 86.62487
1584.252, 86.05924
1586.181, 85.78403
1588.109, 85.42279
1590.038, 85.13345
1591.966, 85.10060
1593.895, 84.97937
1595.823, 85.53298
1597.751, 86.16025
1599.680, 86.34787
1601.608, 84.85791
1603.537, 83.65565
1605.465, 83.69247
1607.394, 83.83012
1609.322, 83.82706
1611.251, 84.02274
1613.179, 84.35104
1615.108, 84.55847
1617.036, 84.29014
1618.965, 82.19839
1620.893, 80.68282
1622.822, 81.76495
1624.750, 82.08938
1626.678, 80.90191
1628.607, 80.67484
1630.535, 81.40694
1632.464, 82.13876
1634.392, 82.42866
1636.321, 81.07876
1638.249, 79.81575
1640.178, 79.87959
1642.106, 80.28098
1644.035, 81.00797
1645.963, 80.48534
1647.892, 79.04893
1649.820, 79.08144
1651.749, 79.77490
1653.677, 80.22395
1655.605, 80.27023
1657.534, 79.40502
1659.462, 78.96596
1661.391, 79.11622
1663.319, 80.28382
1665.248, 79.86221
1667.176, 81.30823
1669.105, 79.92371
1671.033, 79.60190
1672.962, 79.39255
1674.890, 78.81823
1676.819, 78.33406
1678.747, 77.98845
1680.676, 77.65134
1682.604, 77.39577
1684.532, 77.83719
1686.461, 77.89497
1688.389, 76.23379
1690.318, 75.34171
1692.246, 76.26124
1694.175, 76.81577
1696.103, 76.84699
1698.032, 76.53741
1699.960, 76.05087
1701.889, 75.63147
1703.817, 75.20413
1705.746, 74.67036
1707.674, 74.33367
1709.603, 74.24851
1711.531, 74.82370
1713.459, 75.56729
1715.388, 74.82845
1717.316, 73.67155
1719.245, 72.74797
1721.173, 72.63582
1723.102, 73.66931
1725.030, 73.42053
1726.959, 72.00280
1728.887, 71.19459
1730.816, 70.85774
1732.744, 70.88569
1734.673, 71.10496
1736.601, 71.38433
1738.530, 72.21939
1740.458, 72.20370
1742.386, 73.36880
1744.315, 72.58970
1746.243, 72.88696
1748.172, 73.17756
1750.100, 72.91931
1752.029, 72.01443
1753.957, 70.40931
1755.886, 69.15211
1757.814, 68.29423
1759.743, 67.90262
1761.671, 67.86098
1763.600, 68.44090
1765.528, 68.58574
1767.457, 67.97829
1769.385, 67.38242
1771.313, 66.73878
1773.242, 65.42028
1775.170, 64.60787
1777.099, 65.66874
1779.027, 66.16610
1780.956, 65.15836
1782.884, 65.24039
1784.813, 65.90555
1786.741, 64.62797
1788.670, 63.21954
1790.598, 63.29395
1792.527, 63.11053
1794.455, 62.12309
1796.384, 61.97380
1798.312, 62.36609
1800.240, 61.90714
1802.169, 61.41914
1804.097, 61.81337
1806.026, 61.58770
1807.954, 61.66613
1809.883, 61.68753
1811.811, 61.59549
1813.740, 61.39603
1815.668, 60.74209
1817.597, 60.09782
1819.525, 59.53813
1821.454, 59.07655
1823.382, 58.61894
1825.311, 58.37590
1827.239, 59.26846
1829.167, 59.81979
1831.096, 58.84417
1833.024, 57.45441
1834.953, 55.85557
1836.881, 55.90816
1838.810, 56.79247
1840.738, 57.35773
1842.667, 57.60822
1844.595, 57.88197
1846.524, 57.76442
1848.452, 57.58796
1850.381, 57.01922
1852.309, 56.13334
1854.238, 55.22752
1856.166, 54.73407
1858.094, 54.83906
1860.023, 55.63025
1861.951, 56.66013
1863.880, 55.84739
1865.808, 54.55779
1867.737, 53.30013
1869.665, 53.37944
1871.594, 55.25631
1873.522, 55.32717
1875.451, 54.50142
1877.379, 54.60064
1879.308, 54.44999
1881.236, 53.35027
1883.165, 53.18440
1885.093, 53.96764
1887.021, 55.08538
1888.950, 55.61560
1890.878, 54.16533
1892.807, 53.38173
1894.735, 53.91203
1896.664, 53.31843
1898.592, 52.31323
1900.521, 53.20760
1902.449, 53.56389
1904.378, 52.11753
1906.306, 50.92299
1908.235, 50.29627
1910.163, 50.70723
1912.092, 51.07283
1914.020, 49.92105
1915.948, 48.95445
1917.877, 48.48341
1919.805, 49.03558
1921.734, 49.85572
1923.662, 49.31591
1925.591, 48.81843
1927.519, 49.23150
1929.448, 48.64762
1931.376, 48.73734
1933.305, 47.88831
1935.233, 48.59121
1937.162, 48.49086
1939.090, 48.16885
1941.019, 47.71386
1942.947, 47.04016
1944.875, 46.48786
1946.804, 45.94815
1948.732, 46.65066
1950.661, 45.06162
1952.589, 44.28361
1954.518, 44.28130
1956.446, 45.56680
1958.375, 46.32035
1960.303, 45.43439
1962.232, 44.59650
1964.160, 44.01624
1966.089, 44.26426
1968.017, 44.75467
1969.946, 45.23259
1971.874, 45.09394
1973.802, 45.13113
1975.731, 44.40095
1977.659, 44.42421
1979.588, 43.21177
1981.516, 42.33794
1983.445, 42.17132
1985.373, 43.23306
1987.302, 44.30912
1989.230, 42.73098
1991.159, 42.19269
1993.087, 43.73482
1995.016, 43.17299
1996.944, 41.65191
1998.873, 42.29066
2000.801, 42.51638
2002.729, 41.32540
2004.658, 40.32759
2006.586, 39.87674
2008.515, 41.00454
2010.443, 41.70636
2012.372, 40.69771
2014.300, 39.90079
2016.229, 39.47638
2018.157, 39.40245
2020.086, 39.69468
2022.014, 40.68059
2023.943, 41.27814
2025.871, 41.38108
2027.800, 40.48074
2029.728, 39.57273
2031.656, 39.66833
2033.585, 38.94505
2035.513, 38.84844
2037.442, 38.02600
2039.370, 38.67168
2041.299, 38.01540
2043.227, 37.88353
2045.156, 38.31419
2047.084, 37.65064
2049.013, 37.21465
2050.941, 38.24988
2052.870, 38.68621
2054.798, 38.30445
2056.727, 37.46452
2058.655, 36.71334
2060.583, 36.44309
2062.512, 36.39128
2064.440, 36.41663
2066.369, 35.45697
2068.297, 35.12284
2070.226, 35.15115
2072.154, 34.50024
2074.083, 35.15073
2076.011, 34.09412
2077.940, 33.75713
2079.868, 34.17726
2081.797, 34.73882
2083.725, 35.11752
2085.654, 34.97972
2087.582, 35.01625
2089.510, 34.32116
2091.439, 34.49145
2093.367, 33.84423
2095.296, 33.53384
2097.224, 33.47024
2099.153, 33.68659
2101.081, 33.62817
2103.010, 33.30458
2104.938, 32.59211
2106.867, 32.36105
2108.795, 32.04970
2110.724, 32.76884
2112.652, 31.77807
2114.581, 31.27290
2116.509, 31.43883
2118.438, 32.48877
2120.366, 32.35608
2122.294, 31.69757
2124.223, 31.31828
2126.151, 30.90424
2128.080, 30.40007
2130.008, 30.89168
2131.937, 31.48336
2133.865, 31.38299
2135.794, 31.20299
2137.722, 31.00741
2139.651, 30.52018
2141.579, 29.92142
2143.508, 29.17218
2145.436, 29.64743
2147.365, 29.11616
2149.293, 29.93540
2151.221, 29.05173
2153.150, 28.63675
2155.078, 28.87136
2157.007, 29.33362
2158.935, 29.23888
2160.864, 29.43787
2162.792, 30.00646
2164.721, 29.43068
2166.649, 28.61422
2168.578, 28.43660
2170.506, 28.68212
2172.435, 29.03984
2174.363, 28.01783
2176.292, 27.26499
2178.220, 27.73646
2180.148, 28.32415
2182.077, 28.90010
2184.005, 28.67395
2185.934, 29.56388
2187.862, 28.09768
2189.791, 27.32574
2191.719, 27.02566
2193.648, 27.05045
2195.576, 26.97671
2197.505, 26.83087
2199.433, 27.19081
2201.362, 27.38712
2203.290, 27.11736
2205.219, 25.62693
2207.147, 24.16102
2209.075, 25.41094
2211.004, 26.43872
2212.932, 26.46597
2214.861, 26.32474
2216.789, 25.74304
2218.718, 24.03921
2220.646, 24.82906
2222.575, 27.12273
2224.503, 26.29178
2226.432, 25.26673
2228.360, 25.11108
2230.289, 24.72655
2232.217, 24.36535
2234.146, 24.45800
2236.074, 24.29877
2238.002, 23.94797
2239.931, 24.55770
2241.859, 24.87877
2243.788, 24.31616
2245.716, 24.38384
2247.645, 24.60603
2249.573, 23.93857
2251.502, 23.32634
2253.430, 23.04947
2255.359, 22.96684
2257.287, 22.86743
2259.216, 23.27331
2261.144, 22.93096
2263.073, 23.15730
2265.001, 22.87813
2266.929, 22.26663
2268.858, 21.50883
2270.786, 21.81130
2272.715, 22.14071
2274.643, 21.58822
2276.572, 21.93559
2278.500, 22.64845
2280.429, 22.89728
2282.357, 22.64796
2284.286, 22.03381
2286.214, 22.73270
2288.143, 22.90403
2290.071, 20.94782
2292.000, 20.93992
2293.928, 21.76493
2295.856, 21.68690
2297.785, 21.74295
2299.713, 22.06080
2301.642, 22.40218
2303.570, 22.40993
2305.499, 22.46239
2307.427, 22.50080
2309.356, 22.11933
2311.284, 22.18336
2313.213, 21.71808
2315.141, 21.06899
2317.070, 21.78897
2318.998, 22.00936
2320.927, 21.28892
2322.855, 21.78477
2324.783, 22.24350
2326.712, 21.60135
2328.640, 21.50097
2330.569, 21.70179
2332.497, 21.73598
2334.426, 20.77589
2336.354, 19.12832
2338.283, 18.96265
2340.211, 19.29440
2342.140, 19.66858
2344.068, 19.91076
2345.997, 19.90957
2347.925, 19.32311
2349.854, 19.23370
2351.782, 19.43646
2353.710, 19.20103
2355.639, 19.09064
2357.567, 19.22183
2359.496, 19.56804
2361.424, 19.81926
2363.353, 19.78770
2365.281, 19.52671
2367.210, 19.16669
2369.138, 18.86875
2371.067, 18.30037
2372.995, 17.83384
2374.924, 18.78277
2376.852, 19.18975
2378.781, 18.66864
2380.709, 18.19745
2382.637, 17.76737
2384.566, 17.36075
2386.494, 18.09464
2388.423, 18.93304
2390.351, 18.97407
2392.280, 18.57331
2394.208, 17.92061
2396.137, 17.02375
2398.065, 16.52446
2399.994, 16.64749
2401.922, 16.47248
2403.851, 16.66023
2405.779, 16.87398
2407.708, 16.78889
2409.636, 16.84282
2411.564, 15.90723
2413.493, 15.30408
2415.421, 15.16813
2417.350, 15.77463
2419.278, 16.44768
2421.207, 16.83701
2423.135, 16.15676
2425.064, 15.65909
2426.992, 15.68229
2428.921, 15.49882
2430.849, 15.53065
2432.778, 15.69678
2434.706, 15.46379
2436.635, 15.48701
2438.563, 15.56667
2440.491, 15.02186
2442.420, 15.73803
2444.348, 16.48831
2446.277, 16.65048
2448.205, 16.39357
2450.134, 15.93178
2452.062, 15.70563
2453.991, 15.69088
2455.919, 15.66618
2457.848, 15.99020
2459.776, 16.42400
2461.705, 14.53627
2463.633, 13.66551
2465.562, 14.85276
2467.490, 15.78151
2469.418, 15.95137
2471.347, 15.20589
2473.275, 14.91764
2475.204, 14.68469
2477.132, 14.08377
2479.061, 14.83583
2480.989, 15.71877
2482.918, 15.13802
2484.846, 14.36829
2486.775, 13.71626
2488.703, 13.44750
2490.632, 13.75060
2492.560, 14.19267
2494.489, 13.32638
2496.417, 13.62579
2498.345, 14.89053
2500.274, 14.89235
2502.202, 14.27775
2504.131, 13.38873
2506.059, 12.85038
2507.988, 12.98346
2509.916, 12.60139
2511.845, 13.18131
2513.773, 12.60563
2515.702, 13.14621
2517.630, 13.18964
2519.559, 13.13016
2521.487, 13.31070
2523.416, 13.11978
2525.344, 12.92598
2527.272, 12.72170
2529.201, 12.59514
2531.129, 12.20129
2533.058, 12.59834
2534.986, 12.62058
2536.915, 12.59221
2538.843, 13.11219
2540.772, 13.26206
2542.700, 12.92395
2544.629, 11.79745
2546.557, 11.41820
2548.486, 11.85505
2550.414, 13.53657
2552.343, 13.56706
2554.271, 12.43483
2556.199, 12.16414
2558.128, 11.37000
2560.056, 10.65742
2561.985, 12.38607
2563.913, 14.42246
2565.842, 15.64403
2567.770, 13.59169
2569.699, 12.88214
2571.627, 13.46650
2573.556, 11.59465
2575.484, 10.95956
2577.413, 11.70759
2579.341, 11.15394
2581.270, 10.93650
2583.198, 11.27123
2585.126, 11.11715
2587.055, 11.26548
2588.983, 11.89421
2590.912, 13.55086
2592.840, 12.89895
2594.769, 13.04335
2596.697, 13.08079
2598.626, 11.58929
2600.554, 12.36805
2602.483, 11.03273
2604.411, 10.56660
2606.340, 11.36952
2608.268, 10.73400
2610.197, 10.03322
2612.125, 9.806558
2614.053, 9.867395
2615.982, 11.43439
2617.910, 10.32634
2619.839, 11.40513
2621.767, 11.35053
2623.696, 10.12214
2625.624, 11.25900
2627.553, 12.04176
2629.481, 11.82483
2631.410, 10.39374
2633.338, 10.07784
2635.267, 10.75774
2637.195, 10.66032
2639.124, 10.45101
2641.052, 10.23944
2642.980, 10.17694
2644.909, 9.796969
2646.837, 9.942072
2648.766, 9.850942
2650.694, 9.581192
2652.623, 9.236714
2654.551, 8.691915
2656.480, 9.667815
2658.408, 10.88771
2660.337, 10.02879
2662.265, 9.551836
2664.194, 9.421247
2666.122, 9.331135
2668.051, 8.178804
2669.979, 7.740010
2671.907, 8.050181
2673.836, 7.881287
2675.764, 8.952603
2677.693, 8.704660
2679.621, 9.297565
2681.550, 9.861742
2683.478, 9.882287
2685.407, 9.542181
2687.335, 8.798877
2689.264, 7.786155
2691.192, 7.909572
2693.121, 8.334313
2695.049, 8.614093
2696.978, 7.868499
2698.906, 8.671134
2700.834, 8.312084
2702.763, 8.580876
2704.691, 7.946176
2706.620, 8.807169
2708.548, 8.258294
2710.477, 7.862276
2712.405, 7.974528
2714.334, 9.133825
2716.262, 8.722392
2718.191, 7.814719
2720.119, 8.416896
2722.048, 7.745934
2723.976, 6.714487
2725.905, 6.206094
2727.833, 6.447751
2729.761, 6.938769
2731.690, 7.373242
2733.618, 7.664989
2735.547, 8.047158
2737.475, 8.519532
2739.404, 8.134113
2741.332, 7.635435
2743.261, 7.335423
2745.189, 7.757491
2747.118, 7.802376
2749.046, 7.751066
2750.975, 8.646559
2752.903, 8.520595
2754.832, 7.915402
2756.760, 7.636661
2758.688, 6.890275
2760.617, 6.387629
2762.545, 6.597159
2764.474, 7.291809
2766.402, 7.686952
2768.331, 7.523748
2770.259, 6.748813
2772.188, 6.692733
2774.116, 7.298377
2776.045, 7.750677
2777.973, 6.676596
2779.902, 5.429884
2781.830, 6.806131
2783.759, 7.260415
2785.687, 7.294700
2787.615, 7.823691
2789.544, 6.531222
2791.472, 5.572698
2793.401, 6.020493
2795.329, 6.655838
2797.258, 6.942266
2799.186, 6.837168
2801.115, 6.752113
2803.043, 5.952819
2804.972, 5.543201
2806.900, 5.573568
2808.829, 6.656969
2810.757, 5.677103
2812.686, 6.704156
2814.614, 6.883052
2816.542, 6.957718
2818.471, 7.227013
2820.399, 7.077312
2822.328, 6.827564
2824.256, 6.649262
2826.185, 6.867208
2828.113, 6.555153
2830.042, 6.222372
2831.970, 6.466136
2833.899, 6.132481
2835.827, 6.177588
2837.756, 6.009828
2839.684, 6.069768
2841.613, 6.306877
2843.541, 6.048764
2845.469, 5.922105
2847.398, 5.835177
2849.326, 5.392227
2851.255, 5.517194
2853.183, 5.424741
2855.112, 5.370484
2857.040, 5.480222
2858.969, 5.619298
2860.897, 5.651214
2862.826, 5.757217
2864.754, 5.863558
2866.683, 5.885830
2868.611, 6.066076
2870.540, 6.106806
2872.468, 5.786688
2874.396, 5.607602
2876.325, 5.793265
2878.253, 5.563378
2880.182, 6.253644
2882.110, 5.476723
2884.039, 5.996997
2885.967, 6.049282
2887.896, 5.637495
2889.824, 5.038611
2891.753, 5.876908
2893.681, 6.157001
2895.610, 5.606397
2897.538, 5.123636
2899.467, 4.578428
2901.395, 4.727956
2903.323, 4.533495
2905.252, 5.401283
2907.180, 4.681282
2909.109, 5.016688
2911.037, 5.058873
2912.966, 4.595155
2914.894, 4.241746
2916.823, 4.964992
2918.751, 5.496937
2920.680, 5.874571
2922.608, 5.972976
2924.537, 4.184673
2926.465, 3.233529
2928.394, 3.258116
2930.322, 3.764198
2932.250, 3.225098
2934.179, 3.542777
2936.107, 5.398269
2938.036, 3.294574
2939.964, 3.685447
2941.893, 5.486940
2943.821, 4.701060
2945.750, 3.836149
2947.678, 3.995522
2949.607, 5.289925
2951.535, 6.205704
2953.464, 5.372882
2955.392, 3.614872
2957.321, 2.609490
2959.249, 2.254812
2961.177, 3.098607
2963.106, 4.759667
2965.034, 3.608357
2966.963, 3.892293
2968.891, 4.978896
2970.820, 4.738981
2972.748, 3.528312
2974.677, 3.052922
2976.605, 3.657369
2978.534, 3.353401
2980.462, 2.962833
2982.391, 3.011804
2984.319, 4.012250
2986.248, 5.028106
2988.176, 4.918062
2990.104, 3.946177
2992.033, 4.170323
2993.961, 3.427634
2995.890, 2.745639
2997.818, 3.061975
2999.747, 3.118689
3001.675, 3.426763
3003.604, 3.789873
3005.532, 3.619761
3007.461, 3.545568
3009.389, 3.932562
3011.318, 4.537127
3013.246, 3.202679
3015.175, 3.010339
3017.103, 3.420975
3019.031, 3.348304
3020.960, 2.785201
3022.888, 3.216945
3024.817, 4.083469
3026.745, 2.633865
3028.674, 3.068063
3030.602, 4.124976
3032.531, 4.729736
3034.459, 4.327735
3036.388, 3.231727
3038.316, 2.419685
3040.245, 3.025371
3042.173, 3.650625
3044.102, 3.631294
3046.030, 3.174512
3047.958, 3.215550
3049.887, 2.389918
3051.815, 2.047027
3053.744, 2.842855
3055.672, 2.264511
3057.601, 3.505184
3059.529, 2.614076
3061.458, 2.897991
3063.386, 3.958158
3065.315, 3.335889
3067.243, 1.993930
3069.172, 2.316383
3071.100, 1.241850
3073.029, 1.866433
3074.957, 4.126968
3076.885, 4.136563
3078.814, 3.317919
3080.742, 2.706530
3082.671, 2.695655
3084.599, 2.790581
3086.528, 2.283019
3088.456, 2.526438
3090.385, 4.516479
3092.313, 3.462318
3094.242, 3.408862
3096.170, 3.832239
3098.099, 2.370338
3100.027, 2.776804
3101.956, 3.408516
3103.884, 3.479167
3105.813, 3.850286
3107.741, 3.210130
3109.669, 3.733585
3111.598, 3.011682
3113.526, 3.056215
3115.455, 2.240486
3117.383, 2.799153
3119.312, 2.472292
3121.240, 2.154631
3123.169, 2.073550
3125.097, 2.186754
3127.026, 2.415469
3128.954, 2.695687
3130.883, 2.494593
3132.811, 2.464218
3134.740, 3.048880
3136.668, 2.931341
3138.596, 1.593019
3140.525, 1.166638
3142.453, 3.542486
3144.382, 1.963021
3146.310, 2.709799
3148.239, 4.246289
3150.167, 2.527778
3152.096, 3.212023
3154.024, 3.539153
3155.953, 2.863629
3157.881, 3.479203
3159.810, 2.892421
3161.738, 4.071819
3163.667, 2.970156
3165.595, 3.734964
3167.523, 1.704920
3169.452, 3.175362
3171.380, 2.855827
3173.309, 3.197938
3175.237, 1.934913
3177.166, 1.804943
3179.094, 3.057494
3181.023, 4.383345
3182.951, 2.547837
3184.880, 1.664580
3186.808, 1.799429
3188.737, 0.5990974
3190.665, 2.584912
3192.594, 3.089818
3194.522, 1.801417
3196.450, 0.8665761
3198.379, 1.208174
3200.307, 1.708104
3202.236, 1.905173
3204.164, 1.675272
3206.093, 1.976012
3208.021, 1.743553
3209.950, 1.378075
3211.878, 1.806927
3213.807, 2.426342
3215.735, 2.471802
3217.664, 2.414477
3219.592, 3.005130
3221.521, 2.365150
3223.449, 2.189122
3225.377, 2.096226
3227.306, 1.444975
3229.234, 0.7352429
3231.163, 2.684896
3233.091, 3.842633
3235.020, 1.981085
3236.948, 1.604649
3238.877, 1.025957
3240.805, 1.376185
3242.734, 1.047108
3244.662, 0.9267029
3246.591, 1.478321
3248.519, 0.9499806
3250.448, 2.136766
3252.376, 2.829911
3254.304, 1.488398
3256.233, 1.546297
3258.161, 2.483626
3260.090, 1.185203
3262.018, 1.606976
3263.947, 1.900258
3265.875, 1.299115
3267.804, -0.3154058
3269.732, 1.456972
3271.661, 1.269480
3273.589, 0.7579367
3275.518, 1.894386
3277.446, 2.759162
3279.375, 2.332470
3281.303, 1.413841
3283.231, 0.8116548
3285.160, 1.219594
3287.088, 2.415200
3289.017, 2.616017
3290.945, 1.868195
3292.874, 1.389674
3294.802, 2.075962
3296.731, 1.470493
3298.659, 1.352391
3300.588, 1.711341
3302.516, 1.733305
3304.445, 1.855718
3306.373, 1.885260
3308.302, 1.261265
3310.230, 3.597302
3312.158, 1.451226
3314.087, 1.526557
3316.015, 2.834683
3317.944, -0.1190863
3319.872, 9.9367738E-02
3321.801, 2.058729
3323.729, 3.096333
3325.658, 1.822563
3327.586, 1.418654
3329.515, 2.049603
3331.443, 1.651647
3333.372, 1.611180
3335.300, 0.2318439
3337.229, 1.230463
3339.157, 1.278480
3341.085, 0.9810664
3343.014, 1.489831
3344.942, 1.381490
3346.871, 1.267325
3348.799, 1.304810
3350.728, 1.054518
3352.656, 0.3995147
3354.585, 0.4487388
3356.513, 1.764504
3358.442, 1.198585
3360.370, 1.906716
3362.299, 3.238500
3364.227, 0.9091175
3366.156, 0.3160664
3368.084, 2.315452
3370.012, 2.157363
3371.941, 1.598091
3373.869, 2.022151
3375.798, 2.764019
3377.726, 2.821058
3379.655, 1.449645
3381.583, 2.066042
3383.512, 1.463881
3385.440, 0.1743059
3387.369, 1.747398
3389.297, 3.241779
3391.226, 2.659274
3393.154, 1.736330
3395.083, 1.657087
3397.011, 1.503713
3398.939, 1.521895
3400.868, 1.200594
3402.796, 1.127433
3404.725, 1.877437
3406.653, 2.274933
3408.582, 1.516299
3410.510, 1.201833
3412.439, 1.456542
3414.367, 1.324978
3416.296, 2.456988
3418.224, 3.575893
3420.153, 3.053730
3422.081, 3.154413
3424.010, 0.3633896
3425.938, 1.896159
3427.866, 0.7239701
3429.795, 9.5781252E-02
3431.723, 2.685462
3433.652, 2.738060
3435.580, 0.8420154
3437.509, 0.1323605
3439.437, 0.4519142
3441.366, 0.5981269
3443.294, 1.684776
3445.223, 1.770574
3447.151, 0.9720854
3449.080, 0.8179778
3451.008, 2.635641
3452.937, 2.159163
3454.865, 1.224851
3456.793, 0.8845145
3458.722, 1.094097
##END=



