##NAMES=Triphylite
##RRUFFID=R050624
##IDEAL CHEMISTRY=LiFe^2+^(PO_4_)
##LOCALITY=Minas Gerais, Brazil
##OWNER=RRUFF
##SOURCE=Gemological Center
##DESCRIPTION=Brown fragment
##STATUS=The identification of this mineral has been confirmed by X-ray diffraction and chemical analysis
##URL=https://www.rruff.net/odr/rruff_sample/R050624
##MEASURED CHEMISTRY=Li_1.00_(Fe^2+^_0.55_Mn^2+^_0.45_)P_1.00_O_4_ ; Li not measured, but estimated by difference
##DIFFRACTION SAMPLE DESCRIPTION=Powder
##CELL PARAMETERS=a: 4.7165 b: 10.3827 c: 6.0468 alpha: 90 beta: 90 gamma: 90 volume: 296.11 crystal system: orthorhombic
##FILETYPE=Raman RAW
##RAMAN WAVELENGTH=780

81.48875, 0.0000000E+00
83.41722, 532.8276
85.34569, 620.6517
87.27415, 729.2294
89.20262, 837.9801
91.13109, 953.1737
93.05956, 1012.858
94.98802, 1017.231
96.91649, 1009.070
98.84496, 989.5306
100.7734, 961.7723
102.7019, 928.0323
104.6304, 887.1208
106.5588, 845.4109
108.4873, 798.4658
110.4158, 755.2716
112.3442, 719.9362
114.2727, 690.0791
116.2011, 658.3412
118.1296, 621.1139
120.0581, 591.6474
121.9865, 574.4681
123.9150, 561.2124
125.8435, 546.1769
127.7719, 530.8878
129.7004, 520.7817
131.6289, 515.3980
133.5574, 514.8261
135.4858, 518.8909
137.4143, 528.4865
139.3428, 546.2650
141.2712, 569.0362
143.1997, 591.0035
145.1281, 613.6415
147.0566, 624.3946
148.9851, 620.3195
150.9135, 604.3293
152.8420, 574.9113
154.7705, 536.6114
156.6989, 495.2680
158.6274, 450.7420
160.5559, 411.8504
162.4843, 380.0258
164.4128, 353.8103
166.3413, 333.0679
168.2697, 316.7291
170.1982, 304.0566
172.1267, 294.9366
174.0551, 288.3741
175.9836, 285.3442
177.9121, 282.4272
179.8405, 278.0224
181.7690, 273.8520
183.6975, 271.2989
185.6259, 270.2646
187.5544, 270.2366
189.4829, 271.2894
191.4113, 273.1002
193.3398, 275.1089
195.2683, 278.3059
197.1967, 285.0977
199.1252, 293.0002
201.0537, 296.5303
202.9821, 295.2379
204.9106, 293.3716
206.8391, 290.4108
208.7675, 288.5778
210.6960, 288.9582
212.6245, 290.6324
214.5529, 292.1129
216.4814, 293.5958
218.4099, 297.2062
220.3383, 304.6280
222.2668, 312.0197
224.1953, 317.4522
226.1237, 323.7926
228.0522, 333.3540
229.9807, 345.6131
231.9091, 360.0748
233.8376, 378.0622
235.7661, 394.2133
237.6945, 408.6506
239.6230, 420.7451
241.5515, 430.5623
243.4799, 437.4507
245.4084, 441.9453
247.3369, 444.3190
249.2654, 438.6668
251.1938, 421.8296
253.1223, 401.1538
255.0508, 374.1669
256.9792, 346.9023
258.9077, 322.2445
260.8362, 300.5264
262.7646, 283.2300
264.6931, 271.1677
266.6216, 262.1194
268.5500, 257.3356
270.4785, 253.5257
272.4070, 249.4866
274.3354, 245.9296
276.2639, 243.6643
278.1924, 242.6636
280.1208, 241.8336
282.0493, 241.4688
283.9778, 240.4712
285.9062, 237.6667
287.8347, 235.7458
289.7632, 237.7807
291.6916, 240.5764
293.6201, 239.3153
295.5486, 233.5238
297.4770, 228.6853
299.4055, 225.0653
301.3340, 221.5691
303.2624, 217.3687
305.1909, 213.9779
307.1194, 212.4057
309.0478, 212.1059
310.9763, 212.1065
312.9048, 212.4218
314.8332, 212.7223
316.7617, 213.3746
318.6902, 212.9463
320.6186, 209.3451
322.5471, 206.2091
324.4756, 206.5752
326.4040, 208.7209
328.3325, 208.2652
330.2609, 205.2543
332.1894, 203.1822
334.1179, 202.6180
336.0463, 202.0156
337.9748, 200.3461
339.9033, 199.0337
341.8317, 199.0743
343.7602, 200.0569
345.6887, 201.3026
347.6171, 202.7680
349.5456, 203.5700
351.4741, 203.6141
353.4025, 203.0252
355.3310, 201.1258
357.2595, 199.4182
359.1879, 198.8793
361.1164, 199.0056
363.0449, 198.9779
364.9733, 198.8677
366.9018, 198.7606
368.8303, 198.0190
370.7587, 199.3082
372.6872, 205.2567
374.6157, 210.7640
376.5441, 212.7505
378.4726, 213.5668
380.4011, 216.1862
382.3295, 220.2164
384.2580, 224.5317
386.1865, 228.8480
388.1149, 234.4149
390.0434, 243.4804
391.9719, 251.0115
393.9003, 253.4633
395.8288, 255.4151
397.7573, 262.1899
399.6857, 271.4510
401.6142, 278.2968
403.5427, 282.3308
405.4711, 285.8552
407.3996, 288.4507
409.3281, 291.5619
411.2565, 295.3927
413.1850, 299.6167
415.1135, 303.8830
417.0419, 308.7297
418.9704, 314.0271
420.8989, 320.0042
422.8273, 330.3118
424.7558, 348.8786
426.6843, 364.2884
428.6127, 372.9673
430.5412, 383.1556
432.4697, 398.3653
434.3981, 415.3977
436.3266, 434.2107
438.2551, 452.2233
440.1835, 463.2039
442.1120, 466.9183
444.0405, 464.6331
445.9689, 455.5624
447.8974, 442.7947
449.8259, 426.2734
451.7543, 406.6507
453.6828, 381.5045
455.6113, 355.8474
457.5397, 334.1848
459.4682, 315.7487
461.3967, 297.6476
463.3251, 279.5761
465.2536, 263.8237
467.1821, 250.3244
469.1105, 239.3856
471.0390, 232.1500
472.9675, 225.7428
474.8959, 218.6005
476.8244, 211.6394
478.7529, 205.1796
480.6813, 199.6383
482.6098, 197.2862
484.5383, 193.1046
486.4667, 189.7520
488.3952, 189.5545
490.3237, 184.9392
492.2521, 186.1913
494.1806, 187.0922
496.1091, 184.4762
498.0375, 180.8916
499.9660, 178.2744
501.8945, 176.5278
503.8229, 175.6009
505.7514, 175.4118
507.6799, 174.8674
509.6083, 173.8457
511.5368, 172.8268
513.4653, 171.9850
515.3937, 171.0637
517.3222, 169.8773
519.2507, 168.6499
521.1791, 167.4375
523.1076, 166.4146
525.0361, 165.6500
526.9645, 165.1929
528.8930, 165.3477
530.8215, 166.1165
532.7499, 167.9414
534.6784, 171.3262
536.6069, 174.7270
538.5353, 176.9017
540.4638, 180.1761
542.3923, 186.9331
544.3207, 193.9072
546.2492, 197.0663
548.1777, 198.7800
550.1061, 203.7758
552.0346, 211.4792
553.9631, 217.9879
555.8915, 222.2756
557.8200, 229.2872
559.7485, 239.8504
561.6769, 253.0296
563.6054, 270.4033
565.5339, 288.3429
567.4623, 305.9479
569.3908, 322.4568
571.3193, 337.3492
573.2477, 350.6284
575.1762, 363.6916
577.1047, 375.7371
579.0331, 376.9044
580.9616, 363.6735
582.8901, 349.5994
584.8185, 332.9345
586.7470, 319.2630
588.6755, 311.5710
590.6039, 304.0123
592.5324, 295.2526
594.4609, 284.6039
596.3893, 270.5643
598.3178, 254.6994
600.2463, 238.8587
602.1747, 223.2358
604.1032, 208.3759
606.0317, 198.6051
607.9601, 190.4750
609.8886, 183.0703
611.8171, 181.7124
613.7455, 178.4494
615.6740, 177.4792
617.6025, 181.3155
619.5309, 186.1552
621.4594, 189.7492
623.3879, 193.2914
625.3163, 198.7151
627.2448, 204.7029
629.1733, 207.6604
631.1017, 207.7218
633.0302, 208.5063
634.9587, 210.2269
636.8871, 211.1228
638.8156, 211.4100
640.7441, 209.6971
642.6725, 205.4843
644.6010, 199.7770
646.5295, 191.6711
648.4579, 183.8268
650.3864, 177.4544
652.3149, 172.2123
654.2433, 168.1631
656.1718, 164.8090
658.1003, 160.7632
660.0287, 156.5031
661.9572, 154.5131
663.8857, 154.5724
665.8141, 154.7921
667.7426, 155.1693
669.6711, 155.3903
671.5995, 155.1768
673.5280, 155.2592
675.4565, 156.7955
677.3849, 157.3592
679.3134, 155.1412
681.2419, 152.8271
683.1703, 152.4002
685.0988, 152.5635
687.0273, 151.9693
688.9557, 150.8070
690.8842, 149.4443
692.8127, 148.0638
694.7411, 146.7569
696.6696, 145.4738
698.5980, 144.7205
700.5265, 144.6707
702.4550, 144.8712
704.3834, 145.4247
706.3119, 145.6471
708.2404, 145.3065
710.1688, 144.9892
712.0973, 144.5692
714.0258, 144.4232
715.9542, 145.2373
717.8827, 146.1124
719.8112, 145.6162
721.7396, 144.9310
723.6681, 145.5297
725.5966, 147.2689
727.5250, 150.5379
729.4535, 154.7644
731.3820, 156.3754
733.3104, 154.9891
735.2389, 154.8212
737.1674, 156.8407
739.0958, 157.6308
741.0243, 156.9503
742.9528, 155.4725
744.8812, 151.9723
746.8097, 149.8390
748.7382, 151.1919
750.6666, 152.4137
752.5951, 150.9753
754.5236, 149.6911
756.4520, 151.4855
758.3805, 153.5544
760.3090, 152.6305
762.2374, 150.7707
764.1659, 151.5371
766.0944, 153.9585
768.0228, 155.2280
769.9513, 155.3307
771.8798, 154.6339
773.8082, 153.1538
775.7367, 151.7126
777.6652, 150.0343
779.5936, 149.7016
781.5221, 151.2178
783.4506, 152.3707
785.3790, 152.5268
787.3075, 152.9924
789.2360, 153.9227
791.1644, 155.8730
793.0929, 160.0846
795.0214, 163.6620
796.9498, 163.7610
798.8783, 164.7062
800.8068, 170.7361
802.7352, 177.3563
804.6637, 179.5056
806.5922, 184.5141
808.5206, 184.6650
810.4491, 190.7132
812.3776, 194.4973
814.3060, 196.5741
816.2345, 199.7952
818.1630, 203.8401
820.0914, 206.3664
822.0199, 207.4774
823.9484, 209.1472
825.8768, 211.5395
827.8053, 213.3280
829.7338, 214.2613
831.6622, 215.2618
833.5907, 217.0481
835.5192, 217.1096
837.4476, 213.6803
839.3761, 211.0365
841.3046, 211.3577
843.2330, 210.3713
845.1615, 206.2162
847.0900, 201.6200
849.0184, 197.1589
850.9469, 193.1136
852.8754, 189.7126
854.8038, 187.0105
856.7323, 185.3082
858.6608, 183.8710
860.5892, 182.1263
862.5177, 179.9532
864.4462, 176.8047
866.3746, 173.9038
868.3031, 173.4000
870.2316, 171.1806
872.1600, 172.5458
874.0885, 169.8889
876.0170, 169.5958
877.9454, 171.2404
879.8739, 170.6485
881.8024, 167.7416
883.7308, 166.6690
885.6593, 167.8423
887.5878, 168.0995
889.5162, 166.8789
891.4447, 166.4798
893.3732, 167.0725
895.3016, 168.2564
897.2301, 169.8202
899.1586, 172.6993
901.0870, 177.0988
903.0155, 182.1666
904.9440, 187.2416
906.8724, 193.9096
908.8009, 199.7458
910.7294, 214.3645
912.6578, 239.0428
914.5863, 276.7274
916.5148, 329.3785
918.4432, 393.8337
920.3717, 472.6472
922.3002, 555.9542
924.2286, 645.7220
926.1571, 729.0306
928.0856, 792.5173
930.0140, 855.3864
931.9425, 912.4056
933.8710, 994.1248
935.7994, 1110.177
937.7279, 1275.157
939.6564, 1514.593
941.5848, 1797.581
943.5133, 2108.590
945.4418, 2429.629
947.3702, 2785.715
949.2987, 3096.551
951.2272, 3303.610
953.1556, 3345.548
955.0841, 3069.029
957.0126, 2591.311
958.9410, 2059.035
960.8695, 1532.609
962.7980, 1133.441
964.7264, 845.5638
966.6549, 646.8589
968.5834, 522.7277
970.5118, 440.0116
972.4403, 392.5780
974.3688, 368.9867
976.2972, 364.4194
978.2257, 364.8570
980.1542, 369.7423
982.0826, 378.5864
984.0111, 391.8318
985.9396, 410.5141
987.8680, 434.9103
989.7965, 467.4823
991.7250, 508.1686
993.6534, 556.2732
995.5819, 610.4701
997.5104, 660.4704
999.4388, 705.4932
1001.367, 738.9989
1003.296, 760.6436
1005.224, 751.2518
1007.153, 709.6199
1009.081, 648.3985
1011.010, 565.6251
1012.938, 490.4714
1014.867, 422.7967
1016.795, 367.6559
1018.724, 326.2687
1020.652, 289.7784
1022.580, 257.8053
1024.509, 232.8608
1026.437, 215.4507
1028.366, 201.9550
1030.294, 192.7919
1032.223, 183.9478
1034.151, 174.9122
1036.080, 171.3601
1038.008, 174.3455
1039.937, 175.8211
1041.865, 175.5492
1043.794, 174.4107
1045.722, 172.2530
1047.651, 171.0963
1049.579, 170.9360
1051.507, 170.7914
1053.436, 170.5986
1055.364, 172.7870
1057.293, 177.3430
1059.221, 183.6879
1061.150, 191.8147
1063.078, 198.8355
1065.007, 204.8570
1066.935, 212.5192
1068.864, 221.5909
1070.792, 224.7051
1072.721, 221.8007
1074.649, 215.9581
1076.578, 207.6073
1078.506, 200.6314
1080.434, 195.2367
1082.363, 191.1211
1084.291, 187.7354
1086.220, 181.7703
1088.148, 173.6916
1090.077, 166.2675
1092.005, 159.6030
1093.934, 154.3904
1095.862, 150.7311
1097.791, 148.2531
1099.719, 147.0267
1101.648, 147.1624
1103.576, 148.8801
1105.505, 153.8487
1107.433, 160.5044
1109.361, 165.5530
1111.290, 169.2385
1113.218, 172.2179
1115.147, 173.8513
1117.075, 172.4796
1119.004, 169.0350
1120.932, 164.2384
1122.861, 158.4845
1124.789, 152.3697
1126.718, 147.1760
1128.646, 144.6328
1130.575, 142.7732
1132.503, 139.3831
1134.432, 135.7659
1136.360, 133.0446
1138.288, 131.1307
1140.217, 129.6990
1142.145, 129.2808
1144.074, 130.9013
1146.002, 132.3423
1147.931, 132.2700
1149.859, 131.8526
1151.788, 131.6998
1153.716, 131.0166
1155.645, 129.1418
1157.573, 127.9391
1159.502, 128.3122
1161.430, 128.5050
1163.359, 127.8095
1165.287, 127.2273
1167.215, 127.0993
1169.144, 127.5092
1171.072, 128.2566
1173.001, 129.7676
1174.929, 132.1847
1176.858, 134.7576
1178.786, 137.4880
1180.715, 141.2973
1182.643, 146.3639
1184.572, 149.1017
1186.500, 149.4985
1188.429, 149.7727
1190.357, 149.6910
1192.286, 145.6469
1194.214, 138.2297
1196.142, 133.5226
1198.071, 130.9578
1199.999, 128.3203
1201.928, 125.8484
1203.856, 124.2034
1205.785, 123.3479
1207.713, 123.3338
1209.642, 124.3364
1211.570, 126.3669
1213.499, 128.4837
1215.427, 130.1414
1217.356, 131.9549
1219.284, 134.2312
1221.213, 136.4809
1223.141, 138.3526
1225.069, 140.5111
1226.998, 143.6430
1228.926, 146.0727
1230.855, 147.5370
1232.783, 147.8444
1234.712, 146.0100
1236.640, 144.6911
1238.569, 144.3276
1240.497, 144.5374
1242.426, 145.4123
1244.354, 145.9027
1246.283, 145.9278
1248.211, 147.1385
1250.140, 147.5123
1252.068, 147.6946
1253.996, 148.6404
1255.925, 147.9491
1257.853, 147.8059
1259.782, 147.8647
1261.710, 147.8725
1263.639, 146.9953
1265.567, 145.8783
1267.496, 145.4871
1269.424, 145.6601
1271.353, 146.2392
1273.281, 146.7948
1275.210, 147.2422
1277.138, 147.9523
1279.067, 149.3736
1280.995, 150.0263
1282.923, 148.5078
1284.852, 148.2821
1286.780, 150.9358
1288.709, 153.6799
1290.637, 156.0365
1292.566, 156.4073
1294.494, 154.6700
1296.423, 153.0032
1298.351, 151.4548
1300.280, 151.6856
1302.208, 153.2844
1304.137, 154.5118
1306.065, 154.6015
1307.994, 151.9912
1309.922, 148.2626
1311.850, 145.1243
1313.779, 142.6790
1315.707, 140.7162
1317.636, 138.7531
1319.564, 136.8741
1321.493, 134.5868
1323.421, 131.5430
1325.350, 129.6797
1327.278, 129.4124
1329.207, 129.4582
1331.135, 129.6435
1333.064, 128.5269
1334.992, 126.3001
1336.921, 125.6021
1338.849, 126.1729
1340.777, 127.2980
1342.706, 128.8018
1344.634, 129.8557
1346.563, 130.2540
1348.491, 129.2585
1350.420, 128.1658
1352.348, 128.7730
1354.277, 129.6447
1356.205, 129.5587
1358.134, 129.1747
1360.062, 128.7123
1361.991, 128.6319
1363.919, 128.5193
1365.848, 130.0205
1367.776, 130.3245
1369.704, 130.8130
1371.633, 132.2729
1373.561, 131.8195
1375.490, 132.8080
1377.418, 133.5616
1379.347, 133.8703
1381.275, 134.7326
1383.204, 135.4985
1385.132, 134.6555
1387.061, 133.8767
1388.989, 134.2894
1390.918, 133.7854
1392.846, 131.2392
1394.775, 129.6124
1396.703, 130.1283
1398.631, 130.2632
1400.560, 129.2774
1402.488, 128.6468
1404.417, 128.6659
1406.345, 129.4023
1408.274, 130.1785
1410.202, 129.1116
1412.131, 127.8365
1414.059, 128.9009
1415.988, 129.3067
1417.916, 126.6509
1419.845, 124.9462
1421.773, 125.6748
1423.702, 126.4470
1425.630, 127.0564
1427.558, 127.5225
1429.487, 127.7098
1431.415, 130.4864
1433.344, 131.5955
1435.272, 135.7741
1437.201, 136.1486
1439.129, 138.9292
1441.058, 142.0585
1442.986, 145.0760
1444.915, 148.6031
1446.843, 152.8854
1448.771, 155.7782
1450.700, 157.0556
1452.628, 156.7200
1454.557, 154.8890
1456.485, 155.1175
1458.414, 157.0155
1460.342, 157.8111
1462.271, 157.0856
1464.199, 155.1826
1466.128, 152.9698
1468.056, 149.8122
1469.985, 146.4118
1471.913, 145.1635
1473.842, 143.1502
1475.770, 137.7220
1477.698, 133.5071
1479.627, 131.3863
1481.555, 130.1062
1483.484, 128.5815
1485.412, 124.7014
1487.341, 120.5248
1489.269, 118.4393
1491.198, 117.7782
1493.126, 118.6134
1495.055, 119.1438
1496.983, 118.4054
1498.912, 117.6784
1500.840, 116.9166
1502.769, 115.7498
1504.697, 114.7007
1506.625, 114.3482
1508.554, 114.2706
1510.482, 113.6280
1512.411, 113.0403
1514.339, 114.3480
1516.268, 115.3923
1518.196, 114.3828
1520.125, 113.3340
1522.053, 113.3142
1523.982, 112.2389
1525.910, 112.0111
1527.839, 110.0670
1529.767, 110.9939
1531.696, 109.4994
1533.624, 108.0038
1535.552, 109.1005
1537.481, 110.0950
1539.409, 111.1922
1541.338, 111.1138
1543.266, 108.9465
1545.195, 107.1432
1547.123, 105.5155
1549.052, 105.1966
1550.980, 106.4603
1552.909, 107.5387
1554.837, 107.4577
1556.766, 105.8053
1558.694, 105.0413
1560.623, 106.8188
1562.551, 107.6697
1564.479, 106.0991
1566.408, 105.8699
1568.336, 107.5897
1570.265, 108.1489
1572.193, 108.0787
1574.122, 107.5621
1576.050, 107.5471
1577.979, 110.7301
1579.907, 114.2102
1581.836, 116.6553
1583.764, 118.2576
1585.693, 118.1872
1587.621, 117.9226
1589.550, 117.5691
1591.478, 116.9834
1593.406, 117.9135
1595.335, 120.8029
1597.263, 123.3232
1599.192, 124.3198
1601.120, 127.2514
1603.049, 132.9055
1604.977, 137.6134
1606.906, 140.9413
1608.834, 142.2622
1610.763, 143.0287
1612.691, 142.7706
1614.620, 140.7682
1616.548, 138.1614
1618.477, 134.6071
1620.405, 130.0751
1622.333, 123.8751
1624.262, 119.8489
1626.190, 111.5749
1628.119, 110.6689
1630.047, 107.6882
1631.976, 104.6108
1633.904, 104.3242
1635.833, 104.0131
1637.761, 103.2053
1639.690, 103.1253
1641.618, 104.1729
1643.547, 104.7535
1645.475, 104.2912
1647.404, 103.7703
1649.332, 104.1037
1651.260, 104.8018
1653.189, 104.9586
1655.117, 104.9828
1657.046, 105.1258
1658.974, 105.2949
1660.903, 104.5113
1662.831, 103.0892
1664.760, 101.2881
1666.688, 99.00191
1668.617, 97.51536
1670.545, 96.73673
1672.474, 95.73635
1674.402, 94.58009
1676.331, 92.69702
1678.259, 91.26610
1680.188, 90.66980
1682.116, 89.73872
1684.044, 89.61195
1685.973, 91.55247
1687.901, 91.87157
1689.830, 90.48443
1691.758, 88.49435
1693.687, 86.43016
1695.615, 87.19933
1697.544, 88.01010
1699.472, 86.64451
1701.401, 86.58871
1703.329, 86.69649
1705.258, 86.65408
1707.186, 87.08448
1709.115, 87.50758
1711.043, 88.33440
1712.971, 88.66528
1714.900, 90.32350
1716.828, 93.37463
1718.757, 93.99241
1720.685, 95.15855
1722.614, 96.12556
1724.542, 95.70998
1726.471, 96.66891
1728.399, 96.06011
1730.328, 95.68370
1732.256, 95.97118
1734.185, 95.88847
1736.113, 96.08142
1738.042, 96.72988
1739.970, 97.68599
1741.898, 96.49095
1743.827, 96.14815
1745.755, 95.82212
1747.684, 93.19684
1749.612, 93.53294
1751.541, 91.00925
1753.469, 87.44732
1755.398, 84.88705
1757.326, 83.57955
1759.255, 82.23844
1761.183, 82.33437
1763.112, 82.29488
1765.040, 81.25751
1766.969, 79.84873
1768.897, 78.45773
1770.825, 78.19640
1772.754, 78.36296
1774.682, 77.09222
1776.611, 76.26112
1778.539, 76.93893
1780.468, 76.86951
1782.396, 76.03047
1784.325, 76.14974
1786.253, 76.26940
1788.182, 75.59634
1790.110, 74.10026
1792.039, 72.16139
1793.967, 71.33060
1795.896, 70.95383
1797.824, 71.55006
1799.752, 72.27432
1801.681, 71.22306
1803.609, 70.99495
1805.538, 71.93742
1807.466, 71.01628
1809.395, 70.25875
1811.323, 70.53049
1813.252, 70.04963
1815.180, 68.87819
1817.109, 68.28185
1819.037, 67.81405
1820.966, 66.50465
1822.894, 65.71382
1824.823, 66.77669
1826.751, 68.02711
1828.679, 67.54601
1830.608, 66.75970
1832.536, 67.36082
1834.465, 67.46851
1836.393, 66.90099
1838.322, 66.67958
1840.250, 65.34898
1842.179, 63.95463
1844.107, 64.53571
1846.036, 65.58817
1847.964, 64.52746
1849.893, 62.95224
1851.821, 62.78244
1853.750, 64.50959
1855.678, 66.00022
1857.606, 64.81084
1859.535, 63.81392
1861.463, 63.43224
1863.392, 62.41618
1865.320, 61.82179
1867.249, 61.52052
1869.177, 62.23990
1871.106, 62.45516
1873.034, 61.22322
1874.963, 60.34061
1876.891, 60.72560
1878.820, 61.78823
1880.748, 62.00250
1882.677, 60.95647
1884.605, 59.65357
1886.533, 58.67561
1888.462, 58.80271
1890.390, 59.14451
1892.319, 58.97909
1894.247, 59.44025
1896.176, 59.15324
1898.104, 57.80683
1900.033, 57.20223
1901.961, 57.57494
1903.890, 56.87060
1905.818, 56.38802
1907.747, 56.35033
1909.675, 56.21447
1911.604, 56.83360
1913.532, 56.75422
1915.460, 55.57872
1917.389, 54.71110
1919.317, 55.03046
1921.246, 55.32633
1923.174, 55.08624
1925.103, 54.79013
1927.031, 54.97025
1928.960, 55.03521
1930.888, 54.25665
1932.817, 53.28024
1934.745, 51.68672
1936.674, 51.61426
1938.602, 52.73890
1940.531, 51.88243
1942.459, 50.46191
1944.387, 54.13020
1946.316, 55.72042
1948.244, 52.57038
1950.173, 51.17437
1952.101, 50.17454
1954.030, 48.87457
1955.958, 48.86111
1957.887, 49.01968
1959.815, 49.18425
1961.744, 49.07633
1963.672, 49.37021
1965.601, 48.74078
1967.529, 48.90036
1969.458, 48.38586
1971.386, 48.36155
1973.314, 48.69923
1975.243, 47.45771
1977.171, 46.61279
1979.100, 46.73791
1981.028, 46.65120
1982.957, 47.14932
1984.885, 47.92953
1986.814, 47.41179
1988.742, 48.35437
1990.671, 46.69823
1992.599, 46.12073
1994.528, 45.70244
1996.456, 45.78839
1998.385, 45.55542
2000.313, 45.30719
2002.241, 44.66463
2004.170, 44.60847
2006.098, 44.41879
2008.027, 43.60725
2009.955, 41.65448
2011.884, 41.43116
2013.812, 43.07836
2015.741, 45.32865
2017.669, 45.31433
2019.598, 42.52773
2021.526, 42.12226
2023.455, 43.92210
2025.383, 44.67753
2027.312, 43.64617
2029.240, 42.16595
2031.168, 42.82383
2033.097, 42.99425
2035.025, 42.03798
2036.954, 42.17274
2038.882, 41.94824
2040.811, 39.79370
2042.739, 39.31493
2044.668, 41.00143
2046.596, 40.84637
2048.525, 38.91755
2050.453, 39.31727
2052.382, 42.39133
2054.310, 43.18456
2056.239, 40.75769
2058.167, 37.31214
2060.095, 37.59077
2062.024, 41.00285
2063.952, 41.24258
2065.881, 40.25904
2067.809, 39.69757
2069.738, 39.09755
2071.666, 38.28242
2073.595, 37.48074
2075.523, 37.80906
2077.452, 38.18213
2079.380, 37.91025
2081.309, 36.99533
2083.237, 36.28034
2085.166, 37.42777
2087.094, 38.03387
2089.022, 36.30392
2090.951, 34.44702
2092.879, 35.42131
2094.808, 36.33416
2096.736, 35.72824
2098.665, 35.70095
2100.593, 35.89319
2102.522, 36.46490
2104.450, 36.26474
2106.379, 35.49390
2108.307, 35.06085
2110.236, 35.94189
2112.164, 36.83761
2114.093, 35.32755
2116.021, 33.67034
2117.949, 33.03862
2119.878, 33.18688
2121.806, 35.56740
2123.735, 36.09879
2125.663, 34.51876
2127.592, 32.34524
2129.520, 31.06151
2131.449, 31.97042
2133.377, 32.12713
2135.306, 31.96337
2137.234, 32.73301
2139.163, 32.68539
2141.091, 31.74744
2143.020, 31.43177
2144.948, 30.90328
2146.876, 31.46264
2148.805, 33.59386
2150.733, 34.83199
2152.662, 32.05170
2154.590, 30.76910
2156.519, 32.48925
2158.447, 32.40362
2160.376, 32.03027
2162.304, 31.36960
2164.233, 30.50141
2166.161, 30.88249
2168.090, 30.67237
2170.018, 31.32411
2171.947, 31.73125
2173.875, 30.54520
2175.803, 29.60003
2177.732, 29.70857
2179.660, 30.09570
2181.589, 30.58554
2183.517, 29.79192
2185.446, 28.84022
2187.374, 30.08383
2189.303, 30.65927
2191.231, 29.22529
2193.160, 27.63408
2195.088, 27.05237
2197.017, 27.72666
2198.945, 27.80786
2200.874, 27.43673
2202.802, 26.21139
2204.730, 26.11771
2206.659, 27.53247
2208.587, 27.67676
2210.516, 28.64057
2212.444, 27.66656
2214.373, 25.77100
2216.301, 26.65066
2218.230, 27.17452
2220.158, 26.78651
2222.087, 28.25278
2224.015, 27.97715
2225.944, 28.01097
2227.872, 26.85041
2229.801, 26.97927
2231.729, 26.05698
2233.657, 26.49182
2235.586, 26.58510
2237.514, 26.16977
2239.443, 25.13112
2241.371, 23.98131
2243.300, 24.68687
2245.228, 25.44664
2247.157, 26.12369
2249.085, 24.59654
2251.014, 25.75105
2252.942, 24.09915
2254.871, 25.94629
2256.799, 26.19999
2258.728, 25.11375
2260.656, 23.33823
2262.584, 22.34492
2264.513, 23.99852
2266.441, 25.22151
2268.370, 24.74697
2270.298, 24.96075
2272.227, 25.23404
2274.155, 24.79420
2276.084, 23.99860
2278.012, 24.53167
2279.941, 24.95457
2281.869, 24.09967
2283.798, 22.40092
2285.726, 22.36053
2287.655, 23.67595
2289.583, 23.87190
2291.511, 24.28957
2293.440, 25.68895
2295.368, 24.99581
2297.297, 23.05228
2299.225, 23.06154
2301.154, 23.29957
2303.082, 24.47078
2305.011, 23.36441
2306.939, 21.26950
2308.868, 21.14288
2310.796, 22.07268
2312.725, 23.10001
2314.653, 21.58380
2316.582, 21.17588
2318.510, 22.77267
2320.438, 21.75136
2322.367, 20.75291
2324.295, 20.67038
2326.224, 20.92563
2328.152, 22.20319
2330.081, 21.97692
2332.009, 22.34206
2333.938, 22.88880
2335.866, 22.64961
2337.795, 23.17590
2339.723, 21.99997
2341.652, 23.06146
2343.580, 21.65928
2345.509, 19.95736
2347.437, 19.30658
2349.365, 18.97165
2351.294, 19.58951
2353.222, 20.38213
2355.151, 20.78913
2357.079, 20.58471
2359.008, 20.49401
2360.936, 19.88978
2362.865, 19.99244
2364.793, 19.97812
2366.722, 20.87268
2368.650, 21.34661
2370.579, 20.83788
2372.507, 19.60340
2374.436, 20.06567
2376.364, 20.30458
2378.292, 19.60669
2380.221, 19.79378
2382.149, 19.54561
2384.078, 19.52568
2386.006, 19.61489
2387.935, 19.50711
2389.863, 19.72095
2391.792, 19.30647
2393.720, 19.24031
2395.649, 17.66596
2397.577, 16.46170
2399.506, 18.00416
2401.434, 18.53281
2403.363, 17.48895
2405.291, 16.88050
2407.219, 17.18323
2409.148, 17.75136
2411.076, 18.26881
2413.005, 18.95745
2414.933, 19.70446
2416.862, 19.86098
2418.790, 19.46706
2420.719, 17.93725
2422.647, 16.66014
2424.576, 15.36099
2426.504, 15.82075
2428.433, 16.85171
2430.361, 17.70176
2432.290, 19.65295
2434.218, 19.85503
2436.146, 19.53334
2438.075, 16.01732
2440.003, 17.79585
2441.932, 17.40889
2443.860, 16.67171
2445.789, 17.02097
2447.717, 15.97696
2449.646, 16.17677
2451.574, 17.75960
2453.503, 15.98176
2455.431, 14.95089
2457.360, 15.62392
2459.288, 14.43573
2461.217, 15.25833
2463.145, 14.44057
2465.073, 15.75949
2467.002, 17.31854
2468.930, 15.62623
2470.859, 15.81464
2472.787, 16.46574
2474.716, 16.23092
2476.644, 15.90187
2478.573, 15.68787
2480.501, 15.93650
2482.430, 14.34014
2484.358, 12.53373
2486.287, 13.67154
2488.215, 15.14556
2490.144, 16.23840
2492.072, 13.35838
2494.000, 11.49346
2495.929, 12.29462
2497.857, 13.23203
2499.786, 13.99799
2501.714, 14.36379
2503.643, 15.26892
2505.571, 14.88758
2507.500, 14.67214
2509.428, 14.83465
2511.357, 15.54842
2513.285, 15.15106
2515.214, 16.86035
2517.142, 17.15612
2519.071, 16.16331
2520.999, 14.80101
2522.927, 13.13404
2524.856, 11.62124
2526.784, 11.94219
2528.713, 13.49477
2530.641, 14.66910
2532.570, 15.61346
2534.498, 15.65230
2536.427, 13.08482
2538.355, 11.67978
2540.284, 11.70400
2542.212, 12.82947
2544.141, 13.07415
2546.069, 12.54941
2547.998, 13.86648
2549.926, 14.39781
2551.854, 13.55022
2553.783, 13.87661
2555.711, 13.81861
2557.640, 12.98724
2559.568, 13.26964
2561.497, 13.41354
2563.425, 13.26250
2565.354, 14.54553
2567.282, 14.18944
2569.211, 11.51960
2571.139, 12.88280
2573.068, 13.37568
2574.996, 10.55001
2576.925, 11.60174
2578.853, 13.18803
2580.781, 12.88722
2582.710, 12.30565
2584.638, 11.26521
2586.567, 11.90207
2588.495, 10.98697
2590.424, 12.72553
2592.352, 11.87098
2594.281, 11.66940
2596.209, 11.39332
2598.138, 10.71499
2600.066, 9.990873
2601.995, 10.03771
2603.923, 10.16598
2605.852, 11.73777
2607.780, 10.80099
2609.708, 13.10061
2611.637, 12.76141
2613.565, 11.54584
2615.494, 10.42700
2617.422, 10.14264
2619.351, 10.23201
2621.279, 10.59391
2623.208, 11.05916
2625.136, 10.66432
2627.065, 9.416261
2628.993, 8.507048
2630.922, 8.689868
2632.850, 10.45373
2634.779, 12.14229
2636.707, 12.23116
2638.635, 9.872188
2640.564, 8.529985
2642.492, 8.998199
2644.421, 10.87654
2646.349, 10.35723
2648.278, 9.074327
2650.206, 8.201777
2652.135, 8.262548
2654.063, 8.650057
2655.992, 8.734337
2657.920, 8.663597
2659.849, 8.349346
2661.777, 8.778842
2663.706, 8.035254
2665.634, 8.853508
2667.563, 10.37748
2669.491, 10.91839
2671.419, 10.43910
2673.348, 9.394419
2675.276, 9.231779
2677.205, 9.197153
2679.133, 8.852220
2681.062, 7.814785
2682.990, 7.534973
2684.919, 8.004807
2686.847, 9.077465
2688.776, 9.245506
2690.704, 9.081768
2692.633, 10.44684
2694.561, 10.17326
2696.490, 9.288815
2698.418, 8.864202
2700.346, 8.695091
2702.275, 8.910337
2704.203, 8.624662
2706.132, 9.041411
2708.060, 8.603867
2709.989, 8.490742
2711.917, 8.745184
2713.846, 9.485225
2715.774, 10.60321
2717.703, 10.75324
2719.631, 10.37244
2721.560, 9.887421
2723.488, 9.734493
2725.417, 9.180216
2727.345, 9.133181
2729.273, 8.609837
2731.202, 8.460412
2733.130, 8.293804
2735.059, 7.922527
2736.987, 7.945013
2738.916, 7.438933
2740.844, 7.094438
2742.773, 7.015499
2744.701, 8.977746
2746.630, 7.264640
2748.558, 7.914985
2750.487, 8.525683
2752.415, 7.363386
2754.344, 8.062063
2756.272, 8.790639
2758.200, 8.742712
2760.129, 7.795432
2762.057, 7.328922
2763.986, 7.381982
2765.914, 7.578907
2767.843, 7.484127
2769.771, 7.584015
2771.700, 7.684358
2773.628, 7.438772
2775.557, 7.453722
2777.485, 6.950725
2779.414, 6.717490
2781.342, 6.401683
2783.271, 6.223206
2785.199, 6.068013
2787.127, 6.362829
2789.056, 7.100080
2790.984, 6.229177
2792.913, 6.504444
2794.841, 7.288639
2796.770, 7.162795
2798.698, 7.283157
2800.627, 7.509210
2802.555, 7.564650
2804.484, 7.235857
2806.412, 6.749430
2808.341, 6.818152
2810.269, 6.969770
2812.198, 7.909685
2814.126, 10.03907
2816.054, 7.676157
2817.983, 5.844896
2819.911, 6.044915
2821.840, 7.303291
2823.768, 5.840569
2825.697, 5.073442
2827.625, 9.054885
2829.554, 8.968616
2831.482, 7.739434
2833.411, 7.712462
2835.339, 8.503023
2837.268, 9.201937
2839.196, 9.665998
2841.125, 8.613235
2843.053, 9.515612
2844.981, 11.68814
2846.910, 12.48323
2848.838, 11.19402
2850.767, 9.362403
2852.695, 8.265924
2854.624, 8.801590
2856.552, 9.536996
2858.481, 11.15135
2860.409, 12.75149
2862.338, 15.04679
2864.266, 15.79918
2866.195, 17.23989
2868.123, 18.32123
2870.052, 17.93758
2871.980, 19.55561
2873.908, 17.19711
2875.837, 16.48801
2877.765, 17.39285
2879.694, 16.65404
2881.622, 15.78263
2883.551, 15.99317
2885.479, 15.98522
2887.408, 16.74979
2889.336, 16.55670
2891.265, 15.22709
2893.193, 13.54175
2895.122, 15.49305
2897.050, 18.05817
2898.979, 17.21298
2900.907, 15.54038
2902.835, 14.37232
2904.764, 15.52103
2906.692, 16.09788
2908.621, 15.91965
2910.549, 14.57451
2912.478, 15.42954
2914.406, 15.13037
2916.335, 15.40048
2918.263, 15.86898
2920.191, 16.58554
2922.120, 17.46839
2924.048, 18.47915
2925.977, 17.39274
2927.905, 16.94628
2929.834, 17.85880
2931.762, 17.58926
2933.691, 17.40473
2935.619, 17.44144
2937.548, 16.89250
2939.476, 17.02917
2941.405, 17.03187
2943.333, 17.19686
2945.261, 15.99434
2947.190, 16.07677
2949.118, 15.50774
2951.047, 15.26183
2952.975, 14.78805
2954.904, 14.25480
2956.832, 14.35780
2958.761, 12.46212
2960.689, 13.55264
2962.618, 13.94472
2964.546, 12.19230
2966.475, 10.82260
2968.403, 10.05324
2970.332, 10.85995
2972.260, 8.967970
2974.188, 10.06769
2976.117, 7.379772
2978.045, 8.912912
2979.974, 10.30935
2981.902, 10.02823
2983.831, 8.385504
2985.759, 8.771887
2987.688, 7.477958
2989.616, 5.310189
2991.545, 3.747747
2993.473, 5.952460
2995.402, 6.564718
2997.330, 7.215873
2999.259, 9.721766
3001.187, 4.973777
3003.115, 5.602258
3005.044, 9.162683
3006.972, 4.465960
3008.901, 4.117065
3010.829, 3.676453
3012.758, 1.774740
3014.686, 4.094562
3016.615, 5.051282
3018.543, 5.327887
3020.472, 4.978569
3022.400, 4.370564
3024.329, 4.502338
3026.257, 3.865580
3028.186, 3.747403
3030.114, 3.531102
3032.042, 4.112494
3033.971, 5.357244
3035.899, 4.897851
3037.828, 4.433080
3039.756, 3.950898
3041.685, 3.176309
3043.613, 2.187814
3045.542, 3.618235
3047.470, 3.244371
3049.399, 5.246044
3051.327, 4.319129
3053.256, 3.774654
3055.184, 4.262806
3057.113, 3.686629
3059.041, 2.998866
3060.969, 3.805980
3062.898, 6.209176
3064.826, 6.316380
3066.755, 6.303064
3068.683, 6.674980
3070.612, 6.269433
3072.540, 6.014401
3074.469, 6.196024
3076.397, 6.277578
3078.326, 6.073494
3080.254, 5.641738
3082.183, 5.785853
3084.111, 4.114062
3086.040, 3.843730
3087.968, 2.562289
3089.896, 2.804993
3091.825, 2.832814
3093.753, 3.429354
3095.682, 3.209357
3097.610, 4.734966
3099.539, 4.021899
3101.467, 1.625755
3103.396, 4.411704
3105.324, 2.916691
3107.253, 1.568590
3109.181, 3.898179
3111.110, 4.317314
3113.038, 0.4463558
3114.967, 1.549041
3116.895, 2.332352
3118.823, 3.066680
3120.752, 4.285871
3122.680, 3.354914
3124.609, 0.5252820
3126.537, -1.093827
3128.466, 2.348559
3130.394, 4.196759
3132.323, 1.757487
3134.251, 0.3204834
3136.180, 4.191428
3138.108, 0.5331961
3140.037, 0.1572526
3141.965, 2.508191
3143.894, -0.4521672
3145.822, 1.267723
3147.750, 3.268877
3149.679, 3.556937
3151.607, 0.7957313
3153.536, 0.1437071
3155.464, 1.807089
3157.393, 3.171854
3159.321, 3.058030
3161.250, 2.437876
3163.178, 0.5976588
3165.107, 1.412252
3167.035, 0.5352089
3168.964, 1.775156
3170.892, 1.497206
3172.821, 0.7905831
3174.749, 2.013063
3176.677, 0.8088854
3178.606, -0.4623241
3180.534, 0.4946580
3182.463, 2.314946
3184.391, 3.380111
3186.320, 3.519323
3188.248, 3.773052
3190.177, 3.922481
3192.105, 1.374905
3194.034, 3.639416
3195.962, 3.271920
3197.891, 2.997854
3199.819, 4.495550
3201.748, 5.095319
3203.676, 3.753858
3205.604, 1.523872
3207.533, 0.6405567
3209.461, 0.4626654
3211.390, 0.4614382
3213.318, 2.708470
3215.247, 2.329685
3217.175, 1.689033
3219.104, 2.404675
3221.032, 0.6439335
3222.961, 0.1255595
3224.889, 0.1133043
3226.818, 0.8489246
3228.746, 1.585917
3230.675, 4.083607
3232.603, 2.973944
3234.531, 0.4374234
3236.460, 6.470129
3238.388, 0.9839240
3240.317, -0.7924305
3242.245, 1.713409
3244.174, 2.906524
3246.102, -0.1519849
3248.031, 0.9994105
3249.959, 3.412773
3251.888, 2.817036
3253.816, 3.938846
3255.745, 1.952957
3257.673, 2.783967
3259.602, 2.477867
3261.530, 2.556473
3263.458, 2.946173
3265.387, 1.431726
3267.315, 2.920819
3269.244, 1.247057
3271.172, 2.4061229E-02
3273.101, 1.548677
3275.029, 3.620506
3276.958, -1.812365
3278.886, -0.7059594
3280.815, 2.775661
3282.743, 4.445806
3284.672, 0.7196534
3286.600, -1.513860
3288.529, 0.1611461
3290.457, 3.028658
3292.385, 5.220489
3294.314, 4.727344
3296.242, 1.664204
3298.171, -0.1516550
3300.099, 0.2149592
3302.028, 0.5111126
3303.956, -0.8974482
3305.885, 0.5998397
3307.813, 1.354095
3309.742, 2.444782
3311.670, 3.939655
3313.599, 4.593675
3315.527, 4.774451
3317.456, 3.235065
3319.384, -0.5551493
3321.313, -0.7095131
3323.241, 0.4478462
3325.169, 0.9283506
3327.098, 0.8869715
3329.026, 1.437955
3330.955, -0.1893732
3332.883, -1.746745
3334.812, 1.689054
3336.740, 1.027337
3338.669, 2.539493
3340.597, 3.500259
3342.526, 1.350531
3344.454, 2.567066
3346.383, -9.6798301E-02
3348.311, 1.957154
3350.240, 1.261344
3352.168, -3.3136569E-02
3354.096, -1.708943
3356.025, -2.619863
3357.953, -0.9074675
3359.882, -0.8228644
3361.810, -3.9443836E-02
3363.739, 1.728144
3365.667, 1.457583
3367.596, 1.900310
3369.524, 1.795877
3371.453, 4.431520
3373.381, 1.771623
3375.310, -2.212164
3377.238, -1.444734
3379.167, 0.5881043
3381.095, 2.427289
3383.023, 1.309191
3384.952, 2.386125
3386.880, 0.2273833
3388.809, 1.760135
3390.737, 1.285308
3392.666, 0.3710150
3394.594, 0.6349947
3396.523, 3.194823
3398.451, 3.208726
3400.380, 0.8405328
3402.308, -1.523660
3404.237, -0.9974454
3406.165, 0.6898191
3408.094, 0.3536982
3410.022, 0.5562745
3411.950, 1.713687
3413.879, 1.157869
3415.807, -1.393307
3417.736, 2.244669
3419.664, 4.095244
3421.593, -0.4197982
3423.521, 1.449309
3425.450, -0.5283774
3427.378, 1.392731
3429.307, 4.175014
3431.235, 1.817116
3433.164, 2.418205
3435.092, 5.330472
3437.021, 7.871687
3438.949, 7.815640
3440.877, 3.638566
3442.806, 0.4008080
3444.734, -0.7353922
3446.663, 1.158264
3448.591, 4.371558
3450.520, 4.876132
3452.448, 3.770411
3454.377, 0.6003336
3456.305, -1.317643
3458.234, -0.5359566
3460.162, 0.8125520
3462.091, 4.087042
3464.019, 2.765120
3465.948, 3.924634
3467.876, 3.807161
3469.804, 2.705715
3471.733, 2.525097
3473.661, 1.9914100E-02
3475.590, -1.049713
3477.518, 1.460364
3479.447, 0.1043765
3481.375, 2.512794
3483.304, 1.038945
3485.232, 2.847405
3487.161, 3.673881
3489.089, 0.4885126
3491.018, -3.512637
3492.946, -2.457186
3494.875, 0.1904420
3496.803, 0.6228802
3498.731, 2.875750
3500.660, 2.629836
3502.588, -0.8447565
3504.517, -0.3289291
3506.445, -0.4112190
3508.374, 0.5304163
3510.302, 1.132438
3512.231, 1.211114
3514.159, 2.030705
3516.088, 3.890804
3518.016, -0.1251194
3519.945, 3.329079
3521.873, 2.981935
3523.802, -0.5901645
3525.730, -2.889805
3527.658, -0.3973512
3529.587, 2.033565
3531.515, 0.9529263
3533.444, -0.1856075
3535.372, 0.6225197
3537.301, 2.356624
3539.229, -0.1559015
3541.158, -0.9069235
3543.086, 0.9652953
3545.015, 2.674029
3546.943, 1.191290
3548.872, -0.8066068
3550.800, -2.534150
3552.729, 0.8316611
3554.657, 3.133608
3556.585, -0.6383258
3558.514, -0.2030888
3560.442, 0.2263679
3562.371, 0.7454766
3564.299, 1.301988
3566.228, 1.562737
3568.156, 1.264572
3570.085, 3.570670
3572.013, 3.371384
3573.942, 2.003778
3575.870, 0.3951121
3577.799, -1.053801
3579.727, 2.248536
3581.656, 2.137628
3583.584, 1.815863
3585.512, 1.878842
3587.441, 1.997205
3589.369, 3.589078
3591.298, 2.918849
3593.226, 3.409796
3595.155, 2.536142
3597.083, 2.239117
3599.012, 2.104160
3600.940, 1.421483
3602.869, 0.3552999
3604.797, 1.245830
3606.726, 2.346901
3608.654, 4.069023
3610.583, 1.733603
3612.511, 2.793417
3614.439, 0.9085202
3616.368, 2.136884
3618.296, 1.315409
3620.225, 0.9027932
3622.153, 0.2650560
3624.082, 2.431228
3626.010, 3.462140
3627.939, 2.700601
3629.867, 1.353938
3631.796, 0.7559708
3633.724, 0.5067515
3635.653, 0.7047788
3637.581, 0.1400570
3639.510, 0.7574509
3641.438, -0.7743149
3643.366, -0.9391568
3645.295, -1.958098
3647.223, -0.4269767
3649.152, -0.2654723
3651.080, -0.3921371
3653.009, 0.4984451
3654.937, -1.793806
3656.866, -0.4505508
3658.794, -2.560266
3660.723, 0.7251481
3662.651, 4.091280
3664.580, -0.4498579
3666.508, 0.6028342
3668.437, 2.475298
3670.365, 2.106015
3672.293, -0.3064863
3674.222, -1.332846
3676.150, 1.630744
3678.079, 4.267725
3680.007, 7.8309707E-02
3681.936, -2.619687
3683.864, -2.488239
3685.793, 4.7189131E-02
3687.721, 3.367622
3689.650, 2.557521
3691.578, 4.075472
3693.507, 3.867496
3695.435, 1.688537
3697.364, -1.656887
3699.292, -3.529840
3701.220, 4.800502
3703.149, -1.247170
3705.077, 1.577621
3707.006, 2.291166
3708.934, 2.024524
3710.863, 3.426864
3712.791, 2.966000
3714.720, 3.099108
3716.648, 2.598381
3718.577, 0.4550116
3720.505, 0.1528350
3722.434, -0.2506291
3724.362, -0.9304506
3726.291, -0.2465380
3728.219, -0.4759415
3730.147, -0.2684960
3732.076, 1.610571
3734.004, 3.444841
3735.933, 1.747444
3737.861, -0.9941294
3739.790, 0.6699784
3741.718, -0.6959568
3743.647, -0.1884785
3745.575, 2.522696
3747.504, 3.804590
3749.432, 3.567831
3751.361, 3.534303
3753.289, 2.326280
3755.218, 1.663212
3757.146, 9.3133003E-02
3759.074, 0.4267281
3761.003, -0.6300961
3762.931, 9.4632119E-02
3764.860, 0.6406687
3766.788, 0.7771958
3768.717, -1.328179
3770.645, -3.031378
3772.574, -1.664805
3774.502, 2.004078
3776.431, 1.632921
3778.359, -0.1844094
3780.288, -5.569879
3782.216, -3.770816
3784.145, -1.856858
3786.073, -4.436313
3788.001, -1.870916
3789.930, 0.1841241
3791.858, -4.676469
3793.787, 0.4976177
3795.715, 2.906013
3797.644, 2.587430
3799.572, 3.867928
3801.501, 1.607684
3803.429, -1.358732
3805.358, 4.678877
3807.286, 3.567796
3809.215, 0.9316605
3811.143, 1.459885
3813.072, 8.7497309E-02
3815.000, 1.863974
3816.928, -0.7933348
3818.857, -0.9180319
3820.785, -0.8540325
3822.714, -0.8126935
3824.642, 3.1512193E-02
3826.571, 0.9140299
3828.499, 1.689925
3830.428, 2.052320
3832.356, 2.107309
3834.285, 2.370661
3836.213, 2.774340
3838.142, -3.0657699E-02
3840.070, -1.680158
3841.999, 4.259435
3843.927, 1.203900
3845.855, 3.216635
3847.784, -1.884416
3849.712, -2.677460
3851.641, -0.9954971
3853.569, -0.4230251
3855.498, -0.4656262
3857.426, 0.9645637
3859.355, 2.734476
3861.283, 0.7623625
3863.212, -2.350668
3865.140, -1.954967
3867.069, 0.3598194
3868.997, 2.956230
3870.926, 4.391279
3872.854, 5.5812269E-02
3874.782, 0.5910348
3876.711, -0.6617008
3878.639, -3.613285
3880.568, 2.891308
3882.496, 4.052947
3884.425, -1.9300310E-02
3886.353, 5.180917
3888.282, 0.2083747
3890.210, 0.7667499
3892.139, 1.382790
3894.067, -0.1639702
3895.996, 1.106435
3897.924, 1.764712
3899.853, -8.9159712E-02
3901.781, -1.020092
3903.709, -2.358113
3905.638, 2.402840
3907.566, 6.694914
3909.495, 0.6798491
3911.423, -0.7296232
3913.352, -0.9861091
3915.280, -1.505744
3917.209, -0.6724620
3919.137, 2.193502
3921.066, 1.649058
3922.994, 1.774136
3924.923, 2.422118
3926.851, 2.049038
3928.780, 0.3105608
3930.708, 1.852729
3932.636, 0.8819757
3934.565, 0.3665053
3936.493, 0.7586505
3938.422, -5.1389810E-02
3940.350, -0.2474275
3942.279, -0.5621750
3944.207, -0.6731873
3946.136, -2.755997
3948.064, -0.9801058
3949.993, 0.2174486
3951.921, -0.7563303
3953.850, -2.060780
3955.778, 1.972540
3957.707, 2.221225
3959.635, -0.6303947
3961.563, 0.4933590
3963.492, 0.4045755
3965.420, -9.5960468E-02
3967.349, 1.487753
3969.277, 2.905303
3971.206, 1.051453
3973.134, 2.932993
3975.063, 2.933436
3976.991, 0.1095880
3978.920, -1.572502
3980.848, -1.503237
3982.777, 3.417372
3984.705, -0.5511656
3986.634, 1.269224
3988.562, 4.302148
3990.490, 2.331897
3992.419, 1.556825
3994.347, 1.559816
3996.276, 3.085341
3998.204, -2.561733
4000.133, 6.098594
4002.061, 1.563733
4003.990, -1.283187
4005.918, 0.4016513
4007.847, -0.8180771
4009.775, -0.3791291
4011.704, 4.051421
4013.632, -0.2308555
4015.561, -3.044405
4017.489, 0.9843563
4019.417, 2.903670
4021.346, 0.1504196
4023.274, -0.3302691
4025.203, 0.3973692
4027.131, -2.006664
4029.060, -2.635368
4030.988, 1.487360
4032.917, 0.4663066
4034.845, 5.201709
4036.774, 3.384487
4038.702, -7.4567102E-02
4040.631, -2.996042
4042.559, -5.036686
4044.488, -3.399529
4046.416, -5.700490
4048.344, -5.868501
4050.273, -5.965477
4052.201, -5.650509
4054.130, -3.357135
4056.058, -3.234361
4057.987, -2.145136
4059.915, -1.416324
4061.844, -1.035079
4063.772, -0.4275924
4065.701, -0.9076176
4067.629, 1.331634
4069.558, 1.480912
4071.486, 1.172970
4073.415, 3.023879
4075.343, 4.011060
4077.271, 4.358772
4079.200, 2.588318
4081.128, 0.6694756
4083.057, -3.218499
4084.985, -5.194813
4086.914, -1.939557
4088.842, -1.974235
4090.771, 2.474049
4092.699, 5.065801
4094.628, -1.599466
4096.556, -3.833772
4098.484, -1.944066
4100.413, -0.8805375
4102.341, -2.874954
4104.270, -3.148938
4106.198, -5.8380499E-02
4108.127, 3.804360
4110.055, 5.411340
4111.984, 4.957541
4113.912, 4.581041
4115.841, 1.892882
4117.769, 0.4430574
4119.698, -0.8850867
4121.626, -2.572475
4123.555, -0.2600838
4125.483, 4.984860
4127.412, 2.358441
4129.340, -1.057737
4131.269, 3.133291
4133.197, -0.7212209
4135.125, -0.8156554
4137.054, -0.1407246
4138.982, 1.670391
4140.911, -1.817150
4142.839, 1.997549
4144.768, -1.805729
4146.696, 1.269780
4148.625, 3.098328
4150.553, 1.491695
4152.481, 3.0125121E-02
4154.410, -1.216630
4156.338, -0.2788797
4158.267, 2.343349
4160.195, 0.8333941
4162.124, 3.861294
4164.052, 6.057051
4165.981, -1.210496
4167.909, 0.9517150
4169.838, 0.5045617
4171.766, 1.083909
4173.695, -1.418516
4175.623, -0.7824298
4177.552, -1.667598
4179.480, 0.7536441
4181.409, -3.466321
4183.337, -2.707214
4185.266, -5.008342
4187.194, 3.146421
4189.123, 0.1447111
4191.051, -1.157668
4192.979, 3.784212
4194.908, 1.437196
4196.836, 1.898580
4198.765, -0.6483016
4200.693, 0.8571547
4202.622, -0.2241167
4204.550, 8.4879883E-02
4206.479, -1.818067
4208.407, -2.677102
4210.335, 0.4120374
4212.264, 1.022473
4214.192, 0.5968312
4216.121, 1.537851
4218.049, 1.343646
4219.978, 3.048712
4221.906, -3.015370
4223.835, -3.0796239E-02
4225.763, -3.508161
4227.692, 3.035212
4229.620, 4.916402
4231.549, 2.469546
4233.477, 2.437924
4235.406, 2.681164
4237.334, 0.6079515
4239.263, 0.3413910
4241.191, -0.3260156
4243.120, -0.2687068
4245.048, 3.383521
4246.977, 0.2428306
4248.905, 2.898503
4250.833, 2.062311
4252.762, -3.162805
4254.690, -0.3007357
4256.619, 2.489442
4258.547, -2.453320
4260.476, -2.909786
4262.404, -0.5382238
4264.333, -2.553723
4266.261, -3.802106
4268.189, 0.4955030
4270.118, 3.465325
4272.046, 1.905621
4273.975, -6.9026373E-02
4275.903, 0.1961692
4277.832, 2.090600
4279.760, 2.459412
4281.689, 0.3255448
4283.617, -5.810036
4285.546, 1.018519
4287.474, -4.057639
4289.403, -0.9857576
4291.331, -0.2659211
4293.260, -0.3755050
4295.188, 2.286497
4297.117, 2.164142
4299.045, 4.374991
4300.974, 3.475978
4302.902, 0.9820763
4304.831, 2.638394
4306.759, 3.728513
4308.688, -0.1351069
4310.616, -3.006346
4312.544, -1.402727
4314.473, 1.822571
4316.401, 2.098132
4318.330, 3.367286
4320.258, 2.656619
4322.187, 3.605930
4324.115, 1.588165
4326.043, -6.8234722E-03
4327.972, -1.714896
4329.900, -3.844460
4331.829, -1.949257
4333.757, 1.687969
4335.686, 1.203812
4337.614, 0.9454116
4339.543, 3.227618
4341.471, 1.202499
4343.400, -0.9259262
4345.328, 2.570656
4347.257, -1.914075
4349.185, -1.667459
4351.114, -2.613949
4353.042, 2.743148
4354.971, -0.8813502
4356.899, -0.4082107
4358.828, 4.687863
4360.756, 1.689495
4362.685, -1.246881
4364.613, -0.1953334
4366.542, -7.0736501E-03
4368.470, 1.934188
4370.398, 0.5306008
4372.327, -1.771552
4374.255, 0.9349864
4376.184, 1.055156
4378.112, 5.037976
##END=



