##NAMES=Triplite
##RRUFFID=R050615
##IDEAL CHEMISTRY=Mn^2+^_2_(PO_4_)F
##LOCALITY=Vienna, Austria
##OWNER=RRUFF
##SOURCE=University of Arizona Mineral Museum
##DESCRIPTION=Brown massive
##STATUS=The identification of this mineral has been confirmed by X-ray diffraction and chemical analysis
##URL=https://www.rruff.net/odr/rruff_sample/R050615
##MEASURED CHEMISTRY=(Mn^2+^_1.09_Fe^2+^_0.88_Ca_0.02_Mg_0.01_)(P_1.00_O_4_)(F_0.72_(OH)_0.28_) ; = light phase (triplite) while the dark phase is fluorapatite: (Ca_4.44_Mn^2+^_0.44_Fe^2+^_0.12_)(P_1.00_O_4_)F_1.00_
##DIFFRACTION SAMPLE DESCRIPTION=Powder
##CELL PARAMETERS=a: 12.102 b: 6.5093 c: 10.015 alpha: 90 beta: 106.94 gamma: 90 volume: 754.7 crystal system: monoclinic
##FILETYPE=Raman RAW
##RAMAN WAVELENGTH=532

87.66873, 18.36908
89.59720, 16.76099
91.52567, 15.72109
93.45413, 15.16240
95.38260, 14.57024
97.31107, 13.68966
99.23953, 12.99261
101.1680, 12.61901
103.0965, 12.21615
105.0249, 12.76647
106.9534, 15.01057
108.8819, 18.62812
110.8103, 21.70530
112.7388, 21.56081
114.6673, 22.04308
116.5957, 26.43485
118.5242, 34.42108
120.4527, 46.35607
122.3811, 64.03756
124.3096, 87.07751
126.2381, 109.9458
128.1665, 130.9523
130.0950, 152.0583
132.0235, 175.7473
133.9519, 202.8698
135.8804, 230.8105
137.8089, 259.3012
139.7373, 289.2114
141.6658, 316.3488
143.5943, 339.1198
145.5227, 359.2173
147.4512, 375.9301
149.3797, 375.5352
151.3081, 374.7719
153.2366, 373.3000
155.1651, 371.3611
157.0935, 368.4641
159.0220, 364.3984
160.9505, 359.5524
162.8789, 354.2492
164.8074, 347.7550
166.7359, 341.5762
168.6643, 336.1699
170.5928, 331.4297
172.5213, 327.2850
174.4497, 323.8238
176.3782, 320.7829
178.3067, 317.6277
180.2351, 314.1832
182.1636, 310.7487
184.0921, 307.3765
186.0205, 303.9068
187.9490, 300.5985
189.8775, 297.2317
191.8059, 293.9930
193.7344, 291.2074
195.6629, 289.5971
197.5913, 287.5413
199.5198, 284.2494
201.4483, 279.1809
203.3767, 274.5895
205.3052, 270.3104
207.2337, 266.6523
209.1621, 264.2238
211.0906, 264.1577
213.0191, 264.3271
214.9475, 263.8861
216.8760, 262.7356
218.8045, 262.0143
220.7329, 262.3642
222.6614, 263.2047
224.5899, 263.4702
226.5183, 263.2050
228.4468, 262.3575
230.3753, 260.3869
232.3037, 257.0822
234.2322, 255.4668
236.1607, 257.1828
238.0891, 260.2006
240.0176, 261.4792
241.9461, 259.9604
243.8745, 258.8379
245.8030, 259.4644
247.7315, 262.5204
249.6599, 264.3915
251.5884, 264.1681
253.5169, 263.0756
255.4453, 262.6215
257.3738, 263.1729
259.3023, 263.6830
261.2307, 263.7837
263.1592, 263.5303
265.0877, 263.7870
267.0161, 264.9894
268.9446, 266.4247
270.8731, 267.4665
272.8015, 267.9469
274.7300, 268.1435
276.6585, 268.0231
278.5869, 267.3616
280.5154, 266.5036
282.4439, 265.3952
284.3723, 264.4868
286.3008, 263.7150
288.2293, 263.4090
290.1577, 262.2287
292.0862, 259.5326
294.0147, 256.2448
295.9431, 253.7085
297.8716, 252.9057
299.8001, 251.9677
301.7285, 250.4339
303.6570, 248.4223
305.5855, 246.8249
307.5139, 245.8769
309.4424, 245.0535
311.3709, 243.8834
313.2993, 241.7305
315.2278, 239.8719
317.1563, 239.1060
319.0847, 239.1363
321.0132, 238.4896
322.9417, 235.9144
324.8701, 233.2795
326.7986, 231.8369
328.7271, 231.9324
330.6555, 232.0091
332.5840, 232.3101
334.5125, 232.7804
336.4409, 232.4164
338.3694, 230.2351
340.2979, 227.6260
342.2263, 225.0686
344.1548, 222.4645
346.0833, 220.6027
348.0117, 220.9120
349.9402, 222.2195
351.8687, 222.2169
353.7971, 219.2476
355.7256, 216.0834
357.6541, 214.4943
359.5826, 214.3525
361.5110, 213.9110
363.4395, 212.0930
365.3680, 209.8503
367.2964, 207.7994
369.2249, 205.7692
371.1534, 204.8715
373.0818, 205.8994
375.0103, 207.9618
376.9388, 209.7519
378.8672, 210.9519
380.7957, 212.4807
382.7242, 214.2847
384.6526, 216.1804
386.5811, 218.0956
388.5096, 220.2705
390.4380, 223.2047
392.3665, 227.1317
394.2950, 232.3317
396.2234, 237.7136
398.1519, 243.0009
400.0804, 248.6082
402.0088, 255.4401
403.9373, 262.9433
405.8658, 272.6236
407.7942, 285.7655
409.7227, 302.6851
411.6512, 319.7487
413.5796, 337.2176
415.5081, 354.2281
417.4366, 369.4371
419.3650, 382.8645
421.2935, 393.2429
423.2220, 399.2015
425.1504, 400.5991
427.0789, 398.7596
429.0074, 393.4294
430.9358, 384.9375
432.8643, 374.0088
434.7928, 360.1455
436.7212, 346.4066
438.6497, 333.4260
440.5782, 322.1178
442.5066, 312.6722
444.4351, 305.1973
446.3636, 299.2588
448.2920, 295.2269
450.2205, 292.9424
452.1490, 291.0425
454.0774, 288.6611
456.0059, 285.6194
457.9344, 282.2485
459.8628, 278.7451
461.7913, 275.2708
463.7198, 271.8018
465.6482, 268.3192
467.5767, 264.6482
469.5052, 260.6309
471.4336, 256.6927
473.3621, 253.3526
475.2906, 250.4712
477.2190, 247.6840
479.1475, 244.0616
481.0760, 240.9308
483.0044, 239.2418
484.9329, 238.5673
486.8614, 237.2905
488.7898, 234.6042
490.7183, 232.4409
492.6468, 231.7267
494.5752, 232.4642
496.5037, 232.5789
498.4322, 231.5685
500.3606, 230.1320
502.2891, 228.8773
504.2176, 228.0312
506.1460, 227.0553
508.0745, 225.3889
510.0030, 223.4165
511.9314, 222.1788
513.8599, 222.3864
515.7883, 222.4798
517.7168, 221.9772
519.6453, 221.0699
521.5737, 221.0519
523.5022, 221.6369
525.4307, 221.6065
527.3591, 220.1430
529.2876, 217.5458
531.2161, 215.7586
533.1445, 215.6794
535.0730, 216.5386
537.0015, 217.7781
538.9299, 218.8901
540.8584, 219.7637
542.7869, 220.3579
544.7153, 221.2069
546.6438, 222.7478
548.5723, 225.5822
550.5007, 229.3198
552.4292, 233.7181
554.3577, 238.3294
556.2861, 243.4527
558.2146, 249.6146
560.1431, 255.5021
562.0715, 260.4153
564.0000, 264.3437
565.9285, 270.3654
567.8569, 278.6254
569.7854, 286.8594
571.7139, 293.2669
573.6423, 298.3437
575.5708, 304.1694
577.4993, 311.6719
579.4277, 320.3484
581.3562, 329.3869
583.2847, 338.5213
585.2131, 349.1681
587.1416, 362.5039
589.0701, 377.3225
590.9985, 392.4606
592.9270, 405.9409
594.8555, 416.8287
596.7839, 425.4743
598.7124, 432.0971
600.6409, 435.9183
602.5693, 436.1206
604.4978, 433.7242
606.4263, 429.1269
608.3547, 422.7278
610.2832, 414.1233
612.2117, 402.9414
614.1401, 392.0886
616.0686, 382.5013
617.9971, 375.0433
619.9255, 369.3549
621.8540, 365.4530
623.7825, 361.9166
625.7109, 358.2932
627.6394, 354.1055
629.5679, 350.9796
631.4963, 349.5443
633.4248, 349.9863
635.3533, 351.9531
637.2817, 354.0392
639.2102, 355.7301
641.1387, 356.9168
643.0671, 358.9684
644.9956, 362.7051
646.9241, 367.2263
648.8525, 371.5607
650.7810, 375.4775
652.7095, 379.7655
654.6379, 384.2404
656.5664, 389.0229
658.4949, 394.2809
660.4233, 400.1963
662.3518, 406.1187
664.2803, 411.7345
666.2087, 416.8509
668.1372, 421.5390
670.0657, 426.2827
671.9941, 429.8618
673.9226, 434.5427
675.8511, 438.6695
677.7795, 441.7437
679.7080, 443.9793
681.6365, 446.2758
683.5649, 447.9413
685.4934, 449.3772
687.4219, 449.4266
689.3503, 447.6526
691.2788, 443.7741
693.2073, 439.4727
695.1357, 435.4254
697.0642, 431.0048
698.9927, 425.1040
700.9211, 417.5986
702.8496, 410.6410
704.7781, 404.9382
706.7065, 399.6287
708.6350, 393.7954
710.5635, 387.8779
712.4919, 382.0108
714.4204, 375.6204
716.3489, 369.1381
718.2773, 363.7885
720.2058, 359.6103
722.1343, 355.5902
724.0627, 350.9902
725.9912, 346.9015
727.9197, 343.8719
729.8481, 342.8531
731.7766, 341.7159
733.7051, 340.0216
735.6335, 337.9406
737.5620, 336.5738
739.4905, 336.1870
741.4189, 335.8128
743.3474, 334.2613
745.2759, 333.1070
747.2043, 333.7500
749.1328, 336.6442
751.0613, 339.5463
752.9897, 342.1950
754.9182, 345.0552
756.8467, 348.3936
758.7751, 352.3080
760.7036, 355.1398
762.6321, 356.2688
764.5605, 356.9267
766.4890, 357.6156
768.4175, 358.2598
770.3459, 359.0648
772.2744, 360.3786
774.2029, 361.6654
776.1313, 362.6324
778.0598, 363.3400
779.9883, 363.3694
781.9167, 362.2320
783.8452, 360.8040
785.7737, 359.7695
787.7021, 359.2371
789.6306, 358.4205
791.5591, 357.6859
793.4875, 356.2654
795.4160, 353.3279
797.3445, 348.2720
799.2729, 343.4158
801.2014, 338.8936
803.1299, 335.0002
805.0583, 332.0544
806.9868, 330.4391
808.9153, 328.6940
810.8438, 326.9244
812.7722, 324.7813
814.7007, 321.7929
816.6292, 317.5428
818.5576, 313.7947
820.4861, 311.4648
822.4146, 309.4116
824.3430, 306.3050
826.2715, 301.6109
828.2000, 297.0637
830.1284, 292.7003
832.0569, 288.6913
833.9854, 285.1899
835.9138, 282.3389
837.8423, 279.4639
839.7708, 276.4112
841.6992, 273.3315
843.6277, 270.3592
845.5562, 267.7343
847.4846, 265.2083
849.4131, 262.5167
851.3416, 259.9811
853.2700, 258.2436
855.1985, 257.5417
857.1270, 256.7992
859.0554, 255.4865
860.9839, 253.8820
862.9124, 252.5529
864.8408, 252.0837
866.7693, 251.6726
868.6978, 251.6887
870.6262, 251.4223
872.5547, 250.1199
874.4832, 247.6677
876.4116, 245.9080
878.3401, 245.4729
880.2686, 245.8433
882.1970, 246.7888
884.1255, 248.5389
886.0540, 249.1081
887.9824, 247.8223
889.9109, 246.1071
891.8394, 244.5097
893.7678, 242.9472
895.6963, 242.4142
897.6248, 243.5195
899.5532, 245.5029
901.4817, 247.9835
903.4102, 250.4813
905.3386, 252.5170
907.2671, 253.8148
909.1956, 255.5249
911.1240, 257.6477
913.0525, 259.4171
914.9810, 262.2895
916.9094, 267.0044
918.8379, 272.5727
920.7664, 278.2920
922.6948, 283.7798
924.6233, 289.9579
926.5518, 296.5073
928.4802, 305.9270
930.4087, 319.0644
932.3372, 334.6800
934.2656, 351.2993
936.1941, 368.0098
938.1226, 387.5040
940.0510, 410.3926
941.9795, 437.6044
943.9080, 467.1570
945.8364, 497.4698
947.7649, 534.3252
949.6934, 576.9745
951.6218, 627.7979
953.5503, 687.7039
955.4788, 757.2017
957.4072, 841.2586
959.3357, 939.1231
961.2642, 1054.185
963.1926, 1187.988
965.1211, 1342.277
967.0496, 1510.697
968.9780, 1699.669
970.9065, 1885.534
972.8350, 2081.033
974.7634, 2273.109
976.6919, 2417.117
978.6204, 2530.347
980.5488, 2578.108
982.4773, 2534.282
984.4058, 2411.108
986.3342, 2227.995
988.2627, 1959.505
990.1912, 1692.328
992.1196, 1445.766
994.0481, 1230.806
995.9766, 1056.083
997.9050, 930.2839
999.8335, 833.9337
1001.762, 766.8372
1003.690, 719.0937
1005.619, 683.4023
1007.547, 661.5965
1009.476, 644.1957
1011.404, 630.0958
1013.333, 618.6111
1015.261, 609.9726
1017.190, 605.6005
1019.118, 605.0956
1021.047, 608.3645
1022.975, 611.8203
1024.904, 614.6689
1026.832, 617.9286
1028.760, 622.3204
1030.689, 627.3162
1032.617, 630.8901
1034.546, 633.3212
1036.474, 633.5464
1038.403, 629.5814
1040.331, 622.2037
1042.260, 613.0195
1044.188, 601.4160
1046.117, 587.7725
1048.045, 573.7050
1049.974, 560.9394
1051.902, 548.6225
1053.831, 535.2784
1055.759, 522.8699
1057.688, 514.3415
1059.616, 510.2330
1061.544, 506.4589
1063.473, 502.8746
1065.401, 499.7588
1067.330, 498.1863
1069.258, 496.4821
1071.187, 491.8146
1073.115, 483.3856
1075.044, 473.3671
1076.972, 462.8072
1078.901, 452.0260
1080.829, 440.3622
1082.758, 426.8922
1084.686, 414.0876
1086.615, 402.5829
1088.543, 392.4452
1090.471, 383.3806
1092.400, 374.2360
1094.328, 366.3874
1096.257, 361.7181
1098.185, 358.2120
1100.114, 354.0320
1102.042, 349.1562
1103.971, 345.3932
1105.899, 341.4109
1107.828, 337.5835
1109.756, 335.4069
1111.685, 335.6203
1113.613, 335.8672
1115.542, 332.7980
1117.470, 330.0781
1119.398, 329.9666
1121.327, 330.8223
1123.255, 329.8351
1125.184, 325.4055
1127.112, 317.7981
1129.041, 307.3348
1130.969, 296.3701
1132.898, 286.3192
1134.826, 277.8041
1136.755, 269.3586
1138.683, 263.0645
1140.612, 255.7346
1142.540, 249.7254
1144.469, 245.4153
1146.397, 242.1863
1148.325, 238.2206
1150.254, 233.1861
1152.182, 228.3987
1154.111, 225.3675
1156.039, 224.3944
1157.968, 224.2381
1159.896, 223.3033
1161.825, 222.2632
1163.753, 220.8646
1165.682, 218.3857
1167.610, 215.5332
1169.539, 214.7215
1171.467, 216.6388
1173.396, 217.5125
1175.324, 216.8723
1177.252, 215.2878
1179.181, 213.3949
1181.109, 211.4045
1183.038, 210.2772
1184.966, 210.2432
1186.895, 210.3655
1188.823, 209.4167
1190.752, 207.5806
1192.680, 206.4586
1194.609, 207.2916
1196.537, 207.7285
1198.466, 206.3578
1200.394, 204.6472
1202.323, 203.6409
1204.251, 203.1958
1206.179, 202.9496
1208.108, 204.0715
1210.036, 204.5695
1211.965, 203.1829
1213.893, 200.2945
1215.822, 197.9733
1217.750, 196.6858
1219.679, 195.9951
1221.607, 195.2149
1223.536, 194.4095
1225.464, 193.8789
1227.393, 193.5998
1229.321, 193.2482
1231.250, 193.5755
1233.178, 193.4801
1235.106, 191.5822
1237.035, 188.8141
1238.963, 187.3876
1240.892, 187.9040
1242.820, 187.7968
1244.749, 187.4002
1246.677, 187.5534
1248.606, 187.6391
1250.534, 187.3482
1252.463, 187.4957
1254.391, 189.1466
1256.320, 190.0146
1258.248, 189.5471
1260.177, 188.3033
1262.105, 186.8170
1264.033, 185.0471
1265.962, 183.9295
1267.890, 183.8081
1269.819, 183.8402
1271.747, 183.3937
1273.676, 182.3902
1275.604, 181.2659
1277.533, 179.9977
1279.461, 179.3194
1281.390, 179.6836
1283.318, 180.1730
1285.247, 179.6644
1287.175, 177.9499
1289.104, 177.4254
1291.032, 180.0555
1292.960, 181.2104
1294.889, 178.4126
1296.817, 174.4068
1298.746, 173.5194
1300.674, 176.0647
1302.603, 177.9679
1304.531, 178.0572
1306.460, 177.5614
1308.388, 177.5513
1310.317, 177.7758
1312.245, 177.3407
1314.174, 175.8055
1316.102, 174.9014
1318.031, 175.4739
1319.959, 176.4690
1321.887, 177.5232
1323.816, 178.5930
1325.744, 179.0982
1327.673, 178.3983
1329.601, 178.2120
1331.530, 178.5277
1333.458, 178.7266
1335.387, 179.0978
1337.315, 179.9351
1339.244, 179.9424
1341.172, 177.7701
1343.101, 176.1726
1345.029, 176.9091
1346.958, 178.6849
1348.886, 178.9764
1350.814, 177.6161
1352.743, 177.1173
1354.671, 178.6133
1356.600, 180.0232
1358.528, 180.6228
1360.457, 180.7263
1362.385, 180.3404
1364.314, 179.1212
1366.242, 178.4731
1368.171, 179.1207
1370.099, 179.7938
1372.028, 180.1881
1373.956, 180.2346
1375.885, 179.7221
1377.813, 178.0299
1379.741, 176.7714
1381.670, 176.0982
1383.598, 175.7603
1385.527, 175.6684
1387.455, 175.7061
1389.384, 175.5897
1391.312, 175.0504
1393.241, 175.0470
1395.169, 176.4809
1397.098, 177.8768
1399.026, 177.8965
1400.955, 176.8777
1402.883, 175.9123
1404.812, 174.9736
1406.740, 174.3972
1408.668, 174.5180
1410.597, 174.6853
1412.525, 174.9873
1414.454, 175.5796
1416.382, 175.4018
1418.311, 173.5717
1420.239, 172.1775
1422.168, 172.1663
1424.096, 172.7484
1426.025, 173.2407
1427.953, 173.6736
1429.882, 173.9842
1431.810, 173.9813
1433.739, 173.9931
1435.667, 174.6310
1437.595, 175.0115
1439.524, 173.9177
1441.452, 171.4284
1443.381, 170.5072
1445.309, 172.7065
1447.238, 174.2499
1449.166, 174.0341
1451.095, 173.2064
1453.023, 172.7764
1454.952, 172.7773
1456.880, 173.1623
1458.809, 174.3101
1460.737, 174.9095
1462.666, 174.2868
1464.594, 173.2171
1466.522, 172.0494
1468.451, 170.8667
1470.379, 170.1759
1472.308, 169.9599
1474.236, 170.3855
1476.165, 172.2551
1478.093, 174.0189
1480.022, 174.6817
1481.950, 174.3134
1483.879, 173.0458
1485.807, 170.1633
1487.736, 168.4376
1489.664, 169.2354
1491.593, 170.7242
1493.521, 172.1874
1495.449, 173.4889
1497.378, 174.2555
1499.306, 174.3293
1501.235, 174.2828
1503.163, 173.8914
1505.092, 173.5731
1507.020, 173.9842
1508.949, 174.6254
1510.877, 173.9350
1512.806, 170.4384
1514.734, 169.2085
1516.663, 172.1874
1518.591, 175.0168
1520.520, 176.1156
1522.448, 176.1618
1524.376, 175.9451
1526.305, 175.4021
1528.233, 174.9924
1530.162, 174.8917
1532.090, 174.6389
1534.019, 173.5754
1535.947, 172.6956
1537.876, 173.2471
1539.804, 175.0250
1541.733, 176.6311
1543.661, 177.9788
1545.590, 179.4843
1547.518, 182.2434
1549.447, 184.1468
1551.375, 182.6972
1553.303, 179.3945
1555.232, 178.4590
1557.160, 180.5840
1559.089, 182.0685
1561.017, 182.1811
1562.946, 181.4111
1564.874, 179.1893
1566.803, 176.6217
1568.731, 175.7268
1570.660, 176.6162
1572.588, 176.4989
1574.517, 173.8970
1576.445, 172.2434
1578.374, 174.2139
1580.302, 176.8587
1582.230, 177.0086
1584.159, 174.8609
1586.087, 173.6864
1588.016, 173.8898
1589.944, 174.7070
1591.873, 176.7939
1593.801, 178.4926
1595.730, 178.7167
1597.658, 178.0266
1599.587, 177.8588
1601.515, 178.4000
1603.444, 178.4942
1605.372, 177.5638
1607.301, 176.7408
1609.229, 176.0553
1611.157, 175.8686
1613.086, 176.8092
1615.014, 178.8951
1616.943, 180.4324
1618.871, 182.0266
1620.800, 182.0958
1622.728, 178.8746
1624.657, 175.7556
1626.585, 174.8462
1628.514, 175.6275
1630.442, 176.7422
1632.371, 178.6545
1634.299, 179.6483
1636.228, 178.6921
1638.156, 178.1416
1640.084, 179.0580
1642.013, 180.3610
1643.941, 180.8677
1645.870, 180.6290
1647.798, 180.5767
1649.727, 180.8090
1651.655, 181.1277
1653.584, 182.0954
1655.512, 182.5504
1657.441, 181.0447
1659.369, 179.0154
1661.298, 179.3744
1663.226, 182.7629
1665.155, 184.2357
1667.083, 181.9875
1669.011, 180.4892
1670.940, 180.9188
1672.868, 181.8835
1674.797, 182.4868
1676.725, 182.8755
1678.654, 183.4579
1680.582, 184.3117
1682.511, 185.2339
1684.439, 186.7241
1686.368, 187.6220
1688.296, 186.9963
1690.225, 186.1015
1692.153, 186.1409
1694.082, 186.9668
1696.010, 187.8670
1697.938, 189.5916
1699.867, 189.6231
1701.795, 185.4359
1703.724, 182.6125
1705.652, 184.6830
1707.581, 188.1985
1709.509, 189.0018
1711.438, 187.2919
1713.366, 186.2336
1715.295, 185.7894
1717.223, 186.0254
1719.152, 187.7072
1721.080, 189.1232
1723.009, 189.1991
1724.937, 188.7640
1726.865, 189.1827
1728.794, 190.4574
1730.722, 190.5210
1732.651, 187.8295
1734.579, 186.6250
1736.508, 188.5827
1738.436, 190.4081
1740.365, 189.9818
1742.293, 188.8003
1744.222, 189.4248
1746.150, 191.8823
1748.079, 192.3244
1750.007, 188.7808
1751.936, 186.3426
1753.864, 186.1027
1755.792, 186.0218
1757.721, 184.8771
1759.649, 183.6116
1761.578, 183.7391
1763.506, 185.2332
1765.435, 185.9272
1767.363, 184.9569
1769.292, 184.5718
1771.220, 185.5632
1773.149, 186.1800
1775.077, 184.9089
1777.006, 183.4554
1778.934, 184.4689
1780.863, 183.9194
1782.791, 183.6401
1784.719, 185.3344
1786.648, 183.7653
1788.576, 185.5483
1790.505, 186.8982
1792.433, 186.2884
1794.362, 185.0408
1796.290, 184.3305
1798.219, 184.0598
1800.147, 183.7995
1802.076, 183.6133
1804.004, 183.2529
1805.933, 182.9424
1807.861, 182.0616
1809.790, 179.3823
1811.718, 177.1484
1813.646, 177.1343
1815.575, 178.6232
1817.503, 180.1295
1819.432, 181.6892
1821.360, 182.5483
1823.289, 182.5820
1825.217, 182.1806
1827.146, 181.1607
1829.074, 180.1272
1831.003, 179.5173
1832.931, 178.9811
1834.860, 177.7701
1836.788, 176.1087
1838.717, 175.4096
1840.645, 175.7800
1842.573, 176.9918
1844.502, 180.2194
1846.430, 182.0098
1848.359, 179.2223
1850.287, 175.9037
1852.216, 175.9168
1854.144, 177.8461
1856.073, 178.4539
1858.001, 177.6834
1859.930, 177.6173
1861.858, 178.8616
1863.787, 179.7346
1865.715, 179.7517
1867.644, 179.3480
1869.572, 178.6479
1871.500, 177.7419
1873.429, 176.4243
1875.357, 174.8828
1877.286, 174.6260
1879.214, 176.1754
1881.143, 177.0766
1883.071, 176.5406
1885.000, 176.1669
1886.928, 176.5742
1888.857, 177.0130
1890.785, 176.7994
1892.714, 176.3351
1894.642, 176.5296
1896.571, 177.4494
1898.499, 177.6703
1900.427, 176.7087
1902.356, 176.0956
1904.284, 175.7628
1906.213, 175.9834
1908.141, 177.8058
1910.070, 179.2374
1911.998, 177.9080
1913.927, 175.1638
1915.855, 174.6130
1917.784, 176.3091
1919.712, 176.6881
1921.641, 175.0576
1923.569, 174.1069
1925.498, 175.0587
1927.426, 175.6395
1929.354, 174.2828
1931.283, 172.7326
1933.211, 172.2583
1935.140, 172.6556
1937.068, 173.8493
1938.997, 175.7395
1940.925, 176.6522
1942.854, 176.1766
1944.782, 175.8729
1946.711, 175.9844
1948.639, 176.4326
1950.568, 177.6678
1952.496, 178.7360
1954.425, 178.6371
1956.353, 177.8557
1958.281, 177.5151
1960.210, 176.9763
1962.138, 176.1512
1964.067, 175.8067
1965.995, 174.7910
1967.924, 174.1155
1969.852, 174.0155
1971.781, 174.6397
1973.709, 175.7413
1975.638, 178.0299
1977.566, 180.1921
1979.495, 179.5639
1981.423, 176.4419
1983.352, 174.9294
1985.280, 175.2603
1987.208, 175.9354
1989.137, 176.9227
1991.065, 177.9614
1992.994, 179.2484
1994.922, 180.1607
1996.851, 180.1969
1998.779, 179.7717
2000.708, 178.9557
2002.636, 178.0944
2004.565, 178.3498
2006.493, 179.7409
2008.422, 180.4909
2010.350, 180.3865
2012.279, 179.9831
2014.207, 178.6829
2016.135, 178.0736
2018.064, 179.1806
2019.992, 180.6156
2021.921, 181.6178
2023.849, 182.1497
2025.778, 182.1328
2027.706, 181.5788
2029.635, 180.4911
2031.563, 178.5799
2033.492, 177.4848
2035.420, 177.4687
2037.349, 177.8462
2039.277, 178.8688
2041.206, 179.6858
2043.134, 179.5622
2045.063, 179.4673
2046.991, 180.2644
2048.919, 181.5304
2050.848, 182.9491
2052.776, 184.2664
2054.705, 183.7556
2056.633, 180.9200
2058.562, 179.6874
2060.490, 181.4239
2062.419, 182.8530
2064.347, 183.6807
2066.276, 183.6507
2068.204, 181.7610
2070.133, 179.8967
2072.061, 179.8627
2073.990, 180.8629
2075.918, 181.5589
2077.846, 181.9347
2079.775, 181.6774
2081.703, 180.4433
2083.632, 181.1936
2085.560, 185.3997
2087.489, 187.5101
2089.417, 185.0784
2091.346, 182.6350
2093.274, 182.1983
2095.203, 182.4304
2097.131, 182.9058
2099.060, 183.1517
2100.988, 182.1051
2102.917, 180.2628
2104.845, 179.6467
2106.773, 180.4252
2108.702, 180.7289
2110.630, 180.1042
2112.559, 179.7415
2114.487, 179.7499
2116.416, 179.8642
2118.344, 180.1209
2120.273, 180.4136
2122.201, 181.1333
2124.130, 181.5013
2126.058, 180.1127
2127.987, 178.1960
2129.915, 178.4734
2131.844, 180.4078
2133.772, 181.3537
2135.700, 181.1428
2137.629, 180.9978
2139.557, 180.9336
2141.486, 181.2147
2143.414, 182.4184
2145.343, 183.2076
2147.271, 182.7843
2149.200, 182.3898
2151.128, 183.5144
2153.057, 184.3498
2154.985, 182.1007
2156.914, 178.5200
2158.842, 177.5286
2160.771, 178.8579
2162.699, 180.7059
2164.627, 183.0836
2166.556, 184.4321
2168.484, 184.5733
2170.413, 183.6855
2172.341, 180.7896
2174.270, 179.0034
2176.198, 180.2432
2178.127, 181.7517
2180.055, 182.4290
2181.984, 182.4443
2183.912, 181.4084
2185.841, 180.1277
2187.769, 180.1108
2189.698, 181.0791
2191.626, 181.5523
2193.554, 181.4980
2195.483, 182.7282
2197.411, 185.7399
2199.340, 186.7337
2201.268, 184.4756
2203.197, 182.4903
2205.125, 181.9410
2207.054, 181.4433
2208.982, 180.2863
2210.911, 179.2088
2212.839, 178.4211
2214.768, 178.1835
2216.696, 179.2612
2218.625, 180.8383
2220.553, 181.1810
2222.481, 180.4677
2224.410, 179.7556
2226.338, 179.0298
2228.267, 179.5084
2230.195, 181.5267
2232.124, 182.7447
2234.052, 182.7763
2235.981, 182.2082
2237.909, 180.6012
2239.838, 179.4097
2241.766, 179.2277
2243.695, 179.4916
2245.623, 180.0715
2247.552, 180.7402
2249.480, 181.3235
2251.408, 181.8332
2253.337, 182.5294
2255.265, 183.1444
2257.194, 182.6550
2259.122, 181.1341
2261.051, 178.7391
2262.979, 175.3711
2264.908, 174.3764
2266.836, 176.9209
2268.765, 178.5225
2270.693, 176.9819
2272.622, 176.8765
2274.550, 180.8132
2276.479, 183.9118
2278.407, 183.8421
2280.335, 183.0971
2282.264, 183.1013
2284.192, 183.1610
2286.121, 182.2264
2288.049, 182.6051
2289.978, 181.5224
2291.906, 182.7694
2293.835, 183.3686
2295.763, 183.5482
2297.692, 186.2517
2299.620, 186.6260
2301.549, 187.5993
2303.477, 190.5685
2305.406, 189.5639
2307.334, 194.6821
2309.262, 197.0983
2311.191, 194.0021
2313.119, 191.0857
2315.048, 189.5840
2316.976, 189.6097
2318.905, 191.3239
2320.833, 194.4594
2322.762, 200.2103
2324.690, 205.9728
2326.619, 209.4637
2328.547, 210.7302
2330.476, 209.2460
2332.404, 205.7019
2334.333, 202.0055
2336.261, 198.3088
2338.189, 196.0201
2340.118, 195.1520
2342.046, 195.2852
2343.975, 196.6893
2345.903, 196.2796
2347.832, 192.6054
2349.760, 190.1402
2351.689, 190.0094
2353.617, 190.3409
2355.546, 192.1372
2357.474, 192.3673
2359.403, 188.0227
2361.331, 184.6073
2363.260, 185.2116
2365.188, 186.9744
2367.116, 188.8821
2369.045, 189.9654
2370.973, 188.4740
2372.902, 186.0311
2374.830, 184.7435
2376.759, 184.6867
2378.687, 186.8424
2380.616, 190.5978
2382.544, 191.4135
2384.473, 189.4344
2386.401, 188.6284
2388.330, 189.1562
2390.258, 188.7401
2392.187, 186.9897
2394.115, 185.5740
2396.043, 184.5250
2397.972, 184.3304
2399.900, 185.7573
2401.829, 186.9210
2403.757, 187.2662
2405.686, 187.6158
2407.614, 188.3623
2409.543, 188.8391
2411.471, 188.7661
2413.400, 188.2655
2415.328, 186.6002
2417.257, 185.4299
2419.185, 187.1714
2421.114, 189.3674
2423.042, 188.6194
2424.970, 186.5991
2426.899, 186.1112
2428.827, 186.6946
2430.756, 187.3328
2432.684, 187.9122
2434.613, 187.8196
2436.541, 188.2372
2438.470, 188.3515
2440.398, 188.4995
2442.327, 188.6458
2444.255, 188.7878
2446.184, 189.1166
2448.112, 188.4250
2450.041, 188.9986
2451.969, 188.2207
2453.897, 187.7596
2455.826, 188.2771
2457.754, 188.0600
2459.683, 185.6385
2461.611, 184.1760
2463.540, 185.3649
2465.468, 186.4683
2467.397, 186.1557
2469.325, 186.0093
2471.254, 187.4076
2473.182, 188.3249
2475.111, 186.6101
2477.039, 185.0525
2478.968, 186.5817
2480.896, 188.5977
2482.824, 188.2694
2484.753, 187.0073
2486.681, 186.4289
2488.610, 186.4196
2490.538, 186.8262
2492.467, 187.6020
2494.395, 188.8642
2496.324, 190.3203
2498.252, 191.1526
2500.181, 191.3910
2502.109, 191.3536
2504.038, 191.0264
2505.966, 189.5671
2507.895, 186.7785
2509.823, 185.4584
2511.751, 185.6445
2513.680, 187.3207
2515.608, 190.7590
2517.537, 191.6662
2519.465, 188.7110
2521.394, 186.4406
2523.322, 185.3230
2525.251, 184.9679
2527.179, 185.8843
2529.108, 186.3329
2531.036, 185.8888
2532.965, 185.6198
2534.893, 185.7602
2536.822, 186.2350
2538.750, 188.0515
2540.678, 188.5679
2542.607, 184.7217
2544.535, 182.6544
2546.464, 186.7495
2548.392, 190.2186
2550.321, 189.9345
2552.249, 188.7126
2554.178, 187.4286
2556.106, 186.6789
2558.035, 187.7229
2559.963, 188.4333
2561.892, 186.1277
2563.820, 183.8832
2565.749, 184.9353
2567.677, 187.0354
2569.605, 188.6583
2571.534, 189.4026
2573.462, 187.9285
2575.391, 185.9804
2577.319, 186.2109
2579.248, 187.4091
2581.176, 187.5613
2583.105, 187.1560
2585.033, 187.4098
2586.962, 187.8303
2588.890, 187.0456
2590.819, 185.7185
2592.747, 185.5775
2594.676, 186.2899
2596.604, 186.4611
2598.532, 186.3176
2600.461, 187.5805
2602.389, 186.6760
2604.318, 188.9835
2606.246, 186.1317
2608.175, 185.2541
2610.103, 186.2981
2612.032, 186.3377
2613.960, 185.3495
2615.889, 186.2081
2617.817, 188.9597
2619.746, 189.3297
2621.674, 187.3157
2623.603, 185.8358
2625.531, 185.0643
2627.459, 184.9233
2629.388, 185.5508
2631.316, 186.0661
2633.245, 186.5119
2635.173, 186.5308
2637.102, 186.0482
2639.030, 186.0302
2640.959, 186.5823
2642.887, 187.6246
2644.816, 190.1708
2646.744, 189.6390
2648.673, 183.9912
2650.601, 182.2492
2652.530, 185.6939
2654.458, 188.1228
2656.386, 188.7664
2658.315, 188.3227
2660.243, 185.9836
2662.172, 185.0808
2664.100, 186.9621
2666.029, 187.2324
2667.957, 184.8468
2669.886, 184.4089
2671.814, 187.3816
2673.743, 188.7368
2675.671, 186.5966
2677.600, 185.1344
2679.528, 184.5996
2681.457, 185.4517
2683.385, 188.4568
2685.313, 190.2045
2687.242, 189.8956
2689.170, 189.2123
2691.099, 187.8593
2693.027, 187.7371
2694.956, 190.6636
2696.884, 191.8063
2698.813, 190.1824
2700.741, 188.8681
2702.670, 188.5656
2704.598, 187.7886
2706.527, 185.4568
2708.455, 184.3474
2710.384, 185.1813
2712.312, 186.9110
2714.240, 190.4022
2716.169, 191.3785
2718.097, 188.2583
2720.026, 185.9344
2721.954, 185.5690
2723.883, 185.7448
2725.811, 186.4756
2727.740, 187.3780
2729.668, 188.6710
2731.597, 189.1308
2733.525, 188.3680
2735.454, 187.7369
2737.382, 187.9130
2739.311, 187.1263
2741.239, 184.0972
2743.167, 183.5861
2745.096, 186.4446
2747.024, 189.3623
2748.953, 192.4020
2750.881, 192.5551
2752.810, 192.4072
2754.738, 192.0221
2756.667, 188.5281
2758.595, 189.1960
2760.524, 185.9004
2762.452, 184.8251
2764.381, 187.1718
2766.309, 188.2280
2768.238, 186.8669
2770.166, 187.0617
2772.094, 189.0660
2774.023, 190.3589
2775.951, 190.8039
2777.880, 191.1852
2779.808, 191.5739
2781.737, 191.9791
2783.665, 192.4506
2785.594, 192.4979
2787.522, 192.1372
2789.451, 192.3482
2791.379, 193.0118
2793.308, 191.9652
2795.236, 191.5941
2797.165, 188.5871
2799.093, 189.5109
2801.021, 189.0947
2802.950, 187.8538
2804.878, 188.5654
2806.807, 190.6320
2808.735, 191.2686
2810.664, 190.8092
2812.592, 190.2384
2814.521, 189.7782
2816.449, 190.6276
2818.378, 191.8951
2820.306, 191.5187
2822.235, 190.2532
2824.163, 189.4237
2826.092, 188.8933
2828.020, 188.2026
2829.948, 187.8430
2831.877, 188.9036
2833.805, 190.2607
2835.734, 190.2682
2837.662, 190.1419
2839.591, 191.7917
2841.519, 193.3262
2843.448, 192.4141
2845.376, 191.4367
2847.305, 192.9792
2849.233, 194.1507
2851.162, 191.5960
2853.090, 189.8759
2855.019, 192.8467
2856.947, 195.2910
2858.875, 194.3484
2860.804, 192.8917
2862.732, 191.4206
2864.661, 190.8819
2866.589, 192.1852
2868.518, 193.0649
2870.446, 192.4608
2872.375, 192.8350
2874.303, 193.0572
2876.232, 192.1770
2878.160, 193.5782
2880.089, 191.1553
2882.017, 191.4785
2883.946, 192.1658
2885.874, 193.1487
2887.802, 192.9377
2889.731, 193.4166
2891.659, 193.6992
2893.588, 193.0916
2895.516, 193.7407
2897.445, 192.6228
2899.373, 191.7538
2901.302, 191.2182
2903.230, 191.3679
2905.159, 192.0508
2907.087, 192.2856
2909.016, 192.3086
2910.944, 192.6563
2912.873, 193.3033
2914.801, 194.6463
2916.729, 195.8704
2918.658, 195.3895
2920.586, 194.2023
2922.515, 192.8434
2924.443, 192.1705
2926.372, 193.6398
2928.300, 195.4108
2930.229, 196.8976
2932.157, 196.9314
2934.086, 192.9548
2936.014, 190.4319
2937.943, 193.1786
2939.871, 195.9518
2941.800, 197.5517
2943.728, 197.7259
2945.656, 195.8344
2947.585, 194.2838
2949.513, 193.9802
2951.442, 193.3057
2953.370, 191.8639
2955.299, 191.5932
2957.227, 192.6686
2959.156, 194.5910
2961.084, 197.4410
2963.013, 198.9492
2964.941, 199.1260
2966.870, 198.8282
2968.798, 198.0587
2970.727, 196.4558
2972.655, 196.4338
2974.583, 194.6684
2976.512, 195.4552
2978.440, 194.9658
2980.369, 194.0557
2982.297, 193.4748
2984.226, 193.3360
2986.154, 193.9596
2988.083, 194.7604
2990.011, 195.3196
2991.940, 195.9112
2993.868, 196.7985
2995.797, 197.5029
2997.725, 198.0459
2999.654, 197.9911
3001.582, 197.2196
3003.510, 196.0146
3005.439, 194.2434
3007.367, 192.8591
3009.296, 191.6370
3011.224, 192.2952
3013.153, 194.8231
3015.081, 197.7121
3017.010, 200.4699
3018.938, 199.2184
3020.867, 201.1350
3022.795, 201.5336
3024.724, 201.0610
3026.652, 201.5188
3028.581, 200.1268
3030.509, 198.0336
3032.438, 196.4007
3034.366, 196.9060
3036.294, 197.6834
3038.223, 197.5042
3040.151, 197.2476
3042.080, 197.0566
3044.008, 197.4137
3045.937, 197.1467
3047.865, 196.5877
3049.794, 197.1107
3051.722, 195.6883
3053.651, 195.6994
3055.579, 196.4824
3057.508, 198.0600
3059.436, 198.7137
3061.365, 198.4543
3063.293, 197.8061
3065.221, 196.9213
3067.150, 196.1638
3069.078, 195.6414
3071.007, 195.2557
3072.935, 195.5451
3074.864, 198.3194
3076.792, 200.5411
3078.721, 198.2107
3080.649, 196.8829
3082.578, 200.1941
3084.506, 203.1841
3086.435, 204.4774
3088.363, 204.1575
3090.292, 201.5659
3092.220, 201.1049
3094.148, 203.8406
3096.077, 204.7673
3098.005, 203.6320
3099.934, 201.1599
3101.862, 198.0521
3103.791, 198.0949
3105.719, 199.8241
3107.648, 200.0764
3109.576, 199.7336
3111.505, 200.0631
3113.433, 200.4046
3115.362, 200.3493
3117.290, 199.9009
3119.219, 198.6261
3121.147, 197.6128
3123.075, 196.5621
3125.004, 197.8840
3126.932, 204.6990
3128.861, 206.6597
3130.789, 202.7624
3132.718, 199.8691
3134.646, 198.4629
3136.575, 201.3544
3138.503, 206.5539
3140.432, 205.9819
3142.360, 202.6770
3144.289, 201.9943
3146.217, 201.9832
3148.146, 200.1245
3150.074, 198.9085
3152.002, 200.2121
3153.931, 202.0528
3155.859, 204.3299
3157.788, 205.4907
3159.716, 205.9892
3161.645, 204.3965
3163.573, 205.2773
3165.502, 204.7366
3167.430, 202.7849
3169.359, 201.8967
3171.287, 201.9640
3173.216, 203.1453
3175.144, 204.4306
3177.073, 203.8767
3179.001, 203.1519
3180.929, 203.9532
3182.858, 205.0651
3184.786, 206.1618
3186.715, 206.7840
3188.643, 206.6824
3190.572, 206.1924
3192.500, 205.3351
3194.429, 204.1721
3196.357, 204.0410
3198.286, 202.6543
3200.214, 203.6604
3202.143, 203.9710
3204.071, 204.1914
3206.000, 205.9075
3207.928, 207.4756
3209.856, 206.2910
3211.785, 205.5444
3213.713, 207.6100
3215.642, 209.0747
3217.570, 208.2213
3219.499, 207.4875
3221.427, 207.1843
3223.356, 205.8018
3225.284, 205.7021
3227.213, 203.4433
3229.141, 205.7309
3231.070, 207.3858
3232.998, 209.0410
3234.927, 212.5464
3236.855, 215.4139
3238.783, 214.7816
3240.712, 213.3781
3242.640, 212.1808
3244.569, 210.9983
3246.497, 209.1373
3248.426, 209.0107
3250.354, 210.8222
3252.283, 211.0341
3254.211, 209.6634
3256.140, 208.1830
3258.068, 207.0069
3259.997, 207.6627
3261.925, 208.6699
3263.854, 207.7505
3265.782, 207.5450
3267.710, 210.3745
3269.639, 212.8355
3271.567, 213.8734
3273.496, 214.5571
3275.424, 215.0428
3277.353, 215.1953
3279.281, 215.1346
3281.210, 216.0202
3283.138, 217.0851
3285.067, 215.7711
3286.995, 213.9299
3288.924, 213.7486
3290.852, 213.7935
3292.781, 212.0407
3294.709, 212.8025
3296.637, 213.0919
3298.566, 212.8643
3300.494, 215.3148
3302.423, 214.0023
3304.351, 215.9234
3306.280, 217.7346
3308.208, 218.9839
3310.137, 217.9855
3312.065, 217.0179
3313.994, 219.8870
3315.922, 221.3166
3317.851, 216.8682
3319.779, 213.9473
3321.708, 214.1271
3323.636, 215.4524
3325.564, 217.7482
3327.493, 219.5138
3329.421, 220.6822
3331.350, 221.2369
3333.278, 220.9567
3335.207, 218.5948
3337.135, 216.8369
3339.064, 219.1329
3340.992, 219.8713
3342.921, 216.3078
3344.849, 215.2569
3346.778, 218.4104
3348.706, 221.7300
3350.635, 224.7810
3352.563, 224.7651
3354.491, 225.9873
3356.420, 224.2168
3358.348, 224.6196
3360.277, 221.5143
3362.205, 218.6599
3364.134, 217.3718
3366.062, 217.4139
3367.991, 218.7602
3369.919, 222.2695
3371.848, 227.4494
3373.776, 227.9406
3375.705, 225.7825
3377.633, 224.8953
3379.562, 224.5675
3381.490, 224.3856
3383.418, 224.1584
3385.347, 223.9518
3387.275, 223.0490
3389.204, 220.2259
3391.132, 220.9334
3393.061, 224.6080
3394.989, 228.1593
3396.918, 230.6761
3398.846, 229.5837
3400.775, 227.7515
3402.703, 227.1224
3404.632, 227.2149
3406.560, 228.1647
3408.489, 229.1370
3410.417, 230.0793
3412.345, 230.4935
3414.274, 230.3878
3416.202, 229.1207
3418.131, 228.1648
3420.059, 230.0987
3421.988, 232.6533
3423.916, 234.7353
3425.845, 235.8365
3427.773, 235.5911
3429.702, 235.3935
3431.630, 235.3580
3433.559, 235.9902
3435.487, 237.1183
3437.416, 238.4045
3439.344, 239.6908
3441.272, 240.8638
3443.201, 241.8658
3445.129, 242.5736
3447.058, 243.4189
3448.986, 244.5877
3450.915, 244.1831
3452.843, 247.6810
3454.772, 247.5013
3456.700, 254.1021
3458.629, 258.3022
3460.557, 261.1251
3462.486, 262.0605
3464.414, 264.1184
3466.343, 267.8733
3468.271, 273.2614
3470.199, 280.2134
3472.128, 286.4229
3474.056, 291.5850
3475.985, 293.2098
3477.913, 295.7963
3479.842, 304.8351
3481.770, 312.8736
3483.699, 317.0620
3485.627, 323.6905
3487.556, 333.9490
3489.484, 342.8824
3491.413, 350.7599
3493.341, 358.2562
3495.270, 365.3621
3497.198, 371.9509
3499.126, 378.3241
3501.055, 383.6407
3502.983, 390.0119
3504.912, 392.9549
3506.840, 396.7746
3508.769, 400.2840
3510.697, 398.8560
3512.626, 396.3224
3514.554, 398.7758
3516.483, 398.3604
3518.411, 388.6575
3520.340, 382.4713
3522.268, 380.9861
3524.197, 375.0102
3526.125, 365.7948
3528.053, 358.2885
3529.982, 351.1878
3531.910, 342.6727
3533.839, 334.8742
3535.767, 330.2221
3537.696, 321.6102
3539.624, 308.5760
3541.553, 300.4555
3543.481, 295.7599
3545.410, 289.8330
3547.338, 283.3986
3549.267, 276.6808
3551.195, 270.3981
3553.124, 264.4651
3555.052, 260.5659
3556.980, 258.9080
3558.909, 255.7462
3560.837, 251.9641
3562.766, 249.5499
3564.694, 247.4649
3566.623, 244.2874
3568.551, 242.6735
3570.480, 243.5529
3572.408, 243.5886
3574.337, 242.6562
3576.265, 242.1534
3578.194, 241.4039
3580.122, 239.1776
3582.051, 236.7317
3583.979, 234.4630
3585.907, 232.9616
3587.836, 232.3010
3589.764, 233.0468
3591.693, 234.7900
3593.621, 236.8604
3595.550, 238.1692
3597.478, 237.1048
3599.407, 235.6797
3601.335, 234.3858
3603.264, 233.3001
3605.192, 232.4380
3607.121, 232.2699
3609.049, 232.6409
3610.978, 233.7194
3612.906, 234.5923
3614.834, 234.8372
3616.763, 234.7617
3618.691, 234.6944
3620.620, 231.6486
3622.548, 227.3031
3624.477, 227.4802
3626.405, 229.5746
3628.334, 231.8345
3630.262, 233.1064
3632.191, 234.2491
3634.119, 232.7399
3636.048, 235.0882
3637.976, 236.0371
3639.905, 235.3163
3641.833, 230.5953
3643.761, 227.0903
3645.690, 227.9690
3647.618, 229.6877
3649.547, 231.8206
3651.475, 231.3054
3653.404, 229.6943
3655.332, 230.7719
3657.261, 232.4467
3659.189, 234.0578
3661.118, 233.8420
3663.046, 231.3460
3664.975, 230.7508
3666.903, 231.6662
3668.832, 232.3877
3670.760, 232.7381
3672.688, 232.6049
3674.617, 231.9601
3676.545, 232.4521
3678.474, 230.7853
3680.402, 232.4682
3682.331, 231.4641
3684.259, 230.4577
3686.188, 233.7381
3688.116, 235.5004
3690.045, 232.4682
3691.973, 231.5209
3693.902, 232.8641
3695.830, 235.1117
3697.759, 236.7371
3699.687, 234.5589
3701.615, 233.1802
3703.544, 236.1237
3705.472, 235.9707
3707.401, 232.8881
3709.329, 232.7213
3711.258, 233.8666
3713.186, 233.7476
3715.115, 233.6398
3717.043, 234.6279
3718.972, 234.3241
3720.900, 232.8038
3722.829, 232.7951
3724.757, 233.0659
3726.686, 230.3801
3728.614, 229.1988
3730.542, 229.6056
3732.471, 234.5932
3734.399, 231.5077
3736.328, 233.5624
3738.256, 237.1464
3740.185, 236.1946
3742.113, 234.2075
3744.042, 231.0130
3745.970, 232.9793
3747.899, 239.1486
3749.827, 238.9277
3751.756, 235.3495
3753.684, 230.8123
3755.613, 229.0124
3757.541, 233.7641
3759.469, 235.9705
3761.398, 235.7869
3763.326, 236.3299
3765.255, 237.1287
3767.183, 237.9990
3769.112, 237.9161
3771.040, 238.8002
3772.969, 238.6844
3774.897, 239.2632
3776.826, 238.9183
3778.754, 237.6791
3780.683, 238.5409
3782.611, 238.5521
3784.540, 235.6160
3786.468, 238.2512
3788.396, 236.6240
3790.325, 240.2027
3792.253, 236.6362
3794.182, 238.2858
3796.110, 240.1265
3798.039, 241.1616
3799.967, 241.6902
3801.896, 241.2287
3803.824, 236.7004
3805.753, 235.5149
3807.681, 236.0608
3809.610, 234.7354
3811.538, 235.4850
3813.467, 236.3205
3815.395, 237.0932
3817.323, 238.1606
3819.252, 239.1411
3821.180, 240.7350
3823.109, 241.6629
3825.037, 243.7269
3826.966, 245.7805
3828.894, 246.6765
3830.823, 244.7335
3832.751, 242.4810
3834.680, 240.3534
3836.608, 237.0263
3838.537, 234.3773
3840.465, 238.4680
3842.394, 241.1423
3844.322, 236.3803
3846.250, 236.0496
3848.179, 240.6393
3850.107, 242.8661
3852.036, 243.0587
3853.964, 240.3015
3855.893, 239.3893
3857.821, 241.7577
3859.750, 241.7705
3861.678, 240.5579
3863.607, 243.0652
3865.535, 245.0957
3867.464, 242.9205
3869.392, 242.2444
3871.321, 243.4605
3873.249, 245.8965
3875.177, 247.8302
3877.106, 246.0307
3879.034, 245.1014
3880.963, 247.3355
3882.891, 246.2325
3884.820, 243.6580
3886.748, 244.4832
3888.677, 246.5171
3890.605, 248.5820
3892.534, 248.3027
3894.462, 249.0316
3896.391, 249.2348
3898.319, 248.1473
3900.248, 248.2909
3902.176, 247.2653
3904.104, 247.8545
3906.033, 246.3210
3907.961, 248.8728
3909.890, 250.2930
3911.818, 250.3798
3913.747, 249.1983
3915.675, 248.8873
3917.604, 249.4835
3919.532, 250.4864
3921.461, 251.4590
3923.389, 249.7227
3925.318, 248.3860
3927.246, 248.2945
3929.175, 248.3117
3931.103, 248.9623
3933.031, 248.4684
3934.960, 247.5827
3936.888, 248.0750
3938.817, 248.4616
3940.745, 248.7764
3942.674, 251.5370
3944.602, 254.1712
3946.531, 255.6965
3948.459, 256.1492
3950.388, 254.4617
3952.316, 252.9067
3954.245, 253.2130
3956.173, 253.4216
3958.102, 252.4108
3960.030, 252.6608
3961.958, 253.9876
3963.887, 255.0337
3965.815, 255.6978
3967.744, 256.8552
3969.672, 256.5226
3971.601, 256.7454
3973.529, 257.0083
3975.458, 255.4149
3977.386, 257.0018
3979.315, 254.8541
3981.243, 254.4500
3983.172, 256.3704
3985.100, 258.5289
3987.029, 258.7020
3988.957, 258.9595
3990.885, 261.2182
3992.814, 261.6801
3994.742, 260.2216
3996.671, 260.1705
3998.599, 261.4151
4000.528, 261.2415
4002.456, 260.7935
4004.385, 261.4237
4006.313, 261.3746
4008.242, 260.2652
4010.170, 259.8888
4012.099, 261.3300
4014.027, 261.7683
4015.956, 260.9834
4017.884, 261.4586
4019.813, 261.5320
4021.741, 261.5315
4023.669, 263.5187
4025.598, 264.4723
4027.526, 263.8192
4029.455, 263.3816
4031.383, 263.3714
4033.312, 265.1438
4035.240, 265.8933
4037.169, 263.5640
4039.097, 262.2068
4041.026, 262.2496
4042.954, 265.0907
4044.883, 268.3458
4046.811, 268.7964
4048.740, 269.5184
4050.668, 271.0008
4052.596, 268.5050
4054.525, 265.4640
4056.453, 266.6249
4058.382, 267.7825
4060.310, 267.8009
4062.239, 269.4608
4064.167, 271.2528
4066.096, 271.1120
4068.024, 271.5964
4069.953, 273.3727
4071.881, 274.8276
4073.810, 275.5874
4075.738, 274.1373
4077.667, 272.8025
4079.595, 272.3871
4081.523, 273.1555
4083.452, 272.6546
4085.380, 274.0048
4087.309, 273.3067
4089.237, 274.0828
4091.166, 274.8530
4093.094, 275.1413
4095.023, 275.6810
4096.951, 276.1018
4098.880, 275.5297
4100.808, 277.0252
4102.737, 275.3089
4104.665, 275.9868
4106.594, 276.6701
4108.522, 274.3309
4110.451, 274.4633
4112.379, 276.9808
4114.308, 277.6556
4116.236, 278.4992
4118.165, 280.5931
4120.093, 280.2711
4122.021, 278.0759
4123.950, 277.6427
4125.878, 277.9636
4127.807, 278.3335
4129.735, 278.3043
4131.664, 277.8884
4133.592, 279.0074
4135.521, 280.9547
4137.449, 282.6593
4139.377, 281.6607
4141.306, 282.7970
4143.234, 282.9835
4145.163, 282.3957
4147.091, 282.6485
4149.020, 281.6831
4150.948, 279.7320
4152.877, 281.0580
4154.805, 280.2067
4156.734, 281.2173
4158.662, 280.6681
4160.591, 283.1477
4162.519, 283.8237
4164.448, 283.9449
4166.376, 284.0057
4168.305, 284.3383
4170.233, 285.3358
4172.162, 288.4883
4174.090, 291.1516
4176.019, 290.3484
4177.947, 289.0722
4179.875, 287.3268
4181.804, 285.8256
4183.732, 286.4689
4185.661, 291.0866
4187.589, 294.0137
4189.518, 293.9961
4191.446, 289.8578
4193.375, 287.1253
4195.303, 290.0203
4197.231, 292.0854
4199.160, 292.6987
4201.088, 296.8352
4203.017, 298.5595
4204.945, 289.9212
4206.874, 287.8931
4208.802, 292.4761
4210.731, 293.6346
4212.659, 292.4258
4214.588, 287.7794
4216.516, 287.8343
4218.445, 291.4847
4220.373, 291.2822
4222.302, 291.3132
4224.230, 296.1299
4226.159, 295.2669
4228.087, 291.9390
4230.016, 294.1703
4231.944, 295.2775
4233.873, 292.3108
4235.801, 295.1049
4237.729, 298.9106
4239.658, 294.4453
4241.586, 292.5035
4243.515, 295.7600
4245.443, 295.6534
4247.372, 293.8287
4249.300, 291.0938
4251.229, 291.1595
4253.157, 294.1372
4255.085, 297.3959
4257.014, 298.6512
4258.942, 294.6290
4260.871, 292.8736
4262.799, 293.4727
4264.728, 294.9246
4266.656, 295.3146
4268.585, 296.9441
4270.513, 294.7932
4272.442, 299.0434
4274.370, 299.8382
4276.299, 298.7097
4278.227, 295.9809
4280.156, 296.4269
4282.084, 297.7758
4284.013, 296.6137
4285.941, 295.5568
4287.870, 295.3429
4289.798, 298.9276
4291.727, 301.8862
4293.655, 299.3477
4295.583, 298.7018
4297.512, 299.7668
4299.440, 299.3273
4301.369, 298.3839
4303.297, 297.3183
4305.226, 296.4083
4307.154, 295.7396
4309.083, 295.2003
4311.011, 295.5034
4312.939, 296.8987
4314.868, 300.3600
4316.796, 303.1434
4318.725, 301.9406
4320.653, 299.5221
4322.582, 296.7402
4324.510, 295.6907
4326.439, 296.8249
4328.367, 301.3883
4330.296, 306.3253
4332.224, 310.0799
4334.153, 308.0819
4336.081, 307.0795
4338.010, 309.6691
4339.938, 302.7706
4341.867, 295.6167
4343.795, 298.5107
4345.724, 305.1802
4347.652, 312.9254
4349.581, 309.1124
4351.509, 304.4549
4353.438, 303.8304
4355.366, 308.7447
4357.294, 314.6754
4359.223, 312.6996
4361.151, 311.1884
4363.080, 311.8852
4365.008, 308.5796
4366.937, 306.6432
4368.865, 311.3883
4370.793, 311.5745
4372.722, 308.6801
4374.650, 310.6371
4376.579, 313.5075
4378.507, 315.8819
4380.436, 315.7600
4382.364, 313.4201
4384.293, 307.5807
4386.221, 305.5679
4388.150, 307.2783
4390.078, 308.3169
4392.007, 308.9842
4393.935, 309.5940
4395.864, 308.5509
4397.792, 307.5150
4399.721, 307.9503
4401.649, 310.7399
4403.578, 308.3784
4405.506, 308.9100
4407.435, 309.7617
4409.363, 308.5595
4411.292, 311.1441
4413.220, 309.3295
4415.148, 311.3208
4417.077, 307.7170
4419.005, 305.2484
4420.934, 305.9135
4422.862, 314.5575
4424.791, 309.5849
4426.719, 310.0240
4428.647, 313.2829
4430.576, 310.8954
4432.504, 308.3052
4434.433, 306.9077
4436.361, 307.2930
4438.290, 308.0641
4440.218, 308.3483
4442.147, 307.6609
4444.075, 306.9508
4446.004, 308.1242
4447.932, 310.6696
4449.861, 314.2462
4451.789, 312.2109
4453.718, 309.3746
4455.646, 308.8683
4457.575, 311.8430
4459.503, 315.5366
4461.432, 314.1392
4463.360, 311.6056
4465.289, 309.1925
4467.217, 310.6313
4469.146, 312.8556
4471.074, 314.3699
4473.002, 311.1842
4474.931, 307.6601
4476.859, 312.2575
4478.788, 314.5485
4480.716, 313.2085
4482.645, 311.5261
4484.573, 310.7164
4486.501, 311.6269
4488.430, 313.7103
4490.358, 315.0308
4492.287, 312.3492
4494.215, 311.3375
4496.144, 312.3383
4498.072, 309.8579
4500.001, 314.9608
4501.929, 308.5373
4503.858, 309.6431
4505.786, 312.2078
4507.715, 310.5337
4509.643, 310.2447
4511.572, 310.9993
4513.500, 310.8499
4515.429, 312.1665
4517.357, 314.9469
4519.286, 312.9869
4521.214, 310.4074
4523.143, 309.1060
4525.071, 311.8606
4527.000, 313.9468
4528.928, 314.3412
4530.856, 318.4801
4532.785, 316.4445
4534.713, 322.3799
4536.642, 323.1937
4538.570, 318.0608
4540.499, 312.8378
4542.427, 310.4194
4544.355, 314.2789
4546.284, 316.0616
4548.212, 316.2307
4550.141, 315.8218
4552.069, 314.0411
4553.998, 311.6837
4555.926, 311.9237
4557.855, 315.4790
4559.783, 321.7137
4561.712, 315.3880
4563.640, 309.5355
4565.569, 317.5827
4567.497, 319.6528
4569.426, 317.2858
4571.354, 312.0120
4573.283, 311.3457
4575.211, 313.9085
4577.140, 306.6430
4579.068, 306.6569
4580.997, 317.1368
4582.925, 317.0141
4584.854, 313.8712
4586.782, 312.6977
4588.710, 316.1098
4590.639, 319.2939
4592.567, 313.7150
4594.496, 312.4487
4596.424, 315.1459
4598.353, 317.3179
4600.281, 317.8580
4602.209, 316.9068
4604.138, 317.4991
4606.066, 316.5171
4607.995, 311.6239
4609.923, 314.4589
4611.852, 317.3890
4613.780, 310.9625
4615.709, 312.0694
4617.637, 317.5045
4619.566, 320.0080
4621.494, 322.2547
4623.423, 323.5878
4625.351, 318.7394
4627.280, 315.3029
4629.208, 315.6330
4631.137, 313.8860
4633.065, 313.1469
4634.994, 315.4991
4636.922, 315.6392
4638.851, 314.7641
4640.779, 313.8166
4642.708, 315.3682
4644.636, 316.9291
4646.564, 311.7788
4648.493, 313.3678
4650.421, 319.9952
4652.350, 316.5426
4654.278, 312.2664
4656.207, 309.6007
4658.135, 306.7240
4660.063, 306.9481
4661.992, 311.7120
4663.920, 314.7499
4665.849, 317.1215
4667.777, 320.1360
4669.706, 321.8297
4671.634, 322.6369
4673.563, 323.8672
4675.491, 318.9846
4677.420, 312.6878
4679.348, 318.8158
4681.277, 319.3139
4683.205, 313.7525
4685.134, 316.4657
4687.062, 319.8071
4688.991, 321.3556
4690.919, 319.3206
4692.848, 316.4856
4694.776, 314.1962
4696.705, 315.8718
4698.633, 318.0299
4700.562, 317.8724
4702.490, 316.7727
4704.418, 315.2619
4706.347, 315.8138
4708.275, 314.5087
4710.204, 316.6300
4712.132, 316.6109
4714.061, 317.4774
4715.989, 318.0745
4717.917, 312.8884
4719.846, 308.6085
4721.774, 307.2099
4723.703, 314.3023
4725.631, 317.2461
4727.560, 313.1917
4729.488, 311.4637
4731.417, 311.5795
4733.345, 313.4400
4735.274, 312.1907
4737.202, 311.7601
4739.131, 314.4728
4741.059, 312.7138
4742.988, 311.4449
4744.916, 317.9857
4746.845, 315.3352
4748.773, 311.3685
4750.702, 316.0981
4752.630, 319.1776
4754.559, 320.4477
4756.487, 322.3268
4758.416, 319.0807
4760.344, 313.6212
4762.272, 313.5230
4764.201, 317.1357
4766.129, 321.5906
4768.058, 318.7647
4769.986, 314.7079
4771.915, 311.9576
4773.843, 317.1407
4775.771, 319.4347
4777.700, 316.7715
4779.628, 318.3305
4781.557, 318.5753
4783.485, 315.8969
4785.414, 315.5919
4787.342, 315.7217
4789.271, 315.3335
4791.199, 317.7709
4793.128, 320.9477
4795.056, 323.7440
4796.985, 322.0946
4798.913, 318.8505
4800.842, 315.9314
4802.770, 313.0383
4804.699, 312.7645
4806.627, 317.3808
4808.556, 320.6230
4810.484, 322.6556
4812.413, 325.0653
4814.341, 319.4822
4816.270, 313.7261
4818.198, 316.9286
4820.126, 319.6190
4822.055, 320.6400
4823.983, 319.5273
4825.912, 317.5391
4827.840, 314.7102
4829.769, 309.6259
4831.697, 313.1687
4833.625, 310.7567
4835.554, 314.0396
4837.482, 312.5288
4839.411, 314.5399
4841.339, 317.7884
4843.268, 319.2704
4845.196, 319.2123
4847.125, 318.9551
4849.053, 316.7847
4850.982, 315.0204
4852.910, 320.6185
4854.839, 323.2196
4856.767, 322.3466
4858.696, 320.1454
4860.624, 318.5353
4862.553, 317.9286
4864.481, 318.9437
4866.410, 320.1927
4868.338, 320.6962
4870.267, 320.1469
4872.195, 317.1210
4874.124, 318.1230
4876.052, 316.7477
4877.980, 315.5428
4879.909, 315.6925
4881.837, 315.1258
4883.766, 320.1378
4885.694, 315.2666
4887.623, 318.5189
4889.551, 318.8500
4891.479, 317.2694
4893.408, 323.2327
4895.336, 322.8221
4897.265, 317.8234
4899.193, 316.8172
4901.122, 318.3746
4903.050, 320.4258
4904.979, 318.3744
4906.907, 318.3344
4908.836, 319.4623
4910.764, 318.5132
4912.693, 315.2638
4914.621, 313.4350
4916.550, 313.2572
4918.478, 313.6902
4920.407, 314.3511
4922.335, 317.2850
4924.264, 320.5530
4926.192, 322.4466
4928.121, 321.5420
4930.049, 322.1268
4931.978, 322.9808
4933.906, 321.1517
4935.834, 321.8700
4937.763, 322.2436
4939.691, 318.2049
4941.620, 316.9220
4943.548, 316.5965
4945.477, 314.5882
4947.405, 315.8402
4949.333, 316.7623
4951.262, 313.5070
4953.190, 318.0456
4955.119, 320.5424
4957.047, 313.9358
4958.976, 318.6491
4960.904, 323.1012
4962.833, 319.0519
4964.761, 317.0044
4966.690, 318.0459
4968.618, 316.6178
4970.547, 317.0510
4972.475, 317.9605
4974.404, 318.2604
4976.332, 319.8192
4978.261, 321.0830
4980.189, 321.3553
4982.118, 319.9826
4984.046, 315.9052
4985.975, 311.0201
4987.903, 314.1816
4989.832, 316.4996
4991.760, 317.2626
4993.688, 320.0417
4995.617, 318.5203
4997.545, 315.9387
4999.474, 320.9067
5001.402, 321.6920
5003.331, 319.2854
5005.259, 315.5766
5007.188, 318.2088
5009.116, 322.0743
5011.044, 321.5210
5012.973, 321.5857
5014.901, 320.4068
5016.830, 315.8197
5018.758, 318.4634
5020.687, 322.5368
5022.615, 324.5760
5024.544, 319.0941
5026.472, 315.1777
5028.401, 315.9781
5030.329, 317.7115
5032.258, 319.1612
5034.186, 320.0384
5036.115, 320.9081
5038.043, 320.7708
5039.972, 317.0532
5041.900, 319.2641
5043.829, 317.8409
5045.757, 315.7466
5047.686, 318.6169
5049.614, 321.7423
5051.542, 322.1329
5053.471, 316.7000
5055.399, 316.0528
5057.328, 315.8708
5059.256, 313.3276
5061.185, 312.3218
5063.113, 314.0936
5065.042, 317.7985
5066.970, 315.0786
5068.898, 312.3138
5070.827, 311.9067
5072.755, 316.8539
5074.684, 319.5602
5076.612, 319.4286
5078.541, 317.6171
5080.469, 315.1744
5082.398, 315.1981
5084.326, 324.2080
5086.255, 319.1360
5088.183, 314.1847
5090.112, 318.9298
5092.040, 312.7623
5093.969, 311.0406
5095.897, 318.6287
5097.826, 313.8727
5099.754, 313.0710
5101.683, 318.1872
5103.611, 320.2245
5105.540, 321.1635
5107.468, 320.7270
5109.396, 316.5825
5111.325, 317.8307
5113.253, 320.2748
5115.182, 318.7442
5117.110, 323.1922
5119.039, 323.4535
5120.967, 315.6715
5122.896, 316.1105
5124.824, 320.1589
5126.752, 324.7086
5128.681, 324.0575
5130.609, 321.8289
5132.538, 319.1729
5134.466, 316.3348
5136.395, 317.0507
5138.323, 319.0346
5140.252, 319.6992
5142.180, 320.2617
5144.109, 320.0354
5146.037, 318.8341
5147.966, 322.5509
5149.894, 323.6704
5151.823, 321.3055
5153.751, 319.6805
5155.680, 314.9282
5157.608, 311.9472
5159.537, 321.5116
5161.465, 327.0175
5163.394, 325.5121
5165.322, 328.6838
5167.250, 323.3646
5169.179, 326.6609
5171.107, 319.9051
5173.036, 318.6683
5174.964, 320.4482
5176.893, 321.7587
5178.821, 315.8929
5180.750, 313.4054
5182.678, 313.8207
5184.606, 315.4781
5186.535, 315.7557
5188.463, 315.2182
5190.392, 314.4220
5192.320, 316.8746
5194.249, 315.3471
5196.177, 312.0768
5198.106, 318.2791
5200.034, 317.3660
5201.963, 313.5400
5203.891, 312.6476
5205.820, 320.7715
5207.748, 325.3398
5209.677, 321.0424
5211.605, 320.0840
5213.534, 317.3434
5215.462, 314.1021
5217.391, 316.1381
5219.319, 321.1259
5221.248, 324.0107
5223.176, 319.0911
5225.104, 317.9268
5227.033, 318.2466
5228.961, 318.7306
5230.890, 318.4042
5232.818, 318.3144
5234.747, 318.8806
5236.675, 321.2362
5238.604, 319.6679
5240.532, 318.5869
5242.460, 321.5785
5244.389, 320.9142
5246.317, 319.1931
5248.246, 317.3091
5250.174, 314.0727
5252.103, 312.0686
5254.031, 313.4438
5255.960, 312.4094
5257.888, 313.0892
5259.817, 315.3757
5261.745, 315.4529
5263.674, 320.0197
5265.602, 323.0385
5267.531, 322.3955
5269.459, 314.4876
5271.388, 314.1471
5273.316, 316.5834
5275.245, 317.2291
5277.173, 318.9748
5279.102, 318.3877
5281.030, 315.6132
5282.958, 314.4260
5284.887, 311.3040
5286.815, 310.5844
5288.744, 311.9620
5290.672, 317.1949
5292.601, 315.1244
5294.529, 317.1756
5296.458, 316.1322
5298.386, 315.5764
5300.314, 316.2868
5302.243, 318.6601
5304.171, 319.3847
5306.100, 319.3085
5308.028, 319.0927
5309.957, 320.6530
5311.885, 317.3848
5313.814, 314.0749
5315.742, 320.6047
5317.671, 320.5781
5319.599, 318.3758
5321.528, 317.3389
5323.456, 315.4002
5325.385, 316.4076
5327.313, 318.5641
5329.242, 317.3037
5331.170, 313.8218
5333.099, 311.9743
5335.027, 313.7331
5336.956, 318.9570
5338.884, 318.5934
5340.813, 315.0222
5342.741, 316.4609
5344.669, 315.5866
5346.598, 315.3361
5348.526, 316.7668
5350.455, 309.4308
5352.383, 313.1146
5354.312, 320.7320
5356.240, 314.6469
5358.168, 313.3292
5360.097, 312.1729
5362.025, 309.1125
5363.954, 313.9970
5365.882, 316.8763
5367.811, 316.2626
5369.739, 312.8301
5371.668, 313.9037
5373.596, 313.1059
5375.525, 309.1598
5377.453, 309.6669
5379.382, 310.8881
5381.310, 312.5605
5383.239, 315.6939
5385.167, 310.6480
5387.096, 306.1398
5389.024, 306.2246
5390.953, 314.7176
5392.881, 316.7589
5394.810, 314.4838
5396.738, 311.1486
5398.667, 309.4909
5400.595, 308.7174
5402.523, 309.5121
5404.452, 314.4359
5406.380, 314.4611
5408.309, 313.5539
5410.237, 313.8456
5412.166, 312.5172
5414.094, 313.7185
5416.022, 312.7957
5417.951, 312.6677
5419.879, 313.2622
5421.808, 311.3064
5423.736, 311.7932
5425.665, 309.2815
5427.593, 303.5616
5429.522, 304.3300
5431.450, 315.1751
5433.379, 310.2693
5435.307, 310.8981
5437.236, 315.0680
5439.164, 312.2173
5441.093, 310.7720
5443.021, 311.4985
5444.950, 312.9790
5446.878, 309.3618
5448.807, 306.0937
5450.735, 306.6458
5452.664, 312.0533
5454.592, 314.6319
5456.521, 314.4809
5458.449, 312.2735
5460.377, 313.3875
5462.306, 310.7458
5464.234, 312.2758
5466.163, 309.9601
5468.091, 308.5599
5470.020, 312.4977
5471.948, 311.6440
5473.876, 312.1457
5475.805, 309.8900
5477.733, 312.8751
5479.662, 311.6822
5481.590, 313.1887
5483.519, 308.5800
5485.447, 304.9128
5487.376, 305.0192
5489.304, 310.1216
5491.233, 313.3488
5493.161, 309.5320
5495.090, 300.8568
5497.018, 309.9034
5498.947, 308.3498
5500.875, 304.6775
5502.804, 308.8545
5504.732, 306.3082
5506.661, 308.0334
5508.589, 311.4841
5510.518, 308.8742
5512.446, 305.9808
5514.375, 303.8783
5516.303, 302.5429
5518.231, 300.9910
5520.160, 303.1913
5522.088, 302.2719
5524.017, 301.3448
5525.945, 303.5165
5527.874, 300.0917
5529.802, 301.0070
5531.730, 303.1303
5533.659, 302.4488
5535.587, 303.8937
5537.516, 304.4706
5539.444, 304.7549
5541.373, 305.7072
5543.301, 304.9006
5545.230, 303.9532
5547.158, 306.1005
5549.087, 308.7915
5551.015, 304.8538
5552.944, 298.4731
5554.872, 309.4562
5556.801, 302.1386
5558.729, 299.2143
5560.658, 306.6952
5562.586, 303.8133
5564.515, 303.7347
5566.443, 305.0073
5568.372, 305.0931
5570.300, 301.1186
5572.229, 297.2569
5574.157, 297.3095
5576.085, 302.8493
5578.014, 305.9638
5579.942, 306.2063
5581.871, 304.3318
5583.799, 301.0577
5585.728, 301.0288
5587.656, 305.6761
5589.584, 308.7121
5591.513, 303.1595
5593.441, 300.3178
5595.370, 296.9326
5597.298, 295.5931
5599.227, 301.1778
5601.155, 299.5152
5603.084, 298.5361
5605.012, 299.1758
5606.941, 296.8444
5608.869, 303.2384
5610.798, 305.3029
5612.726, 301.0468
5614.655, 295.3484
5616.583, 301.6914
5618.512, 302.2299
5620.440, 295.6286
5622.369, 293.9879
5624.297, 296.5591
5626.226, 299.0360
5628.154, 299.6306
5630.083, 297.9312
5632.011, 298.1053
5633.939, 302.2811
5635.868, 299.6472
5637.796, 303.7949
5639.725, 297.5709
5641.653, 296.3528
5643.582, 294.6256
5645.510, 293.8418
5647.438, 295.9523
5649.367, 294.5756
5651.295, 298.4791
5653.224, 297.4648
5655.152, 297.0540
5657.081, 297.5717
5659.009, 297.9898
5660.938, 295.5633
5662.866, 293.4582
5664.795, 291.1423
5666.723, 290.2618
5668.652, 296.6175
5670.580, 299.4224
5672.509, 297.5978
5674.437, 294.2078
5676.366, 295.4342
5678.294, 295.6221
5680.223, 293.2949
5682.151, 291.3426
5684.080, 295.3303
5686.008, 295.0897
5687.937, 293.5947
5689.865, 293.3014
5691.793, 296.7183
5693.722, 291.4671
5695.650, 294.4370
5697.579, 300.6644
5699.507, 295.2602
5701.436, 293.4443
5703.364, 291.7734
5705.292, 292.1256
5707.221, 297.0917
5709.149, 297.8450
5711.078, 296.5685
5713.006, 293.7874
5714.935, 290.1866
5716.863, 291.2119
5718.792, 290.4093
5720.720, 290.9964
5722.649, 294.8410
5724.577, 292.8215
5726.506, 295.3507
5728.434, 294.9827
5730.363, 294.3798
5732.291, 291.4153
5734.220, 292.7490
5736.148, 291.6302
5738.077, 289.6519
5740.005, 291.7924
5741.934, 291.3069
5743.862, 289.4496
5745.791, 288.1761
5747.719, 289.1995
5749.647, 287.4857
5751.576, 286.9308
5753.504, 288.4143
5755.433, 290.9991
5757.361, 290.1940
5759.290, 286.5847
5761.218, 290.2402
5763.146, 287.1736
5765.075, 287.0705
5767.003, 284.8365
5768.932, 284.0531
5770.860, 285.9102
5772.789, 286.4381
5774.717, 285.5194
5776.646, 286.5317
5778.574, 286.3459
5780.503, 288.8812
5782.431, 286.2979
5784.360, 285.6212
5786.288, 284.8282
5788.217, 281.3091
5790.145, 286.1677
5792.074, 283.6237
5794.002, 291.2571
5795.931, 283.9295
5797.859, 282.8862
5799.788, 284.6057
5801.716, 285.1079
5803.645, 283.9011
5805.573, 283.8551
5807.501, 285.3451
5809.430, 282.5733
5811.358, 283.1573
5813.287, 279.7090
5815.215, 281.0579
5817.144, 281.6141
5819.072, 278.7167
5821.000, 274.2553
5822.929, 275.0387
5824.857, 274.8459
5826.786, 275.8351
5828.714, 278.7989
5830.643, 283.2514
5832.571, 286.3513
5834.500, 281.6560
5836.428, 276.9517
5838.357, 280.3252
5840.285, 283.5027
5842.214, 283.9518
5844.142, 284.9042
5846.071, 286.1484
5847.999, 279.5583
5849.928, 276.9433
5851.856, 276.7603
5853.785, 276.9396
5855.713, 275.8568
5857.642, 277.0398
5859.570, 275.1585
5861.499, 278.9234
5863.427, 281.2268
5865.355, 282.1867
5867.284, 279.3297
5869.212, 276.8498
5871.141, 275.1686
5873.069, 273.0119
5874.998, 271.5038
5876.926, 274.7153
5878.854, 270.1148
5880.783, 274.2287
5882.711, 277.0030
5884.640, 274.5365
5886.568, 276.5307
5888.497, 280.0657
5890.425, 277.0912
5892.354, 277.3456
5894.282, 272.2206
5896.211, 270.0729
5898.139, 274.2051
5900.068, 273.9655
5901.996, 276.6767
5903.925, 272.6444
5905.853, 266.4648
5907.782, 267.1334
5909.710, 269.9195
5911.639, 272.2015
5913.567, 273.4682
5915.496, 267.3176
5917.424, 275.2540
5919.353, 279.6230
5921.281, 280.6166
5923.209, 268.1247
5925.138, 273.0464
5927.066, 270.9896
5928.995, 268.6465
5930.923, 276.0193
5932.852, 265.4887
5934.780, 272.7074
5936.708, 272.8410
5938.637, 276.2171
5940.565, 272.5716
5942.494, 271.0947
5944.422, 276.6421
5946.351, 278.3000
5948.279, 273.8462
5950.208, 277.4284
5952.136, 266.6526
5954.065, 268.4762
5955.993, 275.7360
5957.922, 271.6352
5959.850, 275.3459
5961.779, 276.0815
5963.707, 263.2968
5965.636, 274.0252
5967.564, 274.5851
5969.493, 264.7038
5971.421, 274.6268
5973.350, 266.1849
5975.278, 264.2982
5977.207, 267.3445
5979.135, 265.2484
5981.063, 271.2601
5982.992, 269.4608
5984.920, 266.9637
5986.849, 267.5121
5988.777, 259.4304
5990.706, 267.3593
5992.634, 264.3517
5994.563, 266.7803
5996.491, 270.4412
5998.419, 264.6670
6000.348, 268.8815
6002.276, 257.6059
6004.205, 259.2914
6006.133, 259.5813
6008.062, 268.1557
6009.990, 256.9555
6011.919, 258.2809
6013.847, 264.9396
6015.776, 264.1359
6017.704, 266.4522
6019.633, 259.5318
6021.561, 261.2886
6023.490, 260.6536
6025.418, 268.2836
6027.347, 269.3887
6029.275, 262.6252
6031.204, 255.8948
6033.132, 264.1196
6035.061, 258.1697
6036.989, 259.8669
6038.917, 253.6664
6040.846, 254.2849
6042.774, 261.0071
6044.703, 254.9972
6046.631, 250.9887
6048.560, 254.1147
6050.488, 257.8420
6052.417, 259.3143
6054.345, 257.9655
6056.273, 254.8044
6058.202, 256.3069
6060.130, 259.4181
6062.059, 260.9950
6063.987, 257.9472
6065.916, 261.3453
6067.844, 252.0486
6069.773, 260.5716
6071.701, 259.6108
6073.630, 251.3467
6075.558, 251.2536
6077.487, 255.8145
6079.415, 253.1632
6081.344, 251.1232
6083.272, 252.6052
6085.201, 253.9546
6087.129, 254.2406
6089.058, 255.7618
6090.986, 256.3060
6092.915, 255.9482
6094.843, 256.0371
6096.771, 251.7092
6098.700, 247.6657
6100.628, 250.5447
6102.557, 254.4312
6104.485, 251.9424
6106.414, 250.2675
6108.342, 244.1409
6110.271, 243.2290
6112.199, 247.3228
6114.127, 251.8302
6116.056, 251.3430
6117.984, 249.0322
6119.913, 251.8010
6121.841, 252.3012
6123.770, 248.4206
6125.698, 249.8413
6127.627, 249.8520
6129.555, 249.5162
6131.484, 247.1557
6133.412, 244.6885
6135.341, 246.1835
6137.269, 247.0822
6139.198, 245.1241
6141.126, 245.5600
6143.055, 243.9540
6144.983, 236.6711
6146.912, 240.9420
6148.840, 239.0316
6150.769, 243.6702
6152.697, 245.7873
6154.625, 241.4738
6156.554, 245.6383
6158.482, 246.7085
6160.411, 244.3043
6162.339, 242.3631
6164.268, 241.2590
6166.196, 239.1167
6168.125, 239.8100
6170.053, 242.0285
6171.981, 243.0131
6173.910, 243.2384
6175.838, 243.0860
6177.767, 239.3573
6179.695, 239.3468
6181.624, 238.4495
6183.552, 239.0388
6185.481, 242.1457
6187.409, 245.3995
6189.338, 240.6059
6191.266, 242.7839
6193.195, 241.9640
6195.123, 237.5122
6197.052, 235.2977
6198.980, 235.3602
6200.909, 238.5266
6202.837, 235.9479
6204.766, 236.4361
6206.694, 236.9328
6208.623, 234.8568
6210.551, 234.4068
6212.479, 235.3172
6214.408, 239.0082
6216.336, 241.7368
6218.265, 238.9320
6220.193, 239.7593
6222.122, 239.7816
6224.050, 236.2783
6225.979, 238.3308
6227.907, 237.0899
6229.835, 233.6780
6231.764, 234.3847
6233.692, 234.1448
6235.621, 232.4829
6237.549, 233.1239
6239.478, 232.2941
6241.406, 233.1225
6243.335, 231.3773
6245.263, 231.9445
6247.192, 229.5451
6249.120, 229.4958
6251.049, 232.2650
6252.977, 229.1796
6254.906, 227.6929
6256.834, 226.9504
6258.763, 231.0304
6260.691, 234.2076
6262.620, 231.3736
6264.548, 225.7852
6266.477, 230.4625
6268.405, 228.1393
6270.333, 230.9453
6272.262, 233.9121
6274.190, 228.8498
6276.119, 226.3280
6278.047, 225.7778
6279.976, 229.8732
6281.904, 230.5309
6283.833, 228.1284
6285.761, 227.1439
6287.689, 226.7879
6289.618, 220.0941
6291.546, 221.0379
6293.475, 226.9428
6295.403, 228.1638
6297.332, 222.4144
6299.260, 231.9204
6301.189, 224.9732
6303.117, 223.3266
6305.046, 226.5608
6306.974, 227.5117
6308.903, 223.6383
6310.831, 222.2823
6312.760, 225.5574
6314.688, 224.8085
6316.617, 222.6374
6318.545, 223.4014
6320.474, 226.3446
6322.402, 223.4619
6324.331, 226.4107
6326.259, 223.9452
6328.188, 223.6037
6330.116, 220.9679
6332.044, 219.7946
6333.973, 220.2613
6335.901, 217.9884
6337.830, 216.4261
6339.758, 217.7220
6341.687, 218.2387
6343.615, 217.9345
6345.543, 218.5597
6347.472, 218.0402
6349.400, 217.6374
6351.329, 216.7260
6353.257, 213.8835
6355.186, 212.2522
6357.114, 220.1369
6359.043, 211.9361
6360.971, 217.4839
6362.900, 220.1426
6364.828, 213.2068
6366.757, 209.4980
6368.685, 217.0506
6370.614, 217.0904
6372.542, 217.0352
6374.471, 212.6921
6376.399, 212.1545
6378.328, 217.5628
6380.256, 221.4781
6382.185, 215.5980
6384.113, 218.7135
6386.042, 216.4304
6387.970, 212.6368
6389.898, 214.1774
6391.827, 217.5360
6393.755, 216.3051
6395.684, 214.5854
6397.612, 216.3386
6399.541, 213.7354
6401.469, 215.8807
6403.397, 212.8340
6405.326, 209.5318
6407.254, 210.0984
6409.183, 207.4581
6411.111, 212.1152
6413.040, 207.2148
6414.968, 206.9492
6416.897, 211.5679
6418.825, 213.5348
6420.754, 204.2398
6422.682, 204.5393
6424.611, 205.4163
6426.539, 210.2052
6428.468, 212.7376
6430.396, 210.1900
6432.325, 206.9691
6434.253, 209.5005
6436.182, 210.7815
6438.110, 206.9431
6440.039, 207.1061
6441.967, 210.9593
6443.896, 211.5148
6445.824, 204.3606
6447.752, 201.9892
6449.681, 204.9431
6451.609, 199.3477
6453.538, 199.8242
6455.466, 205.2797
6457.395, 208.3341
6459.323, 207.4548
6461.251, 206.8518
6463.180, 202.0982
6465.108, 202.1250
6467.037, 202.7156
6468.965, 204.2297
6470.894, 203.7419
6472.822, 203.5240
6474.751, 203.3830
6476.679, 201.8219
6478.608, 201.1550
6480.536, 200.4029
6482.465, 203.5340
6484.393, 200.2083
6486.322, 203.9819
6488.250, 203.7602
6490.179, 203.4550
6492.107, 198.5344
6494.036, 198.7286
6495.964, 201.9417
6497.893, 203.7408
6499.821, 203.3756
6501.750, 200.6887
6503.678, 198.4087
6505.606, 197.7691
6507.535, 199.2215
6509.463, 198.5095
6511.392, 197.6243
6513.320, 198.1564
6515.249, 194.3023
6517.177, 197.8306
6519.105, 195.1345
6521.034, 192.9392
6522.962, 195.1801
6524.891, 197.5797
6526.819, 196.3745
6528.748, 193.5189
6530.676, 198.2683
6532.605, 195.2282
6534.533, 191.6904
6536.462, 195.3157
6538.390, 197.1231
6540.319, 195.2574
6542.247, 194.5130
6544.176, 193.6630
6546.104, 190.0716
6548.033, 190.9927
6549.961, 190.2546
6551.890, 190.6021
6553.818, 191.4547
6555.747, 192.8829
6557.675, 192.7415
6559.604, 193.9787
6561.532, 193.5395
6563.460, 194.1268
6565.389, 193.9862
6567.317, 192.6885
6569.246, 192.1308
6571.174, 190.5574
6573.103, 188.2469
6575.031, 185.8505
6576.959, 184.1689
6578.888, 182.3335
6580.816, 185.8267
6582.745, 186.9955
6584.673, 190.9157
6586.602, 195.9236
6588.530, 187.5597
6590.459, 194.0362
6592.387, 185.7963
6594.316, 179.8456
6596.244, 184.6985
6598.173, 188.8173
6600.101, 187.0601
6602.030, 186.0207
6603.958, 190.2742
6605.887, 183.8711
6607.815, 182.5491
6609.744, 180.5609
6611.672, 180.5274
6613.601, 184.8992
6615.529, 187.6228
6617.458, 185.8486
6619.386, 182.8729
6621.314, 179.2255
6623.243, 188.7776
6625.171, 184.2321
6627.100, 183.7005
6629.028, 181.8829
6630.957, 184.1730
##END=



