##NAMES=Trolleite
##RRUFFID=R050425
##IDEAL CHEMISTRY=Al_4_(PO_4_)_3_(OH)_3_
##LOCALITY=Halsjoberg, Varmland, Sweden
##OWNER=RRUFF
##SOURCE=Marcus Origlieri
##DESCRIPTION=Pale green granular aggregate
##STATUS=The identification of this mineral has been confirmed by X-ray diffraction and chemical analysis
##URL=https://www.rruff.net/odr/rruff_sample/R050425
##MEASURED CHEMISTRY=(Al_3.95_Fe^3+^_0.05_)(P_1.00_O_4_)_3_(OH)_3_
##DIFFRACTION SAMPLE DESCRIPTION=Powder
##CELL PARAMETERS=a: 18.8546 b: 7.1641 c: 7.1568 alpha: 90 beta: 99.972 gamma: 90 volume: 952.12 crystal system: monoclinic
##FILETYPE=Raman RAW
##RAMAN WAVELENGTH=780

83.53443, 79.56976
85.46290, 86.75179
87.39137, 96.01270
89.31983, 105.4317
91.24830, 114.1732
93.17677, 121.3057
95.10523, 117.5077
97.03370, 114.3455
98.96217, 111.8248
100.8906, 109.6938
102.8191, 108.5566
104.7476, 108.5709
106.6760, 109.5046
108.6045, 110.9654
110.5330, 112.7940
112.4614, 115.3732
114.3899, 118.5739
116.3184, 122.6757
118.2468, 127.9917
120.1753, 134.1483
122.1038, 140.4287
124.0322, 146.8084
125.9607, 153.3088
127.8892, 161.9309
129.8176, 167.9069
131.7461, 169.5393
133.6746, 167.1943
135.6030, 160.2961
137.5315, 148.9742
139.4600, 139.6893
141.3884, 133.5923
143.3169, 129.9964
145.2454, 129.1286
147.1738, 130.4573
149.1023, 133.4126
151.0308, 137.8688
152.9592, 143.3721
154.8877, 149.8993
156.8162, 157.5408
158.7446, 166.5278
160.6731, 176.4858
162.6016, 186.9830
164.5300, 198.0482
166.4585, 210.2465
168.3870, 224.8582
170.3154, 238.4643
172.2439, 253.4715
174.1724, 264.7614
176.1008, 266.3526
178.0293, 261.0795
179.9578, 254.8193
181.8862, 245.6562
183.8147, 241.1992
185.7432, 242.3145
187.6716, 247.7297
189.6001, 257.3547
191.5286, 270.8199
193.4570, 288.7857
195.3855, 313.7886
197.3140, 333.0852
199.2424, 350.7162
201.1709, 357.6721
203.0994, 346.8700
205.0278, 326.1742
206.9563, 302.1869
208.8848, 274.6176
210.8132, 250.5419
212.7417, 230.2218
214.6702, 212.9275
216.5986, 199.4982
218.5271, 188.3163
220.4556, 178.3196
222.3840, 169.5460
224.3125, 162.1889
226.2410, 156.5038
228.1694, 151.8763
230.0979, 148.5115
232.0264, 145.9157
233.9548, 143.4672
235.8833, 141.9329
237.8118, 142.2561
239.7402, 144.5023
241.6687, 148.3287
243.5972, 153.8376
245.5256, 160.3818
247.4541, 168.4774
249.3826, 176.7844
251.3110, 184.5936
253.2395, 191.9822
255.1680, 199.5798
257.0964, 207.9029
259.0249, 212.6612
260.9534, 212.7578
262.8818, 210.7259
264.8103, 206.1427
266.7388, 201.2119
268.6672, 197.4818
270.5957, 195.1227
272.5242, 195.1306
274.4526, 197.3841
276.3811, 202.2086
278.3096, 210.3015
280.2380, 220.3255
282.1665, 231.8252
284.0950, 244.7133
286.0234, 260.0118
287.9519, 277.2618
289.8804, 292.1541
291.8088, 306.4780
293.7373, 311.3002
295.6658, 299.5057
297.5942, 282.5385
299.5227, 262.8188
301.4512, 242.9895
303.3796, 227.9964
305.3081, 217.5295
307.2366, 211.3385
309.1650, 210.5948
311.0935, 211.5480
313.0220, 215.3831
314.9504, 218.2012
316.8789, 217.9831
318.8074, 214.5293
320.7358, 207.2481
322.6643, 196.2497
324.5928, 185.8354
326.5212, 175.5666
328.4497, 167.8860
330.3782, 164.0237
332.3066, 162.0062
334.2351, 160.7640
336.1636, 160.4352
338.0920, 161.5445
340.0205, 164.1553
341.9490, 165.5996
343.8774, 165.7601
345.8059, 164.3669
347.7344, 160.0990
349.6628, 155.6098
351.5913, 152.0663
353.5198, 149.6361
355.4482, 148.6084
357.3767, 149.0188
359.3052, 150.2294
361.2336, 154.1340
363.1621, 155.8402
365.0906, 154.6199
367.0190, 151.6343
368.9475, 146.0205
370.8760, 139.9009
372.8044, 135.4850
374.7329, 132.7650
376.6614, 131.7528
378.5898, 132.8416
380.5183, 135.0664
382.4468, 139.0216
384.3752, 143.1664
386.3037, 146.7200
388.2322, 150.3365
390.1606, 154.4057
392.0891, 158.9797
394.0176, 164.4883
395.9460, 171.5265
397.8745, 177.4617
399.8030, 182.3592
401.7314, 185.9817
403.6599, 188.2238
405.5884, 189.1086
407.5168, 188.4420
409.4453, 186.6503
411.3738, 184.2321
413.3022, 181.1544
415.2307, 178.3916
417.1592, 175.5205
419.0876, 174.7076
421.0161, 176.4143
422.9446, 180.2843
424.8730, 187.5835
426.8015, 195.5240
428.7300, 203.8895
430.6584, 210.7075
432.5869, 208.1938
434.5154, 196.5079
436.4438, 183.8985
438.3723, 169.5274
440.3008, 159.3224
442.2292, 155.2011
444.1577, 155.9334
446.0862, 161.9640
448.0146, 171.8209
449.9431, 184.3127
451.8716, 199.3906
453.8000, 216.0537
455.7285, 234.2699
457.6570, 254.6071
459.5854, 277.5456
461.5139, 301.6363
463.4424, 332.6844
465.3708, 357.2973
467.2993, 372.8089
469.2278, 375.2479
471.1563, 355.2145
473.0847, 318.1309
475.0132, 277.3932
476.9417, 233.0464
478.8701, 196.0336
480.7986, 168.5598
482.7271, 147.5821
484.6555, 133.8163
486.5840, 124.1707
488.5125, 118.3667
490.4409, 115.0130
492.3694, 113.1236
494.2979, 112.3477
496.2263, 112.2058
498.1548, 112.7134
500.0833, 113.2755
502.0117, 113.9623
503.9402, 114.4494
505.8687, 114.8996
507.7971, 114.9087
509.7256, 114.6265
511.6541, 113.5348
513.5825, 110.9638
515.5110, 107.4767
517.4395, 103.6365
519.3679, 99.48941
521.2964, 96.07294
523.2249, 93.62245
525.1533, 91.37285
527.0818, 89.25811
529.0103, 87.48650
530.9387, 86.05579
532.8672, 85.02656
534.7957, 84.55818
536.7241, 84.42799
538.6526, 84.43144
540.5811, 84.60410
542.5095, 85.07053
544.4380, 85.84290
546.3665, 86.45581
548.2949, 86.87824
550.2234, 87.39387
552.1519, 88.04969
554.0803, 88.70831
556.0088, 89.32792
557.9373, 89.94682
559.8657, 90.45314
561.7942, 91.03161
563.7227, 92.03514
565.6511, 93.34144
567.5796, 94.43745
569.5081, 95.33117
571.4365, 96.27818
573.3650, 97.38243
575.2935, 97.68082
577.2219, 96.66402
579.1504, 95.74403
581.0789, 95.23267
583.0073, 95.21526
584.9358, 95.64481
586.8643, 96.71554
588.7927, 98.84660
590.7212, 101.6536
592.6497, 104.0821
594.5781, 106.3285
596.5066, 109.8605
598.4351, 114.8206
600.3635, 118.5798
602.2920, 120.8803
604.2205, 121.6972
606.1489, 120.5143
608.0774, 118.4047
610.0059, 114.7248
611.9343, 111.3803
613.8628, 109.6729
615.7913, 109.1812
617.7197, 109.7773
619.6482, 110.9810
621.5767, 111.9504
623.5051, 112.4963
625.4336, 110.7828
627.3621, 106.4037
629.2905, 101.2377
631.2190, 94.93102
633.1475, 88.98267
635.0759, 83.01816
637.0044, 78.36288
638.9329, 75.63650
640.8613, 74.21330
642.7898, 74.10487
644.7183, 74.74677
646.6467, 75.49639
648.5752, 76.42131
650.5037, 77.82742
652.4321, 79.60683
654.3606, 80.62592
656.2891, 80.71626
658.2175, 80.65788
660.1460, 80.30865
662.0745, 80.06252
664.0029, 79.81935
665.9314, 79.93288
667.8599, 80.37840
669.7883, 81.30862
671.7168, 83.15935
673.6453, 85.19218
675.5737, 86.89525
677.5022, 88.31374
679.4307, 89.62144
681.3591, 90.67715
683.2876, 90.93385
685.2161, 90.38830
687.1445, 89.60189
689.0730, 88.73540
691.0015, 87.00859
692.9299, 84.30375
694.8584, 80.93269
696.7869, 76.82433
698.7153, 72.38287
700.6438, 67.44080
702.5723, 62.67903
704.5007, 58.19881
706.4292, 54.34793
708.3577, 51.51251
710.2861, 49.30201
712.2146, 47.28764
714.1431, 45.53903
716.0715, 44.19360
718.0000, 43.24387
719.9285, 42.69166
721.8569, 42.51882
723.7854, 42.35630
725.7139, 42.19859
727.6423, 42.19161
729.5708, 42.37891
731.4993, 42.41652
733.4277, 42.01194
735.3562, 42.07215
737.2847, 43.08302
739.2131, 44.25216
741.1416, 45.38694
743.0701, 46.59827
744.9985, 47.72368
746.9270, 49.12159
748.8555, 51.19110
750.7839, 53.72805
752.7124, 56.52486
754.6409, 59.55416
756.5693, 62.80309
758.4978, 66.20412
760.4263, 69.27490
762.3547, 72.04717
764.2832, 75.43546
766.2117, 79.61481
768.1401, 83.34254
770.0686, 85.94382
771.9971, 89.67544
773.9255, 95.25242
775.8540, 101.2892
777.7825, 108.0533
779.7109, 114.5621
781.6394, 120.4838
783.5679, 126.1237
785.4963, 132.1698
787.4248, 137.3479
789.3533, 141.4135
791.2817, 143.4827
793.2102, 142.5051
795.1387, 138.9582
797.0671, 133.0011
798.9956, 125.1196
800.9241, 115.9272
802.8525, 105.8131
804.7810, 96.73756
806.7095, 88.71265
808.6379, 81.45901
810.5664, 74.93559
812.4949, 69.52407
814.4233, 65.33943
816.3518, 62.10327
818.2803, 60.10193
820.2087, 58.17260
822.1372, 56.14888
824.0657, 54.28485
825.9941, 52.49709
827.9226, 51.23413
829.8511, 50.93724
831.7795, 50.64585
833.7080, 49.85578
835.6365, 49.01249
837.5649, 48.38811
839.4934, 47.85453
841.4219, 47.29194
843.3503, 46.74370
845.2788, 46.35669
847.2073, 45.95828
849.1357, 45.19904
851.0642, 44.34503
852.9927, 43.92620
854.9211, 43.75772
856.8496, 43.33701
858.7781, 42.77616
860.7065, 42.50436
862.6350, 42.39956
864.5635, 42.02458
866.4919, 41.46989
868.4204, 41.10295
870.3489, 40.89638
872.2773, 40.27518
874.2058, 39.16887
876.1343, 38.57276
878.0627, 38.70352
879.9912, 38.60203
881.9197, 38.00649
883.8481, 37.59441
885.7766, 37.60115
887.7051, 37.55024
889.6335, 37.30976
891.5620, 37.03883
893.4905, 36.72786
895.4189, 36.45933
897.3474, 36.21513
899.2759, 36.09932
901.2043, 36.25784
903.1328, 36.35534
905.0613, 36.19878
906.9897, 36.01349
908.9182, 35.93455
910.8467, 35.92078
912.7751, 35.78881
914.7036, 35.77104
916.6321, 36.15391
918.5605, 36.76847
920.4890, 37.40495
922.4175, 38.10716
924.3459, 38.86419
926.2744, 39.89016
928.2029, 41.77937
930.1313, 43.71332
932.0598, 44.26034
933.9883, 44.32575
935.9167, 45.49387
937.8452, 47.29154
939.7737, 48.69439
941.7021, 49.94462
943.6306, 51.72574
945.5591, 53.96715
947.4875, 56.43112
949.4160, 59.07280
951.3445, 61.58067
953.2729, 63.96263
955.2014, 66.43362
957.1299, 68.99178
959.0583, 71.70041
960.9868, 74.56441
962.9153, 76.66167
964.8438, 78.02275
966.7722, 79.06689
968.7007, 79.71918
970.6292, 80.07396
972.5576, 80.15269
974.4861, 80.11282
976.4146, 79.98325
978.3430, 79.52466
980.2715, 78.67880
982.2000, 77.50716
984.1284, 76.07561
986.0569, 73.85480
987.9854, 70.71966
989.9138, 67.88896
991.8423, 65.49023
993.7708, 62.92464
995.6992, 60.11704
997.6277, 57.50858
999.5562, 55.13704
1001.485, 53.09632
1003.413, 51.39223
1005.342, 50.00180
1007.270, 48.93858
1009.198, 48.13959
1011.127, 47.65169
1013.055, 47.22141
1014.984, 46.61717
1016.912, 46.68625
1018.841, 47.63707
1020.769, 49.13739
1022.698, 51.08198
1024.626, 53.54161
1026.555, 56.54303
1028.483, 60.27660
1030.412, 65.08570
1032.340, 69.67602
1034.269, 73.92276
1036.197, 77.93396
1038.125, 81.20384
1040.054, 85.36705
1041.982, 90.74048
1043.911, 96.59008
1045.839, 102.6308
1047.768, 109.6251
1049.696, 117.6158
1051.625, 126.6521
1053.553, 137.4534
1055.482, 147.5076
1057.410, 156.7296
1059.339, 165.3230
1061.267, 173.9342
1063.196, 180.1803
1065.124, 184.1455
1067.052, 185.0135
1068.981, 182.5651
1070.909, 177.2899
1072.838, 168.3255
1074.766, 159.7780
1076.695, 151.6524
1078.623, 144.6981
1080.552, 138.7403
1082.480, 135.0491
1084.409, 133.7297
1086.337, 135.1364
1088.266, 139.4089
1090.194, 145.0405
1092.123, 152.0926
1094.051, 159.2418
1095.979, 166.3940
1097.908, 173.5666
1099.836, 180.7934
1101.765, 186.9780
1103.693, 192.0855
1105.622, 195.7609
1107.550, 198.0766
1109.479, 199.8979
1111.407, 201.1852
1113.336, 201.2048
1115.264, 200.3660
1117.193, 201.2087
1119.121, 202.7619
1121.050, 201.9436
1122.978, 198.9432
1124.906, 193.5056
1126.835, 186.5368
1128.763, 179.9131
1130.692, 173.5585
1132.620, 167.1104
1134.549, 160.8859
1136.477, 155.5889
1138.406, 151.0444
1140.334, 147.3664
1142.263, 143.9185
1144.191, 139.4173
1146.120, 135.1957
1148.048, 133.5038
1149.977, 131.4070
1151.905, 125.4261
1153.833, 119.5556
1155.762, 117.1195
1157.690, 115.3120
1159.619, 112.2043
1161.547, 109.3768
1163.476, 107.6589
1165.404, 106.2806
1167.333, 105.6221
1169.261, 104.1106
1171.190, 100.8980
1173.118, 97.25757
1175.047, 93.69297
1176.975, 89.31480
1178.904, 83.51085
1180.832, 78.14683
1182.760, 73.62869
1184.689, 69.33863
1186.617, 65.14060
1188.546, 61.16038
1190.474, 57.38337
1192.403, 54.33405
1194.331, 52.00327
1196.260, 49.86263
1198.188, 47.95430
1200.117, 46.83820
1202.045, 46.40217
1203.974, 45.87770
1205.902, 45.38627
1207.831, 45.22253
1209.759, 45.16645
1211.688, 44.93574
1213.616, 44.76006
1215.544, 44.81201
1217.473, 45.03443
1219.401, 45.48649
1221.330, 46.06947
1223.258, 46.65928
1225.187, 47.33786
1227.115, 48.21331
1229.044, 49.08157
1230.972, 49.88606
1232.901, 50.58974
1234.829, 51.19319
1236.758, 51.63177
1238.686, 51.96457
1240.615, 51.95230
1242.543, 51.47404
1244.471, 50.99473
1246.400, 50.55137
1248.328, 50.13372
1250.257, 49.77600
1252.185, 48.99695
1254.114, 47.76910
1256.042, 46.14333
1257.971, 44.20117
1259.899, 42.13251
1261.828, 40.06791
1263.756, 38.50742
1265.685, 37.24990
1267.613, 35.73924
1269.542, 34.18087
1271.470, 32.91941
1273.398, 31.90335
1275.327, 31.08530
1277.255, 30.39457
1279.184, 29.84825
1281.112, 29.38636
1283.041, 28.91154
1284.969, 28.51040
1286.898, 28.30750
1288.826, 28.03634
1290.755, 27.54619
1292.683, 27.24129
1294.612, 27.25434
1296.540, 27.11943
1298.469, 26.77834
1300.397, 26.94231
1302.325, 27.49235
1304.254, 27.43770
1306.182, 27.05068
1308.111, 26.87576
1310.039, 26.79276
1311.968, 26.79233
1313.896, 26.82422
1315.825, 26.78137
1317.753, 26.75031
1319.682, 26.86460
1321.610, 26.90023
1323.539, 26.74817
1325.467, 26.52418
1327.396, 26.22198
1329.324, 26.09943
1331.252, 26.18622
1333.181, 26.17988
1335.109, 26.06243
1337.038, 26.06805
1338.966, 26.23321
1340.895, 26.09389
1342.823, 25.67456
1344.752, 25.48700
1346.680, 25.48967
1348.609, 25.46869
1350.537, 25.42608
1352.466, 25.39854
1354.394, 25.31394
1356.323, 25.06747
1358.251, 24.91880
1360.179, 25.05744
1362.108, 25.02991
1364.036, 24.70740
1365.965, 24.71622
1367.893, 25.03754
1369.822, 25.28936
1371.750, 25.52502
1373.679, 25.28188
1375.607, 24.70390
1377.536, 24.49851
1379.464, 24.52032
1381.393, 24.45897
1383.321, 24.41700
1385.250, 24.61287
1387.178, 24.77195
1389.106, 24.68722
1391.035, 24.58548
1392.963, 24.51325
1394.892, 24.45403
1396.820, 24.51327
1398.749, 24.33834
1400.677, 23.87805
1402.606, 23.91373
1404.534, 24.30360
1406.463, 24.28401
1408.391, 24.04735
1410.320, 23.97296
1412.248, 23.98392
1414.177, 24.04980
1416.105, 24.09222
1418.033, 24.05610
1419.962, 24.03336
1421.890, 24.09148
1423.819, 24.07125
1425.747, 23.85611
1427.676, 23.75644
1429.604, 23.86524
1431.533, 23.86795
1433.461, 23.77370
1435.390, 23.66908
1437.318, 23.59550
1439.247, 23.75030
1441.175, 23.96114
1443.104, 23.97347
1445.032, 23.91479
1446.960, 23.90809
1448.889, 23.90351
1450.817, 23.83363
1452.746, 23.72381
1454.674, 23.63804
1456.603, 23.49853
1458.531, 23.30740
1460.460, 23.24107
1462.388, 23.25099
1464.317, 23.24172
1466.245, 23.29592
1468.174, 23.62504
1470.102, 23.82678
1472.031, 23.57038
1473.959, 23.42475
1475.887, 23.53407
1477.816, 23.52980
1479.744, 23.35987
1481.673, 23.26733
1483.601, 23.29435
1485.530, 23.17994
1487.458, 23.01013
1489.387, 23.07673
1491.315, 23.15798
1493.244, 23.07202
1495.172, 22.99348
1497.101, 22.93362
1499.029, 22.91365
1500.958, 23.02987
1502.886, 23.11780
1504.814, 23.10681
1506.743, 22.98632
1508.671, 22.85119
1510.600, 22.88669
1512.528, 22.92167
1514.457, 22.76094
1516.385, 22.59745
1518.314, 22.52619
1520.242, 22.56332
1522.171, 22.76943
1524.099, 22.86223
1526.028, 22.75627
1527.956, 22.70187
1529.885, 22.72229
1531.813, 22.82102
1533.741, 22.82159
1535.670, 22.39034
1537.598, 22.20402
1539.527, 22.57356
1541.455, 22.80248
1543.384, 22.75347
1545.312, 22.95781
1547.241, 23.38795
1549.169, 23.31271
1551.098, 22.99299
1553.026, 22.77777
1554.955, 22.62316
1556.883, 22.61235
1558.812, 22.70490
1560.740, 22.93907
1562.668, 23.00543
1564.597, 22.84784
1566.525, 22.79905
1568.454, 22.88099
1570.382, 22.85891
1572.311, 22.76984
1574.239, 22.84756
1576.168, 22.92130
1578.096, 22.80979
1580.025, 22.73954
1581.953, 22.69377
1583.882, 22.76712
1585.810, 22.99916
1587.739, 23.09493
1589.667, 23.07000
1591.595, 22.90950
1593.524, 22.69051
1595.452, 22.56265
1597.381, 22.53246
1599.309, 22.49264
1601.238, 22.38633
1603.166, 22.34605
1605.095, 22.33485
1607.023, 22.26194
1608.952, 22.22150
1610.880, 22.20091
1612.809, 22.10996
1614.737, 22.04037
1616.666, 22.10359
1618.594, 22.20333
1620.522, 22.17416
1622.451, 22.15809
1624.379, 22.19381
1626.308, 22.22870
1628.236, 22.28908
1630.165, 22.32076
1632.093, 22.27368
1634.022, 22.05974
1635.950, 21.90735
1637.879, 21.83988
1639.807, 21.71849
1641.736, 21.68612
1643.664, 21.76015
1645.593, 21.82353
1647.521, 21.79079
1649.449, 21.75940
1651.378, 21.88615
1653.306, 21.96566
1655.235, 21.84530
1657.163, 21.67488
1659.092, 21.52151
1661.020, 21.38042
1662.949, 21.29350
1664.877, 21.31750
1666.806, 21.35603
1668.734, 21.34882
1670.663, 21.25132
1672.591, 21.05746
1674.520, 21.09161
1676.448, 21.32515
1678.376, 21.45900
1680.305, 21.49146
1682.233, 21.36927
1684.162, 21.23663
1686.090, 21.23293
1688.019, 21.20045
1689.947, 21.07480
1691.876, 21.13238
1693.804, 21.31173
1695.733, 21.27417
1697.661, 21.20521
1699.590, 21.12524
1701.518, 21.06623
1703.447, 21.16690
1705.375, 21.36397
1707.303, 21.51990
1709.232, 21.25251
1711.160, 20.89897
1713.089, 20.65458
1715.017, 20.62761
1716.946, 20.94175
1718.874, 21.05883
1720.803, 20.91740
1722.731, 20.79749
1724.660, 20.75117
1726.588, 20.81568
1728.517, 20.85689
1730.445, 20.76702
1732.374, 20.62947
1734.302, 20.56529
1736.230, 20.48310
1738.159, 20.43247
1740.087, 20.55672
1742.016, 20.58862
1743.944, 20.74973
1745.873, 20.86677
1747.801, 20.52582
1749.730, 20.42990
1751.658, 20.61883
1753.587, 20.61956
1755.515, 20.57023
1757.444, 20.52875
1759.372, 20.40600
1761.301, 20.20562
1763.229, 20.15237
1765.157, 20.23256
1767.086, 20.23305
1769.014, 20.18133
1770.943, 20.09397
1772.871, 20.12086
1774.800, 20.24492
1776.728, 20.25659
1778.657, 20.24391
1780.585, 20.12790
1782.514, 20.00460
1784.442, 20.00412
1786.371, 20.06820
1788.299, 20.25328
1790.228, 20.08345
1792.156, 19.68169
1794.084, 19.77125
1796.013, 19.93575
1797.941, 19.79395
1799.870, 19.72678
1801.798, 19.66171
1803.727, 19.49473
1805.655, 19.52357
1807.584, 19.70183
1809.512, 19.69660
1811.441, 19.53727
1813.369, 19.49227
1815.298, 19.47132
1817.226, 19.46745
1819.155, 19.49517
1821.083, 19.49582
1823.011, 19.41169
1824.940, 19.24818
1826.868, 19.31713
1828.797, 19.39912
1830.725, 19.29947
1832.654, 19.31585
1834.582, 19.36993
1836.511, 19.30738
1838.439, 19.22375
1840.368, 19.12495
1842.296, 19.00715
1844.225, 19.01244
1846.153, 19.06797
1848.082, 19.24602
1850.010, 19.26840
1851.938, 19.03822
1853.867, 19.07119
1855.795, 19.15024
1857.724, 18.84079
1859.652, 18.73400
1861.581, 18.98936
1863.509, 19.02611
1865.438, 18.92037
1867.366, 18.81186
1869.295, 18.59450
1871.223, 18.49507
1873.152, 18.54090
1875.080, 18.52927
1877.009, 18.45816
1878.937, 18.54427
1880.865, 18.74755
1882.794, 18.72926
1884.722, 18.61773
1886.651, 18.57644
1888.579, 18.53154
1890.508, 18.64779
1892.436, 18.83324
1894.365, 18.60677
1896.293, 18.52403
1898.222, 18.76117
1900.150, 18.65116
1902.079, 18.24951
1904.007, 18.07132
1905.936, 17.96814
1907.864, 17.98729
1909.792, 18.09070
1911.721, 17.88619
1913.649, 17.81055
1915.578, 17.98088
1917.506, 18.06984
1919.435, 18.09595
1921.363, 18.09215
1923.292, 18.18505
1925.220, 18.32121
1927.149, 18.30920
1929.077, 18.10799
1931.006, 17.93799
1932.934, 18.05832
1934.863, 18.20761
1936.791, 18.05770
1938.719, 17.61126
1940.648, 17.52641
1942.576, 17.81878
1944.505, 17.92074
1946.433, 17.78404
1948.362, 17.77712
1950.290, 17.71856
1952.219, 17.45474
1954.147, 17.45617
1956.076, 17.71214
1958.004, 17.74153
1959.933, 17.60493
1961.861, 17.59058
1963.790, 17.42684
1965.718, 17.21490
1967.646, 17.57014
1969.575, 17.79122
1971.503, 17.56474
1973.432, 17.31920
1975.360, 17.19952
1977.289, 17.28243
1979.217, 17.27756
1981.146, 17.20995
1983.074, 17.24838
1985.003, 17.22958
1986.931, 16.97265
1988.860, 16.74329
1990.788, 16.89215
1992.717, 17.07562
1994.645, 17.04362
1996.573, 17.01883
1998.502, 16.90915
2000.430, 16.58794
2002.359, 16.70393
2004.287, 17.10448
2006.216, 17.06100
2008.144, 16.90206
2010.073, 16.95896
2012.001, 17.06305
2013.930, 16.96697
2015.858, 16.84349
2017.787, 17.05041
2019.715, 17.25271
2021.644, 17.18760
2023.572, 16.89865
2025.500, 16.73810
2027.429, 16.61816
2029.357, 16.53808
2031.286, 16.65115
2033.214, 16.74357
2035.143, 16.80891
2037.071, 16.71787
2039.000, 16.48958
2040.928, 16.45476
2042.857, 16.58269
2044.785, 16.61630
2046.714, 16.40698
2048.642, 16.12191
2050.571, 16.35031
2052.499, 16.65475
2054.427, 16.57310
2056.356, 16.47989
2058.284, 16.45459
2060.213, 16.52629
2062.141, 16.68168
2064.070, 16.64993
2065.998, 16.48029
2067.927, 16.34620
2069.855, 16.12902
2071.784, 16.14684
2073.712, 16.20447
2075.641, 16.10283
2077.569, 16.20666
2079.498, 16.26528
2081.426, 16.19145
2083.354, 16.16096
2085.283, 16.26450
2087.211, 16.42950
2089.140, 16.42484
2091.068, 16.35618
2092.997, 16.32392
2094.925, 16.24459
2096.854, 16.29984
2098.782, 16.17937
2100.711, 15.79373
2102.639, 15.85122
2104.568, 16.04847
2106.496, 16.08012
2108.425, 16.10882
2110.353, 16.18810
2112.281, 16.41121
2114.210, 16.29297
2116.138, 16.03679
2118.067, 16.08269
2119.995, 16.03219
2121.924, 15.73782
2123.852, 15.67592
2125.781, 15.89089
2127.709, 16.10468
2129.638, 16.22342
2131.566, 16.24368
2133.495, 16.21108
2135.423, 16.14808
2137.352, 16.08853
2139.280, 15.80149
2141.208, 15.57217
2143.137, 15.60792
2145.065, 15.74959
2146.994, 15.77899
2148.922, 15.86185
2150.851, 15.96608
2152.779, 15.94113
2154.708, 15.88294
2156.636, 15.95504
2158.565, 16.10137
2160.493, 16.01384
2162.422, 15.71100
2164.350, 15.68451
2166.279, 15.90815
2168.207, 15.93098
2170.135, 15.83182
2172.064, 15.87154
2173.992, 15.83357
2175.921, 15.98195
2177.849, 16.20848
2179.778, 16.30226
2181.706, 16.20618
2183.635, 16.18679
2185.563, 16.34308
2187.492, 16.24535
2189.420, 16.20658
2191.349, 16.21916
2193.277, 16.12922
2195.206, 16.26341
2197.134, 16.40110
2199.063, 16.53271
2200.991, 16.69111
2202.919, 16.59722
2204.848, 16.28653
2206.776, 16.16634
2208.705, 16.18468
2210.633, 16.33902
2212.562, 16.36857
2214.490, 16.07153
2216.419, 15.94484
2218.347, 16.07414
2220.276, 16.13448
2222.204, 16.17620
2224.133, 16.03390
2226.061, 15.86496
2227.990, 15.91632
2229.918, 16.05661
2231.846, 16.13480
2233.775, 15.76053
2235.703, 15.59634
2237.632, 15.81229
2239.560, 15.88023
2241.489, 15.86358
2243.417, 15.92658
2245.346, 15.85665
2247.274, 15.72849
2249.203, 15.45595
2251.131, 15.35717
2253.060, 15.60419
2254.988, 15.38593
2256.917, 14.96508
2258.845, 15.11595
2260.773, 15.48095
2262.702, 15.39435
2264.630, 15.10859
2266.559, 14.98546
2268.487, 14.70744
2270.416, 14.71162
2272.344, 15.05434
2274.273, 15.14005
2276.201, 14.95148
2278.130, 14.90299
2280.058, 14.95274
2281.987, 14.86619
2283.915, 14.72570
2285.844, 14.68924
2287.772, 14.78295
2289.700, 14.86172
2291.629, 14.52626
2293.557, 14.34775
2295.486, 14.51040
2297.414, 14.43722
2299.343, 14.34553
2301.271, 14.56310
2303.200, 14.83052
2305.128, 14.78722
2307.057, 14.28684
2308.985, 14.11427
2310.914, 14.44974
2312.842, 14.51852
2314.771, 14.34052
2316.699, 14.14569
2318.627, 14.12383
2320.556, 14.19222
2322.484, 14.42655
2324.413, 14.61038
2326.341, 14.44146
2328.270, 14.35335
2330.198, 14.34358
2332.127, 14.24915
2334.055, 14.07638
2335.984, 13.74539
2337.912, 13.92041
2339.841, 14.15257
2341.769, 14.02333
2343.698, 13.94269
2345.626, 14.04566
2347.554, 14.00674
2349.483, 13.95660
2351.411, 14.14902
2353.340, 13.96768
2355.268, 13.84569
2357.197, 14.11188
2359.125, 14.05163
2361.054, 13.75703
2362.982, 13.60868
2364.911, 13.66630
2366.839, 13.64669
2368.768, 13.56020
2370.696, 13.56422
2372.625, 13.62101
2374.553, 13.62278
2376.481, 13.45541
2378.410, 13.40068
2380.338, 13.62364
2382.267, 13.85577
2384.195, 13.80667
2386.124, 13.55693
2388.052, 13.40737
2389.981, 13.35522
2391.909, 13.61985
2393.838, 13.95051
2395.766, 13.66731
2397.695, 13.44973
2399.623, 13.65795
2401.552, 13.69042
2403.480, 13.58203
2405.408, 13.61814
2407.337, 13.52287
2409.265, 13.23059
2411.194, 13.05076
2413.122, 13.07756
2415.051, 13.29214
2416.979, 13.22506
2418.908, 13.11181
2420.836, 13.31302
2422.765, 13.50144
2424.693, 13.39286
2426.622, 13.25757
2428.550, 13.29388
2430.479, 13.17676
2432.407, 13.10388
2434.335, 13.20208
2436.264, 13.20050
2438.192, 12.91882
2440.121, 12.83915
2442.049, 12.99168
2443.978, 13.04668
2445.906, 12.95397
2447.835, 12.91058
2449.763, 13.12621
2451.692, 13.14764
2453.620, 13.02909
2455.549, 12.74929
2457.477, 12.63576
2459.406, 12.76398
2461.334, 12.65692
2463.262, 12.54271
2465.191, 12.82880
2467.119, 12.85618
2469.048, 12.64210
2470.976, 12.55771
2472.905, 12.66269
2474.833, 12.81966
2476.762, 12.89194
2478.690, 12.65670
2480.619, 12.30299
2482.547, 12.65286
2484.476, 12.68523
2486.404, 12.19035
2488.333, 12.18649
2490.261, 12.26240
2492.189, 12.12057
2494.118, 12.02149
2496.046, 12.05574
2497.975, 12.18395
2499.903, 12.40457
2501.832, 12.59495
2503.760, 12.54284
2505.689, 12.38974
2507.617, 12.45107
2509.546, 12.35017
2511.474, 12.15855
2513.403, 12.24429
2515.331, 12.22520
2517.260, 12.04779
2519.188, 11.94550
2521.116, 12.15280
2523.045, 12.21701
2524.973, 12.23782
2526.902, 12.33145
2528.830, 12.23893
2530.759, 12.00542
2532.687, 11.89171
2534.616, 11.84169
2536.544, 11.97289
2538.473, 12.76601
2540.401, 12.87882
2542.330, 12.08235
2544.258, 11.95197
2546.187, 12.51288
2548.115, 13.09906
2550.043, 12.40934
2551.972, 11.79565
2553.900, 11.40927
2555.829, 11.53332
2557.757, 11.88706
2559.686, 12.35985
2561.614, 12.22556
2563.543, 11.88873
2565.471, 11.76287
2567.400, 11.91721
2569.328, 11.91874
2571.257, 11.73007
2573.185, 11.78024
2575.114, 11.77196
2577.042, 11.87587
2578.970, 11.76152
2580.899, 11.43227
2582.827, 11.57435
2584.756, 11.73600
2586.684, 11.69897
2588.613, 11.45038
2590.541, 11.38819
2592.470, 11.52526
2594.398, 11.56533
2596.327, 11.33910
2598.255, 11.13348
2600.184, 11.30388
2602.112, 11.47056
2604.041, 11.74800
2605.969, 12.04502
2607.897, 11.71056
2609.826, 11.29494
2611.754, 11.30747
2613.683, 11.29503
2615.611, 11.20781
2617.540, 11.19065
2619.468, 11.05692
2621.397, 10.95589
2623.325, 11.25056
2625.254, 11.33904
2627.182, 11.19275
2629.111, 10.70172
2631.039, 10.70903
2632.968, 10.97141
2634.896, 10.83005
2636.824, 11.03866
2638.753, 11.34282
2640.681, 11.31713
2642.610, 10.99385
2644.538, 10.71920
2646.467, 10.78845
2648.395, 10.83576
2650.324, 10.75155
2652.252, 10.44013
2654.181, 10.78611
2656.109, 10.98944
2658.038, 10.73263
2659.966, 10.74295
2661.895, 10.83933
2663.823, 10.75601
2665.751, 10.51471
2667.680, 10.37689
2669.608, 10.43265
2671.537, 10.75178
2673.465, 10.87460
2675.394, 10.57601
2677.322, 10.72681
2679.251, 10.71520
2681.179, 10.25038
2683.108, 10.10977
2685.036, 10.30647
2686.965, 10.74527
2688.893, 10.13730
2690.822, 10.17869
2692.750, 10.82656
2694.678, 10.36662
2696.607, 10.09506
2698.535, 10.14465
2700.464, 10.42924
2702.392, 10.37202
2704.321, 10.14509
2706.249, 10.27878
2708.178, 10.27948
2710.106, 10.18591
2712.035, 10.17346
2713.963, 10.07106
2715.892, 9.952160
2717.820, 10.06824
2719.749, 9.881461
2721.677, 9.682520
2723.605, 9.717640
2725.534, 9.830831
2727.462, 9.857709
2729.391, 9.730788
2731.319, 9.877014
2733.248, 9.885126
2735.176, 9.619427
2737.105, 9.796109
2739.033, 9.700753
2740.962, 9.353350
2742.890, 9.526641
2744.819, 9.656552
2746.747, 9.602162
2748.676, 9.418545
2750.604, 9.377380
2752.532, 9.399720
2754.461, 9.180140
2756.389, 9.197359
2758.318, 9.341793
2760.246, 9.402862
2762.175, 9.216141
2764.103, 9.121152
2766.032, 9.194303
2767.960, 9.168181
2769.889, 9.116656
2771.817, 9.042354
2773.746, 9.046631
2775.674, 9.070820
2777.603, 9.027378
2779.531, 8.909659
2781.459, 8.872563
2783.388, 8.860886
2785.316, 8.851801
2787.245, 8.902876
2789.173, 9.067587
2791.102, 9.386146
2793.030, 8.798121
2794.959, 8.411087
2796.887, 8.489578
2798.816, 8.395881
2800.744, 8.525157
2802.673, 8.821082
2804.601, 9.037368
2806.530, 8.766112
2808.458, 8.420995
2810.386, 8.474505
2812.315, 8.360953
2814.243, 8.311263
2816.172, 8.547198
2818.100, 8.841381
2820.029, 8.652802
2821.957, 8.072499
2823.886, 8.073097
2825.814, 8.033425
2827.743, 8.021890
2829.671, 8.350837
2831.600, 8.096865
2833.528, 7.908348
2835.457, 8.242248
2837.385, 8.223499
2839.313, 8.187364
2841.242, 8.154809
2843.170, 8.130740
2845.099, 8.128501
2847.027, 8.053238
2848.956, 7.621310
2850.884, 7.773033
2852.813, 8.003145
2854.741, 7.797376
2856.670, 7.556961
2858.598, 7.547749
2860.527, 7.722321
2862.455, 8.124740
2864.384, 8.066121
2866.312, 7.680117
2868.240, 7.710173
2870.169, 7.766425
2872.097, 7.690290
2874.026, 7.384137
2875.954, 7.319101
2877.883, 7.485698
2879.811, 7.668458
2881.740, 7.450640
2883.668, 7.343909
2885.597, 7.337224
2887.525, 7.298539
2889.454, 7.210414
2891.382, 7.129951
2893.311, 7.026884
2895.239, 7.097824
2897.167, 7.164825
2899.096, 7.239576
2901.024, 7.113114
2902.953, 7.116066
2904.881, 7.212840
2906.810, 7.331346
2908.738, 7.251043
2910.667, 7.039282
2912.595, 6.767114
2914.524, 6.702719
2916.452, 6.908028
2918.381, 7.157553
2920.309, 7.290200
2922.238, 6.909072
2924.166, 6.531433
2926.094, 6.370137
2928.023, 6.659698
2929.951, 6.702840
2931.880, 6.545904
2933.808, 6.522905
2935.737, 6.375131
2937.665, 6.424914
2939.594, 6.743123
2941.522, 6.761489
2943.451, 6.498354
2945.379, 6.147069
2947.308, 6.214541
2949.236, 6.205894
2951.165, 6.231347
2953.093, 6.437731
2955.021, 6.535719
2956.950, 6.394166
2958.878, 6.248673
2960.807, 6.624723
2962.735, 6.394624
2964.664, 6.127332
2966.592, 6.201307
2968.521, 6.539767
2970.449, 6.488342
2972.378, 6.114532
2974.306, 5.696023
2976.235, 5.810464
2978.163, 6.002547
2980.092, 5.911200
2982.020, 5.896218
2983.948, 5.765436
2985.877, 5.818779
2987.805, 6.450326
2989.734, 5.940807
2991.662, 5.548990
2993.591, 5.766708
2995.519, 5.844142
2997.448, 5.631211
2999.376, 5.493543
3001.305, 5.589499
3003.233, 5.926873
3005.162, 5.898726
3007.090, 5.576357
3009.019, 5.736047
3010.947, 5.694999
3012.875, 5.733230
3014.804, 5.905890
3016.732, 5.631999
3018.661, 5.600927
3020.589, 5.628357
3022.518, 5.176663
3024.446, 5.463771
3026.375, 5.581124
3028.303, 5.337294
3030.232, 5.002640
3032.160, 5.116984
3034.089, 5.394715
3036.017, 5.423068
3037.946, 5.271277
3039.874, 5.407312
3041.802, 5.542468
3043.731, 5.242469
3045.659, 5.072507
3047.588, 5.019272
3049.516, 5.077209
3051.445, 5.127044
3053.373, 5.064011
3055.302, 4.991819
3057.230, 4.984953
3059.159, 5.249471
3061.087, 5.607283
3063.016, 5.647191
3064.944, 4.743304
3066.873, 4.700936
3068.801, 4.720354
3070.729, 4.584709
3072.658, 4.669724
3074.586, 4.618756
3076.515, 4.573000
3078.443, 4.596817
3080.372, 5.014074
3082.300, 4.996279
3084.229, 4.761325
3086.157, 4.717743
3088.086, 4.885278
3090.014, 4.636593
3091.943, 4.302576
3093.871, 4.566633
3095.800, 4.651812
3097.728, 4.800451
3099.656, 4.942609
3101.585, 4.597141
3103.513, 4.277080
3105.442, 4.254567
3107.370, 4.256953
3109.299, 4.177935
3111.227, 4.538356
3113.156, 4.592109
3115.084, 4.063285
3117.013, 4.147296
3118.941, 4.226379
3120.870, 4.266673
3122.798, 4.183798
3124.727, 4.133196
3126.655, 4.332749
3128.583, 4.488741
3130.512, 4.273589
3132.440, 3.938538
3134.369, 3.717766
3136.297, 3.794404
3138.226, 3.953383
3140.154, 3.985697
3142.083, 3.853339
3144.011, 3.756745
3145.940, 4.123579
3147.868, 3.885211
3149.797, 3.948283
3151.725, 4.305689
3153.654, 3.497149
3155.582, 3.551560
3157.510, 3.815103
3159.439, 3.839195
3161.367, 4.115038
3163.296, 3.938528
3165.224, 3.738105
3167.153, 3.860073
3169.081, 3.909363
3171.010, 3.628172
3172.938, 3.306515
3174.867, 3.251483
3176.795, 3.627418
3178.724, 3.807925
3180.652, 3.523321
3182.581, 2.933884
3184.509, 3.422847
3186.438, 3.437675
3188.366, 3.266543
3190.294, 3.353360
3192.223, 3.486097
3194.151, 3.328283
3196.080, 3.247485
3198.008, 3.352643
3199.937, 3.349683
3201.865, 3.659904
3203.794, 3.538326
3205.722, 2.772218
3207.651, 3.131646
3209.579, 3.272407
3211.508, 3.423673
3213.436, 3.629873
3215.365, 3.267639
3217.293, 3.309448
3219.221, 3.331604
3221.150, 3.163051
3223.078, 3.195057
3225.007, 3.100003
3226.935, 3.245236
3228.864, 3.534943
3230.792, 2.849344
3232.721, 2.692581
3234.649, 2.934294
3236.578, 3.296169
3238.506, 3.211226
3240.435, 3.207399
3242.363, 2.873560
3244.292, 2.589899
3246.220, 2.719715
3248.148, 2.803845
3250.077, 2.594656
3252.005, 2.345687
3253.934, 2.617597
3255.862, 2.585747
3257.791, 2.761673
3259.719, 2.762213
3261.648, 2.146171
3263.576, 2.770142
3265.505, 2.960129
3267.433, 2.872844
3269.362, 2.836457
3271.290, 2.702201
3273.219, 2.609830
3275.147, 2.480739
3277.075, 2.350673
3279.004, 2.726051
3280.932, 2.756622
3282.861, 2.896899
3284.789, 3.091448
3286.718, 2.846962
3288.646, 2.599333
3290.575, 2.511658
3292.503, 2.587940
3294.432, 2.685562
3296.360, 2.788413
3298.289, 2.534585
3300.217, 2.395360
3302.146, 2.581904
3304.074, 2.882617
3306.002, 2.617690
3307.931, 2.588294
3309.859, 2.799750
3311.788, 2.690791
3313.716, 3.199988
3315.645, 3.012534
3317.573, 2.505275
3319.502, 2.461935
3321.430, 2.574913
3323.359, 2.313280
3325.287, 2.056228
3327.216, 2.181917
3329.144, 2.764504
3331.073, 2.464990
3333.001, 2.162305
3334.929, 2.153182
3336.858, 2.126299
3338.786, 2.089638
3340.715, 2.664043
3342.643, 3.056033
3344.572, 2.747960
3346.500, 2.889013
3348.429, 2.166342
3350.357, 2.111593
3352.286, 2.691173
3354.214, 2.410316
3356.143, 2.316502
3358.071, 2.443927
3360.000, 2.412820
3361.928, 2.211571
3363.856, 2.148205
3365.785, 2.496626
3367.713, 2.626570
3369.642, 2.495476
3371.570, 2.497504
3373.499, 2.737721
3375.427, 2.273820
3377.356, 2.030081
3379.284, 2.594856
3381.213, 2.656437
3383.141, 2.390902
3385.070, 2.596342
3386.998, 2.987800
3388.927, 2.365899
3390.855, 2.389421
3392.783, 2.787215
3394.712, 3.161304
3396.640, 3.400263
3398.569, 3.653616
3400.497, 3.443506
3402.426, 3.355535
3404.354, 3.452789
3406.283, 3.485072
3408.211, 3.557501
3410.140, 4.074844
3412.068, 4.747757
3413.997, 5.219098
3415.925, 5.277788
3417.854, 6.321589
3419.782, 6.468752
3421.710, 6.759546
3423.639, 7.915506
3425.567, 9.167178
3427.496, 10.57240
3429.424, 11.12667
3431.353, 11.13068
3433.281, 11.08456
3435.210, 10.47679
3437.138, 8.731931
3439.067, 7.347575
3440.995, 6.519866
3442.924, 5.772128
3444.852, 4.865725
3446.781, 4.247932
3448.709, 3.903339
3450.637, 3.567649
3452.566, 2.762637
3454.494, 2.708074
3456.423, 2.557517
3458.351, 2.409604
3460.280, 2.343299
3462.208, 2.211036
3464.137, 2.811316
3466.065, 2.636542
3467.994, 2.047691
3469.922, 1.657054
3471.851, 1.790291
3473.779, 1.892227
3475.708, 1.554061
3477.636, 1.633506
3479.564, 2.407135
3481.493, 2.769688
3483.421, 2.031163
3485.350, 1.804292
3487.278, 1.862760
3489.207, 1.831737
3491.135, 2.234939
3493.064, 2.690774
3494.992, 2.575872
3496.921, 2.177014
3498.849, 2.058868
3500.778, 2.917136
3502.706, 3.285029
3504.635, 3.152206
3506.563, 3.104626
3508.491, 3.306252
3510.420, 2.901688
3512.348, 3.101990
3514.277, 3.474193
3516.205, 3.434876
3518.134, 2.912207
3520.062, 2.491456
3521.991, 2.896781
3523.919, 2.773141
3525.848, 2.217761
3527.776, 1.744195
3529.705, 1.829916
3531.633, 2.157910
3533.562, 2.365256
3535.490, 2.440212
3537.418, 2.329331
3539.347, 2.006196
3541.275, 2.086004
3543.204, 1.609924
3545.132, 1.543768
3547.061, 1.726384
3548.989, 1.595056
3550.918, 1.654434
3552.846, 1.385181
3554.775, 1.257644
3556.703, 1.317825
3558.632, 1.445431
3560.560, 1.618576
3562.489, 1.536754
3564.417, 1.245016
3566.345, 1.495730
3568.274, 2.083496
3570.202, 1.814952
3572.131, 1.282568
3574.059, 1.455494
3575.988, 1.574907
3577.916, 1.492525
3579.845, 1.504008
3581.773, 1.612942
3583.702, 1.356089
3585.630, 1.572280
3587.559, 1.782100
3589.487, 1.725467
3591.416, 1.912113
3593.344, 1.804000
3595.272, 1.359806
3597.201, 1.533122
3599.129, 1.779566
3601.058, 1.356476
3602.986, 2.161046
3604.915, 2.510299
3606.843, 2.314846
3608.772, 1.711694
3610.700, 1.462342
3612.629, 2.615253
3614.557, 2.210438
3616.486, 2.218821
3618.414, 1.882974
3620.343, 1.637681
3622.271, 2.015624
3624.199, 1.727086
3626.128, 2.124764
3628.056, 2.105670
3629.985, 1.902648
3631.913, 1.856146
3633.842, 1.992863
3635.770, 1.864127
3637.699, 2.101150
3639.627, 1.867900
3641.556, 1.543618
3643.484, 1.449996
3645.413, 1.370346
3647.341, 1.571130
3649.270, 1.262440
3651.198, 1.410837
3653.126, 1.527110
3655.055, 1.360816
3656.983, 1.892637
3658.912, 1.552679
3660.840, 1.314021
3662.769, 1.242520
3664.697, 1.252795
3666.626, 1.346630
3668.554, 1.648295
3670.483, 1.356162
3672.411, 1.032851
3674.340, 1.484753
3676.268, 1.800390
3678.197, 1.355821
3680.125, 1.683649
3682.053, 1.034280
3683.982, 1.098793
3685.910, 0.9710118
3687.839, 0.9616724
3689.767, 1.305333
3691.696, 0.6824324
3693.624, 1.074204
3695.553, 1.197831
3697.481, 1.401049
3699.410, 1.334138
3701.338, 0.9615980
3703.267, 1.151499
3705.195, 0.5823261
3707.124, 0.9875242
3709.052, 1.052694
3710.980, 0.8715504
3712.909, 0.8303397
3714.837, 0.7794046
3716.766, 0.7904517
3718.694, 1.339803
3720.623, 1.096841
3722.551, 0.6861715
3724.480, 0.7786216
3726.408, 1.192206
3728.337, 0.8404615
3730.265, 0.9187915
3732.194, 0.8789498
3734.122, 1.099519
3736.051, 1.104618
3737.979, 0.5844826
3739.907, 0.5662925
3741.836, 0.1474473
3743.764, 0.8173472
3745.693, 0.9932339
3747.621, 0.7864466
3749.550, 0.6778814
3751.478, 0.6792868
3753.407, 0.8588701
3755.335, 0.8806790
3757.264, 0.9504086
3759.192, 0.9355320
3761.121, 0.7231089
3763.049, 0.4756848
3764.978, 0.5883140
3766.906, 0.8023702
3768.834, 1.562942
3770.763, 1.227048
3772.691, 0.5049586
3774.620, 1.022120
3776.548, 2.637108
3778.477, 0.9806095
3780.405, 0.4758651
3782.334, 0.8151950
3784.262, 0.8345492
3786.191, 0.6830366
3788.119, 0.6319110
3790.048, 0.5651733
3791.976, 0.7480050
3793.905, 0.9604290
3795.833, 9.6614569E-02
3797.761, 0.4254698
3799.690, 0.9120968
3801.618, 0.7297528
3803.547, 0.8156132
3805.475, 0.4631362
3807.404, 0.1374148
3809.332, 0.2655398
3811.261, 0.5935566
3813.189, 0.5469223
3815.118, 0.1593634
3817.046, 4.5694850E-02
3818.975, 0.5465720
3820.903, 0.4477520
3822.832, 0.2254173
3824.760, 0.4984934
3826.688, 0.5708795
3828.617, 0.2745804
3830.545, 0.1508773
3832.474, 0.1622273
3834.402, 0.4702449
3836.331, 0.3994538
3838.259, 0.7094599
3840.188, 0.8053547
3842.116, 0.6262040
3844.045, 0.6419851
3845.973, 0.8491299
3847.902, 0.6634045
3849.830, 0.3270932
3851.759, 0.4575906
3853.687, 0.6116412
3855.615, 0.3793207
3857.544, 0.2034595
3859.472, 0.6308674
3861.401, 0.2930179
3863.329, 0.2572290
3865.258, 0.3356276
3867.186, 0.3616089
3869.115, 0.3874701
3871.043, 0.5441734
3872.972, 0.4718990
3874.900, -0.3306697
3876.829, 0.3429632
3878.757, 0.4855504
3880.686, 0.4788193
3882.614, 0.7790603
3884.542, 0.7381207
3886.471, 0.4359407
3888.399, 0.3809677
3890.328, 0.2190152
3892.256, 0.3976450
3894.185, 6.1150111E-02
3896.113, 0.7315949
3898.042, 0.7305425
3899.970, 0.4666196
3901.899, 0.7718852
3903.827, 1.090801
3905.756, 0.1180315
3907.684, 0.3937473
3909.613, 0.3218212
3911.541, 0.1461506
3913.469, 0.6901336
3915.398, 0.8673435
3917.326, 0.1186821
3919.255, -0.3121834
3921.183, 0.8487910
3923.112, 0.4845937
3925.040, 0.6568638
3926.969, -0.3092753
3928.897, 0.3785383
3930.826, 0.6145658
3932.754, 0.3400835
3934.683, 0.3799216
3936.611, 0.2532138
3938.540, 0.3716237
3940.468, 0.6297955
3942.396, 0.2236667
3944.325, 0.5000420
3946.253, 0.6118909
3948.182, 0.3956030
3950.110, 0.3306658
3952.039, 0.4156696
3953.967, 0.2276565
3955.896, 0.5795727
3957.824, 3.5972118E-02
3959.753, 0.3649581
3961.681, 0.5394090
3963.610, 0.5031621
3965.538, 0.6446118
3967.467, 0.3694538
3969.395, 0.1854252
3971.323, 0.5175645
3973.252, 0.1317898
3975.180, 0.3097995
3977.109, 0.4471774
3979.037, 0.1711560
3980.966, 0.2372107
3982.894, 0.4557904
3984.823, 0.4476639
3986.751, 0.3511725
3988.680, 0.3439956
3990.608, 0.3639998
3992.537, 0.2607477
3994.465, 0.4752007
3996.394, -7.2865807E-02
3998.322, 0.4870276
4000.250, 0.1133822
4002.179, 0.1973057
4004.107, -0.1891364
4006.036, 0.2133382
4007.964, 0.9071856
4009.893, 0.7256632
4011.821, 0.3763315
4013.750, 0.8009660
4015.678, 0.5648105
4017.607, 0.4697663
4019.535, 0.1840877
4021.464, -0.1291603
4023.392, -0.1878179
4025.321, 9.1377497E-02
4027.249, 0.3182672
4029.177, 0.2667787
4031.106, 0.3218928
4033.034, 0.3423785
4034.963, 0.4030393
4036.891, -4.9176130E-02
4038.820, 0.4147404
4040.748, 0.1667390
4042.677, 0.4170027
4044.605, 0.3656246
4046.534, 9.7656257E-02
4048.462, 0.4949054
4050.391, 0.1006890
4052.319, 0.3347413
4054.248, 0.1100758
4056.176, 0.1671118
4058.104, 0.5492188
4060.033, 0.3207516
4061.961, 0.2134402
4063.890, 0.1776654
4065.818, 0.3689476
4067.747, 0.7219908
4069.675, 0.4608562
4071.604, 0.3627444
4073.532, 0.3082421
4075.461, -0.2547328
4077.389, 0.4556405
4079.318, 0.7290796
4081.246, 0.5670037
4083.175, 0.4089843
4085.103, 9.5440693E-02
4087.031, -4.8230710E-03
4088.960, 0.4599666
4090.888, 0.6360709
4092.817, 0.1698060
4094.745, 0.8091117
4096.674, 0.1893333
4098.603, -5.4309950E-03
4100.531, -0.1473935
4102.459, -0.3019387
4104.388, 0.3090056
4106.316, 0.4668914
4108.245, -6.0341161E-02
4110.173, 0.1422462
4112.102, 0.7487238
4114.030, -0.3341907
4115.958, 0.3161967
4117.887, 0.4150399
4119.815, 0.1492631
4121.744, 0.1772268
4123.672, 0.5771109
4125.601, 0.5632731
4127.529, 0.1101955
4129.458, 2.6991690E-02
4131.386, -2.0126780E-02
4133.315, 1.3735010E-02
4135.243, 0.7819901
4137.172, 0.5593709
4139.100, 0.3532040
4141.029, 0.1064972
4142.957, 0.2391497
4144.886, -7.1138488E-03
4146.814, 0.4601091
4148.743, 0.5435828
4150.671, 5.2563980E-02
4152.600, 0.1530494
4154.528, 0.6152496
4156.457, 0.6573645
4158.385, 0.2598792
4160.313, -6.2889539E-02
4162.242, 0.4437694
4164.170, 0.4175237
4166.099, 0.2122554
4168.027, -0.5766678
4169.956, 0.2932167
4171.884, 0.4345489
4173.813, -0.1749590
4175.741, -0.5473537
4177.669, 0.1380204
4179.598, 0.6035007
4181.526, 0.1063718
4183.455, -0.1751198
4185.383, 0.3757432
4187.312, 0.5543320
4189.240, 0.2918213
4191.169, 0.5900669
4193.097, -6.3252342E-03
4195.026, -1.8423880E-02
4196.954, 0.2493843
4198.883, 0.7643816
4200.811, 0.2059251
4202.740, 7.1691923E-02
4204.668, 0.4738360
4206.597, 0.3375402
4208.525, 0.1107694
4210.454, 0.1760399
4212.382, 0.2331229
4214.311, 0.2653674
4216.239, 0.3595854
4218.167, 0.5531589
4220.096, -0.4032937
4222.024, 0.4617215
4223.953, 0.4963756
4225.881, -1.2930150E-02
4227.810, 0.4173030
4229.738, 0.2349991
4231.667, 8.7830812E-02
4233.595, 0.2403862
4235.523, -0.1628651
4237.452, 0.1076225
4239.380, -1.1933720E-03
4241.309, 0.1738779
4243.237, 0.7340916
4245.166, 0.5980228
4247.094, 0.2819620
4249.023, -0.3733965
4250.951, 0.1219491
4252.880, 0.2026258
4254.808, 0.1058164
4256.737, -0.1389166
4258.665, 0.9057962
4260.594, -0.1209760
4262.522, -0.1051339
4264.451, 0.5046923
4266.379, -0.2187627
4268.308, -0.1977679
4270.236, 0.1045142
4272.165, 0.3632577
4274.093, -2.8382270E-02
4276.021, -0.2523213
4277.950, -8.2106240E-02
4279.878, 0.2196190
4281.807, 0.7067825
4283.735, 0.5834002
4285.664, 0.1445784
4287.592, 0.5807149
4289.521, 0.3023088
4291.449, 7.1835063E-02
4293.377, 0.3177175
4295.306, -8.2429253E-02
4297.234, 0.4035765
4299.163, 0.5514640
4301.091, 0.7036504
4303.020, 0.2679816
4304.948, -0.2368122
4306.877, -0.3670354
4308.805, 0.1401135
4310.734, 0.2666315
4312.662, -6.6152908E-02
4314.591, -0.1892958
4316.519, 0.1563882
4318.448, 0.5050064
4320.376, 0.3572410
4322.305, 2.2241840E-02
4324.233, -0.3417958
4326.162, -0.2699865
4328.090, 0.2384824
4330.019, 7.1016327E-02
4331.947, 0.6990292
4333.875, 6.8888560E-02
4335.804, 2.5218939E-02
4337.732, -0.1022283
4339.661, -0.3928050
4341.589, 0.1674099
4343.518, 0.2655092
4345.446, 4.7793731E-02
4347.375, -0.2809621
4349.303, 0.1957931
4351.231, -9.3517937E-03
4353.160, 0.1135240
4355.088, 4.0642992E-02
4357.017, 9.6790463E-02
4358.945, 7.0405103E-02
4360.874, 0.1811700
4362.802, -4.2984679E-02
4364.731, 0.1918715
4366.659, 0.1423309
4368.588, -0.2054724
4370.516, 0.4039742
4372.445, 0.5914429
4374.373, -4.3249369E-02
4376.302, 0.2561576
4378.230, 0.2701431
4380.159, 0.1127227
4382.087, -0.1389528
##END=



