##NAMES=Trolleite
##RRUFFID=R050545
##IDEAL CHEMISTRY=Al_4_(PO_4_)_3_(OH)_3_
##LOCALITY=near Laws, Mono County, California, USA
##OWNER=RRUFF
##SOURCE=University of Arizona Mineral Museum
##DESCRIPTION=Colorless to light blue massive fragment, 2-fold twin around [1 0 2]
##STATUS=The identification of this mineral is confirmed by single-crystal X-ray diffraction and chemical analysis
##URL=https://www.rruff.net/odr/rruff_sample/R050545
##MEASURED CHEMISTRY=(Al_3.93_Fe^3+^_0.06_Cr_0.01_)(P_1.00_O_4_)_3_(OH)_3_ ; OH estimated by difference
##DIFFRACTION SAMPLE DESCRIPTION=Single crystal, powder profile is calculated
##CELL PARAMETERS=a: 18.85 b: 7.156 c: 7.154 alpha: 90 beta: 100 gamma: 90 volume: 950.3 crystal system: monoclinic
##FILETYPE=Raman Processed
##RAMAN WAVELENGTH=780

114.1120, 525.8771
116.0405, 524.6877
117.9690, 522.9160
119.8974, 517.1276
121.8259, 510.0550
123.7544, 504.5697
125.6828, 500.4977
127.6113, 499.5702
129.5398, 502.7459
131.4682, 508.0438
133.3967, 515.1376
135.3252, 523.9454
137.2536, 535.4685
139.1821, 548.9958
141.1106, 560.3197
143.0390, 568.3878
144.9675, 574.7482
146.8960, 578.7375
148.8244, 581.8450
150.7529, 583.4308
152.6814, 584.8987
154.6098, 592.1243
156.5383, 604.9073
158.4668, 625.5234
160.3952, 654.9611
162.3237, 691.4213
164.2522, 736.3479
166.1806, 787.0281
168.1091, 839.1266
170.0376, 903.3855
171.9660, 943.7215
173.8945, 958.3128
175.8230, 951.2455
177.7514, 908.3995
179.6799, 851.2883
181.6084, 808.9144
183.5368, 781.3528
185.4653, 771.7071
187.3938, 780.5777
189.3223, 803.9635
191.2507, 841.8734
193.1792, 893.7568
195.1077, 969.4510
197.0361, 1068.836
198.9646, 1134.360
200.8931, 1175.017
202.8215, 1167.318
204.7500, 1080.384
206.6785, 971.8666
208.6069, 866.7286
210.5354, 769.5032
212.4639, 694.9215
214.3923, 643.7762
216.3208, 608.8126
218.2493, 593.2630
220.1777, 587.4705
222.1062, 590.6508
224.0347, 597.9798
225.9631, 604.1351
227.8916, 609.0114
229.8201, 613.5479
231.7485, 617.2108
233.6770, 622.2599
235.6055, 627.5754
237.5339, 636.5135
239.4624, 651.4716
241.3909, 671.6249
243.3193, 694.9510
245.2478, 721.3202
247.1763, 749.1053
249.1047, 776.9784
251.0332, 808.4819
252.9617, 849.1642
254.8901, 890.3967
256.8186, 928.6279
258.7471, 959.8097
260.6755, 967.6035
262.6040, 947.0062
264.5325, 920.5800
266.4609, 883.5423
268.3894, 853.3805
270.3179, 834.4495
272.2463, 829.2589
274.1748, 840.8108
276.1033, 868.2048
278.0317, 908.8362
279.9602, 964.7234
281.8887, 1030.708
283.8171, 1112.125
285.7456, 1196.239
287.6741, 1293.204
289.6025, 1378.729
291.5310, 1415.416
293.4595, 1401.273
295.3879, 1352.502
297.3164, 1242.664
299.2449, 1139.452
301.1733, 1045.790
303.1018, 970.9736
305.0303, 923.5975
306.9587, 899.4259
308.8872, 894.8604
310.8157, 915.6878
312.7441, 934.4222
314.6726, 957.9620
316.6011, 968.4428
318.5295, 956.8769
320.4580, 935.3120
322.3865, 906.9197
324.3149, 876.4930
326.2434, 857.8478
328.1719, 852.9834
330.1003, 855.0311
332.0288, 866.0703
333.9573, 879.4086
335.8857, 895.2135
337.8142, 910.0947
339.7427, 925.3625
341.6711, 937.4916
343.5996, 936.2014
345.5281, 918.9836
347.4565, 898.8597
349.3850, 872.9195
351.3135, 851.7959
353.2419, 838.9921
355.1704, 832.4307
357.0989, 835.0742
359.0273, 841.2794
360.9558, 840.7830
362.8843, 833.1191
364.8127, 817.8118
366.7412, 793.3406
368.6697, 767.1389
370.5981, 738.3630
372.5266, 712.3563
374.4551, 690.5779
376.3835, 673.3976
378.3120, 662.5632
380.2405, 657.2901
382.1689, 652.2340
384.0974, 647.4175
386.0259, 642.0540
387.9543, 633.4061
389.8828, 628.4894
391.8113, 630.2307
393.7397, 635.8010
395.6682, 644.4685
397.5967, 654.6651
399.5251, 663.5818
401.4536, 671.2067
403.3821, 674.1432
405.3105, 671.9799
407.2390, 664.5229
409.1675, 650.2499
411.0959, 633.0391
413.0244, 612.8409
414.9529, 592.1875
416.8813, 572.6458
418.8098, 555.3454
420.7383, 545.4213
422.6667, 544.0710
424.5952, 546.6571
426.5237, 556.9437
428.4521, 564.6788
430.3806, 570.8445
432.3091, 570.1730
434.2375, 555.5370
436.1660, 533.0473
438.0945, 509.7175
440.0229, 485.7323
441.9514, 466.7195
443.8799, 453.7449
445.8083, 444.5764
447.7368, 438.8768
449.6653, 437.2990
451.5938, 440.7731
453.5222, 447.9057
455.4507, 457.4267
457.3792, 469.7036
459.3076, 485.8078
461.2361, 505.9255
463.1646, 527.1203
465.0930, 552.4330
467.0215, 571.0500
468.9500, 583.6436
470.8784, 586.1127
472.8069, 572.2231
474.7354, 551.8737
476.6638, 528.8163
478.5923, 505.7911
480.5208, 488.1912
482.4492, 475.9814
484.3777, 468.5293
486.3062, 466.1258
488.2346, 466.8302
490.1631, 470.9609
492.0916, 476.6126
494.0200, 483.7231
495.9485, 491.4632
497.8770, 499.7795
499.8054, 508.1765
501.7339, 516.3767
503.6624, 524.0019
505.5908, 529.5721
507.5193, 533.2209
509.4478, 532.6260
511.3762, 527.0352
513.3047, 518.6277
515.2332, 505.7232
517.1616, 492.9760
519.0901, 482.3254
521.0186, 472.6206
522.9470, 462.8569
524.8755, 453.1682
526.8040, 443.1720
528.7324, 433.1581
530.6609, 425.7297
532.5894, 421.3629
534.5178, 418.2889
536.4463, 416.6062
538.3748, 415.5153
540.3032, 414.7777
542.2317, 414.6906
544.1602, 415.7951
546.0886, 417.3128
548.0171, 418.4120
549.9456, 419.1544
551.8740, 419.4757
553.8025, 419.4046
555.7310, 420.0691
557.6594, 421.7404
559.5879, 423.7390
561.5164, 425.2368
563.4448, 428.1346
565.3733, 434.1418
567.3018, 440.2625
569.2302, 445.6127
571.1587, 449.3378
573.0872, 450.6898
575.0156, 449.9100
576.9441, 447.1145
578.8726, 442.0644
580.8010, 437.9024
582.7295, 432.7153
584.6580, 433.2726
586.5864, 440.8768
588.5149, 451.4361
590.4434, 464.2865
592.3718, 479.5980
594.3003, 499.4449
596.2288, 519.7007
598.1572, 539.6397
600.0857, 556.3320
602.0142, 565.8936
603.9426, 568.0253
605.8711, 558.9655
607.7996, 536.3571
609.7280, 516.0383
611.6565, 497.4078
613.5850, 483.6205
615.5134, 475.8718
617.4419, 471.6143
619.3704, 472.4031
621.2988, 472.9243
623.2273, 472.4765
625.1558, 468.6276
627.0842, 457.6469
629.0127, 442.3108
630.9412, 426.8908
632.8696, 411.8754
634.7981, 399.6807
636.7266, 390.2617
638.6550, 384.1752
640.5835, 381.6315
642.5120, 381.4992
644.4404, 384.1190
646.3689, 387.9478
648.2974, 392.7353
650.2258, 398.3393
652.1543, 406.3789
654.0828, 413.4377
656.0112, 415.5032
657.9397, 415.6485
659.8682, 418.5060
661.7966, 422.9944
663.7251, 426.0569
665.6536, 428.0497
667.5820, 431.6717
669.5105, 437.2670
671.4390, 442.7705
673.3674, 448.4738
675.2959, 452.8362
677.2244, 455.2486
679.1528, 457.0811
681.0813, 459.8053
683.0098, 460.5068
684.9382, 457.5087
686.8667, 452.1172
688.7952, 445.9670
690.7236, 437.4780
692.6521, 424.2165
694.5806, 407.5902
696.5090, 390.4003
698.4375, 372.8279
700.3660, 356.0931
702.2944, 339.8813
704.2229, 326.2334
706.1514, 315.3014
708.0798, 306.8738
710.0083, 301.7112
711.9368, 297.6339
713.8652, 294.7005
715.7937, 291.9568
717.7222, 288.7602
719.6506, 286.0322
721.5791, 284.4662
723.5076, 283.4872
725.4360, 282.7487
727.3645, 282.2523
729.2930, 281.9288
731.2214, 281.8861
733.1499, 282.4009
735.0784, 283.4373
737.0068, 284.7324
738.9353, 286.2869
740.8638, 288.4648
742.7922, 291.1733
744.7207, 295.1064
746.6492, 300.4842
748.5776, 306.1844
750.5061, 311.1026
752.4346, 318.8403
754.3630, 331.4673
756.2915, 345.6585
758.2200, 361.1294
760.1484, 376.4353
762.0769, 391.0524
764.0054, 404.7670
765.9338, 416.8261
767.8623, 428.3397
769.7908, 440.1685
771.7192, 452.8322
773.6477, 467.0978
775.5762, 483.3650
777.5046, 503.2344
779.4331, 526.0311
781.3616, 548.7967
783.2900, 571.3118
785.2185, 591.2766
787.1470, 609.2419
789.0754, 618.9612
791.0039, 620.4680
792.9324, 611.2654
794.8608, 588.0202
796.7893, 558.5183
798.7178, 520.4338
800.6462, 481.6293
802.5747, 440.3893
804.5032, 404.7690
806.4316, 380.4815
808.3601, 360.7925
810.2886, 341.5712
812.2170, 324.5266
814.1455, 311.1953
816.0740, 300.9519
818.0024, 293.6903
819.9309, 288.3257
821.8594, 283.0493
823.7878, 278.2897
825.7163, 275.6363
827.6448, 274.6596
829.5732, 272.5587
831.5017, 269.3419
833.4302, 266.8114
835.3586, 265.0194
837.2871, 263.3831
839.2156, 262.0179
841.1440, 260.3349
843.0725, 257.9848
845.0010, 256.6640
846.9294, 257.0632
848.8579, 256.5399
850.7864, 254.2088
852.7148, 252.3573
854.6433, 251.6236
856.5718, 251.2743
858.5002, 251.7801
860.4287, 251.2827
862.3572, 247.7657
864.2856, 244.8402
866.2141, 244.7552
868.1426, 245.0536
870.0710, 244.4387
871.9995, 243.4467
873.9280, 242.4093
875.8564, 241.2243
877.7849, 239.7818
879.7134, 238.3182
881.6418, 237.2147
883.5703, 236.1108
885.4988, 234.0659
887.4272, 233.1088
889.3557, 230.5951
891.2842, 230.4388
893.2126, 229.4809
895.1411, 227.9667
897.0696, 227.3346
898.9980, 227.3069
900.9265, 225.7778
902.8550, 225.4366
904.7834, 224.9333
906.7119, 223.8386
908.6404, 224.2284
910.5688, 223.2499
912.4973, 223.2017
914.4258, 224.5430
916.3542, 225.2921
918.2827, 225.1816
920.2112, 224.6262
922.1396, 223.1771
924.0681, 222.5225
925.9966, 223.1450
927.9250, 224.0811
929.8535, 224.8954
931.7820, 226.4510
933.7104, 230.0507
935.6389, 232.4363
937.5674, 231.6947
939.4958, 232.0656
941.4243, 235.3371
943.3528, 238.1768
945.2813, 238.8242
947.2097, 240.5118
949.1382, 245.1652
951.0667, 249.7172
952.9951, 252.4380
954.9236, 255.2206
956.8521, 259.7626
958.7805, 263.5712
960.7090, 264.4662
962.6375, 265.4391
964.5659, 269.0192
966.4944, 272.1646
968.4229, 272.7223
970.3513, 272.3620
972.2798, 271.8412
974.2083, 271.4517
976.1367, 271.8568
978.0652, 271.9550
979.9937, 270.4625
981.9221, 268.6251
983.8506, 267.7911
985.7791, 266.3996
987.7075, 262.7612
989.6360, 258.6872
991.5645, 255.7710
993.4929, 253.3789
995.4214, 250.8821
997.3499, 248.7200
999.2783, 247.2036
1001.207, 246.2837
1003.135, 246.3985
1005.064, 246.6515
1006.992, 245.1905
1008.921, 243.8189
1010.849, 245.2733
1012.778, 248.0162
1014.706, 250.2247
1016.635, 252.2102
1018.563, 253.6366
1020.491, 255.9884
1022.420, 261.3597
1024.348, 266.9305
1026.277, 275.4382
1028.205, 283.3441
1030.134, 293.2726
1032.062, 305.1299
1033.991, 319.5348
1035.919, 335.5268
1037.848, 352.1735
1039.776, 368.0698
1041.705, 381.0369
1043.633, 393.3912
1045.562, 406.6205
1047.490, 421.8866
1049.418, 441.1813
1051.347, 463.8397
1053.275, 489.1127
1055.204, 516.0047
1057.132, 546.4992
1059.061, 575.0688
1060.989, 597.7845
1062.918, 612.9384
1064.846, 618.0283
1066.775, 613.6830
1068.703, 598.5751
1070.632, 576.9755
1072.560, 550.2141
1074.489, 522.9133
1076.417, 498.1563
1078.345, 477.3883
1080.274, 460.7066
1082.202, 449.7120
1084.131, 445.3322
1086.059, 448.2920
1087.988, 460.7768
1089.916, 478.5919
1091.845, 498.0078
1093.773, 522.6221
1095.702, 559.3879
1097.630, 594.1871
1099.559, 621.8545
1101.487, 642.0771
1103.416, 651.9026
1105.344, 657.2899
1107.272, 659.8811
1109.201, 660.2870
1111.129, 656.8928
1113.058, 656.3603
1114.986, 661.4845
1116.915, 667.4509
1118.843, 675.6322
1120.772, 679.7316
1122.700, 679.1227
1124.629, 672.8279
1126.557, 657.5969
1128.486, 641.8870
1130.414, 626.0814
1132.343, 613.5400
1134.271, 605.8481
1136.199, 598.7911
1138.128, 592.1055
1140.056, 585.3243
1141.985, 579.3635
1143.913, 569.7136
1145.842, 555.5367
1147.770, 538.9125
1149.699, 519.9595
1151.627, 499.3004
1153.556, 476.3797
1155.484, 457.8364
1157.413, 444.0269
1159.341, 434.2617
1161.270, 428.3896
1163.198, 424.9139
1165.126, 423.0469
1167.055, 420.1067
1168.983, 415.4802
1170.912, 406.5568
1172.840, 394.3732
1174.769, 380.5860
1176.697, 365.6474
1178.626, 349.8669
1180.554, 334.1636
1182.483, 320.3999
1184.411, 308.2293
1186.340, 296.8227
1188.268, 286.0279
1190.197, 274.9199
1192.125, 266.0522
1194.053, 262.4454
1195.982, 259.9882
1197.910, 256.0823
1199.839, 253.2228
1201.767, 253.0387
1203.696, 253.4166
1205.624, 253.5262
1207.553, 254.1182
1209.481, 254.0026
1211.410, 253.4753
1213.338, 253.6390
1215.267, 251.9132
1217.195, 251.0469
1219.124, 250.2097
1221.052, 251.5718
1222.980, 251.4509
1224.909, 255.9612
1226.837, 260.1334
1228.766, 263.6004
1230.694, 265.9527
1232.623, 267.6924
1234.551, 269.3575
1236.480, 270.3013
1238.408, 269.4247
1240.337, 267.4880
1242.265, 265.4213
1244.194, 264.7156
1246.122, 268.0327
1248.051, 270.7075
1249.979, 268.9682
1251.907, 265.2811
1253.836, 260.7372
1255.764, 255.2497
1257.693, 248.7064
1259.621, 240.6943
1261.550, 229.9413
1263.478, 220.7175
1265.407, 214.4896
1267.335, 208.3099
1269.264, 201.4855
1271.192, 196.6762
1273.121, 193.7934
1275.049, 191.3262
1276.978, 189.6206
1278.906, 188.0561
1280.834, 186.4718
1282.763, 184.1543
1284.691, 181.6099
1286.620, 180.5425
1288.548, 180.3128
1290.477, 180.1691
1292.405, 180.1324
1294.334, 180.1944
1296.262, 180.2324
1298.191, 179.8077
1300.119, 179.6342
1302.048, 180.4092
1303.976, 180.8139
1305.905, 180.3270
1307.833, 180.1118
1309.761, 180.5474
1311.690, 180.6723
1313.618, 180.1161
1315.547, 179.4586
1317.475, 178.8598
1319.404, 179.2372
1321.332, 180.3580
1323.261, 180.1136
1325.189, 179.0199
1327.118, 178.3615
1329.046, 178.1826
1330.975, 178.6690
1332.903, 179.2231
1334.832, 179.2150
1336.760, 178.9608
1338.688, 179.0033
1340.617, 179.1203
1342.545, 178.7322
1344.474, 178.5916
1346.402, 178.3439
1348.331, 177.6819
1350.259, 177.6100
1352.188, 176.5791
1354.116, 175.8927
1356.045, 175.9137
1357.973, 176.5865
1359.902, 177.2205
1361.830, 177.3378
1363.759, 177.3699
1365.687, 177.2210
1367.615, 176.6407
1369.544, 176.4238
1371.472, 175.5628
1373.401, 175.0711
1375.329, 174.9310
1377.258, 174.4543
1379.186, 173.4745
1381.115, 173.5207
1383.043, 172.6447
1384.972, 172.0092
1386.900, 171.6606
1388.829, 170.9923
1390.757, 171.1790
1392.686, 171.6577
1394.614, 172.1563
1396.542, 171.4749
1398.471, 170.7231
1400.399, 170.2194
1402.328, 170.3702
1404.256, 171.9094
1406.185, 172.0749
1408.113, 170.5015
1410.042, 169.3049
1411.970, 168.6939
1413.899, 168.5566
1415.827, 168.0361
1417.756, 167.5149
1419.684, 167.9053
1421.613, 167.7171
1423.541, 166.4137
1425.469, 165.5358
1427.398, 165.8048
1429.326, 166.3999
1431.255, 166.4086
1433.183, 166.0534
1435.112, 166.4682
1437.040, 168.0566
1438.969, 168.2487
1440.897, 166.7010
1442.826, 165.2769
1444.754, 164.6796
1446.683, 165.8194
1448.611, 167.2433
1450.540, 166.1768
1452.468, 164.2019
1454.396, 163.5300
1456.325, 163.5603
1458.253, 163.5660
1460.182, 162.9720
1462.110, 162.0785
1464.039, 161.5671
1465.967, 161.3050
1467.896, 161.3972
1469.824, 161.5663
1471.753, 162.3339
1473.681, 162.1362
1475.610, 162.7314
1477.538, 161.9743
1479.467, 161.3444
1481.395, 160.8501
1483.323, 161.7313
1485.252, 162.6606
1487.180, 162.7126
1489.109, 161.6188
1491.037, 159.4608
1492.966, 158.9420
1494.894, 159.6166
1496.823, 160.0272
1498.751, 160.2099
1500.680, 160.2409
1502.608, 160.1273
1504.537, 159.3408
1506.465, 158.5379
1508.394, 158.7412
1510.322, 159.4078
1512.250, 159.0477
1514.179, 157.9316
1516.107, 157.1605
1518.036, 157.2498
1519.964, 157.8868
1521.893, 158.5288
1523.821, 158.4224
1525.750, 157.6218
1527.678, 157.3145
1529.607, 157.1719
1531.535, 157.5576
1533.464, 156.9753
1535.392, 156.7384
1537.321, 156.4569
1539.249, 156.2931
1541.177, 156.1821
1543.106, 156.1787
1545.034, 156.1223
1546.963, 156.0592
1548.891, 156.0766
1550.820, 155.9695
1552.748, 156.4895
1554.677, 155.7933
1556.605, 155.2369
1558.534, 155.0957
1560.462, 155.5634
1562.391, 155.6372
1564.319, 155.6032
1566.248, 155.6459
1568.176, 154.5984
1570.104, 154.0055
1572.033, 153.8033
1573.961, 153.3616
1575.890, 153.5120
1577.818, 153.1431
1579.747, 153.6102
1581.675, 153.6243
1583.604, 153.7140
1585.532, 154.0570
1587.461, 154.1348
1589.389, 154.3125
1591.318, 153.7084
1593.246, 153.7667
1595.175, 153.6372
1597.103, 153.2586
1599.031, 153.5429
1600.960, 153.1539
1602.888, 153.2424
1604.817, 152.8247
1606.745, 152.4645
1608.674, 151.0541
1610.602, 151.3411
1612.531, 150.4483
1614.459, 149.3496
1616.388, 149.6683
1618.316, 150.4213
1620.245, 150.6976
1622.173, 150.1513
1624.102, 149.3026
1626.030, 148.6829
1627.958, 148.1967
1629.887, 147.7785
1631.815, 147.4177
1633.744, 147.3942
1635.672, 147.3273
1637.601, 147.4722
1639.529, 147.3163
1641.458, 146.9410
1643.386, 146.8016
1645.315, 146.9092
1647.243, 146.6086
1649.172, 146.0134
1651.100, 144.9779
1653.029, 144.2847
1654.957, 144.4469
1656.885, 144.2915
1658.814, 144.5313
1660.742, 144.9013
1662.671, 144.8225
1664.599, 145.0080
1666.528, 144.8661
1668.456, 144.1355
1670.385, 144.2947
1672.313, 144.2022
1674.242, 143.2103
1676.170, 142.3641
1678.099, 142.6068
1680.027, 143.6683
1681.956, 143.5757
1683.884, 142.6567
1685.813, 142.4097
1687.741, 142.5985
1689.669, 142.1517
1691.598, 141.9120
1693.526, 142.3119
1695.455, 142.4584
1697.383, 142.2240
1699.312, 142.2119
1701.240, 141.9389
1703.169, 141.3722
1705.097, 141.4744
1707.026, 140.3896
1708.954, 140.4792
1710.883, 141.6259
1712.811, 141.0140
1714.740, 139.2467
1716.668, 138.7383
1718.596, 139.6883
1720.525, 141.4752
1722.453, 140.9146
1724.382, 138.4509
1726.310, 137.2042
1728.239, 136.6734
1730.167, 135.9495
1732.096, 136.1940
1734.024, 136.5714
1735.953, 135.9302
1737.881, 134.4101
1739.810, 133.3436
1741.738, 133.5851
1743.667, 133.5177
1745.595, 133.0411
1747.523, 134.1490
1749.452, 135.7184
1751.380, 136.8220
1753.309, 139.8868
1755.237, 138.0662
1757.166, 141.2278
1759.094, 134.9560
1761.023, 130.6303
1762.951, 129.1258
1764.880, 129.1780
1766.808, 128.6538
1768.737, 128.3583
1770.665, 128.7482
1772.594, 128.8555
1774.522, 128.8248
1776.450, 128.2470
1778.379, 127.3492
1780.307, 127.5182
1782.236, 127.3656
1784.164, 126.0250
1786.093, 125.0810
1788.021, 124.8164
1789.950, 124.9042
1791.878, 125.2289
1793.807, 124.6973
1795.735, 124.1162
1797.664, 123.7673
1799.592, 123.1008
1801.521, 123.2332
1803.449, 123.4900
1805.377, 122.1325
1807.306, 121.5481
1809.234, 122.4035
1811.163, 122.2451
1813.091, 122.2790
1815.020, 122.8324
1816.948, 122.6157
1818.877, 122.5507
1820.805, 122.4040
1822.734, 121.7214
1824.662, 121.4638
1826.591, 120.3652
1828.519, 119.2670
1830.448, 118.8360
1832.376, 118.3586
1834.304, 118.3439
1836.233, 117.5922
1838.161, 117.7914
1840.090, 116.4305
1842.018, 116.5105
1843.947, 116.2026
1845.875, 115.3391
1847.804, 114.9010
1849.732, 114.7083
1851.661, 114.6661
1853.589, 114.7075
1855.518, 113.8883
1857.446, 113.1570
1859.375, 113.3411
1861.303, 113.5070
1863.231, 113.7335
1865.160, 113.2892
1867.088, 112.4247
1869.017, 112.7352
1870.945, 112.8886
1872.874, 111.0318
1874.802, 110.2657
1876.731, 111.2387
1878.659, 111.5655
1880.588, 110.6494
1882.516, 111.0534
1884.445, 109.1482
1886.373, 110.2234
1888.302, 109.7792
1890.230, 108.6912
1892.158, 108.6593
1894.087, 108.9570
1896.015, 108.9282
1897.944, 109.0984
1899.872, 108.6473
1901.801, 107.8775
1903.729, 107.6823
1905.658, 107.4559
1907.586, 107.0555
1909.515, 106.6832
1911.443, 106.5450
1913.372, 106.7881
1915.300, 105.9587
1917.229, 103.5864
1919.157, 102.4012
1921.085, 103.9029
1923.014, 105.2914
1924.942, 104.8722
1926.871, 104.2869
1928.799, 104.1445
1930.728, 103.6197
1932.656, 102.4243
1934.585, 102.2478
1936.513, 101.5720
1938.442, 100.7526
1940.370, 100.7944
1942.299, 99.65759
1944.227, 99.50114
1946.156, 99.85323
1948.084, 99.34225
1950.012, 98.96224
1951.941, 99.43330
1953.869, 99.94594
1955.798, 100.0171
1957.726, 99.51583
1959.655, 98.75018
1961.583, 98.20087
1963.512, 97.61652
1965.440, 97.18951
1967.369, 97.12992
1969.297, 96.74128
1971.226, 96.44849
1973.154, 96.90196
1975.083, 96.57227
1977.011, 96.45631
1978.939, 94.75740
1980.868, 95.66975
1982.796, 94.77644
1984.725, 93.62378
1986.653, 93.75356
1988.582, 94.50188
1990.510, 95.09212
1992.439, 94.68974
1994.367, 93.27856
1996.296, 92.58752
1998.224, 92.84219
2000.153, 92.26143
2002.081, 91.77501
2004.010, 91.25853
2005.938, 90.64172
2007.866, 90.98295
2009.795, 91.19585
2011.723, 90.40732
2013.652, 89.99963
2015.580, 90.40903
2017.509, 90.57991
2019.437, 90.34132
2021.366, 90.12680
2023.294, 90.52017
2025.223, 89.60905
2027.151, 89.66560
2029.080, 88.87855
2031.008, 88.92182
2032.937, 88.32330
2034.865, 87.47041
2036.793, 87.62308
2038.722, 87.20380
2040.650, 87.65272
2042.579, 86.93556
2044.507, 86.83620
2046.436, 86.45578
2048.364, 86.01585
2050.293, 85.73898
2052.221, 85.69304
2054.150, 85.96854
2056.078, 86.31876
2058.007, 86.67341
2059.935, 86.40817
2061.864, 86.67656
2063.792, 86.51686
2065.720, 86.25465
2067.649, 85.92625
2069.577, 84.65491
2071.506, 83.66647
2073.434, 83.31927
2075.363, 83.80589
2077.291, 83.80717
2079.220, 83.77689
2081.148, 84.24383
2083.077, 84.48261
2085.005, 83.47386
2086.934, 81.57925
2088.862, 81.51453
2090.791, 82.02358
2092.719, 81.91109
2094.647, 81.79884
2096.576, 81.39286
2098.504, 81.33772
2100.433, 80.77334
2102.361, 80.90159
2104.290, 80.64900
2106.218, 80.15915
2108.147, 79.88792
2110.075, 80.22614
2112.004, 80.89975
2113.932, 80.61336
2115.861, 80.08263
2117.789, 79.69451
2119.718, 79.27129
2121.646, 78.97620
2123.574, 78.68736
2125.503, 78.49607
2127.431, 78.89522
2129.360, 78.21150
2131.288, 78.81200
2133.217, 77.28288
2135.145, 76.60727
2137.074, 76.25922
2139.002, 76.01392
2140.931, 76.36226
2142.859, 76.95832
2144.788, 77.18600
2146.716, 76.73125
2148.645, 75.73649
2150.573, 75.32977
2152.501, 76.08882
2154.430, 76.80320
2156.358, 76.37995
2158.287, 76.15723
2160.215, 76.21900
2162.144, 75.91841
2164.072, 75.50797
2166.001, 75.58109
2167.929, 75.45429
2169.858, 75.40690
2171.786, 75.54859
2173.715, 75.29135
2175.643, 75.29404
2177.572, 74.88174
2179.500, 74.85288
2181.428, 75.36646
2183.357, 76.21098
2185.285, 75.82525
2187.214, 74.36647
2189.142, 73.98855
2191.071, 75.10069
2192.999, 75.91936
2194.928, 74.62112
2196.856, 72.93684
2198.785, 74.03896
2200.713, 75.57437
2202.642, 74.28854
2204.570, 75.13168
2206.499, 72.51201
2208.427, 74.38107
2210.355, 74.02041
2212.284, 72.63644
2214.212, 72.38892
2216.141, 72.08955
2218.069, 71.55790
2219.998, 71.74149
2221.926, 71.15565
2223.855, 70.54774
2225.783, 70.34204
2227.712, 70.40051
2229.640, 69.82565
2231.569, 69.80562
2233.497, 70.39545
2235.426, 69.78759
2237.354, 69.63382
2239.282, 69.67184
2241.211, 69.27954
2243.139, 69.26134
2245.068, 69.50191
2246.996, 69.50816
2248.925, 68.26370
2250.853, 67.30598
2252.782, 66.46001
2254.710, 66.27164
2256.639, 67.11463
2258.567, 67.26656
2260.496, 66.89558
2262.424, 66.49356
2264.353, 65.67398
2266.281, 64.20708
2268.209, 63.92018
2270.138, 64.39596
2272.066, 64.65417
2273.995, 64.90952
2275.923, 64.84054
2277.852, 64.71536
2279.780, 64.01606
2281.709, 63.92910
2283.637, 63.26722
2285.566, 63.10729
2287.494, 63.05980
2289.423, 62.83709
2291.351, 62.68844
2293.280, 62.73846
2295.208, 62.14160
2297.136, 61.44814
2299.065, 62.08719
2300.993, 61.38741
2302.922, 62.19578
2304.850, 60.93734
2306.779, 60.91492
2308.707, 60.77081
2310.636, 60.56074
2312.564, 60.52955
2314.493, 59.60394
2316.421, 59.67820
2318.350, 58.82300
2320.278, 59.33448
2322.207, 59.54506
2324.135, 59.45719
2326.063, 59.54214
2327.992, 59.85610
2329.920, 59.09072
2331.849, 58.34320
2333.777, 58.39061
2335.706, 57.16801
2337.634, 55.96513
2339.563, 56.48162
2341.491, 57.41880
2343.420, 57.59483
2345.348, 56.08537
2347.277, 55.52641
2349.205, 56.25076
2351.134, 55.76201
2353.062, 55.77037
2354.990, 56.08720
2356.919, 54.92359
2358.847, 54.30927
2360.776, 53.56021
2362.704, 53.79390
2364.633, 53.30059
2366.561, 53.92067
2368.490, 53.01982
2370.418, 53.92839
2372.347, 53.88428
2374.275, 53.59826
2376.204, 54.22667
2378.132, 54.18225
2380.061, 53.61436
2381.989, 53.08625
2383.917, 53.40672
2385.846, 53.28920
2387.774, 52.89762
2389.703, 52.51500
2391.631, 52.14492
2393.560, 51.95117
2395.488, 51.60454
2397.417, 51.56403
2399.345, 51.14923
2401.274, 51.85462
2403.202, 50.38895
2405.131, 49.74115
2407.059, 49.25525
2408.988, 49.68055
2410.916, 49.77745
2412.844, 49.56557
2414.773, 49.78907
2416.701, 49.90116
2418.630, 49.41048
2420.558, 49.47167
2422.487, 49.36603
2424.415, 49.00805
2426.344, 49.08941
2428.272, 48.76880
2430.201, 48.24518
2432.129, 47.79546
2434.058, 47.63227
2435.986, 47.29985
2437.915, 47.47072
2439.843, 46.92550
2441.771, 47.17701
2443.700, 47.02556
2445.628, 46.70969
2447.557, 46.26960
2449.485, 46.52865
2451.414, 46.27885
2453.342, 46.17477
2455.271, 46.29522
2457.199, 45.94841
2459.128, 45.99908
2461.056, 45.86523
2462.985, 44.28501
2464.913, 44.13715
2466.842, 44.57045
2468.770, 44.43161
2470.698, 45.24634
2472.627, 46.02705
2474.555, 45.55040
2476.484, 44.68863
2478.412, 43.12189
2480.341, 42.63590
2482.269, 42.62984
2484.198, 43.03320
2486.126, 43.37994
2488.055, 42.54266
2489.983, 42.17706
2491.912, 42.52021
2493.840, 43.08552
2495.769, 42.52522
2497.697, 42.53214
2499.625, 42.84609
2501.554, 41.65218
2503.482, 41.60119
2505.411, 42.78291
2507.339, 43.03917
2509.268, 42.63448
2511.196, 42.43706
2513.125, 43.15814
2515.053, 42.95927
2516.982, 41.44897
2518.910, 41.05685
2520.839, 41.36687
2522.767, 41.48214
2524.696, 40.90395
2526.624, 40.55125
2528.552, 40.46468
2530.481, 40.07442
2532.409, 38.97285
2534.338, 39.61336
2536.266, 39.45598
2538.195, 39.19151
2540.123, 39.82492
2542.052, 39.69680
2543.980, 39.22373
2545.909, 38.96887
2547.837, 38.18349
2549.766, 38.06850
2551.694, 38.58672
2553.623, 38.97876
2555.551, 39.31711
2557.479, 39.49888
2559.408, 39.30887
2561.336, 38.75483
2563.265, 37.95994
2565.193, 37.22672
2567.122, 36.58309
2569.050, 36.12821
2570.979, 36.54222
2572.907, 37.10569
2574.836, 37.41008
2576.764, 37.62780
2578.693, 37.42339
2580.621, 35.92576
2582.550, 35.53826
2584.478, 36.54670
2586.406, 37.14982
2588.335, 37.05534
2590.263, 36.78933
2592.192, 36.43451
2594.120, 35.83329
2596.049, 35.54855
2597.977, 35.22130
2599.906, 35.56641
2601.834, 34.83541
2603.763, 34.85197
2605.691, 34.95899
2607.620, 34.51855
2609.548, 34.17243
2611.477, 34.20518
2613.405, 34.22365
2615.333, 35.13556
2617.262, 34.71029
2619.190, 34.57135
2621.119, 34.81318
2623.047, 34.47033
2624.976, 33.36934
2626.904, 32.72089
2628.833, 32.79279
2630.761, 33.28971
2632.690, 33.24183
2634.618, 32.39301
2636.547, 31.69605
2638.475, 31.25738
2640.404, 31.06944
2642.332, 30.29946
2644.260, 31.01718
2646.189, 31.15700
2648.117, 30.93158
2650.046, 31.94109
2651.974, 31.51957
2653.903, 30.09804
2655.831, 29.87266
2657.760, 30.14887
2659.688, 30.62515
2661.617, 30.67869
2663.545, 30.00560
2665.474, 29.57480
2667.402, 29.65869
2669.331, 31.17790
2671.259, 29.67463
2673.188, 30.02499
2675.116, 29.97804
2677.044, 29.31006
2678.973, 28.05477
2680.901, 28.42829
2682.830, 29.37845
2684.758, 30.48987
2686.687, 29.66431
2688.615, 28.88279
2690.544, 29.27147
2692.472, 28.38478
2694.401, 28.11371
2696.329, 29.05918
2698.258, 29.11866
2700.186, 28.55450
2702.115, 27.96250
2704.043, 28.28196
2705.971, 28.24493
2707.900, 27.59065
2709.828, 27.78980
2711.757, 26.33806
2713.685, 27.51586
2715.614, 26.79301
2717.542, 26.52460
2719.471, 27.18987
2721.399, 27.67018
2723.328, 26.70545
2725.256, 27.05643
2727.185, 26.73877
2729.113, 26.49895
2731.042, 25.34556
2732.970, 24.91888
2734.898, 24.09219
2736.827, 23.57368
2738.755, 24.70542
2740.684, 25.87139
2742.612, 26.32302
2744.541, 26.93132
2746.469, 25.63326
2748.398, 24.31982
2750.326, 23.56571
2752.255, 23.74926
2754.183, 24.13868
2756.112, 24.50196
2758.040, 25.59300
2759.969, 25.54079
2761.897, 24.84001
2763.825, 25.52274
2765.754, 23.73305
2767.682, 22.01977
2769.611, 23.70313
2771.539, 24.60008
2773.468, 24.25492
2775.396, 22.99014
2777.325, 23.51291
2779.253, 23.54922
2781.182, 22.62464
2783.110, 23.78135
2785.039, 23.81839
2786.967, 22.24335
2788.896, 21.53691
2790.824, 21.66852
2792.752, 22.08069
2794.681, 22.70912
2796.609, 21.75121
2798.538, 20.78481
2800.466, 20.91262
2802.395, 20.56234
2804.323, 20.23166
2806.252, 20.83847
2808.180, 20.14721
2810.109, 20.25145
2812.037, 20.91442
2813.966, 20.94792
2815.894, 21.04598
2817.823, 21.32630
2819.751, 21.38639
2821.679, 21.10510
2823.608, 22.12322
2825.536, 20.41736
2827.465, 19.27682
2829.393, 18.99341
2831.322, 19.28161
2833.250, 20.45752
2835.179, 19.87381
2837.107, 18.58215
2839.036, 19.55681
2840.964, 18.99841
2842.893, 18.44894
2844.821, 19.85781
2846.750, 19.88213
2848.678, 19.28735
2850.606, 18.61963
2852.535, 17.65371
2854.463, 17.44245
2856.392, 18.23667
2858.320, 18.08346
2860.249, 18.45149
2862.177, 19.23345
2864.106, 18.85330
2866.034, 19.77225
2867.963, 19.60684
2869.891, 19.37993
2871.820, 17.78371
2873.748, 18.87655
2875.677, 19.04896
2877.605, 19.21943
2879.533, 16.69228
2881.462, 18.40457
2883.390, 18.73623
2885.319, 16.42138
2887.247, 17.03625
2889.176, 19.69862
2891.104, 16.44758
2893.033, 17.10772
2894.961, 19.20812
2896.890, 17.67203
2898.818, 18.88303
2900.747, 18.95188
2902.675, 16.48043
2904.604, 15.32154
2906.532, 15.83051
2908.460, 16.86203
2910.389, 17.23347
2912.317, 16.09536
2914.246, 14.99259
2916.174, 14.54786
2918.103, 17.36521
2920.031, 19.18234
2921.960, 18.73213
2923.888, 15.52750
2925.817, 13.95580
2927.745, 14.18989
2929.674, 14.86474
2931.602, 14.72730
2933.531, 14.65081
2935.459, 14.81298
2937.387, 15.48500
2939.316, 14.69637
2941.244, 13.37835
2943.173, 12.67407
2945.101, 13.69419
2947.030, 14.10228
2948.958, 13.37720
2950.887, 13.09638
2952.815, 13.81519
2954.744, 14.34660
2956.672, 13.20319
2958.601, 13.16070
2960.529, 13.46869
2962.458, 13.56284
2964.386, 13.80221
2966.314, 12.68936
2968.243, 11.98247
2970.171, 14.12240
2972.100, 13.24126
2974.028, 12.25726
2975.957, 12.03994
2977.885, 11.51506
2979.814, 12.00042
2981.742, 12.87111
2983.671, 13.44056
2985.599, 12.77608
2987.528, 12.64241
2989.456, 12.87900
2991.385, 13.12912
2993.313, 13.20967
2995.241, 13.08672
2997.170, 13.18034
2999.098, 12.78598
3001.027, 12.23318
3002.955, 11.90194
3004.884, 11.69586
3006.812, 12.09049
3008.741, 11.69000
3010.669, 12.66636
3012.598, 13.31416
3014.526, 13.98890
3016.455, 13.50207
3018.383, 11.42928
3020.312, 11.50916
3022.240, 11.14341
3024.168, 10.37746
3026.097, 11.08470
3028.025, 12.06272
3029.954, 12.19699
3031.882, 11.64070
3033.811, 11.48279
3035.739, 11.11532
3037.668, 10.42321
3039.596, 9.880883
3041.525, 11.03896
3043.453, 11.02195
3045.382, 10.08457
3047.310, 11.29184
3049.239, 11.12182
3051.167, 10.53207
3053.095, 10.96280
3055.024, 10.71852
3056.952, 9.515146
3058.881, 9.032290
3060.809, 10.99051
3062.738, 9.726345
3064.666, 9.285871
3066.595, 9.913877
3068.523, 8.248289
3070.452, 9.196591
3072.380, 10.09937
3074.309, 9.097545
3076.237, 9.869964
3078.166, 9.954350
3080.094, 9.572689
3082.022, 9.352468
3083.951, 9.141983
3085.879, 9.092828
3087.808, 10.04527
3089.736, 9.050760
3091.665, 9.545924
3093.593, 9.345944
3095.522, 8.400305
3097.450, 8.196652
3099.379, 9.057957
3101.307, 10.01426
3103.236, 10.10960
3105.164, 8.228058
3107.093, 7.448675
3109.021, 7.534033
3110.949, 7.330798
3112.878, 7.498741
3114.806, 7.632406
3116.735, 8.349067
3118.663, 9.933331
3120.592, 9.727975
3122.520, 9.281569
3124.449, 8.634404
3126.377, 8.440654
3128.306, 8.130207
3130.234, 7.671806
3132.163, 7.920840
3134.091, 7.292851
3136.020, 7.415978
3137.948, 7.244709
3139.876, 6.664392
3141.805, 7.105116
3143.733, 7.173132
3145.662, 7.368490
3147.590, 7.217744
3149.519, 6.710341
3151.447, 7.509086
3153.376, 8.309011
3155.304, 8.579535
3157.233, 7.772459
3159.161, 7.484574
3161.090, 7.377438
3163.018, 7.307805
3164.947, 8.160370
3166.875, 8.620255
3168.803, 8.714360
3170.732, 8.352834
3172.660, 5.621076
3174.589, 5.452540
3176.517, 6.200743
3178.446, 6.441649
3180.374, 8.422358
3182.303, 8.344957
3184.231, 6.692504
3186.160, 4.891428
3188.088, 6.039757
3190.017, 6.967737
3191.945, 6.840553
3193.874, 7.524140
3195.802, 6.616390
3197.730, 7.285985
3199.659, 6.582230
3201.587, 5.069522
3203.516, 5.233211
3205.444, 5.264527
3207.373, 5.573847
3209.301, 6.419316
3211.230, 6.640421
3213.158, 7.231085
3215.087, 6.987646
3217.015, 6.031848
3218.944, 6.994972
3220.872, 6.557005
3222.801, 6.235402
3224.729, 6.808730
3226.657, 6.476960
3228.586, 7.071805
3230.514, 6.628851
3232.443, 6.309844
3234.371, 5.276029
3236.300, 5.563177
3238.228, 5.354454
3240.157, 5.591124
3242.085, 5.306547
3244.014, 5.773230
3245.942, 5.047840
3247.871, 5.119281
3249.799, 5.728733
3251.728, 6.698798
3253.656, 6.700445
3255.584, 5.852613
3257.513, 5.093198
3259.441, 5.830511
3261.370, 5.222246
3263.298, 4.822101
3265.227, 6.466423
3267.155, 5.867858
3269.084, 7.858845
3271.012, 6.094434
3272.941, 6.231604
3274.869, 5.958416
3276.798, 6.333944
3278.726, 5.813187
3280.655, 5.646070
3282.583, 5.441474
3284.511, 4.906076
3286.440, 4.889060
3288.368, 4.466884
3290.297, 4.424079
3292.225, 6.558571
3294.154, 5.417557
3296.082, 2.831639
3298.011, 2.058934
3299.939, 4.400704
3301.868, 5.955089
3303.796, 6.043650
3305.725, 5.293725
3307.653, 6.167056
3309.582, 6.961014
3311.510, 5.119752
3313.438, 2.929492
3315.367, 6.924291
3317.295, 7.462593
3319.224, 6.262467
3321.152, 5.468537
3323.081, 5.964524
3325.009, 4.386098
3326.938, 4.704302
3328.866, 5.169348
3330.795, 4.736453
3332.723, 6.680074
3334.652, 5.780691
3336.580, 4.732215
3338.509, 4.903947
3340.437, 7.438961
3342.365, 5.055089
3344.294, 5.182766
3346.222, 5.999737
3348.151, 4.216665
3350.079, 4.559259
3352.008, 2.396239
3353.936, 4.109660
3355.865, 5.102186
3357.793, 5.962798
3359.722, 5.915637
3361.650, 5.137824
3363.579, 4.413287
3365.507, 4.190541
3367.436, 4.580092
3369.364, 4.322719
3371.292, 5.685303
3373.221, 6.693705
3375.149, 2.706644
3377.078, 4.245645
3379.006, 4.140973
3380.935, 4.109891
3382.863, 5.875942
3384.792, 6.748246
3386.720, 6.299995
3388.649, 5.842821
3390.577, 5.734992
3392.506, 5.627394
3394.434, 6.427362
3396.363, 6.291314
3398.291, 6.099825
3400.219, 6.371747
3402.148, 6.245829
3404.076, 7.596726
3406.005, 7.595870
3407.933, 7.757040
3409.862, 9.569824
3411.790, 10.85977
3413.719, 12.64643
3415.647, 14.21420
3417.576, 15.39128
3419.504, 16.74447
3421.433, 20.03636
3423.361, 22.33248
3425.290, 26.00708
3427.218, 31.41919
3429.146, 35.86132
3431.075, 31.74582
3433.003, 26.74357
3434.932, 22.93673
3436.860, 19.96290
3438.789, 16.94777
3440.717, 14.31818
3442.646, 12.54911
3444.574, 10.72682
3446.503, 9.241614
3448.431, 8.125400
3450.360, 7.026788
3452.288, 6.532913
3454.217, 5.803553
3456.145, 5.552719
3458.073, 2.925282
3460.002, 4.789717
3461.930, 6.557086
3463.859, 6.042109
3465.787, 4.520879
3467.716, 5.104709
3469.644, 4.449775
3471.573, 4.686463
3473.501, 4.890491
3475.430, 6.225213
3477.358, 5.519625
3479.287, 6.125500
3481.215, 6.834948
3483.144, 6.265697
3485.072, 3.915749
3487.000, 5.865900
3488.929, 5.728810
3490.857, 5.756530
3492.786, 6.865934
3494.714, 6.441285
3496.643, 7.464236
3498.571, 9.523031
3500.500, 9.313270
3502.428, 7.536193
3504.357, 9.530014
3506.285, 8.112627
3508.214, 8.710176
3510.142, 10.09692
3512.071, 10.56632
3513.999, 9.512605
3515.927, 8.445078
3517.856, 8.416438
3519.784, 6.986464
3521.713, 5.530194
3523.641, 7.872480
3525.570, 5.327321
3527.498, 5.856138
3529.427, 5.828575
3531.355, 4.297905
3533.284, 3.104388
3535.212, 3.029806
3537.141, 4.278167
3539.069, 4.330171
3540.998, 2.973212
3542.926, 1.714933
3544.854, 3.509033
3546.783, 4.037684
3548.711, 3.812730
3550.640, 3.491256
3552.568, 3.029464
3554.497, 1.419578
3556.425, 1.254130
3558.354, 1.040975
3560.282, 2.495739
3562.211, 4.688880
3564.139, 4.031965
3566.068, 4.962030
3567.996, 1.291214
3569.925, 3.976125
3571.853, 5.047656
3573.781, 2.701370
3575.710, 4.323978
3577.638, 2.155363
3579.567, 2.340163
3581.495, 4.146939
3583.424, 4.499071
3585.352, 1.562349
3587.281, 2.754887
3589.209, 0.8555674
3591.138, 0.1737467
3593.066, 2.013277
3594.995, 3.757995
3596.923, 2.473105
3598.852, 3.534358
3600.780, 3.261644
3602.708, 3.767864
3604.637, 5.306409
3606.565, 2.492711
3608.494, -6.3256398E-02
3610.422, 2.033834
3612.351, 2.182177
3614.279, 1.093729
3616.208, 2.702068
3618.136, 4.202400
3620.065, 0.1246328
3621.993, 0.2810941
3623.922, 1.782587
3625.850, 1.519062
3627.779, 0.7846707
3629.707, 2.718594
3631.635, 2.547463
3633.564, 3.097549
3635.492, 2.455994
3637.421, 0.1705530
3639.349, 2.189149
3641.278, 1.610995
3643.206, 0.7196740
3645.135, 2.070072
3647.063, 2.486505
3648.992, -0.4072567
3650.920, 1.701961
3652.849, 0.6831303
3654.777, 1.870352
3656.706, 2.421797
3658.634, 0.5836176
3660.563, 2.216558
3662.491, 2.699576
3664.419, 3.165660
3666.348, 2.931548
3668.276, 2.476924
3670.205, 2.004400
3672.133, 1.924564
3674.062, 1.274763
3675.990, -0.3699615
3677.919, 0.1472999
3679.847, -0.2900920
3681.776, -0.9778484
3683.704, 0.9378496
3685.633, 2.914387
3687.561, 2.496758
3689.490, 3.481300
3691.418, 3.560953
3693.346, 2.107165
3695.275, 1.127769
3697.203, 1.860539
3699.132, 0.2698745
3701.060, -0.2583818
3702.989, 0.1112645
3704.917, 0.6258810
3706.846, 0.8878357
3708.774, 0.4948205
3710.703, 0.7288191
3712.631, 0.2953489
3714.560, 0.3362048
3716.488, -0.3662056
3718.417, -1.042699
3720.345, -0.9916588
3722.273, 1.696284
3724.202, 0.2536797
3726.130, 1.667415
3728.059, 3.287611
3729.987, 2.816591
3731.916, 3.753046
3733.844, 1.216688
3735.773, 3.842848
3737.701, 3.073039
3739.630, 2.612554
3741.558, 3.406885
3743.487, 3.041791
3745.415, 1.949270
3747.344, 1.970971
3749.272, 2.941949
3751.200, 3.471814
3753.129, 3.324295
3755.057, 2.690041
3756.986, 1.478518
3758.914, -0.3102522
3760.843, 2.186775
3762.771, 1.229441
3764.700, 2.246881
3766.628, 3.677345
3768.557, 1.171960
3770.485, 0.5428007
3772.414, 1.446349
3774.342, 2.623744
3776.271, 0.6510210
3778.199, -0.6562884
3780.127, 0.9008043
3782.056, 3.019572
3783.984, 3.301783
3785.913, 2.941765
3787.841, 0.3149052
3789.770, -7.9148933E-02
3791.698, 0.1567044
3793.627, 0.3236855
3795.555, 2.850147
3797.484, 1.783391
3799.412, 4.371755
3801.341, -0.3019244
3803.269, -1.739467
3805.198, -0.1327035
3807.126, 0.5373391
3809.054, 0.8263307
3810.983, 0.8822488
3812.911, -0.2358198
3814.840, 2.999296
3816.768, 3.313434
3818.697, 1.683626
3820.625, 1.103119
3822.554, 1.359604
3824.482, 0.2211697
3826.411, -0.8656856
3828.339, -0.4329963
3830.268, 9.9938773E-02
3832.196, 0.8169901
3834.125, 1.984985
3836.053, 2.029145
3837.981, 2.433886
3839.910, 2.194125
3841.838, 2.102887
3843.767, 1.073384
3845.695, 1.397450
3847.624, 0.7217697
3849.552, -9.3259942E-03
3851.481, -0.3963698
3853.409, -0.5519041
3855.338, -0.5163191
3857.266, 2.043375
3859.195, 3.769257
3861.123, 2.423857
3863.052, 0.2194436
3864.980, 0.4014037
3866.908, 1.117155
3868.837, 0.3484418
3870.765, 1.665067
3872.694, 2.658463
3874.622, -0.1136502
3876.551, -2.247502
3878.479, -0.1601470
3880.408, 2.538719
3882.336, -0.7399139
3884.265, 2.083055
3886.193, 0.6108769
3888.122, -1.241486
3890.050, -1.996028
3891.979, -6.8772160E-02
3893.907, 2.535778
3895.835, -0.3429952
3897.764, 0.3400947
3899.692, -1.213896
3901.621, 0.3720027
3903.549, 2.689710
3905.478, 1.427112
3907.406, -1.119985
3909.335, -1.153769
3911.263, 0.1704973
3913.192, 0.6047800
3915.120, 1.071315
3917.049, 0.9453741
3918.977, 0.4863447
3920.906, 0.4401404
3922.834, 1.265422
3924.762, 1.581939
3926.691, 0.1915411
3928.619, 1.056544
3930.548, 0.5274085
3932.476, -0.9755958
3934.405, 0.9700739
3936.333, 3.461745
3938.262, 3.853772
3940.190, 3.553093
3942.119, 3.781202
3944.047, 1.761604
3945.976, -1.815668
3947.904, 0.4145526
3949.833, -0.4919515
3951.761, -0.9431161
3953.689, 5.5752229E-02
3955.618, 1.151333
3957.546, 1.529466
3959.475, 1.241576
3961.403, 0.7587433
3963.332, 1.043080
3965.260, 0.9182328
3967.189, 1.171198
3969.117, 1.347258
3971.046, 1.427065
3972.974, 1.304832
3974.903, 0.8595082
3976.831, -0.4025372
3978.760, -0.1652960
3980.688, -0.1237151
3982.616, -0.1459267
3984.545, 0.6315706
3986.473, 0.8581120
3988.402, 0.7360442
3990.330, 0.7587033
3992.259, 1.147078
3994.187, 1.412991
3996.116, 1.587051
3998.044, 1.774868
3999.973, 3.582774
4001.901, 2.028255
4003.830, 2.246637
4005.758, 2.484004
4007.687, 0.8917723
4009.615, 0.9064026
4011.543, 0.8538837
4013.472, 1.055119
4015.400, 0.8782791
4017.329, -0.3959079
4019.257, 0.9069502
4021.186, 8.7194778E-03
4023.114, 1.641908
4025.043, 2.193563
4026.971, -1.744816
4028.900, -1.675295
4030.828, 0.7655881
4032.757, -2.268425
4034.685, -0.6570405
4036.614, 1.473486
4038.542, -0.7267666
4040.470, 3.2005161E-02
4042.399, 0.7408327
4044.327, 9.9728107E-02
4046.256, -0.6170139
4048.184, -0.6129605
4050.113, 0.2652211
4052.041, 1.108774
4053.970, 3.3029959E-02
4055.898, 0.9636440
4057.827, -0.6513032
4059.755, -0.3832216
4061.684, 0.3034797
4063.612, -0.7076737
4065.541, -0.6412627
4067.469, -1.104111
4069.397, 0.4006201
4071.326, 0.3181362
4073.254, 1.143713
4075.183, 1.159316
4077.111, 0.7114996
4079.040, 0.6362964
4080.968, 0.4441622
4082.897, 1.325396
4084.825, 0.9407147
4086.754, 1.257738
4088.682, 1.305309
4090.611, 1.040084
4092.539, 1.857017
4094.468, 2.531588
4096.396, -1.146218
4098.324, 2.668585
4100.253, -1.324966
4102.181, -1.357113
4104.110, -2.263538
4106.038, 0.3618950
4107.967, 0.3975585
4109.895, 0.2224702
4111.824, 1.231336
4113.752, 1.125197
4115.681, 1.177005
4117.609, 0.4147749
4119.538, 0.9063614
4121.466, -0.3419223
4123.395, -6.2000867E-02
4125.323, -1.208264
4127.251, -9.3959257E-02
4129.180, -0.6157058
4131.108, -0.8630812
4133.037, 0.1822777
4134.965, 0.5127112
4136.894, 4.8453561E-03
4138.822, 0.5550365
4140.750, 0.5072263
4142.679, 2.954323
4144.607, 1.810118
4146.536, 2.289576
4148.464, 1.048772
4150.393, -1.749190
4152.321, 0.2643669
4154.250, 2.137766
4156.178, 0.2140848
4158.107, -1.698117
4160.035, -0.9613855
4161.964, -0.6886129
4163.892, -1.629780
4165.821, 1.066840
4167.749, -1.515507
4169.678, -6.0514612E-03
4171.606, 1.345647
4173.535, 0.7553084
4175.463, -1.530780
4177.392, -1.504570
4179.320, -0.2529681
4181.249, 0.6826817
4183.177, 0.2676300
4185.105, 2.337066
4187.034, 3.682401
4188.962, -9.9149130E-02
4190.891, -1.648501
4192.819, 0.4215280
4194.748, 1.307754
4196.676, 0.3564633
4198.604, 0.7571303
4200.533, -4.7330461E-02
4202.461, -2.035244
4204.390, -1.308078
4206.318, -0.6230602
4208.247, -0.4538698
4210.175, 0.8410236
4212.104, 1.898392
4214.032, -2.8752631E-02
4215.961, 0.3935671
4217.889, -0.2935390
4219.818, 0.2509614
4221.746, -0.8156490
4223.675, -0.6984244
4225.603, 0.7953522
4227.532, 0.9878815
4229.460, -0.2354681
4231.389, 0.2482626
4233.317, 0.6112691
4235.246, 2.217097
4237.174, 1.916660
4239.103, 2.628611
4241.031, 3.065351
4242.959, 2.783776
4244.888, 3.190814
4246.816, 2.291353
4248.745, 1.370978
4250.673, -1.225309
4252.602, -1.137120
4254.530, 2.681354
4256.458, -6.2945977E-02
4258.387, 2.377575
4260.315, 1.059744
4262.244, -0.9283445
4264.172, 0.8082310
4266.101, 0.7102401
4268.029, 0.7857505
4269.958, 0.8386576
4271.886, 0.1118938
4273.815, 0.4653250
4275.743, -0.2050334
4277.672, -0.5418009
4279.600, -0.6959798
4281.529, -1.299896
4283.457, -0.3619513
4285.386, -0.3509563
4287.314, -1.631812
4289.243, -1.377344
4291.171, 1.663115
4293.100, 3.753631
4295.028, 1.877023
4296.957, -1.330881
4298.885, -0.8622654
4300.813, -1.929482
4302.742, 0.6174142
4304.670, 1.260710
4306.599, 0.2047143
4308.527, 1.210749
4310.456, -0.7895076
4312.384, -0.3648483
4314.313, 0.2294625
4316.241, 0.5187154
4318.169, 1.360631
4320.098, 0.1615865
4322.026, -7.8449853E-02
4323.955, -1.559205
4325.883, -1.161098
4327.812, 0.6871145
4329.740, 0.5285042
4331.669, 1.122858
4333.597, 1.117739
4335.526, 0.8507079
4337.454, 9.7369112E-02
4339.383, -0.8124410
4341.311, -1.066105
4343.240, 1.339506
4345.168, 1.616884
4347.097, -3.2605741E-02
4349.025, -1.096212
4350.954, -1.928973
4352.882, 1.691493
4354.811, -0.5715980
4356.739, 0.5489944
4358.667, 5.6569960E-02
4360.596, -6.2458911E-03
4362.524, 0.3815531
4364.453, 1.932238
4366.381, -1.040111
4368.310, 1.041017
4370.238, -0.1534855
4372.167, 0.5469016
4374.095, 2.171638
4376.023, -0.9073961
4377.952, 0.8517045
##END=



