##NAMES=Tugarinovite
##RRUFFID=R100218
##IDEAL CHEMISTRY=MoO_2_
##LOCALITY=Mining concentrate
##OWNER=RRUFF
##SOURCE=Mike Carducci, Climax Molybdenum Technology Center 
##DESCRIPTION=Black unconsolidated powder, representing a mixture with a Mo-oxide.
##STATUS=The identification of this mineral has been confirmed by X-ray diffraction
##URL=https://www.rruff.net/odr/rruff_sample/R100218
##DIFFRACTION SAMPLE DESCRIPTION=Powder
##CELL PARAMETERS=a: 5.6073 b: 4.8562 c: 5.6252 alpha: 90 beta: 120.934 gamma: 90 volume: 131.388 crystal system: monoclinic
##FILETYPE=Raman RAW
##RAMAN WAVELENGTH=780

151.4014, 81.86929
153.3298, 82.15638
155.2583, 82.82387
157.1868, 83.25311
159.1152, 83.44478
161.0437, 85.19898
162.9722, 89.50219
164.9006, 94.45314
166.8291, 100.6492
168.7576, 106.6131
170.6860, 111.1583
172.6145, 114.3401
174.5430, 116.1614
176.4714, 115.8903
178.3999, 115.1745
180.3284, 113.1933
182.2568, 111.6842
184.1853, 111.9649
186.1138, 113.6245
188.0422, 115.7009
189.9707, 119.0787
191.8992, 121.0496
193.8276, 121.4365
195.7561, 120.6061
197.6846, 118.5875
199.6130, 115.4646
201.5415, 110.8643
203.4700, 104.0279
205.3984, 98.92029
207.3269, 95.54162
209.2554, 93.65051
211.1838, 94.39449
213.1123, 95.60022
215.0408, 95.39378
216.9692, 93.85093
218.8977, 92.43420
220.8262, 91.51591
222.7546, 89.65675
224.6831, 85.78771
226.6116, 82.04786
228.5400, 79.36816
230.4685, 77.68093
232.3970, 77.10194
234.3254, 77.95795
236.2539, 78.06291
238.1824, 76.99939
240.1108, 75.96756
242.0393, 75.53495
243.9678, 75.27538
245.8962, 74.69854
247.8247, 73.91624
249.7532, 73.90674
251.6816, 74.83622
253.6101, 75.45010
255.5386, 75.24277
257.4670, 74.94804
259.3955, 74.95518
261.3240, 75.06379
263.2524, 74.93891
265.1809, 74.59297
267.1094, 74.18295
269.0378, 73.64202
270.9663, 73.27381
272.8948, 73.23311
274.8232, 73.32616
276.7517, 73.58694
278.6802, 73.86184
280.6086, 73.61338
282.5371, 72.84382
284.4656, 72.64721
286.3940, 73.71540
288.3225, 74.47873
290.2510, 74.28455
292.1794, 73.81503
294.1079, 73.62313
296.0364, 73.64040
297.9648, 73.53108
299.8933, 73.15723
301.8218, 73.62978
303.7502, 75.65440
305.6787, 77.91600
307.6072, 79.91296
309.5356, 82.10323
311.4641, 85.25726
313.3926, 88.96532
315.3210, 92.01637
317.2495, 94.03173
319.1780, 96.48226
321.1064, 99.39396
323.0349, 102.8902
324.9634, 107.8656
326.8918, 112.7794
328.8203, 116.4674
330.7488, 118.8837
332.6772, 119.5714
334.6057, 117.9645
336.5342, 115.9538
338.4626, 113.1218
340.3911, 110.6292
342.3196, 109.1674
344.2480, 107.9651
346.1765, 106.6416
348.1050, 105.0536
350.0334, 102.5151
351.9619, 99.00059
353.8904, 94.41098
355.8188, 87.65464
357.7473, 81.61121
359.6758, 77.40343
361.6042, 74.05230
363.5327, 70.64381
365.4612, 68.46252
367.3896, 65.56213
369.3181, 65.28940
371.2466, 64.81231
373.1750, 64.11553
375.1035, 63.23469
377.0320, 61.87664
378.9604, 60.72308
380.8889, 60.25292
382.8174, 60.20439
384.7458, 60.12571
386.6743, 60.01458
388.6028, 60.06547
390.5313, 60.36307
392.4597, 60.47818
394.3882, 60.26737
396.3167, 59.93422
398.2451, 59.35354
400.1736, 58.88663
402.1021, 59.16246
404.0305, 58.65806
405.9590, 59.78680
407.8875, 58.61800
409.8159, 58.14428
411.7444, 58.85592
413.6729, 59.63410
415.6013, 60.15615
417.5298, 60.53908
419.4583, 60.66167
421.3867, 60.76992
423.3152, 61.30545
425.2437, 62.24676
427.1721, 63.56306
429.1006, 65.35136
431.0291, 66.96153
432.9575, 68.26498
434.8860, 69.31758
436.8145, 70.41753
438.7429, 71.01972
440.6714, 70.16991
442.5999, 68.61774
444.5283, 68.11293
446.4568, 68.56644
448.3853, 68.93724
450.3137, 69.18802
452.2422, 69.13561
454.1707, 68.35912
456.0991, 67.80587
458.0276, 68.12598
459.9561, 68.57823
461.8845, 68.34574
463.8130, 67.73627
465.7415, 67.40495
467.6699, 67.37334
469.5984, 67.07884
471.5269, 66.29276
473.4553, 65.58851
475.3838, 65.04276
477.3123, 64.55523
479.2407, 64.07342
481.1692, 63.64283
483.0977, 63.49904
485.0261, 63.35936
486.9546, 62.61794
488.8831, 61.23432
490.8115, 59.74878
492.7400, 57.92922
494.6685, 56.42047
496.5969, 55.29106
498.5254, 54.37823
500.4539, 53.56718
502.3823, 53.02865
504.3108, 52.84657
506.2393, 53.01950
508.1677, 53.64965
510.0962, 54.71058
512.0247, 55.72468
513.9531, 56.80481
515.8816, 57.41111
517.8101, 57.18010
519.7385, 57.31723
521.6670, 58.19448
523.5955, 59.46791
525.5239, 61.28732
527.4524, 63.09756
529.3809, 64.35706
531.3093, 65.16940
533.2378, 65.65149
535.1663, 65.74124
537.0947, 66.92903
539.0232, 69.51218
540.9517, 71.54501
542.8801, 72.36172
544.8086, 73.34071
546.7371, 75.64200
548.6655, 77.56351
550.5940, 78.16757
552.5225, 77.90068
554.4509, 76.99726
556.3794, 75.70821
558.3079, 75.19313
560.2363, 75.36035
562.1648, 74.65709
564.0933, 72.79317
566.0217, 71.17591
567.9502, 70.29134
569.8787, 69.33488
571.8071, 68.10432
573.7356, 66.69324
575.6641, 64.98228
577.5925, 63.25805
579.5210, 61.90356
581.4495, 60.79150
583.3779, 59.51332
585.3064, 58.12939
587.2349, 57.18624
589.1633, 56.82513
591.0918, 56.20908
593.0203, 54.83122
594.9487, 53.88745
596.8772, 53.92192
598.8057, 53.99417
600.7341, 53.45378
602.6626, 53.01720
604.5911, 53.49704
606.5195, 54.37861
608.4480, 54.99413
610.3765, 55.32416
612.3049, 55.21246
614.2334, 54.60962
616.1619, 54.19266
618.0903, 53.97848
620.0188, 54.02592
621.9473, 54.51873
623.8757, 54.97715
625.8042, 55.13017
627.7327, 55.42451
629.6611, 56.43697
631.5896, 57.35666
633.5181, 57.25889
635.4465, 56.74635
637.3750, 56.87796
639.3035, 56.81102
641.2319, 56.76410
643.1604, 57.14275
645.0889, 57.05146
647.0173, 57.52859
648.9458, 58.01444
650.8743, 58.49237
652.8027, 58.97221
654.7312, 59.58901
656.6597, 59.96405
658.5881, 59.47525
660.5166, 59.20543
662.4451, 60.03527
664.3735, 61.36518
666.3020, 62.47517
668.2305, 63.48831
670.1589, 64.85476
672.0874, 66.53667
674.0159, 67.60462
675.9443, 67.95590
677.8728, 68.98185
679.8013, 70.86295
681.7297, 72.79153
683.6582, 74.47735
685.5867, 76.59141
687.5151, 79.40720
689.4436, 82.61766
691.3721, 85.99349
693.3005, 89.79026
695.2290, 94.48901
697.1575, 99.45152
699.0859, 103.7706
701.0144, 107.8604
702.9429, 113.0247
704.8713, 118.8058
706.7998, 123.0632
708.7283, 125.8335
710.6567, 127.5040
712.5852, 128.0346
714.5137, 128.2040
716.4421, 128.1633
718.3706, 127.6525
720.2991, 127.0426
722.2275, 125.2242
724.1560, 121.3182
726.0845, 117.0172
728.0129, 113.1352
729.9414, 109.0930
731.8699, 104.0864
733.7983, 98.98315
735.7268, 94.73476
737.6553, 91.14217
739.5837, 88.01496
741.5122, 85.17886
743.4407, 81.98387
745.3691, 78.51472
747.2976, 75.75031
749.2261, 73.78056
751.1545, 72.19001
753.0830, 71.09135
755.0115, 70.02271
756.9399, 69.11729
758.8684, 67.95455
760.7969, 65.96123
762.7253, 64.51740
764.6538, 64.36245
766.5823, 64.38094
768.5107, 64.08179
770.4392, 63.73176
772.3677, 63.48377
774.2961, 63.30499
776.2246, 63.37185
778.1531, 63.32716
780.0815, 62.15724
782.0100, 62.68958
783.9385, 63.02681
785.8669, 63.15195
787.7954, 64.53486
789.7239, 65.20983
791.6523, 65.83138
793.5808, 66.50026
795.5093, 66.47768
797.4377, 65.50138
799.3662, 65.05581
801.2947, 65.46014
803.2231, 65.72398
805.1516, 65.69317
807.0801, 65.36169
809.0085, 64.55288
810.9370, 63.82131
812.8655, 63.37481
814.7939, 63.10591
816.7224, 63.31601
818.6509, 63.23972
820.5793, 61.97249
822.5078, 60.64204
824.4363, 60.50018
826.3647, 60.71187
828.2932, 60.13667
830.2217, 59.18163
832.1501, 58.45231
834.0786, 58.00927
836.0071, 58.26319
837.9355, 57.82023
839.8640, 58.79106
841.7925, 57.94960
843.7209, 57.92040
845.6494, 58.65095
847.5779, 58.20995
849.5063, 56.38686
851.4348, 55.31508
853.3633, 55.35470
855.2917, 55.34479
857.2202, 55.07067
859.1487, 54.91044
861.0771, 54.93813
863.0056, 55.06120
864.9341, 55.27542
866.8625, 55.56238
868.7910, 56.17904
870.7195, 56.46581
872.6479, 55.95375
874.5764, 55.42104
876.5049, 55.39822
878.4333, 55.22961
880.3618, 54.55058
882.2903, 53.55201
884.2188, 51.98759
886.1472, 50.58558
888.0757, 50.12599
890.0042, 50.04597
891.9326, 49.77077
893.8611, 49.50013
895.7896, 49.65285
897.7180, 49.86661
899.6465, 49.54023
901.5750, 48.78561
903.5034, 47.61299
905.4319, 46.29369
907.3604, 45.83866
909.2888, 46.10038
911.2173, 46.36816
913.1458, 46.60474
915.0742, 46.28501
917.0027, 45.40741
918.9312, 44.53325
920.8596, 43.62652
922.7881, 43.31005
924.7166, 43.78264
926.6450, 43.29747
928.5735, 43.08162
930.5020, 42.98086
932.4304, 42.08551
934.3589, 42.34110
936.2874, 41.45382
938.2158, 40.87556
940.1443, 40.80476
942.0728, 40.99215
944.0012, 41.55353
945.9297, 41.51952
947.8582, 40.53640
949.7866, 39.62354
951.7151, 38.91214
953.6436, 38.68372
955.5720, 39.28241
957.5005, 39.55141
959.4290, 38.80219
961.3574, 38.57849
963.2859, 39.86281
965.2144, 40.69004
967.1428, 40.05692
969.0713, 39.56460
970.9998, 39.85602
972.9282, 40.08047
974.8567, 39.81170
976.7852, 39.65224
978.7136, 39.87640
980.6421, 40.18835
982.5706, 40.62206
984.4990, 40.87391
986.4275, 40.80058
988.3560, 40.50568
990.2844, 39.94695
992.2129, 39.32019
994.1414, 38.48371
996.0698, 37.96088
997.9983, 38.38256
999.9268, 38.79000
1001.855, 38.67391
1003.784, 38.19840
1005.712, 37.06959
1007.641, 36.14271
1009.569, 36.21236
1011.498, 36.44316
1013.426, 36.10077
1015.354, 35.88120
1017.283, 36.71122
1019.211, 37.32821
1021.140, 36.52590
1023.068, 35.51028
1024.997, 35.02415
1026.925, 34.87684
1028.854, 35.27623
1030.782, 35.48787
1032.711, 34.34840
1034.639, 33.60625
1036.568, 35.30742
1038.496, 36.96486
1040.425, 36.70191
1042.353, 35.74702
1044.281, 34.35006
1046.210, 33.38798
1048.138, 33.79672
1050.067, 34.44529
1051.995, 34.57522
1053.924, 34.63961
1055.852, 35.15791
1057.781, 35.43644
1059.709, 34.86335
1061.638, 34.10241
1063.566, 33.44468
1065.495, 32.92280
1067.423, 32.66833
1069.352, 32.40803
1071.280, 31.76713
1073.208, 31.37207
1075.137, 31.92640
1077.065, 32.31299
1078.994, 31.71971
1080.922, 31.12911
1082.851, 31.09298
1084.779, 31.06839
1086.708, 30.88577
1088.636, 30.54573
1090.565, 29.70496
1092.493, 29.24773
1094.422, 29.81962
1096.350, 30.33252
1098.279, 30.58106
1100.207, 30.44675
1102.135, 29.36795
1104.064, 28.78821
1105.992, 29.37938
1107.921, 29.98426
1109.849, 30.62287
1111.778, 30.77715
1113.706, 30.01310
1115.635, 29.38681
1117.563, 29.00022
1119.492, 28.83538
1121.420, 29.08933
1123.349, 29.14086
1125.277, 28.80205
1127.206, 28.59752
1129.134, 28.55387
1131.063, 28.67739
1132.991, 28.44626
1134.919, 28.40809
1136.848, 28.08775
1138.776, 28.10344
1140.705, 27.76638
1142.633, 27.51904
1144.562, 27.91106
1146.490, 27.62447
1148.419, 28.79230
1150.347, 29.44513
1152.276, 29.59919
1154.204, 29.27658
1156.133, 28.62633
1158.061, 28.76451
1159.990, 28.37655
1161.918, 28.12317
1163.846, 28.13708
1165.775, 27.84026
1167.703, 27.93473
1169.632, 28.22085
1171.560, 28.48429
1173.489, 28.26045
1175.417, 27.94333
1177.346, 28.00108
1179.274, 28.25124
1181.203, 28.92438
1183.131, 29.17704
1185.060, 27.84977
1186.988, 26.53402
1188.917, 26.16816
1190.845, 26.18089
1192.773, 26.41562
1194.702, 26.79022
1196.630, 27.42097
1198.559, 27.90061
1200.487, 28.11528
1202.416, 28.16029
1204.344, 28.00214
1206.273, 27.86897
1208.201, 27.81109
1210.130, 27.71803
1212.058, 27.57048
1213.987, 27.45214
1215.915, 27.37268
1217.844, 27.22064
1219.772, 27.00900
1221.700, 27.09408
1223.629, 27.38758
1225.557, 27.25722
1227.486, 26.81274
1229.414, 26.29715
1231.343, 25.95725
1233.271, 26.57341
1235.200, 27.54939
1237.128, 28.15093
1239.057, 28.31985
1240.985, 27.49755
1242.914, 26.82566
1244.842, 27.67300
1246.771, 28.57412
1248.699, 28.38714
1250.627, 28.20266
1252.556, 28.87473
1254.484, 29.09016
1256.413, 27.92117
1258.341, 27.26870
1260.270, 27.83489
1262.198, 28.26076
1264.127, 28.44468
1266.055, 28.17134
1267.984, 28.59711
1269.912, 28.64483
1271.841, 28.60527
1273.769, 28.76305
1275.698, 27.89601
1277.626, 27.28501
1279.554, 26.97643
1281.483, 27.36499
1283.411, 27.97361
1285.340, 27.62198
1287.268, 27.24185
1289.197, 28.48287
1291.125, 29.57682
1293.054, 28.40275
1294.982, 27.64998
1296.911, 29.27181
1298.839, 30.33684
1300.768, 29.73502
1302.696, 28.71534
1304.625, 27.35340
1306.553, 26.80206
1308.481, 27.30648
1310.410, 27.87598
1312.338, 28.40307
1314.267, 28.89379
1316.195, 29.26819
1318.124, 28.76984
1320.052, 28.94022
1321.981, 27.95214
1323.909, 28.50784
1325.838, 28.35407
1327.766, 28.14740
1329.695, 28.87558
1331.623, 29.53390
1333.552, 29.10645
1335.480, 28.81804
1337.408, 29.58350
1339.337, 29.98092
1341.265, 29.44001
1343.194, 28.90217
1345.122, 28.34044
1347.051, 28.32460
1348.979, 28.03244
1350.908, 28.86652
1352.836, 28.29713
1354.765, 28.84779
1356.693, 29.87277
1358.622, 29.34467
1360.550, 28.32207
1362.479, 28.24562
1364.407, 28.47825
1366.335, 28.55915
1368.264, 28.64862
1370.192, 28.72094
1372.121, 29.10568
1374.049, 29.07304
1375.978, 28.84080
1377.906, 29.15439
1379.835, 28.28872
1381.763, 28.15114
1383.692, 28.25621
1385.620, 28.59638
1387.549, 29.34274
1389.477, 30.11784
1391.406, 29.75577
1393.334, 29.13288
1395.262, 29.41850
1397.191, 29.82591
1399.119, 29.98705
1401.048, 29.76733
1402.976, 29.97776
1404.905, 29.93343
1406.833, 29.72232
1408.762, 30.08527
1410.690, 30.23812
1412.619, 29.77389
1414.547, 30.89506
1416.476, 31.54844
1418.404, 31.78519
1420.333, 31.51508
1422.261, 31.13910
1424.189, 31.11277
1426.118, 31.24410
1428.046, 31.83194
1429.975, 31.72461
1431.903, 30.00365
1433.832, 29.17942
1435.760, 29.73088
1437.689, 30.24145
1439.617, 30.54384
1441.546, 29.76796
1443.474, 28.39406
1445.403, 27.98019
1447.331, 28.18717
1449.260, 28.72298
1451.188, 29.33606
1453.116, 30.09810
1455.045, 30.38048
1456.973, 29.40896
1458.902, 28.89371
1460.830, 29.47043
1462.759, 29.48211
1464.687, 28.83156
1466.616, 28.79185
1468.544, 29.21126
1470.473, 29.52385
1472.401, 29.59731
1474.330, 29.01789
1476.258, 28.41038
1478.187, 28.23071
1480.115, 28.15625
1482.043, 28.20681
1483.972, 28.16595
1485.900, 28.25315
1487.829, 28.28550
1489.757, 28.53777
1491.686, 28.67950
1493.614, 27.73651
1495.543, 27.54567
1497.471, 27.69990
1499.400, 27.85030
1501.328, 27.90114
1503.257, 27.70310
1505.185, 27.72696
1507.114, 27.64894
1509.042, 27.57697
1510.970, 27.65185
1512.899, 27.58367
1514.827, 27.86365
1516.756, 28.11379
1518.684, 27.98550
1520.613, 26.09696
1522.541, 24.83191
1524.470, 27.12852
1526.398, 28.07092
1528.327, 25.80506
1530.255, 25.06537
1532.184, 26.39354
1534.112, 26.91839
1536.041, 26.84175
1537.969, 28.02744
1539.897, 27.61225
1541.826, 28.48608
1543.754, 27.27788
1545.683, 26.26847
1547.611, 26.13602
1549.540, 27.55579
1551.468, 28.31614
1553.397, 28.25951
1555.325, 28.00978
1557.254, 27.77116
1559.182, 28.50366
1561.111, 27.88932
1563.039, 28.30054
1564.968, 27.29037
1566.896, 27.00545
1568.824, 26.70432
1570.753, 26.00022
1572.681, 25.87911
1574.610, 26.32816
1576.538, 26.74626
1578.467, 26.96116
1580.395, 26.09928
1582.324, 25.49666
1584.252, 26.54803
1586.181, 27.44114
1588.109, 27.47854
1590.038, 27.17683
1591.966, 26.51134
1593.895, 26.44294
1595.823, 26.86697
1597.751, 27.80819
1599.680, 28.42206
1601.608, 26.91952
1603.537, 25.90012
1605.465, 26.78461
1607.394, 27.27156
1609.322, 26.84333
1611.251, 26.64179
1613.179, 26.67074
1615.108, 26.43159
1617.036, 26.15055
1618.965, 26.19099
1620.893, 26.34686
1622.822, 26.58059
1624.750, 26.70216
1626.678, 26.68925
1628.607, 26.13943
1630.535, 25.26041
1632.464, 25.65864
1634.392, 26.41027
1636.321, 25.70463
1638.249, 25.15709
1640.178, 26.21776
1642.106, 26.93120
1644.035, 26.92417
1645.963, 26.98412
1647.892, 27.04850
1649.820, 26.12022
1651.749, 25.18540
1653.677, 26.12767
1655.605, 26.89598
1657.534, 25.90728
1659.462, 25.13822
1661.391, 24.87387
1663.319, 25.03294
1665.248, 25.51544
1667.176, 25.86935
1669.105, 26.20853
1671.033, 26.94913
1672.962, 27.19094
1674.890, 26.26609
1676.819, 25.32218
1678.747, 24.41524
1680.676, 24.36911
1682.604, 24.99500
1684.532, 26.13114
1686.461, 27.00990
1688.389, 27.01018
1690.318, 26.64526
1692.246, 25.99482
1694.175, 25.40611
1696.103, 24.94803
1698.032, 25.28177
1699.960, 25.06957
1701.889, 25.68665
1703.817, 25.51708
1705.746, 25.70771
1707.674, 26.22676
1709.603, 27.08448
1711.531, 26.78356
1713.459, 27.17070
1715.388, 26.41733
1717.316, 27.05945
1719.245, 26.27629
1721.173, 25.86511
1723.102, 26.36945
1725.030, 25.88306
1726.959, 24.54278
1728.887, 23.95179
1730.816, 23.96829
1732.744, 24.85063
1734.673, 25.35870
1736.601, 24.48807
1738.530, 25.08578
1740.458, 24.84716
1742.386, 26.54807
1744.315, 24.91353
1746.243, 25.63965
1748.172, 26.20300
1750.100, 24.38715
1752.029, 23.40628
1753.957, 23.68943
1755.886, 24.08279
1757.814, 24.35895
1759.743, 23.80626
1761.671, 23.31465
1763.600, 23.74799
1765.528, 23.94157
1767.457, 23.41168
1769.385, 24.03501
1771.313, 25.29633
1773.242, 25.38499
1775.170, 24.95272
1777.099, 24.18713
1779.027, 23.96923
1780.956, 23.90913
1782.884, 23.80463
1784.813, 24.23792
1786.741, 24.27377
1788.670, 24.61783
1790.598, 24.80192
1792.527, 25.47683
1794.455, 25.14547
1796.384, 25.09712
1798.312, 25.19503
1800.240, 24.75406
1802.169, 24.16690
1804.097, 23.70030
1806.026, 23.36319
1807.954, 23.15873
1809.883, 23.07538
1811.811, 23.11615
1813.740, 23.66031
1815.668, 23.76009
1817.597, 22.01279
1819.525, 21.30415
1821.454, 22.07263
1823.382, 23.82264
1825.311, 25.38526
1827.239, 23.52103
1829.167, 21.67804
1831.096, 22.59871
1833.024, 23.21744
1834.953, 23.24454
1836.881, 22.58798
1838.810, 21.80238
1840.738, 21.88271
1842.667, 21.98662
1844.595, 21.59025
1846.524, 21.31858
1848.452, 21.22542
1850.381, 21.86378
1852.309, 22.32827
1854.238, 21.08539
1856.166, 20.37690
1858.094, 21.36676
1860.023, 21.72240
1861.951, 21.67155
1863.880, 22.23367
1865.808, 22.85633
1867.737, 23.20928
1869.665, 23.34346
1871.594, 23.28465
1873.522, 22.34735
1875.451, 21.34616
1877.379, 22.36434
1879.308, 23.10161
1881.236, 22.54140
1883.165, 21.78109
1885.093, 21.05503
1887.021, 21.36433
1888.950, 21.65902
1890.878, 20.62977
1892.807, 20.08378
1894.735, 20.45939
1896.664, 20.64912
1898.592, 20.72546
1900.521, 21.15386
1902.449, 21.16197
1904.378, 20.08182
1906.306, 21.04211
1908.235, 20.60361
1910.163, 20.14247
1912.092, 20.72509
1914.020, 19.76893
1915.948, 19.85616
1917.877, 20.96659
1919.805, 21.11921
1921.734, 20.84473
1923.662, 21.52341
1925.591, 21.94935
1927.519, 21.44592
1929.448, 20.97034
1931.376, 20.65454
1933.305, 20.94275
1935.233, 21.21194
1937.162, 20.84405
1939.090, 20.51709
1941.019, 20.32650
1942.947, 20.77821
1944.875, 21.45060
1946.804, 21.95074
1948.732, 22.10180
1950.661, 21.74151
1952.589, 21.42506
1954.518, 21.13535
1956.446, 20.92113
1958.375, 20.48868
1960.303, 19.39906
1962.232, 19.67119
1964.160, 20.81113
1966.089, 19.14307
1968.017, 17.76047
1969.946, 19.03619
1971.874, 19.77122
1973.802, 19.52470
1975.731, 19.91763
1977.659, 20.36320
1979.588, 20.15748
1981.516, 20.10176
1983.445, 20.35153
1985.373, 19.69143
1987.302, 18.81820
1989.230, 18.86194
1991.159, 19.29094
1993.087, 19.98416
1995.016, 20.14075
1996.944, 19.87434
1998.873, 19.26295
2000.801, 18.82761
2002.729, 18.73040
2004.658, 19.23826
2006.586, 19.86818
2008.515, 19.02896
2010.443, 18.32836
2012.372, 18.71968
2014.300, 19.08765
2016.229, 19.29884
2018.157, 19.12794
2020.086, 18.91983
2022.014, 18.76532
2023.943, 19.23847
2025.871, 20.09455
2027.800, 19.95703
2029.728, 19.54358
2031.656, 19.44088
2033.585, 18.86379
2035.513, 17.92034
2037.442, 17.83746
2039.370, 18.29148
2041.299, 19.54864
2043.227, 19.52896
2045.156, 18.29121
2047.084, 17.73638
2049.013, 17.58999
2050.941, 17.62324
2052.870, 18.25227
2054.798, 19.26728
2056.727, 17.90508
2058.655, 16.90010
2060.583, 18.57396
2062.512, 19.11590
2064.440, 18.22012
2066.369, 17.96037
2068.297, 17.79984
2070.226, 17.21667
2072.154, 17.53732
2074.083, 18.61211
2076.011, 18.66802
2077.940, 18.13293
2079.868, 17.23264
2081.797, 16.08033
2083.725, 15.02590
2085.654, 16.26061
2087.582, 16.11205
2089.510, 16.93787
2091.439, 16.73266
2093.367, 18.14050
2095.296, 16.98822
2097.224, 15.59019
2099.153, 17.51366
2101.081, 18.73996
2103.010, 18.86874
2104.938, 17.09352
2106.867, 15.89431
2108.795, 16.42398
2110.724, 16.93066
2112.652, 17.19392
2114.581, 16.88674
2116.509, 16.49554
2118.438, 16.12374
2120.366, 16.32881
2122.294, 16.68931
2124.223, 16.70773
2126.151, 16.52613
2128.080, 16.18735
2130.008, 16.59737
2131.937, 16.92905
2133.865, 16.25393
2135.794, 16.29155
2137.722, 17.03374
2139.651, 16.75591
2141.579, 16.54949
2143.508, 17.24500
2145.436, 16.52047
2147.365, 16.65816
2149.293, 15.99918
2151.221, 16.48879
2153.150, 15.49131
2155.078, 15.64863
2157.007, 16.28567
2158.935, 15.87127
2160.864, 15.88477
2162.792, 16.52432
2164.721, 15.84799
2166.649, 15.31804
2168.578, 16.71823
2170.506, 18.11374
2172.435, 18.84656
2174.363, 18.72768
2176.292, 18.43526
2178.220, 17.22198
2180.148, 16.97519
2182.077, 15.41125
2184.005, 15.60743
2185.934, 16.34514
2187.862, 17.24454
2189.791, 15.46983
2191.719, 13.46419
2193.648, 13.99653
2195.576, 15.29586
2197.505, 16.68553
2199.433, 15.38834
2201.362, 14.00587
2203.290, 14.20894
2205.219, 14.40680
2207.147, 14.51891
2209.075, 14.57122
2211.004, 14.07397
2212.932, 12.89348
2214.861, 12.71259
2216.789, 13.37718
2218.718, 15.09707
2220.646, 15.51776
2222.575, 14.88055
2224.503, 14.48848
2226.432, 14.25152
2228.360, 14.14836
2230.289, 13.57879
2232.217, 13.68280
2234.146, 14.04454
2236.074, 17.07304
2238.002, 15.04127
2239.931, 15.67717
2241.859, 15.85943
2243.788, 14.07819
2245.716, 13.95076
2247.645, 14.62463
2249.573, 14.51050
2251.502, 14.26549
2253.430, 14.07588
2255.359, 14.45634
2257.287, 14.71204
2259.216, 14.36647
2261.144, 14.24047
2263.073, 14.54358
2265.001, 15.85084
2266.929, 16.84487
2268.858, 17.20464
2270.786, 15.90414
2272.715, 14.72376
2274.643, 14.82179
2276.572, 16.14963
2278.500, 17.26300
2280.429, 15.29227
2282.357, 14.12492
2284.286, 14.36239
2286.214, 15.34468
2288.143, 15.98032
2290.071, 15.60333
2292.000, 14.21509
2293.928, 12.95508
2295.856, 13.47787
2297.785, 14.39638
2299.713, 15.28500
2301.642, 15.22703
2303.570, 14.77179
2305.499, 14.10227
2307.427, 14.61689
2309.356, 15.21994
2311.284, 14.67183
2313.213, 13.65029
2315.141, 12.79505
2317.070, 14.50137
2318.998, 15.17067
2320.927, 13.87770
2322.855, 13.16461
2324.783, 13.17283
2326.712, 14.13629
2328.640, 13.61319
2330.569, 12.70023
2332.497, 14.49837
2334.426, 14.73352
2336.354, 13.25274
2338.283, 13.21235
2340.211, 13.49861
2342.140, 13.58111
2344.068, 13.69380
2345.997, 13.77914
2347.925, 13.55920
2349.854, 14.30030
2351.782, 15.21910
2353.710, 13.88276
2355.639, 13.38640
2357.567, 14.20536
2359.496, 13.64458
2361.424, 12.77344
2363.353, 11.80077
2365.281, 13.37139
2367.210, 14.90036
2369.138, 13.11059
2371.067, 13.09465
2372.995, 14.21054
2374.924, 13.23083
2376.852, 13.42418
2378.781, 15.12178
2380.709, 12.82690
2382.637, 11.18705
2384.566, 12.46174
2386.494, 12.27835
2388.423, 11.72707
2390.351, 11.87125
2392.280, 12.85772
2394.208, 13.63549
2396.137, 13.66164
2398.065, 13.85872
2399.994, 13.39282
2401.922, 13.04772
2403.851, 11.83627
2405.779, 12.10467
2407.708, 11.41765
2409.636, 12.31453
2411.564, 11.92560
2413.493, 12.16001
2415.421, 12.75253
2417.350, 12.18882
2419.278, 12.98205
2421.207, 11.54758
2423.135, 11.86650
2425.064, 11.61647
2426.992, 10.86861
2428.921, 11.97217
2430.849, 12.65979
2432.778, 12.21845
2434.706, 11.13822
2436.635, 10.57431
2438.563, 11.42879
2440.491, 12.52413
2442.420, 13.32557
2444.348, 13.46759
2446.277, 12.01991
2448.205, 10.44736
2450.134, 11.04548
2452.062, 11.73635
2453.991, 12.14128
2455.919, 12.12374
2457.848, 11.73069
2459.776, 11.07247
2461.705, 10.70870
2463.633, 10.28165
2465.562, 9.798291
2467.490, 10.04217
2469.418, 12.26961
2471.347, 10.72630
2473.275, 11.21315
2475.204, 11.80848
2477.132, 10.84978
2479.061, 11.23193
2480.989, 11.93971
2482.918, 11.56543
2484.846, 10.83789
2486.775, 10.40224
2488.703, 11.69420
2490.632, 12.08110
2492.560, 11.65662
2494.489, 11.38278
2496.417, 11.56891
2498.345, 11.86195
2500.274, 10.38423
2502.202, 9.940013
2504.131, 10.98687
2506.059, 12.36625
2507.988, 12.55999
2509.916, 11.04553
2511.845, 10.40124
2513.773, 10.11647
2515.702, 9.962780
2517.630, 9.906031
2519.559, 9.783565
2521.487, 9.413622
2523.416, 9.598895
2525.344, 10.18531
2527.272, 11.16597
2529.201, 10.40354
2531.129, 9.445526
2533.058, 9.905857
2534.986, 10.44779
2536.915, 10.75626
2538.843, 10.62622
2540.772, 10.05816
2542.700, 9.566881
2544.629, 10.00627
2546.557, 10.53633
2548.486, 10.91172
2550.414, 10.83776
2552.343, 10.37730
2554.271, 10.01684
2556.199, 11.60668
2558.128, 10.63976
2560.056, 10.82758
2561.985, 9.022089
2563.913, 10.06395
2565.842, 10.52667
2567.770, 9.796164
2569.699, 9.754680
2571.627, 10.34903
2573.556, 10.28719
2575.484, 9.595362
2577.413, 8.613111
2579.341, 8.486455
2581.270, 8.528066
2583.198, 8.579259
2585.126, 8.775235
2587.055, 9.192287
2588.983, 9.686871
2590.912, 9.132128
2592.840, 8.893050
2594.769, 9.169061
2596.697, 8.583552
2598.626, 8.700921
2600.554, 9.654605
2602.483, 9.410373
2604.411, 9.596581
2606.340, 10.36790
2608.268, 9.697590
2610.197, 9.508423
2612.125, 10.11357
2614.053, 10.26555
2615.982, 10.53915
2617.910, 10.81473
2619.839, 9.689221
2621.767, 8.759348
2623.696, 8.330349
2625.624, 7.768704
2627.553, 7.568624
2629.481, 7.887564
2631.410, 7.665823
2633.338, 9.266265
2635.267, 8.256530
2637.195, 8.192860
2639.124, 9.362991
2641.052, 10.81891
2642.980, 10.03281
2644.909, 9.313757
2646.837, 8.938207
2648.766, 8.603467
2650.694, 8.087955
2652.623, 7.903569
2654.551, 8.127891
2656.480, 9.450280
2658.408, 8.738210
2660.337, 9.625767
2662.265, 9.652192
2664.194, 8.982659
2666.122, 7.993393
2668.051, 8.211737
2669.979, 8.804651
2671.907, 8.863929
2673.836, 8.286635
2675.764, 8.167821
2677.693, 9.329347
2679.621, 8.330843
2681.550, 7.923682
2683.478, 9.699039
2685.407, 9.726155
2687.335, 8.592038
2689.264, 7.012724
2691.192, 7.776866
2693.121, 8.400249
2695.049, 8.145269
2696.978, 9.007822
2698.906, 8.652971
2700.834, 7.087216
2702.763, 6.790884
2704.691, 7.366937
2706.620, 8.187851
2708.548, 7.904531
2710.477, 7.735695
2712.405, 7.903207
2714.334, 8.678678
2716.262, 8.373055
2718.191, 7.832196
2720.119, 8.648736
2722.048, 8.064415
2723.976, 7.565507
2725.905, 9.046428
2727.833, 8.514707
2729.761, 7.483481
2731.690, 6.931959
2733.618, 7.018104
2735.547, 6.784641
2737.475, 7.339509
2739.404, 7.235792
2741.332, 7.034057
2743.261, 7.323625
2745.189, 8.600368
2747.118, 9.042560
2749.046, 8.238390
2750.975, 8.813184
2752.903, 8.578054
2754.832, 7.931732
2756.760, 8.121853
2758.688, 6.455194
2760.617, 5.407709
2762.545, 6.404062
2764.474, 6.807880
2766.402, 7.375412
2768.331, 8.164669
2770.259, 7.220877
2772.188, 6.490341
2774.116, 6.637880
2776.045, 6.106803
2777.973, 6.070332
2779.902, 6.200345
2781.830, 6.264026
2783.759, 6.996035
2785.687, 7.648848
2787.615, 7.661414
2789.544, 6.454402
2791.472, 5.733622
2793.401, 6.357154
2795.329, 5.486484
2797.258, 7.755366
2799.186, 5.338769
2801.115, 7.069995
2803.043, 7.830792
2804.972, 7.435363
2806.900, 6.824208
2808.829, 5.660346
2810.757, 4.987921
2812.686, 5.514560
2814.614, 6.559580
2816.542, 7.602502
2818.471, 8.093085
2820.399, 7.955480
2822.328, 7.977016
2824.256, 6.974138
2826.185, 7.082181
2828.113, 6.648333
2830.042, 6.232559
2831.970, 6.301075
2833.899, 4.677698
2835.827, 4.135768
2837.756, 5.634139
2839.684, 6.271286
2841.613, 7.231404
2843.541, 8.031149
2845.469, 6.703581
2847.398, 4.425954
2849.326, 2.951660
2851.255, 4.703429
2853.183, 4.959235
2855.112, 5.853484
2857.040, 6.206506
2858.969, 6.189967
2860.897, 6.216793
2862.826, 5.873036
2864.754, 5.421701
2866.683, 5.067408
2868.611, 5.502350
2870.540, 4.987084
2872.468, 5.836262
2874.396, 4.669277
2876.325, 5.136590
2878.253, 5.259064
2880.182, 6.037173
2882.110, 6.713431
2884.039, 5.725289
2885.967, 5.021842
2887.896, 4.953030
2889.824, 5.417037
2891.753, 4.506178
2893.681, 4.513497
2895.610, 5.298766
2897.538, 4.390296
2899.467, 4.312140
2901.395, 4.075860
2903.323, 2.387624
2905.252, 3.361987
2907.180, 5.093065
2909.109, 6.291000
2911.037, 4.715451
2912.966, 4.864717
2914.894, 5.751900
2916.823, 4.877195
2918.751, 4.752776
2920.680, 4.619624
2922.608, 4.316003
2924.537, 6.427768
2926.465, 6.852242
2928.394, 5.757616
2930.322, 4.391685
2932.250, 4.583680
2934.179, 5.133105
2936.107, 5.230236
2938.036, 4.446185
2939.964, 4.627789
2941.893, 5.336042
2943.821, 5.216662
2945.750, 5.756993
2947.678, 5.433627
2949.607, 4.075347
2951.535, 4.494222
2953.464, 4.362520
2955.392, 4.234828
2957.321, 4.905015
2959.249, 4.966600
2961.177, 4.936454
2963.106, 5.070516
2965.034, 4.023332
2966.963, 5.929969
2968.891, 8.139053
2970.820, 5.076373
2972.748, 3.987893
2974.677, 4.507990
2976.605, 5.759270
2978.534, 4.845372
2980.462, 5.375621
2982.391, 6.122743
2984.319, 4.936168
2986.248, 4.054586
2988.176, 4.248421
2990.104, 5.177131
2992.033, 5.139397
2993.961, 4.177965
2995.890, 3.737373
2997.818, 4.693280
2999.747, 2.618062
3001.675, 2.126208
3003.604, 3.596114
3005.532, 5.545438
3007.461, 5.982695
3009.389, 6.090619
3011.318, 6.459317
3013.246, 6.468960
3015.175, 6.380977
3017.103, 5.741988
3019.031, 4.123255
3020.960, 2.894225
3022.888, 2.938201
3024.817, 2.252944
3026.745, 3.430516
3028.674, 2.886931
3030.602, 3.509293
3032.531, 5.303891
3034.459, 2.997623
3036.388, 2.758946
3038.316, 3.911574
3040.245, 4.360896
3042.173, 4.565654
3044.102, 4.486244
3046.030, 4.105022
3047.958, 3.319018
3049.887, 2.918586
3051.815, 3.383744
3053.744, 4.500858
3055.672, 3.693872
3057.601, 3.845859
3059.529, 4.078067
3061.458, 3.328830
3063.386, 2.943492
3065.315, 2.081395
3067.243, 1.678247
3069.172, 3.443678
3071.100, 4.504752
3073.029, 3.572395
3074.957, 4.804884
3076.885, 4.686449
3078.814, 5.222583
3080.742, 4.887264
3082.671, 4.731888
3084.599, 3.958488
3086.528, 4.323287
3088.456, 4.007638
3090.385, 3.583896
3092.313, 4.076670
3094.242, 2.987691
3096.170, 4.067060
3098.099, 4.312483
3100.027, 2.874177
3101.956, 1.973477
3103.884, 1.696337
3105.813, 0.5604349
3107.741, 2.304150
3109.669, 4.182954
3111.598, 4.481116
3113.526, 1.915920
3115.455, 3.554404
3117.383, 4.331381
3119.312, 2.082559
3121.240, 2.794862
3123.169, 3.628562
3125.097, 3.861645
3127.026, 3.520342
3128.954, 4.077302
3130.883, 3.867783
3132.811, 3.909221
3134.740, 4.935914
3136.668, 3.308330
3138.596, 4.903224
3140.525, 6.486678
3142.453, 3.747819
3144.382, 3.943368
3146.310, 4.166978
3148.239, 3.779236
3150.167, 3.008470
3152.096, 3.797097
3154.024, 4.181405
3155.953, 3.665287
3157.881, 2.048086
3159.810, 1.774939
3161.738, 1.900192
3163.667, 2.332857
3165.595, 3.393114
3167.523, 5.604588
3169.452, 5.422749
3171.380, 3.213067
3173.309, 1.415510
3175.237, 2.125524
3177.166, 3.409258
3179.094, 3.842450
3181.023, 2.433310
3182.951, 3.567707
3184.880, 3.685242
3186.808, 2.968192
3188.737, 3.900816
3190.665, 3.344357
3192.594, 2.866112
3194.522, 3.164547
3196.450, 2.888314
3198.379, 2.930391
3200.307, 3.179499
3202.236, 2.910737
3204.164, 3.382845
3206.093, 3.126785
3208.021, 2.522171
3209.950, 2.402668
3211.878, 3.838094
3213.807, 1.635529
3215.735, 2.181568
3217.664, 3.593182
3219.592, 1.972881
3221.521, 1.113700
3223.449, 2.809091
3225.377, 3.785125
3227.306, 1.087599
3229.234, 0.5011147
3231.163, 2.525765
3233.091, 3.518789
3235.020, 1.781989
3236.948, 4.987007
3238.877, 3.918468
3240.805, 2.295354
3242.734, 2.689113
3244.662, 3.594924
3246.591, 2.876512
3248.519, 2.698461
3250.448, 3.267741
3252.376, 2.092590
3254.304, 3.237518
3256.233, 3.451852
3258.161, 2.293302
3260.090, 1.148501
3262.018, 1.378639
3263.947, 1.981264
3265.875, 2.970538
3267.804, 4.655948
3269.732, 2.353881
3271.661, 2.605550
3273.589, 3.205847
3275.518, 1.738565
3277.446, 1.818128
3279.375, 3.275165
3281.303, 3.289973
3283.231, 1.481309
3285.160, 1.245223
3287.088, 0.9227082
3289.017, 0.2513593
3290.945, 1.276573
3292.874, -2.7708760E-02
3294.802, 1.496975
3296.731, 1.911423
3298.659, 1.572460
3300.588, 1.956815
3302.516, 1.699781
3304.445, 1.695514
3306.373, 1.710440
3308.302, 1.558867
3310.230, 2.579261
3312.158, 2.521452
3314.087, 2.839820
3316.015, 2.887017
3317.944, 2.981258
3319.872, 2.760377
3321.801, 2.149404
3323.729, 2.460807
3325.658, 3.458890
3327.586, 1.443028
3329.515, 1.728085
3331.443, 1.259387
3333.372, 3.1034051E-02
3335.300, 2.048368
3337.229, 2.364775
3339.157, 2.751656
3341.085, 2.977921
3343.014, 3.309034
3344.942, 1.923415
3346.871, 3.875684
3348.799, 3.769557
3350.728, 3.999116
3352.656, 1.607880
3354.585, 3.460305
3356.513, 2.257968
3358.442, 0.5429491
3360.370, 1.755371
3362.299, 2.017240
3364.227, 2.309169
3366.156, 2.556214
3368.084, 2.389661
3370.012, 1.215926
3371.941, 0.4627824
3373.869, 1.882722
3375.798, 3.345857
3377.726, 2.694123
3379.655, 0.6579524
3381.583, 1.378088
3383.512, 1.936147
3385.440, 1.636698
3387.369, 1.936658
3389.297, 1.410765
3391.226, 2.122475
3393.154, 2.130610
3395.083, 0.7551335
3397.011, 0.9544458
3398.939, 1.158878
3400.868, 1.336219
3402.796, 1.701045
3404.725, 2.287461
3406.653, 2.551460
3408.582, 0.2090685
3410.510, -0.5833851
3412.439, 1.055195
3414.367, 3.091614
3416.296, 4.337488
3418.224, 1.356438
3420.153, 0.1226881
3422.081, 2.642043
3424.010, 3.381383
3425.938, 2.736945
3427.866, 2.638345
3429.795, 3.194839
3431.723, 3.859226
3433.652, 4.012239
3435.580, 2.327712
3437.509, 1.733737
3439.437, 2.429940
3441.366, 3.162101
3443.294, 1.102439
3445.223, 1.391968
3447.151, 3.589458
3449.080, 4.813897
3451.008, 2.607773
3452.937, 3.354546
3454.865, 1.947294
3456.793, 0.8653122
3458.722, 1.105496
##END=



