##NAMES=Tyrrellite
##RRUFFID=R060481
##IDEAL CHEMISTRY=Cu(Co,Ni)_2_Se_4_
##LOCALITY=Eagle Claims, near Hal Lake, Beaverlodge Lake area, Saskatchewan, Canada
##OWNER=RRUFF
##SOURCE=Michael Scott
##DESCRIPTION=Gray metallic bleb
##STATUS=The identification of this mineral is confirmed by single-crystal X-ray diffraction and chemical analysis
##URL=https://www.rruff.net/odr/rruff_sample/R060481
##MEASURED CHEMISTRY=Cu_1.00_(Co_1.37_Ni_0.63_)Se_4.00_
##DIFFRACTION SAMPLE DESCRIPTION=Single crystal, powder profile is calculated
##CELL PARAMETERS=a: 10.003 b: 10.003 c: 10.003 alpha: 90 beta: 90 gamma: 90 volume: 1000.9 crystal system: cubic
##FILETYPE=Raman Processed
##RAMAN WAVELENGTH=532

198.1804, 123.0502
200.1089, 123.3982
202.0373, 124.9036
203.9658, 127.2986
205.8943, 130.9905
207.8227, 135.9452
209.7512, 141.7171
211.6797, 149.6807
213.6081, 163.7330
215.5366, 180.1257
217.4651, 190.2881
219.3935, 194.2726
221.3220, 192.4273
223.2505, 181.9914
225.1789, 161.3487
227.1074, 142.8703
229.0359, 130.0135
230.9643, 121.5332
232.8928, 113.0068
234.8213, 103.6904
236.7497, 94.75903
238.6782, 86.56615
240.6067, 78.65711
242.5351, 72.66965
244.4636, 68.91625
246.3921, 67.28244
248.3205, 66.72050
250.2490, 68.16334
252.1775, 69.84415
254.1059, 70.93064
256.0344, 71.39866
257.9629, 71.24476
259.8913, 70.37489
261.8198, 68.84915
263.7483, 67.17932
265.6767, 65.17759
267.6052, 63.21930
269.5337, 61.49705
271.4621, 60.10631
273.3906, 58.85493
275.3191, 57.96461
277.2475, 57.21795
279.1760, 56.08313
281.1045, 54.28465
283.0329, 52.24982
284.9614, 50.14037
286.8899, 47.71660
288.8183, 45.63128
290.7468, 43.99384
292.6753, 42.74276
294.6037, 41.76683
296.5322, 41.24990
298.4607, 40.88430
300.3891, 40.59005
302.3176, 40.38411
304.2461, 40.18987
306.1745, 39.96593
308.1030, 39.74984
310.0315, 39.63124
311.9599, 39.74194
313.8884, 39.83995
315.8169, 39.83992
317.7453, 39.74689
319.6738, 39.59929
321.6023, 39.34129
323.5307, 39.03954
325.4592, 38.79506
327.3877, 38.68228
329.3161, 38.53997
331.2446, 38.26394
333.1731, 37.86821
335.1015, 37.58280
337.0300, 37.56115
338.9585, 37.62082
340.8869, 37.55149
342.8154, 37.21933
344.7439, 36.99936
346.6723, 37.10350
348.6008, 37.47939
350.5292, 37.69132
352.4577, 37.65466
354.3862, 37.48523
356.3146, 37.21959
358.2431, 36.81329
360.1716, 36.45086
362.1000, 36.16273
364.0285, 35.94104
365.9570, 35.81246
367.8854, 35.88108
369.8139, 35.94597
371.7424, 35.87800
373.6708, 35.66832
375.5993, 35.49175
377.5278, 35.45586
379.4562, 35.47019
381.3847, 35.36290
383.3132, 35.04818
385.2416, 34.72248
387.1701, 34.42786
389.0986, 34.16327
391.0270, 33.96592
392.9555, 33.85913
394.8840, 33.81284
396.8124, 33.81416
398.7409, 33.88467
400.6694, 33.95055
402.5978, 33.99037
404.5263, 34.00729
406.4548, 34.01226
408.3832, 34.02852
410.3117, 34.01347
412.2402, 33.92105
414.1686, 33.73028
416.0971, 33.58567
418.0256, 33.59629
419.9540, 33.65430
421.8825, 33.58943
423.8110, 33.25210
425.7394, 32.93386
427.6679, 32.67092
429.5964, 32.46995
431.5248, 32.39368
433.4533, 32.65089
435.3818, 32.90911
437.3102, 32.94345
439.2387, 32.37771
441.1672, 32.01849
443.0956, 32.02566
445.0241, 32.25153
446.9526, 32.37335
448.8810, 32.26798
450.8095, 32.16985
452.7380, 32.21283
454.6664, 32.48988
456.5949, 32.52787
458.5234, 32.05548
460.4518, 31.49084
462.3803, 31.20196
464.3088, 31.34996
466.2372, 31.46595
468.1657, 31.46219
470.0942, 31.34648
472.0226, 31.17337
473.9511, 30.83798
475.8796, 30.56921
477.8080, 30.50360
479.7365, 30.68810
481.6650, 30.78711
483.5934, 30.67650
485.5219, 30.51801
487.4504, 30.50767
489.3788, 30.67175
491.3073, 30.87496
493.2358, 31.10165
495.1642, 31.33999
497.0927, 31.53685
499.0212, 31.62942
500.9496, 31.73229
502.8781, 31.91086
504.8066, 32.16500
506.7350, 32.38683
508.6635, 32.60089
510.5920, 32.74995
512.5204, 32.78092
514.4489, 32.59573
516.3774, 32.39498
518.3058, 32.15885
520.2343, 31.91478
522.1628, 31.71476
524.0912, 31.55309
526.0197, 31.45635
527.9482, 31.45796
529.8766, 31.59241
531.8051, 31.65211
533.7336, 31.62500
535.6620, 31.53685
537.5905, 31.39154
539.5190, 31.16745
541.4474, 30.97373
543.3759, 30.83551
545.3044, 30.73462
547.2328, 30.64660
549.1613, 30.64717
551.0898, 30.56315
553.0182, 30.29211
554.9467, 29.88548
556.8752, 29.50843
558.8036, 29.17194
560.7321, 28.88389
562.6606, 28.66063
564.5891, 28.52533
566.5175, 28.38707
568.4460, 28.27089
570.3745, 28.13283
572.3029, 27.91462
574.2314, 27.50701
576.1599, 27.25149
578.0883, 27.26807
580.0168, 27.46694
581.9453, 27.60885
583.8737, 27.68497
585.8022, 27.72046
587.7307, 27.71624
589.6591, 27.67772
591.5876, 27.63328
593.5161, 27.60426
595.4445, 27.56090
597.3729, 27.47988
599.3014, 27.35809
601.2299, 27.25221
603.1583, 27.13852
605.0868, 27.06540
607.0153, 27.09085
608.9437, 27.35751
610.8722, 27.46204
612.8007, 27.13776
614.7291, 26.66746
616.6576, 26.64464
618.5861, 27.29907
620.5145, 27.91487
622.4430, 28.22776
624.3715, 28.27170
626.2999, 28.29051
628.2284, 28.29467
630.1569, 28.25669
632.0853, 28.12253
634.0138, 27.89713
635.9423, 27.74182
637.8707, 27.72762
639.7992, 27.74537
641.7277, 27.73227
643.6561, 27.69039
645.5846, 27.61715
647.5131, 27.43237
649.4415, 27.26750
651.3700, 27.31641
653.2985, 27.67002
655.2269, 27.89995
657.1554, 27.80491
659.0839, 27.52568
661.0123, 27.31705
662.9408, 27.15059
664.8693, 27.08212
666.7977, 27.19793
668.7262, 27.42926
670.6547, 27.54248
672.5831, 27.39658
674.5116, 27.31901
676.4401, 27.49131
678.3685, 27.95081
680.2970, 28.20707
682.2255, 28.17733
684.1539, 28.04763
686.0824, 27.86915
688.0109, 27.64361
689.9393, 27.49296
691.8678, 27.45596
693.7963, 27.49415
695.7247, 27.59646
697.6532, 27.85217
699.5817, 28.00874
701.5101, 28.00037
703.4386, 27.93283
705.3671, 27.92088
707.2955, 27.97776
709.2240, 28.02833
711.1525, 28.03900
713.0809, 28.03487
715.0094, 28.05185
716.9379, 28.14910
718.8663, 28.19531
720.7948, 28.14408
722.7233, 28.03365
724.6517, 27.94647
726.5802, 27.87062
728.5087, 27.84212
730.4371, 27.87238
732.3656, 27.95576
734.2941, 28.07284
736.2225, 28.29732
738.1510, 28.47540
740.0795, 28.56785
742.0079, 28.57661
743.9364, 28.49996
745.8649, 28.17023
747.7933, 27.99229
749.7218, 28.22381
751.6503, 28.92963
753.5787, 29.31307
755.5072, 29.15764
757.4357, 28.91554
759.3641, 28.76619
761.2926, 28.70443
763.2211, 28.74201
765.1495, 29.02850
767.0780, 29.26199
769.0065, 29.26700
770.9349, 28.97584
772.8634, 28.69698
774.7919, 28.31653
776.7203, 28.04132
778.6488, 28.10188
780.5773, 28.51335
782.5057, 28.81183
784.4342, 28.80923
786.3627, 28.74916
788.2911, 28.81249
790.2196, 29.06827
792.1481, 29.23872
794.0765, 29.25179
796.0050, 29.21356
797.9335, 29.23020
799.8619, 29.31738
801.7904, 29.35940
803.7189, 29.29595
805.6473, 29.21338
807.5758, 29.19368
809.5043, 29.28765
811.4327, 29.31130
813.3612, 29.20025
815.2897, 29.04137
817.2181, 28.91050
819.1466, 28.79286
821.0751, 28.74287
823.0035, 28.79193
824.9320, 28.90655
826.8605, 29.07695
828.7889, 29.36202
830.7174, 29.53924
832.6459, 29.50121
834.5743, 29.40172
836.5028, 29.40799
838.4313, 29.54198
840.3597, 29.69157
842.2882, 29.91765
844.2167, 30.09594
846.1451, 30.08243
848.0736, 29.78219
850.0021, 29.63797
851.9305, 29.88684
853.8590, 30.21735
855.7875, 30.31912
857.7159, 30.08244
859.6444, 29.89978
861.5729, 29.80784
863.5013, 29.77961
865.4298, 29.81058
867.3583, 29.91905
869.2867, 29.96830
871.2152, 29.81519
873.1437, 29.67173
875.0721, 29.72957
877.0006, 30.17311
878.9291, 30.37841
880.8575, 30.12172
882.7860, 29.78707
884.7145, 29.65115
886.6429, 29.70485
888.5714, 29.88119
890.4999, 30.27201
892.4283, 30.69540
894.3568, 31.07483
896.2853, 31.45201
898.2137, 31.60880
900.1422, 31.33883
902.0707, 31.04627
903.9991, 30.98622
905.9276, 31.14319
907.8561, 31.31052
909.7845, 31.52789
911.7130, 31.68094
913.6415, 31.67266
915.5699, 31.49281
917.4984, 31.46573
919.4269, 31.72010
921.3553, 31.99508
923.2838, 32.21851
925.2123, 32.38406
927.1407, 32.49924
929.0692, 32.57795
930.9976, 32.58282
932.9261, 32.39077
934.8546, 32.10884
936.7830, 32.06479
938.7115, 32.48910
940.6400, 32.83617
942.5684, 32.97219
944.4969, 32.94463
946.4254, 32.84371
948.3538, 32.50463
950.2823, 32.38414
952.2108, 32.79485
954.1392, 33.38280
956.0677, 33.66251
957.9962, 33.52217
959.9246, 33.44878
961.8531, 33.67223
963.7816, 33.94689
965.7100, 34.02867
967.6385, 33.77519
969.5670, 33.59694
971.4954, 33.54631
973.4239, 33.52806
975.3524, 33.43673
977.2808, 33.27530
979.2093, 33.24217
981.1378, 33.53508
983.0662, 33.77364
984.9947, 33.73015
986.9232, 33.39225
988.8516, 33.14930
990.7801, 33.03615
992.7086, 32.99030
994.6370, 33.01210
996.5655, 33.09122
998.4940, 33.17028
1000.422, 33.22514
1002.351, 33.30711
1004.279, 33.47596
1006.208, 33.66230
1008.136, 33.76253
1010.065, 33.77570
1011.993, 33.69560
1013.922, 33.39225
1015.850, 33.08428
1017.779, 33.03904
1019.707, 33.49401
1021.636, 33.73564
1023.564, 33.59680
1025.493, 33.37685
1027.421, 33.30383
1029.349, 33.35942
1031.278, 33.36230
1033.206, 33.16104
1035.135, 33.05933
1037.063, 33.25413
1038.992, 33.71400
1040.920, 34.02728
1042.849, 34.09121
1044.777, 34.12575
1046.706, 34.14687
1048.634, 34.17382
1050.563, 34.27474
1052.491, 34.52255
1054.420, 34.63412
1056.348, 34.38780
1058.276, 34.06670
1060.205, 33.94026
1062.133, 34.03717
1064.062, 34.15568
1065.990, 34.27863
1067.919, 34.40686
1069.847, 34.57458
1071.776, 34.79238
1073.704, 34.85432
1075.633, 34.56700
1077.561, 34.34740
1079.490, 34.36448
1081.418, 34.54758
1083.347, 34.72966
1085.275, 34.93465
1087.203, 35.06765
1089.132, 35.03382
1091.060, 34.95670
1092.989, 34.99047
1094.917, 35.23296
1096.846, 35.30186
1098.774, 34.95211
1100.703, 34.63067
1102.631, 34.66040
1104.560, 35.05080
1106.488, 35.28926
1108.417, 35.30698
1110.345, 35.25130
1112.273, 35.08430
1114.202, 34.90167
1116.130, 34.93166
1118.059, 35.31252
1119.987, 35.53056
1121.916, 35.33635
1123.844, 35.01077
1125.773, 34.78308
1127.701, 34.63973
1129.630, 34.65481
1131.558, 35.03762
1133.487, 35.35242
1135.415, 35.29759
1137.344, 34.94204
1139.272, 34.78129
1141.200, 34.89820
1143.129, 35.03706
1145.057, 35.09049
1146.986, 35.12023
1148.914, 35.21087
1150.843, 35.37516
1152.771, 35.54175
1154.700, 35.72980
1156.628, 35.88907
1158.557, 36.02152
1160.485, 36.13543
1162.414, 36.07002
1164.342, 35.65315
1166.271, 35.29448
1168.199, 35.07306
1170.127, 34.99640
1172.056, 35.11459
1173.984, 35.49378
1175.913, 35.75827
1177.841, 35.75769
1179.770, 35.66651
1181.698, 35.58497
1183.627, 35.51264
1185.555, 35.48959
1187.484, 35.52711
1189.412, 35.59941
1191.341, 35.71538
1193.269, 35.85359
1195.198, 35.96951
1197.126, 36.07479
1199.054, 36.13616
1200.983, 36.09621
1202.911, 36.06007
1204.840, 36.14338
1206.768, 36.32904
1208.697, 36.41939
1210.625, 36.29303
1212.554, 36.25776
1214.482, 36.57635
1216.411, 37.02476
1218.339, 37.20284
1220.268, 37.00975
1222.196, 36.88336
1224.125, 36.87360
1226.053, 36.96770
1227.981, 37.24377
1229.910, 37.70242
1231.838, 37.90937
1233.767, 37.59441
1235.695, 37.40333
1237.624, 37.56107
1239.552, 37.87742
1241.481, 38.08327
1243.409, 38.17400
1245.338, 38.23870
1247.266, 38.31473
1249.195, 38.33730
1251.123, 38.19097
1253.052, 37.96154
1254.980, 37.96063
1256.908, 38.36519
1258.837, 38.61020
1260.765, 38.37780
1262.694, 38.07439
1264.622, 38.09845
1266.551, 38.54140
1268.479, 38.77522
1270.408, 38.68283
1272.336, 38.54747
1274.265, 38.40098
1276.193, 38.28807
1278.122, 38.32312
1280.050, 38.54710
1281.979, 38.71210
1283.907, 38.72071
1285.835, 38.71267
1287.764, 38.77083
1289.692, 38.87362
1291.621, 38.94703
1293.549, 38.92432
1295.478, 39.02776
1297.406, 39.57509
1299.335, 40.09028
1301.263, 40.08604
1303.192, 39.44445
1305.120, 39.14219
1307.049, 39.44979
1308.977, 39.78766
1310.906, 40.08299
1312.834, 40.29866
1314.762, 40.33469
1316.691, 40.08054
1318.619, 40.00531
1320.548, 40.37886
1322.476, 40.66610
1324.405, 40.45293
1326.333, 39.97969
1328.262, 39.89997
1330.190, 40.35170
1332.119, 40.63340
1334.047, 40.42946
1335.976, 40.15028
1337.904, 40.06593
1339.833, 40.14412
1341.761, 40.17783
1343.689, 40.04661
1345.618, 40.10598
1347.546, 40.66115
1349.475, 41.25816
1351.403, 41.47913
1353.332, 41.28307
1355.260, 41.12202
1357.189, 40.97726
1359.117, 40.90033
1361.046, 40.89906
1362.974, 40.97383
1364.903, 41.17170
1366.831, 41.53065
1368.760, 41.67937
1370.688, 41.39201
1372.616, 41.15200
1374.545, 41.16902
1376.473, 41.32976
1378.402, 41.47879
1380.330, 41.62526
1382.259, 41.73319
1384.187, 41.84452
1386.116, 41.85981
1388.044, 41.62329
1389.973, 41.28996
1391.901, 41.17757
1393.830, 41.33233
1395.758, 41.47702
1397.687, 41.61196
1399.615, 41.67033
1401.543, 41.52137
1403.472, 41.28060
1405.400, 41.30427
1407.329, 41.88170
1409.257, 42.14257
1411.186, 41.79005
1413.114, 41.41748
1415.043, 41.34873
1416.971, 41.50374
1418.900, 41.61280
1420.828, 41.64421
1422.757, 41.70340
1424.685, 41.84568
1426.614, 41.96820
1428.542, 42.01096
1430.470, 41.98755
1432.399, 41.93433
1434.327, 41.83767
1436.256, 41.78663
1438.184, 41.87166
1440.113, 41.92883
1442.041, 41.74759
1443.970, 41.47678
1445.898, 41.52847
1447.827, 42.01036
1449.755, 42.31459
1451.684, 42.18135
1453.612, 41.98548
1455.541, 41.95512
1457.469, 42.01740
1459.397, 41.92825
1461.326, 41.61498
1463.254, 41.41220
1465.183, 41.42186
1467.111, 41.48952
1469.040, 41.57705
1470.968, 41.66704
1472.897, 41.70997
1474.825, 41.61606
1476.754, 41.66211
1478.682, 42.01028
1480.611, 42.30145
1482.539, 42.36731
1484.468, 42.28690
1486.396, 42.19506
1488.324, 42.07888
1490.253, 41.99038
1492.181, 41.85364
1494.110, 41.82528
1496.038, 42.05384
1497.967, 42.36823
1499.895, 42.52257
1501.824, 42.52308
1503.752, 42.52359
1505.681, 42.60893
1507.609, 42.58253
1509.538, 42.19520
1511.466, 41.80486
1513.395, 41.84330
1515.323, 42.23370
1517.251, 42.43577
1519.180, 42.31147
1521.108, 42.24480
1523.037, 42.45531
1524.965, 42.65608
1526.894, 42.62261
1528.822, 42.39537
1530.751, 42.12671
1532.679, 41.75489
1534.608, 41.60318
1536.536, 41.96764
1538.465, 42.34481
1540.393, 42.39330
1542.322, 42.28583
1544.250, 42.50434
1546.178, 43.16218
1548.107, 43.66809
1550.035, 43.92704
1551.964, 44.02119
1553.892, 43.87311
1555.821, 43.60881
1557.749, 43.40095
1559.678, 43.25402
1561.606, 43.14412
1563.535, 43.13196
1565.463, 43.09246
1567.392, 42.89533
1569.320, 42.76357
1571.249, 42.97192
1573.177, 43.46329
1575.105, 43.71850
1577.034, 43.56647
1578.962, 43.42640
1580.891, 43.28171
1582.819, 43.18652
1584.748, 43.15291
1586.676, 43.20383
1588.605, 43.42760
1590.533, 43.94276
1592.462, 44.20570
1594.390, 43.95000
1596.319, 43.77818
1598.247, 43.94360
1600.176, 44.20311
1602.104, 44.31086
1604.032, 44.26324
1605.961, 44.13691
1607.889, 43.84364
1609.818, 43.67665
1611.746, 43.78141
1613.675, 43.94200
1615.603, 44.11716
1617.532, 44.24213
1619.460, 44.09063
1621.389, 43.61457
1623.317, 43.45354
1625.246, 43.89442
1627.174, 44.29148
1629.103, 44.34697
1631.031, 44.29504
1632.959, 44.31215
1634.888, 44.41176
1636.816, 44.74818
1638.745, 45.47345
1640.673, 45.84589
1642.602, 45.40649
1644.530, 44.94727
1646.459, 44.98999
1648.387, 45.24187
1650.316, 45.21965
1652.244, 44.93573
1654.173, 44.79709
1656.101, 44.89334
1658.030, 45.00240
1659.958, 45.04060
1661.886, 45.06692
1663.815, 45.15493
1665.743, 45.25951
1667.672, 45.25608
1669.600, 45.13259
1671.529, 45.06327
1673.457, 45.12943
1675.386, 45.16600
1677.314, 45.02151
1679.243, 44.87849
1681.171, 44.91804
1683.100, 45.09772
1685.028, 45.25120
1686.957, 45.35578
1688.885, 45.49475
1690.813, 45.80030
1692.742, 45.96886
1694.670, 45.59181
1696.599, 45.16217
1698.527, 45.38646
1700.456, 46.14968
1702.384, 46.59135
1704.313, 46.61526
1706.241, 46.45479
1708.170, 45.97435
1710.098, 45.58715
1712.027, 45.61874
1713.955, 45.84908
1715.884, 45.97209
1717.812, 45.99873
1719.740, 46.10192
1721.669, 46.36654
1723.597, 46.46337
1725.526, 46.11006
1727.454, 45.77882
1729.383, 45.77811
1731.311, 45.97503
1733.240, 46.24567
1735.168, 46.57547
1737.097, 46.65021
1739.025, 46.33258
1740.954, 46.11016
1742.882, 46.16419
1744.811, 46.31535
1746.739, 46.51804
1748.667, 46.71392
1750.596, 46.80111
1752.524, 46.78345
1754.453, 46.75285
1756.381, 46.68884
1758.310, 46.70110
1760.238, 46.87598
1762.167, 47.06824
1764.095, 47.21613
1766.024, 47.30676
1767.952, 47.28233
1769.880, 47.15668
1771.809, 47.16040
1773.737, 47.38966
1775.666, 47.48202
1777.594, 47.21058
1779.523, 46.96065
1781.451, 46.93047
1783.380, 47.03730
1785.308, 47.23688
1787.237, 47.50001
1789.165, 47.53909
1791.094, 47.23496
1793.022, 47.08980
1794.951, 47.38579
1796.879, 47.59956
1798.807, 47.38725
1800.736, 47.10253
1802.664, 47.18322
1804.593, 47.54120
1806.521, 47.68074
1808.450, 47.49645
1810.378, 47.48137
1812.307, 47.88692
1814.235, 48.14580
1816.164, 48.00170
1818.092, 47.75414
1820.021, 47.58742
1821.949, 47.50968
1823.878, 47.56308
1825.806, 47.78314
1827.734, 47.96751
1829.663, 48.22491
1831.591, 48.29581
1833.520, 48.00299
1835.448, 47.69212
1837.377, 47.46210
1839.305, 47.36605
1841.234, 47.54771
1843.162, 47.98747
1845.091, 48.25420
1847.019, 48.28458
1848.948, 48.29387
1850.876, 48.21867
1852.805, 48.23763
1854.733, 48.54053
1856.661, 48.83083
1858.590, 48.77679
1860.518, 48.54265
1862.447, 48.66756
1864.375, 49.19751
1866.304, 49.28414
1868.232, 48.61266
1870.161, 48.21048
1872.089, 48.53235
1874.018, 48.88753
1875.946, 48.84841
1877.875, 48.72511
1879.803, 48.94454
1881.732, 49.37294
1883.660, 49.45650
1885.589, 49.13872
1887.517, 48.94575
1889.445, 48.98535
1891.374, 49.07354
1893.302, 49.25632
1895.231, 49.34820
1897.159, 49.11054
1899.088, 48.78196
1901.016, 48.76304
1902.945, 49.00182
1904.873, 49.09991
1906.802, 48.99572
1908.730, 48.96899
1910.659, 49.10461
1912.587, 49.24609
1914.516, 49.34392
1916.444, 49.44047
1918.372, 49.60136
1920.301, 49.76753
1922.229, 49.79977
1924.158, 49.69851
1926.086, 49.70800
1928.015, 49.98088
1929.943, 50.05164
1931.872, 49.73819
1933.800, 49.45979
1935.729, 49.24094
1937.657, 49.17645
1939.586, 49.48916
1941.514, 49.92774
1943.443, 50.00199
1945.371, 49.74197
1947.299, 49.62324
1949.228, 49.69061
1951.156, 49.70990
1953.085, 49.60376
1955.013, 49.53588
1956.942, 49.58398
1958.870, 49.66273
1960.799, 49.69182
1962.727, 49.73821
1964.656, 49.93817
1966.584, 50.23712
1968.513, 50.39534
1970.441, 50.39537
1972.370, 50.28123
1974.298, 49.89034
1976.226, 49.72042
1978.155, 50.13050
1980.083, 50.51122
1982.012, 50.44227
1983.940, 50.27147
1985.869, 50.46227
1987.797, 50.88009
1989.726, 51.01375
1991.654, 50.78825
1993.583, 50.70552
1995.511, 50.82975
1997.440, 50.95899
1999.368, 51.15490
2001.297, 51.24039
2003.225, 51.00616
2005.153, 50.80902
2007.082, 51.03698
2009.010, 51.41354
2010.939, 51.39552
2012.867, 51.06779
2014.796, 50.93893
2016.724, 51.05086
2018.653, 51.08424
2020.581, 50.93488
2022.510, 50.85957
2024.438, 51.00769
2026.367, 51.14413
2028.295, 51.07560
2030.224, 51.00444
2032.152, 51.19798
2034.080, 51.52390
2036.009, 51.67622
2037.937, 51.65480
2039.866, 51.50626
2041.794, 51.04842
2043.723, 50.82892
2045.651, 50.95404
2047.580, 51.15480
2049.508, 51.51507
2051.437, 51.77444
2053.365, 51.58411
2055.294, 51.41303
2057.222, 51.98905
2059.151, 52.90129
2061.079, 52.94078
2063.008, 52.20028
2064.936, 51.75165
2066.865, 51.67719
2068.793, 51.81908
2070.721, 52.34494
2072.650, 52.63583
2074.578, 52.31560
2076.507, 51.93081
2078.435, 51.57682
2080.364, 51.44412
2082.292, 51.89467
2084.220, 52.63993
2086.149, 53.10886
2088.077, 53.30057
2090.006, 53.04361
2091.934, 52.08104
2093.863, 51.56515
2095.791, 51.69167
2097.720, 51.93165
2099.648, 52.30146
2101.577, 52.57868
2103.505, 52.59627
2105.434, 52.56733
2107.362, 52.68667
2109.291, 52.83467
2111.219, 52.82098
2113.147, 52.70575
2115.076, 52.70270
2117.004, 52.82104
2118.933, 52.81554
2120.861, 52.53239
2122.790, 52.45602
2124.718, 52.80609
2126.647, 53.07178
2128.575, 53.07432
2130.504, 53.05392
2132.432, 53.19567
2134.361, 53.32582
2136.289, 53.26778
2138.218, 53.11181
2140.146, 52.96526
2142.074, 52.85836
2144.003, 52.97628
2145.931, 53.31850
2147.860, 53.54104
2149.788, 53.58733
2151.717, 53.57594
2153.645, 53.44483
2155.574, 53.41017
2157.502, 53.63122
2159.431, 53.85163
2161.359, 54.00394
2163.288, 54.04014
2165.216, 53.80745
2167.145, 53.48761
2169.073, 53.42564
2171.001, 53.57143
2172.930, 53.64942
2174.858, 53.65535
2176.787, 53.59111
2178.715, 53.42025
2180.644, 53.39611
2182.572, 53.57521
2184.501, 53.86426
2186.429, 54.46611
2188.358, 54.84200
2190.286, 54.58843
2192.215, 54.23238
2194.143, 54.15393
2196.072, 54.18514
2198.000, 54.14001
2199.928, 54.02671
2201.857, 53.80330
2203.785, 53.48663
2205.714, 53.52607
2207.642, 53.96184
2209.571, 54.24721
2211.499, 54.31405
2213.428, 54.37748
2215.356, 54.49598
2217.285, 54.57087
2219.213, 54.56443
2221.142, 54.50468
2223.070, 54.25063
2224.999, 54.11035
2226.927, 54.55035
2228.855, 55.05259
2230.784, 54.80818
2232.712, 54.16589
2234.641, 54.06341
2236.569, 54.43243
2238.498, 54.48913
2240.426, 54.21890
2242.355, 54.27031
2244.283, 54.73936
2246.212, 55.23815
2248.140, 55.84973
2250.069, 56.10247
2251.997, 55.49978
2253.926, 55.06527
2255.854, 55.34179
2257.782, 55.66252
2259.711, 55.52002
2261.639, 55.34856
2263.568, 55.76228
2265.496, 56.27390
2267.425, 55.96823
2269.353, 55.16022
2271.282, 54.74308
2273.210, 54.69813
2275.139, 54.89928
2277.067, 55.36964
2278.996, 55.53143
2280.924, 55.20742
2282.853, 54.97122
2284.781, 54.82050
2286.709, 54.84317
2288.638, 55.21164
2290.566, 55.51333
2292.495, 55.54297
2294.423, 55.58422
2296.352, 55.83126
2298.280, 56.09296
2300.209, 56.20585
2302.137, 56.26820
2304.066, 56.42794
2305.994, 56.60859
2307.923, 56.62489
2309.851, 56.50739
2311.780, 56.37743
2313.708, 56.20985
2315.636, 56.44320
2317.565, 57.11734
2319.493, 58.05302
2321.422, 59.38621
2323.350, 60.42472
2325.279, 61.19914
2327.207, 61.26862
2329.136, 60.10327
2331.064, 58.96056
2332.993, 58.24890
2334.921, 57.76562
2336.850, 57.48041
2338.778, 57.28739
2340.707, 57.09457
2342.635, 56.95797
2344.563, 57.06849
2346.492, 57.20781
2348.420, 56.86172
2350.349, 56.28010
2352.277, 56.09859
2354.206, 56.29010
2356.134, 56.69096
2358.063, 57.31706
2359.991, 57.78758
2361.920, 58.11715
2363.848, 58.19257
2365.777, 57.83753
2367.705, 57.69405
2369.634, 57.93912
2371.562, 58.09461
2373.490, 58.07121
2375.419, 57.92932
2377.347, 57.49002
2379.276, 57.24868
2381.204, 57.65574
2383.133, 58.05836
2385.061, 57.97731
2386.990, 57.77755
2388.918, 57.69843
2390.847, 57.76562
2392.775, 58.13525
2394.704, 58.59896
2396.632, 58.70981
2398.561, 58.61491
2400.489, 58.71194
2402.417, 58.96470
2404.346, 59.17430
2406.274, 59.34740
2408.203, 59.32780
2410.131, 59.00863
2412.060, 59.05373
2413.988, 59.61018
2415.917, 59.86726
2417.845, 59.69269
2419.774, 59.44291
2421.702, 59.11459
2423.631, 58.88746
2425.559, 58.86273
2427.488, 58.86143
2429.416, 58.74805
2431.344, 58.77801
2433.273, 59.20044
2435.201, 59.60190
2437.130, 59.85339
2439.058, 59.89111
2440.987, 59.41283
2442.915, 58.98097
2444.844, 59.29511
2446.772, 59.79104
2448.701, 59.69006
2450.629, 59.33691
2452.558, 59.35376
2454.486, 59.60091
2456.415, 59.69255
2458.343, 59.66370
2460.271, 59.68837
2462.200, 59.75322
2464.128, 59.80354
2466.057, 59.83604
2467.985, 59.94366
2469.914, 60.15808
2471.842, 60.29756
2473.771, 60.39278
2475.699, 60.30373
2477.628, 59.87992
2479.556, 59.94888
2481.485, 60.80755
2483.413, 61.30146
2485.342, 61.06459
2487.270, 60.78265
2489.198, 60.55644
2491.127, 60.43621
2493.055, 60.50955
2494.984, 60.58974
2496.912, 60.54565
2498.841, 60.61221
2500.769, 61.03252
2502.698, 61.35286
2504.626, 61.24735
2506.555, 61.02277
2508.483, 60.68714
2510.412, 60.55070
2512.340, 61.24163
2514.269, 61.91494
2516.197, 61.42078
2518.125, 60.62201
2520.054, 60.61432
2521.982, 61.01303
2523.911, 61.39614
2525.839, 61.68312
2527.768, 61.68982
2529.696, 61.49844
2531.625, 61.28762
2533.553, 61.09046
2535.482, 61.06234
2537.410, 61.16879
2539.339, 61.12227
2541.267, 60.98243
2543.196, 61.21520
2545.124, 61.80884
2547.052, 62.07761
2548.981, 61.96191
2550.909, 61.96695
2552.838, 62.14386
2554.766, 62.06060
2556.695, 61.68139
2558.623, 61.40777
2560.552, 61.27069
2562.480, 61.36837
2564.409, 61.83415
2566.337, 62.17002
2568.266, 62.38798
2570.194, 62.32722
2572.123, 61.78963
2574.051, 61.52787
2575.979, 61.72607
2577.908, 61.96193
2579.836, 62.16098
2581.765, 62.31404
2583.693, 62.45271
2585.622, 62.48161
2587.550, 62.16502
2589.479, 62.09256
2591.407, 62.65796
2593.336, 62.95846
2595.264, 62.49841
2597.193, 62.04766
2599.121, 61.85163
2601.050, 61.88377
2602.978, 62.30774
2604.906, 62.72072
2606.835, 63.05258
2608.763, 63.14737
2610.692, 62.61574
2612.620, 62.30041
2614.549, 63.02275
2616.477, 63.71820
2618.406, 63.53193
2620.334, 63.23721
2622.263, 63.52567
2624.191, 63.78824
2626.120, 63.33034
2628.048, 62.92001
2629.977, 63.32147
2631.905, 63.83622
2633.833, 63.70106
2635.762, 63.51474
2637.690, 64.09965
2639.619, 64.69533
2641.547, 64.34779
2643.476, 63.73714
2645.404, 63.55109
2647.333, 63.54462
2649.261, 63.47137
2651.190, 63.40501
2653.118, 63.38087
2655.047, 63.46173
2656.975, 63.81383
2658.904, 64.24586
2660.832, 64.58048
2662.760, 64.74590
2664.689, 64.54365
2666.617, 64.19984
2668.546, 64.00280
2670.474, 63.94324
2672.403, 64.10923
2674.331, 64.32636
2676.260, 64.21722
2678.188, 64.02518
2680.117, 64.12328
2682.045, 64.39367
2683.974, 64.66901
2685.902, 64.94186
2687.831, 65.20990
2689.759, 65.45438
2691.688, 65.66393
2693.616, 65.80994
2695.544, 65.88670
2697.473, 65.85275
2699.401, 65.55229
2701.330, 65.14809
2703.258, 64.92768
2705.187, 64.84190
2707.115, 64.74094
2709.044, 64.75237
2710.972, 65.21659
2712.901, 65.82447
2714.829, 66.02127
2716.758, 65.99117
2718.686, 66.07187
2720.615, 66.16553
2722.543, 65.99010
2724.471, 65.79774
2726.400, 66.15025
2728.328, 66.58672
2730.257, 66.16116
2732.185, 65.48736
2734.114, 65.61581
2736.042, 66.10564
2737.971, 66.44387
2739.899, 66.61378
2741.828, 66.49594
2743.756, 66.27969
2745.685, 66.13173
2747.613, 66.11820
2749.542, 66.51157
2751.470, 66.89597
2753.398, 66.60786
2755.327, 66.25945
2757.255, 66.70329
2759.184, 67.25515
2761.112, 67.05431
2763.041, 66.71011
2764.969, 66.92754
2766.898, 67.19768
2768.826, 67.00686
2770.755, 66.76141
2772.683, 66.78677
2774.612, 66.92757
2776.540, 67.11949
2778.469, 67.28244
2780.397, 67.39661
2782.325, 67.40211
2784.254, 67.11238
2786.182, 66.90516
2788.111, 67.13042
2790.039, 67.37308
2791.968, 67.36258
2793.896, 67.37920
2795.825, 67.62882
2797.753, 67.80755
2799.682, 67.65832
2801.610, 67.57327
2803.539, 67.74173
2805.467, 67.95233
2807.396, 68.22727
2809.324, 68.31505
2811.252, 68.01035
2813.181, 67.74129
2815.109, 67.67006
2817.038, 67.58526
2818.966, 67.31802
2820.895, 67.43454
2822.823, 68.20167
2824.752, 68.77690
2826.680, 68.99386
2828.609, 68.94507
2830.537, 68.44643
2832.466, 68.21165
2834.394, 68.31058
2836.323, 68.45545
2838.251, 68.63303
2840.179, 68.67336
2842.108, 68.49979
2844.036, 68.47217
2845.965, 68.60188
2847.893, 68.73978
2849.822, 68.88295
2851.750, 69.10213
2853.679, 69.39183
2855.607, 69.68761
2857.536, 69.96919
2859.464, 69.98078
2861.393, 69.79640
2863.321, 69.68580
2865.250, 69.66892
2867.178, 69.83419
2869.106, 70.08251
2871.035, 70.04333
2872.963, 69.95419
2874.892, 70.47255
2876.820, 71.09397
2878.749, 71.03707
2880.677, 70.74192
2882.606, 70.70576
2884.534, 70.79988
2886.463, 71.09122
2888.391, 71.20320
2890.320, 70.47555
2892.248, 69.97024
2894.177, 70.72945
2896.105, 71.48133
2898.033, 71.46249
2899.962, 71.39574
2901.890, 71.64070
2903.819, 71.73421
2905.747, 71.31477
2907.676, 71.04549
2909.604, 71.17982
2911.533, 71.15069
2913.461, 70.73068
2915.390, 70.74004
2917.318, 71.61156
2919.247, 72.10117
2921.175, 72.08168
2923.104, 71.87784
2925.032, 71.48737
2926.960, 71.64724
2928.889, 72.41245
2930.817, 72.53826
2932.746, 72.07247
2934.674, 71.98726
2936.603, 72.19129
2938.531, 72.30659
2940.460, 72.36351
2942.388, 72.47633
2944.317, 72.58355
2946.245, 72.55390
2948.174, 72.43860
2950.102, 72.19174
2952.031, 72.03943
2953.959, 72.34492
2955.887, 72.68225
2957.816, 72.78252
2959.744, 72.63357
2961.673, 71.96521
2963.601, 71.54771
2965.530, 71.95191
2967.458, 72.36115
2969.387, 72.53406
2971.315, 72.64436
2973.244, 72.73381
2975.172, 72.72308
2977.101, 72.53796
2979.029, 72.43886
2980.958, 72.43216
2982.886, 72.57435
2984.814, 72.85621
2986.743, 72.89954
2988.671, 72.71168
2990.600, 72.82112
2992.528, 73.16867
2994.457, 73.48038
2996.385, 73.71706
2998.314, 73.72798
3000.242, 73.63459
3002.171, 73.69524
3004.099, 73.69409
3006.028, 73.26003
3007.956, 72.75986
3009.885, 72.34730
3011.813, 72.16488
3013.741, 72.41151
3015.670, 72.73393
3017.598, 73.00471
3019.527, 73.29263
3021.455, 73.67086
3023.384, 73.90711
3025.312, 73.95545
3027.241, 73.78535
3029.169, 73.35285
3031.098, 73.12300
3033.026, 73.14085
3034.955, 73.51559
3036.883, 74.18289
3038.812, 74.15583
3040.740, 73.71111
3042.668, 73.98486
3044.597, 74.49901
3046.525, 74.28743
3048.454, 73.80428
3050.382, 73.55173
3052.311, 73.48598
3054.239, 73.58952
3056.168, 73.81943
3058.096, 74.24670
3060.025, 74.65063
3061.953, 75.12928
3063.882, 75.07244
3065.810, 73.95348
3067.739, 73.52112
3069.667, 74.61471
3071.595, 74.75169
3073.524, 73.85484
3075.452, 73.98447
3077.381, 75.12683
3079.309, 75.58731
3081.238, 75.49570
3083.166, 75.29888
3085.095, 75.08346
3087.023, 75.04134
3088.952, 75.05931
3090.880, 74.92399
3092.809, 74.90942
3094.737, 75.39245
3096.666, 75.81908
3098.594, 75.99107
3100.522, 75.91606
3102.451, 75.35284
3104.379, 75.01075
3106.308, 74.96681
3108.236, 75.13602
3110.165, 75.58030
3112.093, 75.62430
3114.022, 75.27477
3115.950, 75.35597
3117.879, 75.72408
3119.807, 75.87653
3121.736, 75.93848
3123.664, 76.24448
3125.593, 76.49800
3127.521, 76.24915
3129.449, 75.97232
3131.378, 76.00974
3133.306, 76.07587
3135.235, 75.99416
3137.163, 76.04530
3139.092, 76.34026
3141.020, 76.57120
3142.949, 76.67127
3144.877, 76.74497
3146.806, 76.79240
3148.734, 76.82462
3150.663, 76.84660
3152.591, 76.85387
3154.520, 76.87717
3156.448, 77.07934
3158.376, 77.22133
3160.305, 76.88802
3162.233, 76.61534
3164.162, 76.77287
3166.090, 77.15917
3168.019, 77.87660
3169.947, 78.24765
3171.876, 77.81993
3173.804, 77.67828
3175.733, 77.92902
3177.661, 77.87988
3179.590, 77.52927
3181.518, 76.98764
3183.447, 76.48170
3185.375, 76.89500
3187.303, 77.68997
3189.232, 78.14011
3191.160, 78.43923
3193.089, 78.83394
3195.017, 78.97182
3196.946, 78.54146
3198.874, 78.26204
3200.803, 78.46390
3202.731, 78.55612
3204.660, 78.44999
3206.588, 78.52848
3208.517, 78.76718
3210.445, 78.68362
3212.374, 78.43325
3214.302, 78.71249
3216.230, 79.09740
3218.159, 78.79723
3220.087, 78.49857
3222.016, 78.95799
3223.944, 79.31670
3225.873, 79.20018
3227.801, 78.97441
3229.730, 78.63880
3231.658, 78.51733
3233.587, 78.62991
3235.515, 79.09829
3237.444, 79.79375
3239.372, 79.82898
3241.301, 79.48022
3243.229, 79.27022
3245.157, 79.30159
3247.086, 79.87287
3249.014, 80.38113
3250.943, 80.40855
3252.871, 80.25468
3254.800, 79.90225
3256.728, 79.83113
3258.657, 80.24941
3260.585, 80.64333
3262.514, 80.99773
3264.442, 80.78008
3266.371, 80.31020
3268.299, 80.63464
3270.228, 81.14646
3272.156, 80.81029
3274.084, 80.49441
3276.013, 80.98293
3277.941, 81.28195
3279.870, 80.90724
3281.798, 80.62763
3283.727, 80.54684
3285.655, 80.47726
3287.584, 80.41296
3289.512, 80.64639
3291.441, 81.10561
3293.369, 81.89011
3295.298, 82.40389
3297.226, 81.38636
3299.155, 80.55862
3301.083, 81.24155
3303.011, 81.62930
3304.940, 80.51192
3306.868, 80.32655
3308.797, 81.31792
3310.725, 81.88010
3312.654, 81.96745
3314.582, 81.90498
3316.511, 81.81716
3318.439, 82.02590
3320.368, 82.30822
3322.296, 82.52061
3324.225, 82.62395
3326.153, 82.59028
3328.082, 82.46329
3330.010, 82.20003
3331.938, 82.14665
3333.867, 82.33092
3335.795, 82.58360
3337.724, 82.79179
3339.652, 82.48463
3341.581, 82.13115
3343.509, 82.51432
3345.438, 82.92109
3347.366, 82.95647
3349.295, 82.88317
3351.223, 82.72768
3353.152, 82.68385
3355.080, 82.76863
3357.009, 82.73707
3358.937, 82.61822
3360.865, 82.44115
3362.794, 82.43691
3364.722, 83.17465
3366.651, 83.81872
3368.579, 83.59425
3370.508, 83.37990
3372.436, 83.38724
3374.365, 83.48735
3376.293, 83.66724
3378.222, 83.93421
3380.150, 84.23581
3382.079, 84.37835
3384.007, 84.37690
3385.936, 84.06673
3387.864, 83.90832
3389.792, 84.47270
3391.721, 84.60191
3393.649, 83.24565
3395.578, 83.24252
3397.506, 84.67594
3399.435, 85.05064
3401.363, 84.64892
3403.292, 84.66536
3405.220, 84.88580
3407.148, 85.15593
3409.077, 85.29727
3411.005, 85.05066
3412.934, 84.94784
3414.862, 85.11938
3416.791, 85.12413
3418.719, 84.93578
3420.648, 84.96597
3422.576, 85.18336
3424.505, 85.66425
3426.433, 86.04067
3428.362, 85.73794
3430.290, 85.54597
3432.219, 85.73647
3434.147, 86.16919
3436.075, 86.95716
3438.004, 86.79261
3439.932, 85.97795
3441.861, 86.02078
3443.789, 86.40227
3445.718, 86.46387
3447.646, 86.24612
3449.575, 85.40792
3451.503, 85.10593
3453.432, 85.70860
3455.360, 86.04809
3457.289, 86.09896
3459.217, 86.92557
3461.146, 87.95402
3463.074, 87.50410
3465.002, 86.94054
3466.931, 87.62141
3468.859, 88.04283
3470.788, 87.71478
3472.716, 87.36682
3474.645, 87.07738
3476.573, 87.40556
3478.502, 88.07540
3480.430, 88.21475
3482.359, 88.12029
3484.287, 88.05339
3486.216, 87.90821
3488.144, 87.53786
3490.073, 87.57265
3492.001, 88.23547
3493.929, 88.44810
3495.858, 88.30331
3497.786, 88.08016
3499.715, 87.87243
3501.643, 87.87540
3503.572, 87.80978
3505.500, 87.37354
3507.429, 87.39155
3509.357, 87.98632
3511.286, 88.57568
3513.214, 89.07043
3515.143, 89.24534
3517.071, 89.23122
3519.000, 89.20081
3520.928, 89.02882
3522.856, 88.26245
3524.785, 88.38944
3526.713, 89.56600
3528.642, 90.03922
3530.570, 89.97018
3532.499, 90.25780
3534.427, 90.45639
3536.356, 89.92525
3538.284, 89.49979
3540.213, 89.54821
3542.141, 89.76953
3544.070, 90.13521
3545.998, 89.56624
3547.927, 88.68067
3549.855, 89.80476
3551.783, 91.17592
3553.712, 91.28890
3555.640, 90.99048
3557.569, 90.36670
3559.497, 90.43752
3561.426, 91.28378
3563.354, 91.58178
3565.283, 91.47530
3567.211, 91.03659
3569.140, 90.74490
3571.068, 91.01690
3572.997, 91.44068
3574.925, 92.07265
3576.854, 91.78342
3578.782, 90.76931
3580.710, 90.56319
3582.639, 90.85386
3584.567, 91.55089
3586.496, 92.07869
3588.424, 92.17502
3590.353, 92.10184
3592.281, 91.84322
3594.210, 92.19109
3596.138, 92.75295
3598.067, 92.41724
3599.995, 91.98679
3601.924, 92.12814
3603.852, 92.41994
3605.781, 92.96831
3607.709, 92.72596
3609.637, 91.90740
3611.566, 92.10740
3613.494, 92.61611
3615.423, 92.20817
3617.351, 92.01774
3619.280, 92.79039
3621.208, 93.16033
3623.137, 92.97588
3625.065, 93.58094
3626.994, 94.48200
3628.922, 94.45675
3630.851, 94.05563
3632.779, 93.44657
3634.708, 93.22433
3636.636, 93.58510
3638.564, 94.22511
3640.493, 94.92233
3642.421, 94.68117
3644.350, 94.26550
3646.278, 94.54704
3648.207, 94.89273
3650.135, 95.07251
3652.064, 95.27383
3653.992, 95.44316
3655.921, 94.89867
3657.849, 94.33437
3659.778, 95.26205
3661.706, 96.00530
3663.635, 95.55231
3665.563, 95.21931
3667.491, 95.10121
3669.420, 94.84846
3671.348, 94.67429
3673.277, 95.35359
3675.205, 95.85640
3677.134, 95.19561
3679.062, 95.12381
3680.991, 95.87318
3682.919, 96.16886
3684.848, 96.11678
3686.776, 95.77422
3688.705, 95.81181
3690.633, 97.24423
3692.562, 97.74753
3694.490, 96.79626
3696.418, 96.78681
3698.347, 97.36594
3700.275, 97.07358
3702.204, 96.69023
3704.132, 96.85778
3706.061, 97.05512
3707.989, 97.16485
3709.918, 97.41971
3711.846, 97.61487
3713.775, 96.74245
3715.703, 95.93186
3717.632, 96.14283
3719.560, 96.57910
3721.489, 97.06592
3723.417, 97.67946
3725.345, 98.22060
3727.274, 97.83306
3729.202, 97.38619
3731.131, 97.68513
3733.059, 97.87794
3734.988, 97.69496
3736.916, 97.51384
3738.845, 97.50385
3740.773, 98.53907
3742.702, 99.26009
3744.630, 98.29775
3746.559, 97.86436
3748.487, 98.64178
3750.416, 98.96308
3752.344, 99.00780
3754.272, 99.45541
3756.201, 99.69054
3758.129, 99.21143
3760.058, 98.74436
3761.986, 98.40089
3763.915, 98.58839
3765.843, 99.08879
3767.772, 99.50375
3769.700, 99.84502
3771.629, 100.1548
3773.557, 100.2842
3775.486, 100.2159
3777.414, 99.83953
3779.343, 99.44234
3781.271, 99.51978
3783.199, 99.73370
3785.128, 99.98473
3787.056, 100.0853
3788.985, 100.0454
3790.913, 100.2063
3792.842, 100.3733
3794.770, 100.0854
3796.699, 100.2780
3798.627, 101.3750
3800.556, 101.2119
3802.484, 100.2333
3804.413, 101.4562
3806.341, 102.6782
3808.270, 101.6211
3810.198, 100.9648
3812.126, 101.1908
3814.055, 101.0455
3815.983, 100.7469
3817.912, 100.8881
3819.840, 101.1901
3821.769, 101.5339
3823.697, 101.9434
3825.626, 102.4072
3827.554, 102.7744
3829.483, 102.9773
3831.411, 102.8869
3833.340, 102.7085
3835.268, 102.4631
3837.197, 102.5847
3839.125, 102.8998
3841.053, 102.4455
3842.982, 102.1527
3844.910, 102.9759
3846.839, 103.5150
3848.767, 103.5905
3850.696, 103.7221
3852.624, 103.8368
3854.553, 103.7667
3856.481, 103.6430
3858.410, 103.5367
3860.338, 103.3133
3862.267, 103.0779
3864.195, 103.3226
3866.124, 103.6540
3868.052, 103.5511
3869.980, 103.9793
3871.909, 105.2771
3873.837, 105.9243
3875.766, 105.9992
3877.694, 105.3828
3879.623, 104.9847
3881.551, 105.2148
3883.480, 105.3703
3885.408, 105.4100
3887.337, 105.4594
3889.265, 105.4465
3891.194, 105.0212
3893.122, 105.2775
3895.051, 106.3652
3896.979, 106.8115
3898.907, 106.8487
3900.836, 106.8885
3902.764, 106.7944
3904.693, 106.5022
3906.621, 106.0595
3908.550, 105.7026
3910.478, 106.5284
3912.407, 107.3377
3914.335, 107.0850
3916.264, 107.3113
3918.192, 108.0083
3920.121, 107.5291
3922.049, 106.8260
3923.978, 106.9236
3925.906, 107.5364
3927.834, 108.8232
3929.763, 109.2457
3931.691, 109.0952
3933.620, 108.9479
3935.548, 108.5671
3937.477, 107.7069
3939.405, 107.8692
3941.334, 108.7834
3943.262, 108.7607
3945.191, 108.6935
3947.119, 109.4247
3949.048, 109.6673
3950.976, 109.3026
3952.905, 108.9096
3954.833, 108.6976
3956.761, 108.9939
3958.690, 109.1871
3960.618, 109.1607
3962.547, 109.5026
3964.475, 109.9905
3966.404, 110.2669
3968.332, 110.4181
3970.261, 110.4029
3972.189, 110.6176
3974.118, 110.9130
3976.046, 110.7987
3977.975, 110.7795
3979.903, 111.1819
3981.832, 111.1735
3983.760, 110.8767
3985.688, 111.3402
3987.617, 111.7855
3989.545, 111.5820
3991.474, 111.5240
3993.402, 111.6924
3995.331, 111.9830
3997.259, 112.0330
3999.188, 110.9655
4001.116, 111.1141
4003.045, 112.6241
4004.973, 112.5507
4006.902, 112.1446
4008.830, 113.2897
4010.759, 113.8801
4012.687, 113.3791
4014.615, 113.5297
4016.544, 113.8383
4018.472, 113.3154
4020.401, 112.8796
4022.329, 112.7992
4024.258, 113.1928
4026.186, 113.7853
4028.115, 114.0377
4030.043, 114.2958
4031.972, 114.6845
4033.900, 114.8686
4035.829, 115.0095
4037.757, 115.8421
4039.686, 116.1958
4041.614, 115.4129
4043.542, 114.7871
4045.471, 114.5696
4047.399, 115.6992
4049.328, 116.5996
4051.256, 116.2618
4053.185, 115.9471
4055.113, 115.8232
4057.042, 116.3003
4058.970, 116.8635
4060.899, 117.2756
4062.827, 117.5001
4064.756, 117.5628
4066.684, 117.4816
4068.613, 117.4399
4070.541, 117.5499
4072.469, 117.6815
4074.398, 117.8623
4076.326, 118.4372
4078.255, 118.7424
4080.183, 118.0081
4082.112, 118.0155
4084.040, 118.6244
4085.969, 119.1129
4087.897, 119.5020
4089.826, 119.8308
4091.754, 119.7776
4093.683, 119.5205
4095.611, 119.7380
4097.540, 120.0241
4099.468, 120.1796
4101.396, 120.4699
4103.325, 120.8313
4105.253, 120.9618
4107.182, 121.0260
4109.110, 121.0948
4111.039, 120.9698
4112.967, 120.8428
4114.896, 121.3293
4116.824, 121.9448
4118.752, 122.5360
4120.681, 123.0029
4122.609, 123.3717
4124.538, 123.7932
4126.466, 123.8549
4128.395, 123.3531
4130.323, 123.9203
4132.252, 124.9458
4134.180, 125.2757
4136.109, 125.4746
4138.037, 125.7013
4139.966, 126.3856
4141.894, 127.0745
4143.823, 127.0777
4145.751, 126.8914
4147.680, 126.6104
4149.608, 127.5048
4151.537, 128.5842
4153.465, 128.6047
4155.394, 128.9137
4157.322, 129.6603
4159.250, 129.5228
4161.179, 129.4203
4163.107, 130.3347
4165.036, 130.9736
4166.964, 131.4339
4168.893, 133.1742
4170.821, 134.5260
4172.750, 134.1721
4174.678, 134.0681
4176.606, 134.2330
4178.535, 134.1466
4180.463, 134.6290
4182.392, 136.0258
4184.320, 137.5342
4186.249, 138.8542
4188.177, 139.7361
4190.106, 139.6984
4192.034, 138.7296
4193.963, 139.5588
4195.891, 140.8297
4197.820, 140.7231
4199.748, 140.8790
4201.677, 141.5522
4203.605, 142.1587
4205.534, 142.7477
4207.462, 143.3971
4209.391, 143.6644
4211.319, 143.7282
4213.248, 144.7275
4215.176, 145.8637
4217.104, 146.8205
4219.033, 147.2764
4220.961, 147.6383
4222.890, 149.2233
4224.818, 150.0014
4226.747, 149.1226
4228.675, 150.0373
4230.604, 151.6136
4232.532, 152.5096
4234.460, 153.6568
4236.389, 155.0433
4238.317, 155.3958
4240.246, 155.3913
4242.174, 155.1311
4244.103, 155.5673
##END=



