##NAMES=Umangite
##RRUFFID=R070019
##IDEAL CHEMISTRY=Cu_3_Se_2_
##LOCALITY=Ato Bay, Beaverlodge Lake, Saskatchewan, Canada
##OWNER=RRUFF
##SOURCE=Mark Mauthner
##DESCRIPTION=Metallic dark blue to black blebs underneath green glassy material
##STATUS=The identification of this mineral has been confirmed by X-ray diffraction and chemical analysis
##URL=https://www.rruff.net/odr/rruff_sample/R070019
##MEASURED CHEMISTRY=Cu_3.00_Se_2.00_
##DIFFRACTION SAMPLE DESCRIPTION=Powder, using Mo radiation
##CELL PARAMETERS=a: 6.408 b: 6.408 c: 4.283 alpha: 90 beta: 90 gamma: 90 volume: 175.9 crystal system: tetragonal
##FILETYPE=Raman RAW
##RAMAN WAVELENGTH=532

163.4324, 3020.797
165.3609, 3124.036
167.2893, 3217.928
169.2178, 3294.423
171.1463, 3353.497
173.0747, 3421.513
175.0032, 3507.360
176.9317, 3601.852
178.8601, 3695.056
180.7886, 3799.431
182.7171, 3894.421
184.6455, 3969.846
186.5740, 4025.764
188.5025, 4081.775
190.4309, 4145.501
192.3594, 4209.780
194.2879, 4264.131
196.2163, 4303.890
198.1448, 4339.664
200.0733, 4377.682
202.0017, 4422.676
203.9302, 4453.065
205.8587, 4457.224
207.7871, 4452.348
209.7156, 4457.438
211.6441, 4471.504
213.5726, 4500.410
215.5010, 4549.186
217.4295, 4625.225
219.3580, 4690.626
221.2864, 4739.425
223.2149, 4778.739
225.1434, 4816.359
227.0718, 4838.926
229.0003, 4876.629
230.9288, 4938.780
232.8572, 5024.808
234.7857, 5120.468
236.7142, 5232.407
238.6426, 5350.997
240.5711, 5466.360
242.4996, 5569.407
244.4280, 5678.096
246.3565, 5796.794
248.2850, 5925.097
250.2134, 6056.753
252.1419, 6177.411
254.0704, 6308.556
255.9988, 6477.722
257.9273, 6706.012
259.8557, 6913.310
261.7842, 7096.684
263.7127, 7253.194
265.6411, 7324.444
267.5696, 7292.740
269.4981, 7197.674
271.4265, 7052.633
273.3550, 6853.619
275.2835, 6639.259
277.2119, 6419.695
279.1404, 6198.224
281.0689, 5954.607
282.9973, 5667.648
284.9258, 5380.806
286.8543, 5105.698
288.7827, 4835.511
290.7112, 4606.088
292.6397, 4426.678
294.5681, 4287.481
296.4966, 4167.290
298.4251, 4071.369
300.3535, 3985.135
302.2820, 3900.056
304.2105, 3812.657
306.1389, 3740.799
308.0674, 3688.824
309.9959, 3649.805
311.9243, 3616.121
313.8528, 3591.234
315.7813, 3567.466
317.7097, 3540.493
319.6382, 3507.118
321.5667, 3479.986
323.4951, 3461.248
325.4236, 3447.883
327.3521, 3437.409
329.2805, 3432.841
331.2090, 3424.251
333.1375, 3403.980
335.0660, 3380.139
336.9944, 3369.432
338.9229, 3381.014
340.8514, 3392.652
342.7798, 3395.733
344.7083, 3386.268
346.6368, 3378.742
348.5652, 3374.128
350.4937, 3369.231
352.4222, 3362.780
354.3506, 3351.017
356.2791, 3346.083
358.2076, 3354.242
360.1360, 3376.174
362.0645, 3388.293
363.9930, 3383.443
365.9214, 3373.335
367.8499, 3366.291
369.7784, 3362.115
371.7068, 3362.057
373.6353, 3369.744
375.5638, 3381.244
377.4922, 3387.934
379.4207, 3388.358
381.3492, 3386.923
383.2776, 3383.997
385.2061, 3378.658
387.1346, 3375.110
389.0630, 3370.435
390.9915, 3369.661
392.9200, 3377.527
394.8484, 3398.074
396.7769, 3418.489
398.7054, 3439.179
400.6339, 3454.254
402.5623, 3453.545
404.4908, 3424.901
406.4193, 3400.147
408.3477, 3391.749
410.2762, 3402.688
412.2047, 3414.279
414.1331, 3423.890
416.0616, 3429.876
417.9901, 3435.912
419.9185, 3445.371
421.8470, 3450.798
423.7755, 3440.987
425.7039, 3417.659
427.6324, 3408.013
429.5609, 3428.369
431.4893, 3453.897
433.4178, 3464.396
435.3463, 3458.822
437.2747, 3451.136
439.2032, 3441.847
441.1317, 3438.228
443.0601, 3449.140
444.9886, 3485.652
446.9171, 3516.979
448.8455, 3534.162
450.7740, 3539.547
452.7025, 3538.647
454.6309, 3521.300
456.5594, 3507.308
458.4879, 3505.389
460.4163, 3516.536
462.3448, 3530.243
464.2733, 3550.751
466.2017, 3572.730
468.1302, 3585.669
470.0587, 3575.107
471.9871, 3570.553
473.9156, 3584.913
475.8441, 3608.849
477.7725, 3626.172
479.7010, 3634.673
481.6295, 3648.878
483.5579, 3663.788
485.4864, 3676.501
487.4149, 3685.292
489.3433, 3698.731
491.2718, 3713.373
493.2003, 3722.669
495.1287, 3723.773
497.0572, 3732.091
498.9857, 3757.142
500.9141, 3786.979
502.8426, 3802.664
504.7711, 3792.908
506.6995, 3785.461
508.6280, 3809.606
510.5565, 3857.838
512.4849, 3899.427
514.4134, 3893.809
516.3419, 3875.428
518.2703, 3865.422
520.1988, 3871.567
522.1273, 3887.433
524.0557, 3918.225
525.9842, 3950.131
527.9127, 3970.039
529.8411, 3961.433
531.7696, 3940.906
533.6981, 3926.013
535.6265, 3916.036
537.5550, 3902.687
539.4835, 3876.682
541.4119, 3856.802
543.3404, 3853.462
545.2689, 3863.476
547.1973, 3873.524
549.1258, 3874.554
551.0543, 3871.227
552.9827, 3869.055
554.9112, 3871.749
556.8397, 3877.177
558.7681, 3881.464
560.6966, 3882.318
562.6251, 3878.067
564.5535, 3865.129
566.4820, 3848.632
568.4105, 3829.180
570.3389, 3813.301
572.2674, 3805.563
574.1959, 3811.285
576.1243, 3812.101
578.0528, 3801.501
579.9813, 3787.698
581.9097, 3786.829
583.8382, 3799.287
585.7667, 3806.815
587.6951, 3802.691
589.6236, 3792.265
591.5521, 3788.760
593.4805, 3792.950
595.4090, 3793.427
597.3375, 3783.571
599.2659, 3767.897
601.1944, 3756.340
603.1229, 3757.454
605.0513, 3766.634
606.9798, 3782.655
608.9083, 3800.214
610.8367, 3802.383
612.7652, 3781.762
614.6937, 3762.844
616.6221, 3765.712
618.5506, 3782.996
620.4791, 3793.853
622.4075, 3796.315
624.3360, 3798.944
626.2645, 3807.065
628.1929, 3817.741
630.1214, 3822.823
632.0499, 3813.966
633.9783, 3804.671
635.9068, 3811.149
637.8353, 3841.185
639.7637, 3860.667
641.6922, 3858.051
643.6207, 3841.889
645.5491, 3832.055
647.4776, 3823.003
649.4061, 3822.607
651.3345, 3840.359
653.2630, 3875.633
655.1915, 3900.569
657.1199, 3900.702
659.0484, 3895.235
660.9769, 3888.498
662.9053, 3886.914
664.8338, 3891.920
666.7623, 3905.822
668.6907, 3919.609
670.6192, 3931.154
672.5477, 3940.533
674.4761, 3950.956
676.4046, 3964.728
678.3331, 3975.441
680.2615, 3974.883
682.1900, 3967.975
684.1185, 3969.065
686.0469, 3990.673
687.9754, 4010.928
689.9039, 4016.908
691.8323, 4001.901
693.7608, 3996.715
695.6893, 4004.483
697.6177, 4019.772
699.5462, 4042.143
701.4747, 4073.755
703.4031, 4093.607
705.3316, 4085.610
707.2601, 4070.766
709.1885, 4068.365
711.1170, 4086.316
713.0455, 4098.008
714.9739, 4093.555
716.9024, 4087.693
718.8309, 4098.350
720.7593, 4134.235
722.6878, 4156.506
724.6163, 4142.327
726.5447, 4118.548
728.4732, 4119.266
730.4017, 4158.724
732.3301, 4185.386
734.2586, 4182.072
736.1871, 4165.846
738.1155, 4156.356
740.0440, 4156.597
741.9725, 4157.296
743.9009, 4158.618
745.8294, 4159.457
747.7579, 4155.106
749.6863, 4135.251
751.6148, 4126.831
753.5433, 4145.815
755.4717, 4179.698
757.4002, 4205.162
759.3287, 4220.716
761.2571, 4227.544
763.1856, 4222.089
765.1141, 4207.558
767.0425, 4197.904
768.9710, 4190.130
770.8995, 4190.240
772.8279, 4207.131
774.7564, 4232.768
776.6849, 4249.784
778.6133, 4249.935
780.5418, 4252.860
782.4703, 4264.492
784.3987, 4283.838
786.3272, 4300.445
788.2557, 4309.735
790.1841, 4320.899
792.1126, 4341.893
794.0411, 4369.113
795.9695, 4389.443
797.8980, 4395.034
799.8265, 4402.323
801.7549, 4416.612
803.6834, 4435.919
805.6119, 4459.436
807.5403, 4493.442
809.4688, 4524.367
811.3973, 4544.461
813.3257, 4556.196
815.2542, 4562.416
817.1827, 4557.453
819.1111, 4551.289
821.0396, 4550.449
822.9681, 4560.386
824.8965, 4569.735
826.8250, 4579.337
828.7535, 4579.861
830.6819, 4568.966
832.6104, 4553.424
834.5389, 4534.659
836.4673, 4507.737
838.3958, 4479.105
840.3243, 4454.325
842.2527, 4434.831
844.1812, 4419.664
846.1097, 4412.544
848.0381, 4403.691
849.9666, 4384.286
851.8951, 4355.512
853.8235, 4335.150
855.7520, 4330.104
857.6805, 4326.732
859.6089, 4309.091
861.5374, 4288.264
863.4659, 4285.552
865.3943, 4308.147
867.3228, 4323.780
869.2513, 4324.880
871.1797, 4319.736
873.1082, 4314.100
875.0367, 4309.542
876.9651, 4308.269
878.8936, 4309.264
880.8221, 4307.522
882.7505, 4306.315
884.6790, 4308.827
886.6075, 4315.746
888.5359, 4326.540
890.4644, 4336.127
892.3929, 4342.133
894.3214, 4337.708
896.2498, 4328.563
898.1783, 4319.921
900.1068, 4329.795
902.0352, 4342.786
903.9637, 4353.220
905.8922, 4360.609
907.8206, 4367.757
909.7491, 4373.787
911.6776, 4384.328
913.6060, 4396.232
915.5345, 4401.981
917.4630, 4398.197
919.3914, 4392.277
921.3199, 4386.990
923.2484, 4384.508
925.1768, 4390.185
927.1053, 4411.804
929.0338, 4434.514
930.9622, 4439.477
932.8907, 4429.239
934.8192, 4422.774
936.7476, 4424.017
938.6761, 4423.060
940.6046, 4428.280
942.5330, 4450.312
944.4615, 4466.992
946.3900, 4465.695
948.3184, 4456.094
950.2469, 4461.559
952.1754, 4485.545
954.1038, 4509.698
956.0323, 4520.969
957.9608, 4516.142
959.8892, 4504.231
961.8177, 4492.014
963.7462, 4480.206
965.6746, 4474.329
967.6031, 4478.108
969.5316, 4492.906
971.4600, 4491.049
973.3885, 4485.355
975.3170, 4489.668
977.2454, 4502.093
979.1739, 4509.121
981.1024, 4506.361
983.0308, 4507.315
984.9593, 4524.040
986.8878, 4547.753
988.8162, 4563.648
990.7447, 4559.412
992.6732, 4568.683
994.6016, 4582.505
996.5301, 4585.186
998.4586, 4575.354
1000.387, 4567.690
1002.315, 4561.358
1004.244, 4556.788
1006.172, 4565.536
1008.101, 4580.740
1010.029, 4592.233
1011.958, 4596.456
1013.886, 4602.179
1015.815, 4601.132
1017.743, 4595.602
1019.672, 4589.498
1021.600, 4599.472
1023.529, 4630.293
1025.457, 4667.061
1027.386, 4687.275
1029.314, 4680.925
1031.243, 4667.994
1033.171, 4675.272
1035.099, 4701.098
1037.028, 4707.866
1038.956, 4697.846
1040.885, 4691.719
1042.813, 4699.992
1044.742, 4701.249
1046.670, 4699.746
1048.599, 4708.379
1050.527, 4722.506
1052.456, 4736.840
1054.384, 4738.397
1056.313, 4729.203
1058.241, 4723.094
1060.170, 4733.120
1062.098, 4761.035
1064.026, 4783.916
1065.955, 4787.677
1067.883, 4772.572
1069.812, 4755.156
1071.740, 4741.215
1073.669, 4739.785
1075.597, 4751.738
1077.526, 4759.879
1079.454, 4772.103
1081.383, 4791.158
1083.311, 4802.548
1085.240, 4799.175
1087.168, 4790.552
1089.097, 4784.066
1091.025, 4780.645
1092.953, 4779.416
1094.882, 4778.372
1096.810, 4783.343
1098.739, 4807.232
1100.667, 4839.533
1102.596, 4850.097
1104.524, 4825.601
1106.453, 4814.433
1108.381, 4849.524
1110.310, 4887.571
1112.238, 4891.730
1114.167, 4863.417
1116.095, 4852.313
1118.024, 4874.362
1119.952, 4895.977
1121.880, 4890.565
1123.809, 4872.956
1125.737, 4870.261
1127.666, 4882.125
1129.594, 4885.699
1131.523, 4867.294
1133.451, 4854.768
1135.380, 4861.864
1137.308, 4893.042
1139.237, 4914.104
1141.165, 4913.209
1143.094, 4907.940
1145.022, 4910.076
1146.951, 4924.605
1148.879, 4940.875
1150.807, 4961.429
1152.736, 4973.241
1154.664, 4969.309
1156.593, 4959.189
1158.521, 4951.296
1160.450, 4944.571
1162.378, 4940.313
1164.307, 4938.833
1166.235, 4943.453
1168.164, 4953.997
1170.092, 4967.132
1172.021, 4974.680
1173.949, 4973.542
1175.878, 4972.005
1177.806, 4967.258
1179.734, 4964.568
1181.663, 4971.868
1183.591, 4991.763
1185.520, 5008.049
1187.448, 5016.050
1189.377, 5022.390
1191.305, 5033.960
1193.234, 5048.427
1195.162, 5051.192
1197.091, 5032.669
1199.019, 5017.530
1200.948, 5015.946
1202.876, 5022.797
1204.805, 5029.235
1206.733, 5032.621
1208.661, 5041.976
1210.590, 5064.798
1212.518, 5087.648
1214.447, 5101.554
1216.375, 5106.852
1218.304, 5109.108
1220.232, 5102.934
1222.161, 5098.195
1224.089, 5096.900
1226.018, 5099.982
1227.946, 5108.143
1229.875, 5124.653
1231.803, 5140.036
1233.732, 5150.494
1235.660, 5155.820
1237.589, 5158.933
1239.517, 5162.222
1241.445, 5168.433
1243.374, 5181.688
1245.302, 5192.568
1247.231, 5194.044
1249.159, 5191.665
1251.088, 5197.807
1253.016, 5219.136
1254.945, 5233.926
1256.873, 5240.234
1258.802, 5244.852
1260.730, 5246.983
1262.659, 5245.271
1264.587, 5257.476
1266.516, 5295.070
1268.444, 5318.389
1270.372, 5300.189
1272.301, 5277.699
1274.229, 5283.247
1276.158, 5310.062
1278.086, 5331.062
1280.015, 5341.897
1281.943, 5349.633
1283.872, 5355.649
1285.800, 5363.484
1287.729, 5368.019
1289.657, 5360.784
1291.586, 5358.709
1293.514, 5371.430
1295.443, 5385.977
1297.371, 5389.538
1299.299, 5377.500
1301.228, 5371.240
1303.156, 5381.077
1305.085, 5393.403
1307.013, 5403.354
1308.942, 5410.840
1310.870, 5421.836
1312.799, 5435.182
1314.727, 5442.657
1316.656, 5437.980
1318.584, 5437.274
1320.513, 5453.757
1322.441, 5477.419
1324.370, 5491.425
1326.298, 5492.619
1328.226, 5491.723
1330.155, 5490.168
1332.083, 5492.722
1334.012, 5503.001
1335.940, 5518.502
1337.869, 5526.566
1339.797, 5527.038
1341.726, 5535.399
1343.654, 5557.898
1345.583, 5576.163
1347.511, 5573.338
1349.440, 5549.319
1351.368, 5537.794
1353.297, 5539.983
1355.225, 5553.969
1357.153, 5591.583
1359.082, 5630.558
1361.010, 5625.765
1362.939, 5581.022
1364.867, 5565.249
1366.796, 5591.425
1368.724, 5619.721
1370.653, 5641.977
1372.581, 5663.972
1374.510, 5671.798
1376.438, 5650.681
1378.367, 5628.514
1380.295, 5614.523
1382.224, 5611.941
1384.152, 5623.076
1386.080, 5642.933
1388.009, 5656.527
1389.937, 5666.996
1391.866, 5675.057
1393.794, 5671.310
1395.723, 5669.747
1397.651, 5687.444
1399.580, 5726.965
1401.508, 5750.322
1403.437, 5741.866
1405.365, 5726.154
1407.294, 5711.621
1409.222, 5706.707
1411.151, 5716.773
1413.079, 5739.187
1415.007, 5748.845
1416.936, 5735.244
1418.864, 5730.469
1420.793, 5749.714
1422.721, 5772.765
1424.650, 5770.698
1426.578, 5745.649
1428.507, 5738.587
1430.435, 5759.538
1432.364, 5783.538
1434.292, 5804.938
1436.221, 5817.023
1438.149, 5815.771
1440.078, 5806.574
1442.006, 5804.154
1443.934, 5799.151
1445.863, 5799.376
1447.791, 5813.771
1449.720, 5832.805
1451.648, 5844.178
1453.577, 5849.100
1455.505, 5855.894
1457.434, 5862.191
1459.362, 5867.829
1461.291, 5885.590
1463.219, 5911.939
1465.148, 5926.593
1467.076, 5918.649
1469.005, 5914.019
1470.933, 5931.154
1472.861, 5941.004
1474.790, 5924.599
1476.718, 5898.298
1478.647, 5890.247
1480.575, 5907.407
1482.504, 5920.612
1484.432, 5928.319
1486.361, 5936.960
1488.289, 5940.569
1490.218, 5943.439
1492.146, 5963.440
1494.075, 6011.156
1496.003, 6040.839
1497.932, 6037.892
1499.860, 6027.879
1501.788, 6015.722
1503.717, 6009.345
1505.645, 6014.119
1507.574, 6028.094
1509.502, 6039.229
1511.431, 6044.088
1513.359, 6055.976
1515.288, 6094.047
1517.216, 6129.957
1519.145, 6125.537
1521.073, 6088.459
1523.002, 6069.914
1524.930, 6080.807
1526.859, 6089.876
1528.787, 6086.599
1530.715, 6077.003
1532.644, 6063.568
1534.572, 6050.725
1536.501, 6059.893
1538.429, 6100.047
1540.358, 6137.662
1542.286, 6171.430
1544.215, 6187.962
1546.143, 6165.027
1548.072, 6120.740
1550.000, 6116.477
1551.929, 6164.774
1553.857, 6205.756
1555.786, 6231.104
1557.714, 6239.192
1559.642, 6221.679
1561.571, 6191.262
1563.499, 6169.994
1565.428, 6157.396
1567.356, 6162.134
1569.285, 6202.420
1571.213, 6233.134
1573.142, 6230.713
1575.070, 6218.576
1576.999, 6227.318
1578.927, 6259.024
1580.856, 6269.037
1582.784, 6237.619
1584.713, 6218.483
1586.641, 6229.276
1588.569, 6247.773
1590.498, 6264.116
1592.426, 6276.884
1594.355, 6273.419
1596.283, 6237.779
1598.212, 6222.105
1600.140, 6246.781
1602.069, 6273.211
1603.997, 6281.562
1605.926, 6281.803
1607.854, 6294.472
1609.783, 6326.665
1611.711, 6345.153
1613.640, 6343.690
1615.568, 6336.982
1617.496, 6320.078
1619.425, 6305.552
1621.353, 6307.718
1623.282, 6325.499
1625.210, 6340.399
1627.139, 6354.208
1629.067, 6362.179
1630.996, 6361.906
1632.924, 6357.998
1634.853, 6348.246
1636.781, 6337.810
1638.710, 6339.950
1640.638, 6362.222
1642.567, 6371.008
1644.495, 6349.565
1646.423, 6338.079
1648.352, 6354.300
1650.280, 6378.577
1652.209, 6395.522
1654.137, 6404.658
1656.066, 6402.837
1657.994, 6369.976
1659.923, 6357.416
1661.851, 6384.027
1663.780, 6410.378
1665.708, 6409.004
1667.637, 6399.197
1669.565, 6421.786
1671.494, 6489.104
1673.422, 6512.016
1675.350, 6443.467
1677.279, 6400.667
1679.207, 6418.631
1681.136, 6453.475
1683.064, 6479.394
1684.993, 6495.983
1686.921, 6499.388
1688.850, 6475.145
1690.778, 6473.266
1692.707, 6515.419
1694.635, 6551.008
1696.564, 6559.830
1698.492, 6558.634
1700.421, 6566.428
1702.349, 6581.717
1704.277, 6585.989
1706.206, 6569.619
1708.134, 6558.168
1710.063, 6546.021
1711.991, 6546.118
1713.920, 6572.304
1715.848, 6609.185
1717.777, 6638.885
1719.705, 6662.074
1721.634, 6665.600
1723.562, 6630.761
1725.491, 6605.928
1727.419, 6594.710
1729.348, 6594.926
1731.276, 6610.155
1733.204, 6634.141
1735.133, 6656.467
1737.061, 6677.223
1738.990, 6695.745
1740.918, 6716.405
1742.847, 6727.450
1744.775, 6721.740
1746.704, 6712.102
1748.632, 6702.006
1750.561, 6694.572
1752.489, 6696.951
1754.418, 6710.184
1756.346, 6726.769
1758.275, 6752.117
1760.203, 6770.266
1762.131, 6770.616
1764.060, 6770.690
1765.988, 6783.300
1767.917, 6802.142
1769.845, 6813.056
1771.774, 6815.326
1773.702, 6818.845
1775.631, 6822.843
1777.559, 6831.344
1779.488, 6849.014
1781.416, 6867.556
1783.345, 6882.256
1785.273, 6894.614
1787.202, 6911.646
1789.130, 6932.832
1791.058, 6929.104
1792.987, 6882.754
1794.915, 6858.082
1796.844, 6885.567
1798.772, 6922.975
1800.701, 6946.062
1802.629, 6963.517
1804.558, 6992.494
1806.486, 7029.728
1808.415, 7041.000
1810.343, 7012.913
1812.272, 7003.036
1814.200, 7041.827
1816.129, 7078.381
1818.057, 7081.966
1819.985, 7072.559
1821.914, 7073.114
1823.842, 7081.936
1825.771, 7090.630
1827.699, 7098.876
1829.628, 7107.557
1831.556, 7122.933
1833.485, 7130.324
1835.413, 7114.794
1837.342, 7097.764
1839.270, 7102.838
1841.199, 7122.456
1843.127, 7129.587
1845.056, 7119.159
1846.984, 7115.204
1848.912, 7118.895
1850.841, 7127.322
1852.769, 7139.673
1854.698, 7156.938
1856.626, 7185.195
1858.555, 7216.310
1860.483, 7234.137
1862.412, 7237.698
1864.340, 7246.911
1866.269, 7269.242
1868.197, 7281.433
1870.126, 7272.224
1872.054, 7264.068
1873.983, 7255.251
1875.911, 7258.996
1877.839, 7306.799
1879.768, 7379.773
1881.696, 7382.387
1883.625, 7303.110
1885.553, 7273.133
1887.482, 7328.950
1889.410, 7377.012
1891.339, 7378.176
1893.267, 7377.601
1895.196, 7416.507
1897.124, 7461.543
1899.053, 7461.577
1900.981, 7425.550
1902.910, 7404.363
1904.838, 7402.162
1906.766, 7404.539
1908.695, 7408.574
1910.623, 7417.720
1912.552, 7432.719
1914.480, 7453.778
1916.409, 7488.962
1918.337, 7527.422
1920.266, 7544.255
1922.194, 7537.901
1924.123, 7539.334
1926.051, 7565.055
1927.980, 7569.250
1929.908, 7514.277
1931.837, 7485.267
1933.765, 7541.098
1935.693, 7606.800
1937.622, 7607.718
1939.550, 7570.657
1941.479, 7569.159
1943.407, 7607.395
1945.336, 7626.933
1947.264, 7621.756
1949.193, 7610.389
1951.121, 7585.309
1953.050, 7571.794
1954.978, 7584.331
1956.907, 7609.318
1958.835, 7644.707
1960.764, 7681.125
1962.692, 7694.687
1964.620, 7687.167
1966.549, 7693.791
1968.477, 7724.334
1970.406, 7740.612
1972.334, 7716.897
1974.263, 7703.947
1976.191, 7730.740
1978.120, 7765.412
1980.048, 7781.406
1981.977, 7787.141
1983.905, 7799.607
1985.834, 7818.894
1987.762, 7837.859
1989.691, 7862.442
1991.619, 7874.120
1993.547, 7860.700
1995.476, 7851.014
1997.404, 7854.876
1999.333, 7860.542
2001.261, 7861.149
2003.190, 7859.098
2005.118, 7852.679
2007.047, 7845.945
2008.975, 7862.084
2010.904, 7903.370
2012.832, 7938.608
2014.761, 7964.676
2016.689, 7981.936
2018.618, 7981.265
2020.546, 7984.661
2022.474, 8011.479
2024.403, 8039.889
2026.331, 8048.367
2028.260, 8041.967
2030.188, 8031.396
2032.117, 8016.208
2034.045, 8004.404
2035.974, 7991.691
2037.902, 7990.485
2039.831, 8008.926
2041.759, 8027.156
2043.688, 8035.489
2045.616, 8048.406
2047.545, 8088.714
2049.473, 8127.380
2051.402, 8117.778
2053.330, 8077.453
2055.259, 8065.229
2057.187, 8081.780
2059.115, 8109.175
2061.044, 8152.472
2062.972, 8178.158
2064.901, 8165.015
2066.829, 8156.609
2068.758, 8171.503
2070.686, 8193.461
2072.615, 8210.282
2074.543, 8228.173
2076.472, 8263.886
2078.400, 8309.511
2080.329, 8323.876
2082.257, 8298.883
2084.186, 8282.892
2086.114, 8280.870
2088.042, 8273.546
2089.971, 8247.928
2091.899, 8235.460
2093.828, 8255.433
2095.756, 8281.330
2097.685, 8296.702
2099.613, 8308.460
2101.542, 8325.607
2103.470, 8345.507
2105.399, 8358.699
2107.327, 8364.861
2109.256, 8381.123
2111.184, 8418.496
2113.113, 8439.039
2115.041, 8422.860
2116.969, 8416.136
2118.898, 8438.802
2120.826, 8459.821
2122.755, 8459.968
2124.683, 8455.431
2126.612, 8465.742
2128.540, 8480.579
2130.469, 8471.870
2132.397, 8446.495
2134.326, 8447.642
2136.254, 8478.887
2138.183, 8495.146
2140.111, 8482.994
2142.040, 8481.467
2143.968, 8508.327
2145.896, 8533.747
2147.825, 8543.009
2149.753, 8553.899
2151.682, 8586.109
2153.610, 8619.496
2155.539, 8625.532
2157.467, 8614.602
2159.396, 8615.984
2161.324, 8628.828
2163.253, 8638.884
2165.181, 8645.391
2167.110, 8654.105
2169.038, 8667.665
2170.967, 8676.799
2172.895, 8680.617
2174.823, 8677.260
2176.752, 8644.233
2178.680, 8629.335
2180.609, 8688.593
2182.537, 8760.865
2184.466, 8768.897
2186.394, 8738.236
2188.323, 8730.591
2190.251, 8744.858
2192.180, 8757.307
2194.108, 8767.331
2196.037, 8784.461
2197.965, 8813.435
2199.894, 8831.842
2201.822, 8833.821
2203.750, 8827.503
2205.679, 8800.992
2207.607, 8785.907
2209.536, 8806.663
2211.464, 8837.255
2213.393, 8861.014
2215.321, 8875.572
2217.250, 8872.205
2219.178, 8856.299
2221.107, 8846.762
2223.035, 8843.892
2224.964, 8870.596
2226.892, 8934.177
2228.821, 8958.821
2230.749, 8921.351
2232.677, 8893.291
2234.606, 8890.564
2236.534, 8901.943
2238.463, 8931.178
2240.391, 8963.916
2242.320, 9003.476
2244.248, 9031.884
2246.177, 9018.119
2248.105, 8992.269
2250.034, 9008.454
2251.962, 9052.614
2253.891, 9073.751
2255.819, 9073.484
2257.748, 9060.187
2259.676, 9032.266
2261.604, 9028.057
2263.533, 9061.484
2265.461, 9088.120
2267.390, 9098.450
2269.318, 9104.766
2271.247, 9106.833
2273.175, 9109.262
2275.104, 9117.414
2277.032, 9122.572
2278.961, 9111.056
2280.889, 9100.515
2282.818, 9109.974
2284.746, 9133.365
2286.675, 9170.503
2288.603, 9212.105
2290.531, 9214.127
2292.460, 9175.144
2294.388, 9169.741
2296.317, 9214.627
2298.245, 9240.165
2300.174, 9235.460
2302.102, 9238.078
2304.031, 9257.148
2305.959, 9270.802
2307.888, 9262.662
2309.816, 9267.610
2311.745, 9318.699
2313.673, 9366.476
2315.602, 9376.965
2317.530, 9372.857
2319.458, 9369.797
2321.387, 9370.218
2323.315, 9375.471
2325.244, 9387.865
2327.172, 9419.745
2329.101, 9467.113
2331.029, 9502.111
2332.958, 9523.891
2334.886, 9509.418
2336.815, 9449.372
2338.743, 9422.536
2340.672, 9451.833
2342.600, 9480.588
2344.529, 9522.301
2346.457, 9527.578
2348.385, 9437.084
2350.314, 9379.146
2352.242, 9432.095
2354.171, 9486.667
2356.099, 9477.037
2358.028, 9457.746
2359.956, 9479.287
2361.885, 9509.372
2363.813, 9504.875
2365.742, 9483.312
2367.670, 9480.135
2369.599, 9489.658
2371.527, 9488.041
2373.456, 9475.782
2375.384, 9465.435
2377.313, 9456.733
2379.241, 9477.888
2381.169, 9534.644
2383.098, 9583.438
2385.026, 9623.368
2386.955, 9639.436
2388.883, 9600.428
2390.812, 9584.624
2392.740, 9633.853
2394.669, 9665.390
2396.597, 9631.612
2398.526, 9607.366
2400.454, 9633.542
2402.383, 9666.292
2404.311, 9688.867
2406.240, 9692.616
2408.168, 9646.131
2410.096, 9595.720
2412.025, 9605.659
2413.953, 9654.097
2415.882, 9713.432
2417.810, 9771.035
2419.739, 9771.374
2421.667, 9726.831
2423.596, 9708.098
2425.524, 9715.198
2427.453, 9722.254
2429.381, 9727.032
2431.310, 9739.369
2433.238, 9769.749
2435.167, 9783.172
2437.095, 9765.955
2439.023, 9766.534
2440.952, 9799.007
2442.880, 9825.790
2444.809, 9843.550
2446.737, 9842.324
2448.666, 9796.426
2450.594, 9762.891
2452.523, 9766.214
2454.451, 9786.624
2456.380, 9829.753
2458.308, 9866.396
2460.237, 9869.750
2462.165, 9863.068
2464.094, 9857.754
2466.022, 9862.793
2467.950, 9905.513
2469.879, 9953.913
2471.807, 9943.246
2473.736, 9902.183
2475.664, 9905.164
2477.593, 9941.055
2479.521, 9962.174
2481.450, 9970.621
2483.378, 9982.713
2485.307, 9997.165
2487.235, 9989.963
2489.164, 9956.217
2491.092, 9957.934
2493.021, 10021.20
2494.949, 10036.32
2496.877, 9982.075
2498.806, 9948.774
2500.734, 9941.801
2502.663, 9964.201
2504.591, 10034.29
2506.520, 10076.83
2508.448, 10062.56
2510.377, 10036.85
2512.305, 9980.847
2514.234, 9960.911
2516.162, 10035.33
2518.091, 10091.92
2520.019, 10074.67
2521.948, 10058.19
2523.876, 10091.25
2525.804, 10124.21
2527.733, 10121.85
2529.661, 10112.90
2531.590, 10114.76
2533.518, 10125.49
2535.447, 10148.55
2537.375, 10174.51
2539.304, 10201.54
2541.232, 10217.74
2543.161, 10194.42
2545.089, 10160.46
2547.018, 10166.94
2548.946, 10196.96
2550.875, 10217.08
2552.803, 10228.91
2554.731, 10233.80
2556.660, 10235.40
2558.588, 10246.44
2560.517, 10265.98
2562.445, 10293.67
2564.374, 10327.05
2566.302, 10333.63
2568.231, 10312.17
2570.159, 10310.63
2572.088, 10329.32
2574.016, 10338.80
2575.945, 10337.87
2577.873, 10325.55
2579.802, 10296.60
2581.730, 10297.12
2583.658, 10349.65
2585.587, 10374.61
2587.515, 10364.39
2589.444, 10354.94
2591.372, 10348.56
2593.301, 10345.11
2595.229, 10342.90
2597.158, 10349.67
2599.086, 10379.87
2601.015, 10395.31
2602.943, 10375.26
2604.872, 10375.20
2606.800, 10412.91
2608.729, 10442.43
2610.657, 10447.75
2612.585, 10454.63
2614.514, 10471.14
2616.442, 10490.75
2618.371, 10537.35
2620.299, 10544.07
2622.228, 10450.31
2624.156, 10392.27
2626.085, 10439.42
2628.013, 10489.45
2629.942, 10482.18
2631.870, 10487.13
2633.799, 10558.58
2635.727, 10617.64
2637.656, 10606.31
2639.584, 10600.20
2641.512, 10648.53
2643.441, 10691.54
2645.369, 10688.65
2647.298, 10676.08
2649.226, 10670.86
2651.155, 10671.31
2653.083, 10684.64
2655.012, 10692.57
2656.940, 10669.90
2658.869, 10654.82
2660.797, 10699.14
2662.726, 10733.04
2664.654, 10666.89
2666.583, 10605.58
2668.511, 10655.22
2670.439, 10730.91
2672.368, 10773.47
2674.296, 10794.63
2676.225, 10798.15
2678.153, 10791.51
2680.082, 10770.15
2682.010, 10754.85
2683.939, 10775.03
2685.867, 10802.87
2687.796, 10809.11
2689.724, 10810.44
2691.653, 10823.03
2693.581, 10838.47
2695.510, 10847.13
2697.438, 10854.60
2699.366, 10874.83
2701.295, 10889.37
2703.223, 10864.43
2705.152, 10837.77
2707.080, 10851.72
2709.009, 10880.51
2710.937, 10904.06
2712.866, 10917.77
2714.794, 10902.61
2716.723, 10888.91
2718.651, 10915.81
2720.580, 10953.93
2722.508, 10978.13
2724.437, 10991.84
2726.365, 10995.18
2728.293, 10993.87
2730.222, 10995.71
2732.150, 10994.39
2734.079, 10973.18
2736.007, 10957.99
2737.936, 10985.31
2739.864, 11019.78
2741.793, 11017.22
2743.721, 11012.87
2745.650, 11043.97
2747.578, 11085.97
2749.507, 11133.58
2751.435, 11164.19
2753.364, 11147.92
2755.292, 11117.48
2757.220, 11092.15
2759.149, 11076.02
2761.077, 11072.47
2763.006, 11078.49
2764.934, 11089.17
2766.863, 11112.18
2768.791, 11163.80
2770.720, 11216.17
2772.648, 11263.61
2774.577, 11286.00
2776.505, 11249.75
2778.434, 11216.51
2780.362, 11232.58
2782.291, 11249.63
2784.219, 11233.37
2786.147, 11221.44
2788.076, 11236.11
2790.004, 11249.23
2791.933, 11237.90
2793.861, 11236.48
2795.790, 11257.24
2797.718, 11296.05
2799.647, 11393.48
2801.575, 11426.82
2803.504, 11310.86
2805.432, 11233.92
2807.361, 11297.56
2809.289, 11353.90
2811.218, 11354.94
2813.146, 11364.70
2815.074, 11401.71
2817.003, 11421.22
2818.931, 11404.57
2820.860, 11392.16
2822.788, 11383.60
2824.717, 11402.42
2826.645, 11467.49
2828.574, 11486.41
2830.502, 11434.53
2832.431, 11418.68
2834.359, 11473.83
2836.288, 11497.86
2838.216, 11475.27
2840.145, 11481.52
2842.073, 11520.91
2844.001, 11547.91
2845.930, 11559.12
2847.858, 11542.62
2849.787, 11493.60
2851.715, 11507.66
2853.644, 11578.23
2855.572, 11611.34
2857.501, 11612.52
2859.429, 11640.49
2861.358, 11683.24
2863.286, 11661.45
2865.215, 11598.02
2867.143, 11579.44
2869.072, 11595.59
2871.000, 11630.15
2872.928, 11672.83
2874.857, 11706.89
2876.785, 11732.35
2878.714, 11743.50
2880.642, 11751.10
2882.571, 11776.13
2884.499, 11796.40
2886.428, 11775.52
2888.356, 11753.00
2890.285, 11760.40
2892.213, 11789.11
2894.142, 11866.45
2896.070, 11912.51
2897.999, 11835.49
2899.927, 11777.27
2901.855, 11842.68
2903.784, 11887.46
2905.712, 11843.58
2907.641, 11820.18
2909.569, 11884.58
2911.498, 11925.41
2913.426, 11894.91
2915.355, 11892.11
2917.283, 11936.29
2919.212, 11972.03
2921.140, 11990.93
2923.069, 11996.20
2924.997, 11986.02
2926.926, 11965.88
2928.854, 11934.99
2930.782, 11947.29
2932.711, 12002.84
2934.639, 12015.81
2936.568, 11989.82
2938.496, 11979.60
2940.425, 11982.53
2942.353, 11985.40
2944.282, 11992.55
2946.210, 12027.30
2948.139, 12064.46
2950.067, 12041.52
2951.996, 12001.35
2953.924, 11998.27
2955.853, 12018.77
2957.781, 12065.46
2959.709, 12110.57
2961.638, 12126.80
2963.566, 12139.30
2965.495, 12177.07
2967.423, 12187.67
2969.352, 12104.68
2971.280, 12057.57
2973.209, 12117.81
2975.137, 12165.23
2977.066, 12175.38
2978.994, 12189.27
2980.923, 12222.17
2982.851, 12238.03
2984.780, 12231.49
2986.708, 12221.20
2988.636, 12207.95
2990.565, 12220.89
2992.493, 12258.78
2994.422, 12245.86
2996.350, 12196.66
2998.279, 12215.56
3000.207, 12272.09
3002.136, 12285.35
3004.064, 12278.79
3005.993, 12298.45
3007.921, 12320.29
3009.850, 12298.44
3011.778, 12281.28
3013.707, 12326.47
3015.635, 12366.87
3017.563, 12342.60
3019.492, 12326.18
3021.420, 12355.66
3023.349, 12374.27
3025.277, 12352.02
3027.206, 12338.95
3029.134, 12341.92
3031.063, 12367.46
3032.991, 12421.55
3034.920, 12440.33
3036.848, 12410.66
3038.777, 12433.28
3040.705, 12506.67
3042.634, 12480.75
3044.562, 12394.32
3046.490, 12403.82
3048.419, 12463.67
3050.347, 12473.61
3052.276, 12462.53
3054.204, 12477.09
3056.133, 12489.85
3058.061, 12459.87
3059.990, 12440.83
3061.918, 12484.07
3063.847, 12526.33
3065.775, 12546.82
3067.704, 12553.88
3069.632, 12531.05
3071.561, 12537.23
3073.489, 12592.36
3075.417, 12613.99
3077.346, 12592.72
3079.274, 12612.42
3081.203, 12678.06
3083.131, 12671.33
3085.060, 12611.95
3086.988, 12629.81
3088.917, 12681.23
3090.845, 12659.45
3092.774, 12618.36
3094.702, 12645.20
3096.631, 12682.60
3098.559, 12678.44
3100.488, 12672.12
3102.416, 12686.81
3104.344, 12707.26
3106.273, 12735.58
3108.201, 12748.29
3110.130, 12736.42
3112.058, 12719.68
3113.987, 12690.17
3115.915, 12705.04
3117.844, 12761.80
3119.772, 12793.46
3121.701, 12803.39
3123.629, 12821.03
3125.558, 12845.29
3127.486, 12885.21
3129.415, 12917.07
3131.343, 12904.33
3133.271, 12879.53
3135.200, 12849.03
3137.128, 12853.71
3139.057, 12941.43
3140.985, 12997.70
3142.914, 12953.48
3144.842, 12927.76
3146.771, 12933.57
3148.699, 12954.57
3150.628, 12989.96
3152.556, 12998.16
3154.485, 12982.28
3156.413, 12979.36
3158.342, 12987.06
3160.270, 12995.54
3162.198, 13013.51
3164.127, 13077.59
3166.055, 13125.16
3167.984, 13078.54
3169.912, 13042.69
3171.841, 13101.08
3173.769, 13125.58
3175.698, 13062.67
3177.626, 13025.56
3179.555, 13028.64
3181.483, 13060.54
3183.412, 13122.42
3185.340, 13125.74
3187.269, 13091.43
3189.197, 13130.49
3191.125, 13191.89
3193.054, 13167.96
3194.982, 13125.86
3196.911, 13142.77
3198.839, 13168.99
3200.768, 13183.71
3202.696, 13184.27
3204.625, 13145.01
3206.553, 13163.12
3208.482, 13267.63
3210.410, 13310.52
3212.339, 13268.83
3214.267, 13298.53
3216.196, 13375.20
3218.124, 13370.43
3220.052, 13324.58
3221.981, 13308.01
3223.909, 13301.96
3225.838, 13286.46
3227.766, 13272.89
3229.695, 13256.71
3231.623, 13266.02
3233.552, 13319.79
3235.480, 13368.51
3237.409, 13409.23
3239.337, 13407.67
3241.266, 13363.27
3243.194, 13309.83
3245.123, 13270.02
3247.051, 13346.03
3248.979, 13450.41
3250.908, 13432.25
3252.836, 13409.39
3254.765, 13488.73
3256.693, 13555.75
3258.622, 13540.25
3260.550, 13540.67
3262.479, 13581.76
3264.407, 13567.69
3266.336, 13485.96
3268.264, 13469.21
3270.193, 13507.47
3272.121, 13547.63
3274.050, 13585.68
3275.978, 13623.96
3277.906, 13645.69
3279.835, 13632.49
3281.763, 13597.73
3283.692, 13517.80
3285.620, 13490.95
3287.549, 13573.11
3289.477, 13609.36
3291.406, 13594.61
3293.334, 13575.68
3295.263, 13564.95
3297.191, 13635.53
3299.120, 13719.68
3301.048, 13690.89
3302.977, 13641.89
3304.905, 13643.99
3306.833, 13656.51
3308.762, 13661.78
3310.690, 13685.30
3312.619, 13748.23
3314.547, 13772.83
3316.476, 13759.75
3318.404, 13744.67
3320.333, 13731.43
3322.261, 13719.93
3324.190, 13723.79
3326.118, 13781.46
3328.047, 13829.94
3329.975, 13808.38
3331.904, 13817.92
3333.832, 13910.51
3335.760, 13899.00
3337.689, 13748.64
3339.617, 13765.94
3341.546, 13918.33
3343.474, 13985.03
3345.403, 13985.80
3347.331, 13917.84
3349.260, 13856.79
3351.188, 13875.51
3353.117, 13905.40
3355.045, 13934.60
3356.974, 13936.57
3358.902, 13899.35
3360.831, 13906.94
3362.759, 13950.68
3364.688, 13957.43
3366.616, 13942.74
3368.544, 13920.59
3370.473, 13923.25
3372.401, 14020.65
3374.330, 14071.15
3376.258, 13971.18
3378.187, 13947.25
3380.115, 14042.09
3382.044, 14101.31
3383.972, 14116.97
3385.901, 14060.44
3387.829, 13986.49
3389.758, 13993.35
3391.686, 14034.71
3393.615, 14092.89
3395.543, 14127.93
3397.471, 14110.55
3399.400, 14114.42
3401.328, 14153.69
3403.257, 14180.80
3405.185, 14189.47
3407.114, 14143.35
3409.042, 14085.78
3410.971, 14094.96
3412.899, 14127.27
3414.828, 14172.42
3416.756, 14192.77
3418.685, 14168.51
3420.613, 14164.38
3422.542, 14188.01
3424.470, 14198.41
3426.398, 14198.76
3428.327, 14205.10
3430.255, 14209.43
3432.184, 14190.59
3434.112, 14188.38
3436.041, 14235.88
3437.969, 14257.01
3439.898, 14216.00
3441.826, 14229.20
3443.755, 14290.99
3445.683, 14337.51
3447.612, 14361.73
3449.540, 14330.74
3451.469, 14303.69
3453.397, 14334.35
3455.325, 14355.81
3457.254, 14324.59
3459.182, 14331.65
3461.111, 14377.95
3463.039, 14384.76
3464.968, 14364.92
3466.896, 14349.71
3468.825, 14346.98
3470.753, 14367.30
3472.682, 14394.67
3474.610, 14426.93
3476.539, 14455.47
3478.467, 14480.28
3480.396, 14453.88
3482.324, 14396.92
3484.252, 14423.71
3486.181, 14471.54
3488.109, 14462.06
3490.038, 14446.02
3491.966, 14444.28
3493.895, 14453.31
3495.823, 14471.58
3497.752, 14517.68
3499.680, 14582.59
3501.609, 14616.15
3503.537, 14625.83
3505.466, 14598.03
3507.394, 14590.19
3509.323, 14660.20
3511.251, 14659.93
3513.179, 14510.25
3515.108, 14503.50
3517.036, 14609.71
3518.965, 14678.19
3520.893, 14714.88
3522.822, 14709.92
3524.750, 14712.04
3526.679, 14768.22
3528.607, 14788.79
3530.536, 14760.10
3532.464, 14727.28
3534.393, 14697.20
3536.321, 14684.26
3538.250, 14690.07
3540.178, 14736.29
3542.106, 14765.07
3544.035, 14732.92
3545.963, 14699.74
3547.892, 14670.69
3549.820, 14693.51
3551.749, 14747.99
3553.677, 14758.30
3555.606, 14749.73
3557.534, 14735.24
3559.463, 14737.25
3561.391, 14770.54
3563.320, 14779.21
3565.248, 14754.28
3567.177, 14773.03
3569.105, 14815.59
3571.033, 14848.10
3572.962, 14856.99
3574.890, 14801.71
3576.819, 14779.57
3578.747, 14823.48
3580.676, 14831.69
3582.604, 14805.05
3584.533, 14823.46
3586.461, 14863.86
3588.390, 14911.70
3590.318, 14932.23
3592.247, 14893.99
3594.175, 14893.07
3596.104, 14962.70
3598.032, 14962.87
3599.960, 14923.24
3601.889, 14931.28
3603.817, 14950.28
3605.746, 14943.67
3607.674, 14939.90
3609.603, 14943.91
3611.531, 14973.60
3613.460, 15023.26
3615.388, 15056.06
3617.317, 15059.06
3619.245, 14975.90
3621.174, 14912.75
3623.102, 14920.01
3625.031, 14977.67
3626.959, 15085.95
3628.887, 15061.53
3630.816, 14968.39
3632.744, 14975.96
3634.673, 15016.26
3636.601, 15044.10
3638.530, 15071.32
3640.458, 15109.43
3642.387, 15087.32
3644.315, 15028.94
3646.244, 15058.34
3648.172, 15117.85
3650.101, 15154.27
3652.029, 15167.62
3653.958, 15138.90
3655.886, 15134.32
3657.814, 15152.57
3659.743, 15179.33
3661.671, 15184.60
3663.600, 15077.39
3665.528, 15000.15
3667.457, 15029.33
3669.385, 15114.79
3671.314, 15244.48
3673.242, 15271.01
3675.171, 15229.59
3677.099, 15157.03
3679.028, 15115.98
3680.956, 15177.91
3682.885, 15202.30
3684.813, 15172.32
3686.741, 15153.20
3688.670, 15147.78
3690.598, 15157.63
3692.527, 15179.60
3694.455, 15238.26
3696.384, 15236.06
3698.312, 15153.73
3700.241, 15156.50
3702.169, 15218.94
3704.098, 15269.35
3706.026, 15286.70
3707.955, 15222.26
3709.883, 15204.93
3711.812, 15264.65
3713.740, 15259.78
3715.668, 15213.74
3717.597, 15222.84
3719.525, 15243.24
3721.454, 15232.42
3723.382, 15241.24
3725.311, 15282.08
3727.239, 15315.68
3729.168, 15332.94
3731.096, 15290.50
3733.025, 15255.87
3734.953, 15283.15
3736.882, 15326.27
3738.810, 15378.26
3740.739, 15414.48
3742.667, 15424.07
3744.595, 15346.10
3746.524, 15287.10
3748.452, 15338.89
3750.381, 15372.12
3752.309, 15362.66
3754.238, 15401.82
3756.166, 15452.57
3758.095, 15399.17
3760.023, 15357.24
3761.952, 15403.77
3763.880, 15451.45
3765.809, 15488.17
3767.737, 15553.09
3769.666, 15596.94
3771.594, 15473.38
3773.522, 15389.64
3775.451, 15465.36
3777.379, 15529.53
3779.308, 15564.87
3781.236, 15553.51
3783.165, 15530.18
3785.093, 15542.84
3787.022, 15558.60
3788.950, 15567.68
3790.879, 15568.45
3792.807, 15562.96
3794.736, 15558.51
3796.664, 15558.62
3798.593, 15570.80
3800.521, 15580.79
3802.449, 15583.54
3804.378, 15600.70
3806.306, 15622.78
3808.235, 15638.79
3810.163, 15614.68
3812.092, 15491.37
3814.020, 15446.58
3815.949, 15513.54
3817.877, 15603.95
3819.806, 15674.12
3821.734, 15647.18
3823.663, 15600.05
3825.591, 15551.40
3827.520, 15579.99
3829.448, 15673.87
3831.376, 15733.20
3833.305, 15756.66
3835.233, 15730.23
3837.162, 15689.84
3839.090, 15640.82
3841.019, 15698.27
3842.947, 15800.07
3844.876, 15771.56
3846.804, 15724.99
3848.733, 15714.77
3850.661, 15731.74
3852.590, 15769.47
3854.518, 15786.53
3856.447, 15771.96
3858.375, 15707.16
3860.303, 15704.17
3862.232, 15820.35
3864.160, 15844.68
3866.089, 15794.65
3868.017, 15696.25
3869.946, 15625.44
3871.874, 15655.42
3873.803, 15624.06
3875.731, 15524.42
3877.660, 15596.23
3879.588, 15698.65
3881.517, 15638.32
3883.445, 15603.25
3885.374, 15656.99
3887.302, 15674.15
3889.230, 15666.32
3891.159, 15670.97
3893.087, 15682.33
3895.016, 15720.10
3896.944, 15724.29
3898.873, 15674.63
3900.801, 15624.89
3902.730, 15597.82
3904.658, 15606.98
3906.587, 15631.31
3908.515, 15661.62
3910.444, 15639.01
3912.372, 15589.80
3914.301, 15566.12
3916.229, 15570.33
3918.157, 15604.30
3920.086, 15609.49
3922.014, 15586.43
3923.943, 15572.63
3925.871, 15569.44
3927.800, 15560.90
3929.728, 15547.38
3931.657, 15537.71
3933.585, 15536.88
3935.514, 15534.08
3937.442, 15510.09
3939.371, 15496.51
3941.299, 15513.12
3943.228, 15474.23
3945.156, 15426.70
3947.084, 15444.79
3949.013, 15477.63
3950.941, 15520.91
3952.870, 15488.77
3954.798, 15411.19
3956.727, 15401.48
3958.655, 15424.99
3960.584, 15485.56
3962.512, 15492.60
3964.441, 15446.86
3966.369, 15414.67
3968.298, 15407.52
3970.226, 15451.95
3972.155, 15461.65
3974.083, 15429.75
3976.011, 15408.84
3977.940, 15387.15
3979.868, 15331.79
3981.797, 15327.60
3983.725, 15416.80
3985.654, 15422.20
3987.582, 15384.87
3989.511, 15373.54
3991.439, 15371.39
3993.368, 15379.76
3995.296, 15354.00
3997.225, 15315.13
3999.153, 15321.95
4001.082, 15352.05
4003.010, 15381.63
4004.938, 15404.56
4006.867, 15432.22
4008.795, 15398.48
4010.724, 15350.14
4012.652, 15305.99
4014.581, 15326.66
4016.509, 15407.27
4018.438, 15410.91
4020.366, 15388.53
4022.295, 15383.89
4024.223, 15362.09
4026.152, 15299.24
4028.080, 15323.18
4030.009, 15404.10
4031.937, 15395.12
4033.865, 15369.45
4035.794, 15350.98
4037.722, 15298.58
4039.651, 15287.35
4041.579, 15312.76
4043.508, 15329.02
4045.436, 15344.79
4047.365, 15331.86
4049.293, 15335.03
4051.222, 15313.56
4053.150, 15295.52
4055.079, 15363.20
4057.007, 15392.79
4058.936, 15341.88
4060.864, 15311.36
4062.792, 15308.71
4064.721, 15291.24
4066.649, 15332.82
4068.578, 15396.14
4070.506, 15364.72
4072.435, 15296.29
4074.363, 15264.43
4076.292, 15307.13
4078.220, 15321.14
4080.149, 15248.40
4082.077, 15236.12
4084.006, 15265.87
4085.934, 15287.39
4087.863, 15277.91
4089.791, 15261.20
4091.719, 15303.48
4093.648, 15335.74
4095.576, 15295.61
4097.505, 15224.80
4099.434, 15224.19
4101.362, 15243.46
4103.291, 15228.54
4105.219, 15246.88
4107.147, 15247.92
4109.076, 15257.19
4111.004, 15256.25
4112.933, 15230.43
4114.861, 15248.13
4116.790, 15251.65
4118.718, 15227.18
4120.646, 15190.75
4122.575, 15206.88
4124.503, 15270.99
4126.432, 15247.17
4128.360, 15217.30
4130.289, 15225.28
4132.217, 15217.34
4134.146, 15234.33
4136.074, 15217.67
4138.003, 15176.04
4139.931, 15241.24
4141.860, 15287.11
4143.788, 15229.93
4145.717, 15248.10
4147.645, 15304.60
4149.574, 15265.20
4151.502, 15219.62
4153.431, 15201.85
4155.359, 15222.33
4157.288, 15252.48
4159.216, 15190.43
4161.145, 15137.90
4163.073, 15159.48
4165.001, 15190.73
4166.930, 15221.42
4168.858, 15304.49
4170.787, 15326.06
4172.715, 15233.07
4174.644, 15208.15
4176.572, 15232.22
4178.500, 15257.66
4180.429, 15244.29
4182.357, 15163.66
4184.286, 15148.26
4186.214, 15183.96
4188.143, 15253.29
4190.071, 15293.24
4192.000, 15276.71
4193.928, 15248.97
4195.857, 15222.35
4197.785, 15221.18
4199.714, 15207.79
4201.642, 15158.36
4203.571, 15218.70
4205.499, 15315.22
4207.428, 15306.14
4209.356, 15273.68
4211.285, 15235.26
4213.213, 15190.37
4215.142, 15160.75
4217.070, 15216.94
4218.999, 15242.44
4220.927, 15200.20
4222.855, 15195.38
4224.784, 15213.24
4226.712, 15268.75
4228.641, 15257.88
4230.569, 15157.60
4232.498, 15150.11
4234.426, 15176.16
4236.354, 15155.19
4238.283, 15185.55
4240.211, 15279.69
4242.140, 15281.55
4244.068, 15244.98
4245.997, 15198.45
4247.925, 15201.57
4249.854, 15255.14
4251.782, 15311.46
4253.711, 15338.38
4255.639, 15299.75
4257.568, 15259.64
4259.496, 15236.91
4261.425, 15313.58
4263.353, 15379.00
4265.282, 15362.48
4267.210, 15322.27
4269.139, 15286.47
4271.067, 15344.25
4272.996, 15384.29
4274.924, 15344.69
4276.853, 15374.71
4278.781, 15422.09
4280.709, 15382.45
4282.638, 15367.66
4284.566, 15406.98
4286.495, 15463.44
4288.423, 15489.95
4290.352, 15389.43
4292.280, 15354.91
4294.208, 15402.42
4296.137, 15443.69
4298.065, 15460.36
4299.994, 15414.98
4301.922, 15446.29
4303.851, 15526.64
4305.779, 15495.35
4307.708, 15495.17
4309.636, 15604.02
4311.565, 15663.51
4313.493, 15663.50
4315.422, 15543.55
4317.350, 15498.90
4319.279, 15581.38
4321.207, 15658.52
4323.136, 15711.14
4325.064, 15717.34
4326.993, 15705.19
4328.921, 15681.57
4330.850, 15636.07
4332.778, 15636.38
4334.707, 15738.22
4336.635, 15735.13
4338.563, 15676.64
4340.492, 15750.16
4342.420, 15756.28
4344.349, 15640.64
4346.277, 15704.19
4348.206, 15831.23
4350.134, 15875.68
4352.063, 15901.44
4353.991, 15912.00
4355.919, 15830.81
4357.848, 15780.74
4359.776, 15861.22
4361.705, 15919.00
4363.633, 15942.69
4365.562, 15930.65
4367.490, 15897.30
4369.419, 15840.64
4371.347, 15862.91
4373.276, 15919.65
4375.204, 15964.95
4377.133, 16008.39
4379.061, 16043.39
4380.990, 15993.41
4382.918, 15966.61
4384.847, 16031.99
4386.775, 16123.96
4388.704, 16181.54
4390.632, 16028.86
4392.561, 15998.76
4394.489, 16157.58
4396.417, 16162.02
4398.346, 16126.60
4400.274, 16143.93
4402.203, 16152.11
4404.131, 16155.05
4406.060, 16203.67
4407.988, 16215.94
4409.917, 16165.08
4411.845, 16191.42
4413.773, 16233.69
4415.702, 16195.25
4417.630, 16222.65
4419.559, 16300.82
4421.487, 16243.01
4423.416, 16201.19
4425.344, 16279.45
4427.273, 16279.21
4429.201, 16260.84
4431.130, 16343.22
4433.058, 16354.10
4434.987, 16281.76
4436.915, 16304.69
4438.844, 16326.31
4440.772, 16284.40
4442.701, 16419.53
4444.629, 16579.28
4446.558, 16461.29
4448.486, 16327.97
4450.415, 16242.90
4452.343, 16278.07
4454.271, 16344.92
4456.200, 16391.45
4458.128, 16423.67
4460.057, 16440.41
4461.985, 16422.97
4463.914, 16441.54
4465.842, 16501.89
4467.771, 16467.93
4469.699, 16417.09
4471.627, 16387.06
4473.556, 16417.28
4475.484, 16476.56
4477.413, 16526.96
4479.341, 16546.08
4481.270, 16533.26
4483.198, 16471.40
4485.127, 16458.18
4487.055, 16567.67
4488.984, 16595.27
4490.912, 16580.29
4492.841, 16596.45
4494.769, 16576.89
4496.698, 16533.76
4498.626, 16635.01
4500.555, 16713.55
4502.483, 16700.03
4504.412, 16586.55
4506.340, 16505.11
4508.269, 16630.83
4510.197, 16693.05
4512.125, 16684.45
4514.054, 16666.27
4515.982, 16701.08
4517.911, 16815.58
4519.839, 16834.34
4521.768, 16796.67
4523.696, 16705.86
4525.625, 16727.46
4527.553, 16793.15
4529.481, 16704.68
4531.410, 16711.07
4533.338, 16828.56
4535.267, 16795.08
4537.195, 16763.78
4539.124, 16822.38
4541.052, 16850.46
4542.981, 16858.76
4544.909, 16865.27
4546.838, 16879.02
4548.766, 16888.06
4550.695, 16813.58
4552.623, 16801.66
4554.552, 16889.82
4556.480, 16921.61
4558.409, 16945.07
4560.337, 17002.13
4562.266, 17014.52
4564.194, 16995.79
4566.123, 16975.41
4568.051, 16941.76
4569.979, 16900.69
4571.908, 16873.96
4573.836, 16910.30
4575.765, 17027.42
4577.693, 17095.17
4579.622, 17093.48
4581.550, 16988.37
4583.479, 16969.18
4585.407, 17015.37
4587.335, 17086.28
4589.264, 17111.26
4591.192, 17092.01
4593.121, 17106.30
4595.049, 17112.97
4596.978, 17097.62
4598.906, 17049.72
4600.835, 17052.21
4602.763, 17184.64
4604.692, 17241.84
4606.620, 17220.07
4608.549, 17095.99
4610.477, 17050.44
4612.406, 17083.86
4614.334, 17100.13
4616.263, 17127.18
4618.191, 17168.13
4620.120, 17156.39
4622.048, 17121.03
4623.977, 17069.66
4625.905, 17127.26
4627.833, 17216.82
4629.762, 17249.78
4631.690, 17228.23
4633.619, 17172.66
4635.547, 17090.57
4637.476, 17142.55
4639.404, 17296.92
4641.333, 17233.05
4643.261, 17196.26
4645.189, 17304.57
4647.118, 17267.85
4649.046, 17222.09
4650.975, 17271.89
4652.903, 17302.67
4654.832, 17309.36
4656.760, 17285.39
4658.689, 17282.91
4660.617, 17288.23
4662.546, 17226.40
4664.474, 17244.13
4666.403, 17347.89
4668.331, 17354.71
4670.260, 17348.56
4672.188, 17355.89
4674.117, 17274.91
4676.045, 17239.11
4677.974, 17377.28
4679.902, 17412.36
4681.831, 17405.78
4683.759, 17439.41
4685.688, 17386.59
4687.616, 17316.25
4689.544, 17411.30
4691.473, 17415.47
4693.401, 17336.61
4695.330, 17332.03
4697.258, 17387.23
4699.187, 17487.22
4701.115, 17502.68
4703.043, 17448.93
4704.972, 17342.36
4706.900, 17415.24
4708.829, 17493.56
4710.757, 17410.45
4712.686, 17424.59
4714.614, 17461.64
4716.543, 17434.85
4718.471, 17446.99
4720.400, 17484.84
4722.328, 17522.01
4724.257, 17520.49
4726.185, 17494.53
4728.114, 17489.03
4730.042, 17516.64
4731.971, 17569.58
4733.899, 17610.15
4735.828, 17623.66
4737.756, 17604.03
4739.685, 17510.82
4741.613, 17481.56
4743.542, 17583.66
4745.470, 17582.27
4747.398, 17546.60
4749.327, 17521.83
4751.255, 17535.33
4753.184, 17565.42
4755.112, 17592.59
4757.041, 17623.22
4758.969, 17628.00
4760.897, 17546.87
4762.826, 17534.12
4764.754, 17565.19
4766.683, 17555.84
4768.611, 17571.54
4770.540, 17604.21
4772.468, 17599.36
4774.397, 17599.53
4776.325, 17610.57
4778.254, 17625.40
4780.182, 17628.86
4782.111, 17615.63
4784.039, 17557.36
4785.968, 17530.58
4787.896, 17560.89
4789.825, 17669.70
4791.753, 17754.33
4793.682, 17763.82
4795.610, 17688.96
4797.539, 17619.87
4799.467, 17606.35
4801.396, 17536.04
4803.324, 17509.61
4805.252, 17647.16
4807.181, 17665.61
4809.109, 17670.20
4811.038, 17770.24
4812.966, 17779.82
4814.895, 17746.60
4816.823, 17744.38
4818.751, 17729.34
4820.680, 17720.16
4822.608, 17752.45
4824.537, 17776.13
4826.465, 17765.95
4828.394, 17655.25
4830.322, 17641.48
4832.251, 17690.03
4834.179, 17683.27
4836.108, 17699.26
4838.036, 17735.58
4839.965, 17765.08
4841.893, 17775.55
4843.822, 17762.55
4845.750, 17695.00
4847.679, 17681.07
4849.607, 17722.71
4851.536, 17766.62
4853.464, 17791.73
4855.393, 17799.69
4857.321, 17817.27
4859.250, 17830.72
4861.178, 17834.67
4863.106, 17815.63
4865.035, 17800.73
4866.963, 17801.92
4868.892, 17873.21
4870.820, 17880.49
4872.749, 17804.50
4874.677, 17746.44
4876.605, 17766.39
4878.534, 17852.05
4880.462, 17836.05
4882.391, 17782.88
4884.319, 17723.48
4886.248, 17716.76
4888.176, 17767.11
4890.105, 17853.53
4892.033, 17869.35
4893.962, 17798.21
4895.890, 17664.98
4897.819, 17784.59
4899.747, 17866.68
4901.676, 17841.31
4903.604, 17798.92
4905.533, 17846.65
4907.461, 17987.29
4909.390, 17909.41
4911.318, 17839.31
4913.247, 17840.08
4915.175, 17841.13
4917.104, 17883.39
4919.032, 17963.61
4920.960, 18003.94
4922.889, 17950.07
4924.817, 17829.05
4926.746, 17925.36
4928.674, 17907.94
4930.603, 17775.50
4932.531, 17909.99
4934.459, 17979.08
4936.388, 17921.19
4938.316, 17807.10
4940.245, 17805.19
4942.173, 17889.31
4944.102, 17858.17
4946.030, 17855.67
4947.959, 17882.36
4949.887, 17838.35
4951.816, 17816.12
4953.744, 17824.25
4955.673, 17845.60
4957.601, 17860.90
4959.530, 17878.44
4961.458, 17941.42
4963.387, 17921.87
4965.315, 17872.37
4967.244, 17915.49
4969.172, 17953.94
4971.101, 17958.40
4973.029, 17875.79
4974.958, 17884.22
4976.886, 17923.22
4978.814, 17907.86
4980.743, 17899.32
4982.671, 17900.08
4984.600, 17911.03
4986.528, 17865.03
4988.457, 17829.19
4990.385, 17872.73
4992.313, 17900.25
4994.242, 17910.71
4996.170, 17902.95
4998.099, 17828.87
5000.027, 17809.94
5001.956, 17905.82
5003.884, 17991.12
5005.813, 18017.88
5007.741, 17974.43
5009.670, 17911.96
5011.598, 17884.26
5013.527, 17889.23
5015.455, 17839.31
5017.384, 17817.06
5019.312, 17842.62
5021.241, 17944.92
5023.169, 17975.82
5025.098, 17932.88
5027.026, 17828.19
5028.955, 17880.17
5030.883, 17971.31
5032.812, 17864.37
5034.740, 17833.50
5036.668, 17867.91
5038.597, 17941.09
5040.525, 17933.63
5042.454, 17899.04
5044.382, 17881.26
5046.311, 17990.61
5048.239, 18001.44
5050.167, 17790.70
5052.096, 17891.92
5054.024, 17907.19
5055.953, 17758.89
5057.881, 17885.85
5059.810, 17894.69
5061.738, 17759.26
5063.667, 17789.63
5065.595, 17897.61
5067.524, 17973.53
5069.452, 17793.86
5071.381, 17778.34
5073.309, 17841.93
5075.238, 17791.97
5077.166, 17761.93
5079.095, 17779.41
5081.023, 17869.38
5082.952, 17842.33
5084.880, 17844.23
5086.809, 17941.73
5088.737, 17910.34
5090.666, 17847.04
5092.594, 17796.08
5094.522, 17778.83
5096.451, 17781.00
5098.379, 17776.94
5100.308, 17690.01
5102.236, 17664.18
5104.165, 17698.70
5106.093, 17798.21
5108.021, 17748.88
5109.950, 17666.24
5111.878, 17664.01
5113.807, 17700.65
5115.735, 17689.95
5117.664, 17606.44
5119.592, 17691.55
5121.521, 17744.68
5123.449, 17705.73
5125.378, 17645.20
5127.306, 17571.17
5129.235, 17532.31
5131.163, 17649.67
5133.092, 17675.75
5135.020, 17652.80
5136.949, 17665.35
5138.877, 17672.03
5140.806, 17722.24
5142.734, 17855.26
5144.663, 17753.99
5146.591, 17661.38
5148.520, 17652.88
5150.448, 17632.90
5152.376, 17673.54
5154.305, 17738.06
5156.233, 17688.52
5158.162, 17711.29
5160.090, 17725.55
5162.019, 17611.57
5163.947, 17580.76
5165.875, 17575.57
5167.804, 17552.23
5169.732, 17527.00
5171.661, 17571.39
5173.589, 17667.57
5175.518, 17608.80
5177.446, 17593.54
5179.375, 17610.08
5181.303, 17571.75
5183.232, 17534.03
5185.160, 17532.74
5187.089, 17600.56
5189.017, 17591.82
5190.946, 17612.39
5192.874, 17689.97
5194.803, 17640.75
5196.731, 17583.68
5198.660, 17569.82
5200.588, 17679.45
5202.517, 17682.96
5204.445, 17627.46
5206.374, 17573.75
5208.302, 17574.38
5210.230, 17564.04
5212.159, 17523.02
5214.087, 17582.95
5216.016, 17622.80
5217.944, 17625.91
5219.873, 17627.98
5221.801, 17611.88
5223.729, 17581.81
5225.658, 17530.78
5227.586, 17601.66
5229.515, 17624.05
5231.443, 17540.87
5233.372, 17552.03
5235.300, 17561.36
5237.229, 17566.09
5239.157, 17643.35
5241.086, 17607.61
5243.014, 17530.93
5244.943, 17493.71
5246.871, 17506.87
5248.800, 17527.12
5250.728, 17522.63
5252.657, 17402.52
5254.585, 17377.59
5256.514, 17419.40
5258.442, 17395.41
5260.371, 17478.67
5262.299, 17524.12
5264.228, 17431.37
5266.156, 17481.69
5268.084, 17400.23
5270.013, 17231.06
5271.941, 17411.20
5273.870, 17418.25
5275.798, 17348.12
5277.727, 17400.56
5279.655, 17351.35
5281.583, 17328.46
5283.512, 17373.03
5285.440, 17352.34
5287.369, 17385.96
5289.297, 17430.17
5291.226, 17362.00
5293.154, 17389.67
5295.083, 17410.80
5297.011, 17351.80
5298.940, 17410.15
5300.868, 17384.84
5302.797, 17298.35
5304.725, 17345.69
5306.654, 17279.04
5308.582, 17211.32
5310.511, 17258.04
5312.439, 17344.91
5314.368, 17362.28
5316.296, 17307.38
5318.225, 17298.46
5320.153, 17256.52
5322.082, 17217.61
5324.010, 17226.88
5325.938, 17222.37
5327.867, 17237.28
5329.795, 17257.79
5331.724, 17152.85
5333.652, 17128.36
5335.581, 17155.20
5337.509, 17155.75
5339.438, 17281.31
5341.366, 17305.04
5343.294, 17184.03
5345.223, 17126.64
5347.151, 17126.53
5349.080, 17123.90
5351.008, 17045.39
5352.937, 17109.88
5354.865, 17141.62
5356.794, 17073.18
5358.722, 16908.44
5360.651, 17038.83
5362.579, 17207.21
5364.508, 17071.29
5366.436, 17042.40
5368.365, 17036.18
5370.293, 17015.26
5372.222, 17013.00
5374.150, 17018.86
5376.079, 17011.79
5378.007, 16964.01
5379.936, 16976.60
5381.864, 17014.76
5383.792, 17040.59
5385.721, 16971.69
5387.649, 16983.79
5389.578, 17042.62
5391.506, 17092.62
5393.435, 16937.93
5395.363, 16905.13
5397.292, 16990.63
5399.220, 16976.77
5401.148, 16900.07
5403.077, 16869.85
5405.005, 16937.24
5406.934, 16986.99
5408.862, 16983.09
5410.791, 16921.46
5412.719, 16793.33
5414.648, 16851.03
5416.576, 16863.95
5418.505, 16754.01
5420.433, 16690.82
5422.362, 16696.78
5424.290, 16732.74
5426.219, 16758.12
5428.147, 16739.66
5430.076, 16744.01
5432.004, 16778.05
5433.933, 16821.50
5435.861, 16797.11
5437.790, 16717.40
5439.718, 16615.03
5441.646, 16742.69
5443.575, 16721.96
5445.503, 16595.64
5447.432, 16512.69
5449.360, 16563.21
5451.289, 16579.78
5453.217, 16546.93
5455.146, 16610.38
5457.074, 16641.14
5459.002, 16614.77
5460.931, 16534.06
5462.859, 16477.25
5464.788, 16455.69
5466.716, 16470.41
5468.645, 16528.33
5470.573, 16554.23
5472.502, 16529.81
5474.430, 16479.53
5476.359, 16489.57
5478.287, 16457.27
5480.216, 16370.63
5482.144, 16258.18
5484.073, 16318.05
5486.001, 16362.98
5487.930, 16392.06
5489.858, 16465.63
5491.787, 16466.71
5493.715, 16439.28
5495.644, 16394.08
5497.572, 16312.82
5499.500, 16278.59
5501.429, 16288.48
5503.357, 16321.74
5505.286, 16321.84
5507.214, 16307.30
5509.143, 16315.44
5511.071, 16369.62
5513.000, 16308.32
5514.928, 16229.81
5516.856, 16177.01
5518.785, 16176.95
5520.713, 16152.91
5522.642, 16161.62
5524.570, 16196.57
5526.499, 16196.87
5528.427, 16134.20
5530.356, 16088.05
5532.284, 16090.12
5534.213, 16072.74
5536.141, 16116.42
5538.070, 16126.30
5539.998, 16027.71
5541.927, 16076.22
5543.855, 16112.05
5545.784, 16090.50
5547.712, 16001.41
5549.641, 16071.53
5551.569, 16048.91
5553.498, 15958.30
5555.426, 15965.67
5557.354, 15959.34
5559.283, 16007.12
5561.211, 16060.50
5563.140, 15862.41
5565.068, 15840.77
5566.997, 15903.58
5568.925, 15972.41
5570.854, 16034.84
5572.782, 15916.08
5574.710, 15870.02
5576.639, 16023.00
5578.567, 15814.72
5580.496, 15783.48
5582.424, 15811.94
5584.353, 15724.90
5586.281, 15680.81
5588.210, 15686.63
5590.138, 15709.75
5592.067, 15716.48
5593.995, 15678.63
5595.924, 15568.35
5597.852, 15502.10
5599.781, 15712.17
5601.709, 15613.99
5603.638, 15593.85
5605.566, 15648.41
5607.495, 15545.89
5609.423, 15572.56
5611.352, 15591.11
5613.280, 15567.85
5615.208, 15554.58
5617.137, 15567.14
5619.065, 15496.65
5620.994, 15380.85
5622.922, 15445.52
5624.851, 15533.81
5626.779, 15545.60
5628.708, 15471.67
5630.636, 15389.75
5632.564, 15431.80
5634.493, 15437.17
5636.421, 15372.79
5638.350, 15410.59
5640.278, 15466.98
5642.207, 15462.24
5644.135, 15383.50
5646.064, 15306.02
5647.992, 15270.04
5649.921, 15275.37
5651.849, 15295.69
5653.778, 15251.48
5655.706, 15154.46
5657.635, 15109.31
5659.563, 15153.23
5661.492, 15227.75
5663.420, 15160.58
5665.349, 15071.34
5667.277, 15057.16
5669.206, 15223.04
5671.134, 15258.31
5673.063, 15227.01
5674.991, 15188.28
5676.919, 15144.43
5678.848, 15077.08
5680.776, 15072.85
5682.705, 15125.95
5684.633, 15081.17
5686.562, 15067.38
5688.490, 15034.61
5690.418, 14983.15
5692.347, 15017.20
5694.275, 14991.82
5696.204, 14962.56
5698.132, 14952.87
5700.061, 14954.09
5701.989, 14916.99
5703.918, 14889.35
5705.846, 14876.12
5707.775, 14848.85
5709.703, 14829.70
5711.632, 14787.70
5713.560, 14769.44
5715.489, 14854.81
5717.417, 14798.47
5719.346, 14775.20
5721.274, 14797.95
5723.203, 14812.09
5725.131, 14819.05
5727.060, 14681.85
5728.988, 14583.82
5730.917, 14715.86
5732.845, 14665.59
5734.773, 14706.62
5736.702, 14726.05
5738.630, 14617.38
5740.559, 14636.96
5742.487, 14598.13
5744.416, 14588.30
5746.344, 14636.95
5748.272, 14550.59
5750.201, 14563.88
5752.129, 14561.20
5754.058, 14483.55
5755.986, 14359.39
5757.915, 14454.04
5759.843, 14539.50
5761.772, 14531.36
5763.700, 14461.09
5765.629, 14417.54
5767.557, 14352.23
5769.486, 14307.81
5771.414, 14341.69
5773.343, 14316.57
5775.271, 14297.95
5777.200, 14335.41
5779.128, 14424.82
5781.057, 14296.92
5782.985, 14278.00
5784.914, 14339.46
5786.842, 14399.84
5788.771, 14337.21
5790.699, 14314.44
5792.627, 14291.88
5794.556, 14242.18
5796.484, 14157.28
5798.413, 14297.66
5800.341, 14245.49
5802.270, 14103.98
5804.198, 14089.27
5806.126, 14048.36
5808.055, 14071.88
5809.983, 14100.45
5811.912, 14085.32
5813.840, 14027.98
5815.769, 14060.04
5817.697, 14058.94
5819.626, 14016.31
5821.554, 14042.91
5823.483, 14019.46
5825.411, 14023.58
5827.340, 14005.52
5829.268, 13892.65
5831.197, 13886.32
5833.125, 13845.95
5835.054, 13847.99
5836.982, 13905.32
5838.911, 13806.62
5840.839, 13836.19
5842.768, 13881.05
5844.696, 13883.45
5846.625, 13840.96
5848.553, 13861.39
5850.481, 13775.50
5852.410, 13704.42
5854.338, 13759.92
5856.267, 13798.26
5858.195, 13737.31
5860.124, 13702.84
5862.052, 13731.76
5863.980, 13759.38
5865.909, 13669.35
5867.837, 13633.33
5869.766, 13602.42
5871.694, 13507.47
5873.623, 13545.05
5875.551, 13543.96
5877.480, 13647.98
5879.408, 13779.79
5881.337, 13491.55
5883.265, 13459.56
5885.194, 13498.12
5887.122, 13503.66
5889.051, 13451.36
5890.979, 13418.89
5892.908, 13390.96
5894.836, 13373.67
5896.765, 13365.61
5898.693, 13346.45
5900.622, 13392.48
5902.550, 13372.04
5904.479, 13309.81
5906.407, 13273.75
5908.335, 13317.17
5910.264, 13281.04
5912.192, 13266.43
5914.121, 13280.90
5916.049, 13231.60
5917.978, 13293.27
5919.906, 13232.81
5921.834, 13156.86
5923.763, 13165.93
5925.691, 13105.60
5927.620, 13196.25
5929.548, 13152.87
5931.477, 13008.67
5933.405, 12955.97
5935.334, 12961.36
5937.262, 13005.41
5939.191, 12997.68
5941.119, 12954.27
5943.048, 13027.99
5944.976, 13035.40
5946.905, 13006.95
5948.833, 12964.05
5950.762, 12926.81
5952.690, 12973.50
5954.619, 12926.16
5956.547, 12916.82
5958.476, 12931.61
5960.404, 12877.52
5962.333, 12862.33
5964.261, 12783.97
5966.189, 12733.34
5968.118, 12762.26
5970.046, 12856.59
5971.975, 12768.92
5973.903, 12748.04
5975.832, 12751.68
5977.760, 12711.46
5979.688, 12694.57
5981.617, 12612.83
5983.545, 12639.90
5985.474, 12699.68
5987.402, 12663.99
5989.331, 12611.49
5991.259, 12544.66
5993.188, 12498.70
5995.116, 12508.68
5997.045, 12600.64
5998.973, 12581.88
6000.902, 12548.69
6002.830, 12527.99
6004.759, 12509.86
6006.687, 12467.81
6008.616, 12364.71
6010.544, 12330.40
6012.473, 12435.89
6014.401, 12573.81
6016.330, 12427.61
6018.258, 12354.24
6020.187, 12345.74
6022.115, 12381.56
6024.043, 12411.93
6025.972, 12323.13
6027.900, 12253.71
6029.829, 12272.76
6031.757, 12310.55
6033.686, 12289.46
6035.614, 12162.02
6037.542, 12221.59
6039.471, 12204.92
6041.399, 12201.10
6043.328, 12282.78
6045.256, 12157.93
6047.185, 12215.69
6049.113, 12320.61
6051.042, 12279.35
6052.970, 12058.67
6054.899, 12017.45
6056.827, 12019.85
6058.756, 12053.37
6060.684, 12066.46
6062.613, 12037.12
6064.541, 12062.31
6066.470, 12024.37
6068.398, 11962.59
6070.327, 11939.07
6072.255, 11957.10
6074.184, 11882.65
6076.112, 11870.56
6078.041, 11856.06
6079.969, 11837.10
6081.897, 11828.37
6083.826, 11823.26
6085.754, 11846.91
6087.683, 11772.87
6089.611, 11713.95
6091.540, 11741.85
6093.468, 11763.92
6095.396, 11733.42
6097.325, 11668.36
6099.253, 11645.46
6101.182, 11674.31
6103.110, 11681.21
6105.039, 11649.17
6106.967, 11582.11
6108.896, 11629.85
6110.824, 11692.09
6112.753, 11506.40
6114.681, 11504.61
6116.610, 11495.67
6118.538, 11516.71
6120.467, 11514.25
6122.395, 11405.88
6124.324, 11431.98
6126.252, 11461.12
6128.181, 11471.65
6130.109, 11434.50
6132.038, 11354.68
6133.966, 11368.57
6135.895, 11351.54
6137.823, 11246.33
6139.751, 11227.06
6141.680, 11318.47
6143.608, 11245.36
6145.537, 11255.41
6147.465, 11176.57
6149.394, 11244.95
6151.322, 11371.48
6153.250, 11190.51
6155.179, 11161.63
6157.107, 11099.57
6159.036, 11096.34
6160.964, 11125.91
6162.893, 11116.30
6164.821, 11086.58
6166.750, 11034.26
6168.678, 11097.26
6170.607, 11063.41
6172.535, 10907.91
6174.464, 10988.54
6176.392, 10932.06
6178.321, 10972.52
6180.249, 10928.26
6182.178, 10853.16
6184.106, 10916.00
6186.035, 10842.36
6187.963, 10828.14
6189.892, 10882.77
6191.820, 10898.64
6193.749, 10844.76
6195.677, 10841.97
6197.605, 10780.25
6199.534, 10780.95
6201.462, 10740.95
6203.391, 10727.45
6205.319, 10833.88
6207.248, 10726.88
6209.176, 10696.52
6211.104, 10617.47
6213.033, 10563.64
6214.961, 10609.56
6216.890, 10712.85
6218.818, 10617.80
6220.747, 10576.40
6222.675, 10560.07
6224.604, 10565.03
6226.532, 10584.98
6228.461, 10513.17
6230.389, 10542.30
6232.318, 10454.05
6234.246, 10466.74
6236.175, 10536.64
6238.103, 10411.71
6240.032, 10312.50
6241.960, 10383.68
6243.889, 10394.67
6245.817, 10352.25
6247.746, 10285.68
6249.674, 10150.40
6251.603, 10363.08
6253.531, 10292.18
6255.459, 10283.96
6257.388, 10343.42
6259.316, 10323.70
6261.245, 10259.96
6263.173, 10230.22
6265.102, 10147.23
6267.030, 10171.44
6268.958, 10201.33
6270.887, 10090.91
6272.815, 10094.27
6274.744, 10054.84
6276.672, 10144.48
6278.601, 10174.01
6280.529, 10085.60
6282.458, 9984.146
6284.386, 10003.38
6286.315, 10089.15
6288.243, 10070.90
6290.172, 10034.03
6292.100, 10002.47
6294.029, 9948.467
6295.957, 10060.87
6297.886, 9924.156
6299.814, 9840.661
6301.743, 9811.894
6303.671, 9810.392
6305.600, 9848.638
6307.528, 9846.684
6309.457, 9814.561
6311.385, 9837.376
6313.313, 9810.436
6315.242, 9698.657
6317.170, 9600.990
6319.099, 9769.211
6321.027, 9711.830
6322.956, 9651.938
6324.884, 9640.263
6326.813, 9620.711
6328.741, 9559.523
6330.669, 9593.720
6332.598, 9619.902
6334.526, 9576.766
6336.455, 9582.057
6338.383, 9582.094
6340.312, 9510.505
6342.240, 9569.088
6344.169, 9561.698
6346.097, 9456.923
6348.026, 9448.707
6349.954, 9456.491
6351.883, 9393.172
6353.811, 9381.930
6355.740, 9414.010
6357.668, 9359.267
6359.597, 9448.443
6361.525, 9450.130
6363.454, 9299.222
6365.382, 9264.166
6367.311, 9370.823
6369.239, 9252.969
6371.167, 9217.263
6373.096, 9232.849
6375.024, 9240.252
6376.953, 9240.814
6378.881, 9200.362
6380.810, 9190.136
6382.738, 9182.163
6384.667, 9202.206
6386.595, 9195.427
6388.523, 9146.948
6390.452, 9137.260
6392.380, 9075.272
6394.309, 9074.452
6396.237, 9082.019
6398.166, 9097.387
6400.094, 9068.912
6402.023, 8971.130
6403.951, 8964.813
6405.880, 8939.335
6407.808, 9085.043
6409.737, 9091.351
6411.665, 8993.973
6413.594, 8949.320
6415.522, 8981.921
6417.451, 9003.727
6419.379, 8917.156
6421.308, 8830.537
6423.236, 8877.410
6425.165, 8937.560
6427.093, 8865.393
6429.021, 8735.574
6430.950, 8900.457
6432.878, 8847.628
6434.807, 8818.189
6436.735, 8764.815
6438.664, 8701.419
6440.592, 8714.687
6442.521, 8684.194
6444.449, 8619.698
6446.377, 8727.656
6448.306, 8675.750
6450.234, 8599.225
6452.163, 8630.442
6454.091, 8671.101
6456.020, 8588.364
6457.948, 8616.387
6459.877, 8534.981
6461.805, 8470.438
6463.734, 8529.180
6465.662, 8602.600
6467.591, 8519.074
6469.519, 8509.480
6471.448, 8411.676
6473.376, 8454.022
6475.305, 8501.653
6477.233, 8442.860
6479.162, 8377.222
6481.090, 8454.488
6483.019, 8497.279
6484.947, 8395.130
6486.875, 8326.431
6488.804, 8365.731
6490.732, 8367.716
6492.661, 8328.133
6494.589, 8353.177
6496.518, 8289.043
6498.446, 8244.595
6500.375, 8257.856
6502.303, 8301.666
6504.231, 8240.473
6506.160, 8175.701
6508.088, 8227.340
6510.017, 8202.266
6511.945, 8177.701
6513.874, 8229.254
6515.802, 8274.262
6517.731, 8172.999
6519.659, 8098.265
6521.588, 8160.055
6523.516, 8166.024
6525.445, 8125.712
6527.373, 8111.939
6529.302, 8070.110
6531.230, 8088.218
6533.159, 8041.516
6535.087, 7987.472
6537.016, 8056.338
6538.944, 7989.829
6540.873, 7992.250
6542.801, 8014.619
6544.729, 7948.040
6546.658, 7928.700
6548.586, 7933.720
6550.515, 7893.090
6552.443, 7865.919
6554.372, 7990.260
6556.300, 7886.837
6558.229, 7860.563
6560.157, 7829.302
6562.085, 7858.372
6564.014, 7887.023
6565.942, 7818.188
##END=



