##NAMES=Uranophane
##RRUFFID=R070038
##IDEAL CHEMISTRY=Ca(UO_2_)_2_(SiO_3_OH)_2_·5H_2_O
##LOCALITY=Kyzulsai Mo-U deposit, south Kazakhstan
##OWNER=RRUFF
##SOURCE=Michael Scott
##DESCRIPTION=Lemon-yellow granular coating
##STATUS=The identification of this mineral has been confirmed by X-ray diffraction
##URL=https://www.rruff.net/odr/rruff_sample/R070038
##DIFFRACTION SAMPLE DESCRIPTION=Powder, using Mo radiation
##FILETYPE=Raman RAW
##RAMAN WAVELENGTH=785

202.4570, 19524.97
204.3855, 19655.33
206.3140, 19770.58
208.2424, 19833.73
210.1709, 19856.53
212.0994, 19890.11
214.0278, 19948.12
215.9563, 19991.40
217.8848, 19999.89
219.8132, 20016.43
221.7417, 20069.88
223.6702, 20134.55
225.5986, 20185.60
227.5271, 20224.30
229.4556, 20256.43
231.3840, 20293.99
233.3125, 20304.89
235.2410, 20259.65
237.1694, 20222.12
239.0979, 20225.81
241.0264, 20253.40
242.9548, 20287.54
244.8833, 20323.36
246.8118, 20356.91
248.7402, 20392.50
250.6687, 20418.89
252.5972, 20444.09
254.5257, 20444.09
256.4541, 20373.46
258.3826, 20301.37
260.3111, 20311.07
262.2395, 20376.67
264.1680, 20360.17
266.0965, 20255.64
268.0249, 20196.78
269.9534, 20215.78
271.8819, 20243.95
273.8103, 20257.88
275.7388, 20270.87
277.6673, 20302.90
279.5957, 20333.21
281.5242, 20317.26
283.4527, 20260.44
285.3811, 20194.15
287.3096, 20112.52
289.2381, 20050.80
291.1665, 20025.55
293.0950, 20008.89
295.0235, 19994.54
296.9519, 19978.59
298.8804, 19956.53
300.8089, 19928.68
302.7373, 19892.54
304.6658, 19843.54
306.5943, 19808.39
308.5227, 19805.19
310.4512, 19793.74
312.3797, 19754.89
314.3081, 19715.17
316.2366, 19695.11
318.1651, 19685.79
320.0935, 19677.38
322.0220, 19670.55
323.9505, 19653.76
325.8789, 19615.31
327.8074, 19588.96
329.7359, 19586.70
331.6643, 19578.22
333.5928, 19546.82
335.5213, 19511.36
337.4497, 19480.52
339.3782, 19451.22
341.3067, 19438.00
343.2351, 19449.21
345.1636, 19403.80
347.0921, 19276.22
349.0205, 19204.17
350.9490, 19247.57
352.8775, 19294.83
354.8059, 19302.93
356.7344, 19290.66
358.6629, 19258.22
360.5913, 19210.89
362.5198, 19188.84
364.4483, 19194.36
366.3767, 19200.70
368.3052, 19205.03
370.2337, 19204.54
372.1621, 19202.98
374.0906, 19195.85
376.0191, 19168.22
377.9475, 19131.50
379.8760, 19102.46
381.8045, 19092.39
383.7329, 19113.58
385.6614, 19162.59
387.5899, 19208.55
389.5183, 19254.79
391.4468, 19262.79
393.3753, 19200.93
395.3037, 19154.55
397.2322, 19147.91
399.1607, 19135.92
401.0891, 19091.17
403.0176, 19029.79
404.9461, 18983.73
406.8745, 18954.68
408.8030, 18905.71
410.7315, 18823.11
412.6599, 18726.75
414.5884, 18606.36
416.5169, 18529.20
418.4453, 18524.56
420.3738, 18511.95
422.3023, 18446.91
424.2307, 18369.96
426.1592, 18319.81
428.0877, 18297.39
430.0161, 18260.66
431.9446, 18190.21
433.8731, 18137.72
435.8015, 18133.68
437.7300, 18106.01
439.6585, 18006.29
441.5869, 17908.35
443.5154, 17866.60
445.4439, 17846.92
447.3723, 17830.83
449.3008, 17811.73
451.2293, 17776.54
453.1577, 17733.25
455.0862, 17713.99
457.0147, 17705.82
458.9431, 17646.90
460.8716, 17539.02
462.8001, 17468.02
464.7285, 17440.72
466.6570, 17395.23
468.5855, 17341.39
470.5139, 17289.18
472.4424, 17231.38
474.3709, 17168.02
476.2993, 17107.34
478.2278, 17055.46
480.1563, 17018.07
482.0847, 16999.25
484.0132, 16982.11
485.9417, 16946.59
487.8701, 16896.28
489.7986, 16872.56
491.7271, 16843.12
493.6555, 16761.99
495.5840, 16698.62
497.5125, 16681.40
499.4409, 16668.91
501.3694, 16658.40
503.2979, 16635.27
505.2263, 16576.93
507.1548, 16490.14
509.0833, 16405.32
511.0117, 16343.15
512.9402, 16325.13
514.8687, 16314.73
516.7972, 16277.64
518.7256, 16248.94
520.6541, 16223.11
522.5826, 16172.76
524.5110, 16131.93
526.4395, 16136.48
528.3680, 16134.33
530.2964, 16092.00
532.2249, 16029.04
534.1534, 15956.91
536.0818, 15884.90
538.0103, 15846.27
539.9388, 15835.98
541.8672, 15794.13
543.7957, 15722.71
545.7242, 15695.13
547.6526, 15725.20
549.5811, 15730.34
551.5096, 15676.15
553.4380, 15630.44
555.3665, 15618.72
557.2950, 15594.52
559.2234, 15542.20
561.1519, 15495.30
563.0804, 15466.97
565.0089, 15434.76
566.9373, 15389.42
568.8658, 15345.39
570.7943, 15309.38
572.7227, 15271.87
574.6512, 15220.42
576.5797, 15144.16
578.5081, 15093.05
580.4366, 15120.96
582.3651, 15122.97
584.2935, 15054.01
586.2220, 14984.40
588.1505, 14926.58
590.0789, 14894.99
592.0074, 14934.13
593.9359, 14960.68
595.8643, 14896.14
597.7928, 14805.85
599.7213, 14758.71
601.6497, 14743.22
603.5782, 14730.73
605.5067, 14705.39
607.4351, 14656.30
609.3636, 14602.16
611.2921, 14566.57
613.2205, 14537.00
615.1490, 14505.25
617.0775, 14483.85
619.0059, 14460.69
620.9344, 14425.29
622.8629, 14393.75
624.7913, 14357.80
626.7198, 14318.32
628.6483, 14291.51
630.5767, 14281.36
632.5052, 14287.70
634.4337, 14275.07
636.3621, 14215.68
638.2906, 14147.81
640.2191, 14108.36
642.1475, 14082.58
644.0760, 14056.73
646.0045, 14027.74
647.9329, 13990.26
649.8614, 13959.71
651.7899, 13943.25
653.7183, 13926.63
655.6468, 13904.80
657.5753, 13882.92
659.5037, 13852.08
661.4322, 13807.76
663.3607, 13772.15
665.2891, 13751.90
667.2176, 13730.82
669.1461, 13703.98
671.0745, 13669.41
673.0030, 13617.22
674.9315, 13586.12
676.8599, 13612.29
678.7884, 13615.89
680.7169, 13538.84
682.6453, 13453.07
684.5738, 13433.23
686.5023, 13448.35
688.4307, 13431.71
690.3592, 13384.22
692.2877, 13337.82
694.2161, 13295.10
696.1446, 13249.35
698.0731, 13206.08
700.0015, 13194.94
701.9300, 13214.13
703.8585, 13223.96
705.7869, 13225.74
707.7154, 13193.01
709.6439, 13100.51
711.5723, 13034.73
713.5008, 13018.18
715.4293, 13012.03
717.3577, 13038.14
719.2862, 13034.55
721.2147, 12947.62
723.1431, 12878.93
725.0716, 12894.38
727.0001, 12914.30
728.9285, 12888.39
730.8570, 12845.72
732.7855, 12800.86
734.7139, 12762.74
736.6424, 12742.50
738.5709, 12731.67
740.4993, 12721.72
742.4278, 12709.93
744.3563, 12695.75
746.2847, 12675.97
748.2132, 12623.71
750.1417, 12544.75
752.0701, 12504.92
753.9986, 12504.67
755.9271, 12505.56
757.8555, 12512.07
759.7840, 12492.25
761.7125, 12440.12
763.6409, 12399.10
765.5694, 12372.74
767.4979, 12354.71
769.4263, 12347.84
771.3548, 12336.34
773.2833, 12318.45
775.2117, 12294.12
777.1402, 12249.73
779.0687, 12212.76
780.9971, 12215.95
782.9256, 12217.34
784.8541, 12173.86
786.7825, 12139.86
788.7110, 12156.29
790.6395, 12171.15
792.5679, 12155.87
794.4964, 12136.07
796.4249, 12122.36
798.3533, 12119.98
800.2818, 12140.05
802.2103, 12145.02
804.1387, 12095.76
806.0672, 12055.86
807.9957, 12091.04
809.9241, 12155.20
811.8526, 12191.35
813.7811, 12217.59
815.7095, 12235.81
817.6380, 12241.94
819.5665, 12253.47
821.4949, 12267.05
823.4234, 12297.76
825.3519, 12348.98
827.2803, 12392.41
829.2088, 12434.40
831.1373, 12517.21
833.0657, 12636.43
834.9942, 12725.09
836.9227, 12765.12
838.8511, 12798.13
840.7796, 12858.00
842.7081, 12874.99
844.6365, 12838.82
846.5650, 12769.42
848.4935, 12644.18
850.4219, 12508.19
852.3504, 12374.84
854.2789, 12222.82
856.2073, 12034.45
858.1358, 11870.83
860.0643, 11773.90
861.9927, 11698.68
863.9212, 11608.71
865.8497, 11511.59
867.7781, 11433.86
869.7066, 11391.38
871.6351, 11347.99
873.5635, 11295.67
875.4920, 11282.55
877.4205, 11277.21
879.3489, 11235.91
881.2774, 11188.60
883.2059, 11152.63
885.1343, 11122.90
887.0628, 11097.94
888.9913, 11079.49
890.9197, 11069.27
892.8482, 11058.63
894.7767, 11039.99
896.7051, 11006.20
898.6336, 10980.44
900.5621, 10962.34
902.4905, 10928.88
904.4190, 10910.87
906.3475, 10907.82
908.2759, 10889.37
910.2044, 10866.08
912.1329, 10839.65
914.0613, 10803.96
915.9898, 10779.35
917.9183, 10772.09
919.8467, 10755.72
921.7752, 10750.07
923.7037, 10770.00
925.6321, 10743.94
927.5606, 10675.31
929.4891, 10651.94
931.4175, 10660.52
933.3460, 10632.84
935.2745, 10594.62
937.2029, 10593.21
939.1314, 10591.30
941.0599, 10574.68
942.9883, 10565.70
944.9168, 10546.08
946.8453, 10513.68
948.7737, 10489.86
950.7022, 10463.63
952.6307, 10438.68
954.5591, 10444.48
956.4876, 10446.24
958.4161, 10416.18
960.3445, 10404.64
962.2730, 10425.79
964.2015, 10405.32
966.1299, 10341.57
968.0584, 10327.46
969.9869, 10342.65
971.9153, 10334.15
973.8438, 10325.67
975.7723, 10321.16
977.7007, 10323.40
979.6292, 10326.76
981.5577, 10296.34
983.4861, 10251.31
985.4146, 10229.61
987.3431, 10240.06
989.2715, 10281.07
991.2000, 10290.22
993.1285, 10238.87
995.0569, 10223.76
996.9854, 10272.86
998.9139, 10286.54
1000.842, 10255.49
1002.771, 10244.11
1004.699, 10229.29
1006.628, 10222.69
1008.556, 10268.57
1010.485, 10302.94
1012.413, 10288.35
1014.342, 10265.43
1016.270, 10256.57
1018.199, 10234.19
1020.127, 10187.44
1022.055, 10135.30
1023.984, 10076.10
1025.912, 10036.84
1027.841, 10024.07
1029.769, 10009.42
1031.698, 9991.431
1033.626, 9979.936
1035.555, 9978.086
1037.483, 9968.851
1039.412, 9943.520
1041.340, 9922.632
1043.269, 9906.538
1045.197, 9907.734
1047.126, 9939.533
1049.054, 9950.351
1050.983, 9922.818
1052.911, 9898.823
1054.839, 9891.276
1056.768, 9893.271
1058.696, 9900.729
1060.625, 9910.054
1062.553, 9916.593
1064.482, 9914.461
1066.410, 9912.829
1068.339, 9923.103
1070.267, 9936.475
1072.196, 9925.733
1074.124, 9904.510
1076.053, 9934.944
1077.981, 9992.033
1079.910, 9992.609
1081.838, 9977.724
1083.766, 10037.81
1085.695, 10099.10
1087.623, 10061.77
1089.552, 10011.95
1091.480, 10030.83
1093.409, 10058.50
1095.337, 10040.56
1097.266, 10027.75
1099.194, 10066.35
1101.123, 10093.14
1103.051, 10073.04
1104.980, 10059.75
1106.908, 10068.94
1108.837, 10086.63
1110.765, 10115.17
1112.693, 10138.31
1114.622, 10157.18
1116.550, 10160.99
1118.479, 10128.27
1120.407, 10116.70
1122.336, 10147.69
1124.264, 10198.88
1126.193, 10264.86
1128.121, 10308.35
1130.050, 10328.95
1131.978, 10352.02
1133.907, 10377.05
1135.835, 10411.92
1137.764, 10456.31
1139.692, 10496.63
1141.620, 10534.11
1143.549, 10554.07
1145.477, 10561.02
1147.406, 10600.89
1149.334, 10657.75
1151.263, 10678.24
1153.191, 10681.80
1155.120, 10707.38
1157.048, 10733.91
1158.977, 10728.18
1160.905, 10717.28
1162.834, 10744.83
1164.762, 10758.15
1166.691, 10689.62
1168.619, 10628.09
1170.547, 10643.13
1172.476, 10656.98
1174.404, 10630.22
1176.333, 10601.84
1178.261, 10590.97
1180.190, 10568.12
1182.118, 10511.05
1184.047, 10472.39
1185.975, 10470.17
1187.904, 10458.67
1189.832, 10439.87
1191.761, 10405.35
1193.689, 10346.38
1195.618, 10337.53
1197.546, 10376.22
1199.474, 10391.17
1201.403, 10385.73
1203.331, 10364.10
1205.260, 10332.19
1207.188, 10303.69
1209.117, 10280.11
1211.045, 10263.82
1212.974, 10267.00
1214.902, 10303.52
1216.831, 10342.74
1218.759, 10374.06
1220.688, 10396.49
1222.616, 10388.99
1224.545, 10423.93
1226.473, 10547.72
1228.401, 10642.69
1230.330, 10676.18
1232.258, 10714.25
1234.187, 10769.49
1236.115, 10784.68
1238.044, 10754.72
1239.972, 10740.01
1241.901, 10737.21
1243.829, 10765.00
1245.758, 10818.58
1247.686, 10852.71
1249.615, 10879.76
1251.543, 10943.45
1253.472, 11005.12
1255.400, 11002.39
1257.328, 10998.57
1259.257, 11047.30
1261.185, 11095.86
1263.114, 11136.89
1265.042, 11167.09
1266.971, 11165.02
1268.899, 11161.79
1270.828, 11177.85
1272.756, 11211.51
1274.685, 11245.89
1276.613, 11276.33
1278.542, 11313.19
1280.470, 11353.65
1282.399, 11394.07
1284.327, 11437.25
1286.255, 11466.67
1288.184, 11461.55
1290.112, 11446.25
1292.041, 11433.89
1293.969, 11398.15
1295.898, 11323.14
1297.826, 11237.77
1299.755, 11145.44
1301.683, 11075.71
1303.612, 11042.44
1305.540, 10982.74
1307.469, 10882.61
1309.397, 10765.90
1311.326, 10650.39
1313.254, 10576.43
1315.182, 10524.65
1317.111, 10473.62
1319.039, 10417.79
1320.968, 10293.75
1322.896, 10181.85
1324.825, 10200.82
1326.753, 10239.28
1328.682, 10230.26
1330.610, 10206.80
1332.539, 10170.55
1334.467, 10138.51
1336.396, 10104.63
1338.324, 10115.35
1340.253, 10175.11
1342.181, 10177.84
1344.109, 10134.56
1346.038, 10094.92
1347.966, 10067.18
1349.895, 10087.58
1351.823, 10112.62
1353.752, 10092.48
1355.680, 10060.06
1357.609, 10036.47
1359.537, 10015.91
1361.466, 9994.116
1363.394, 9958.279
1365.323, 9899.564
1367.251, 9864.865
1369.180, 9855.443
1371.108, 9840.848
1373.036, 9825.068
1374.965, 9812.886
1376.893, 9811.987
1378.822, 9871.924
1380.750, 9917.957
1382.679, 9868.026
1384.607, 9814.652
1386.536, 9804.469
1388.464, 9795.541
1390.393, 9775.063
1392.321, 9766.644
1394.250, 9772.846
1396.178, 9795.635
1398.107, 9827.971
1400.035, 9803.846
1401.964, 9758.408
1403.892, 9774.330
1405.820, 9798.416
1407.749, 9786.780
1409.677, 9747.608
1411.606, 9662.895
1413.534, 9619.564
1415.463, 9647.757
1417.391, 9678.647
1419.320, 9704.466
1421.248, 9699.150
1423.177, 9672.910
1425.105, 9680.306
1427.034, 9695.092
1428.962, 9657.562
1430.891, 9625.147
1432.819, 9669.384
1434.747, 9687.554
1436.676, 9640.205
1438.604, 9585.216
1440.533, 9530.897
1442.461, 9512.267
1444.390, 9530.454
1446.318, 9580.674
1448.247, 9634.964
1450.175, 9630.643
1452.104, 9590.948
1454.032, 9502.616
1455.961, 9453.667
1457.889, 9514.703
1459.818, 9545.170
1461.746, 9516.729
1463.674, 9486.355
1465.603, 9462.007
1467.531, 9471.151
1469.460, 9496.679
1471.388, 9484.529
1473.317, 9475.514
1475.245, 9537.158
1477.174, 9584.190
1479.102, 9543.885
1481.031, 9541.616
1482.959, 9609.652
1484.888, 9608.903
1486.816, 9546.078
1488.745, 9572.111
1490.673, 9644.901
1492.601, 9672.767
1494.530, 9674.692
1496.458, 9656.155
1498.387, 9640.815
1500.315, 9652.890
1502.244, 9638.598
1504.172, 9588.188
1506.101, 9539.947
1508.029, 9497.818
1509.958, 9489.707
1511.886, 9482.575
1513.815, 9420.686
1515.743, 9346.513
1517.672, 9270.760
1519.600, 9228.414
1521.528, 9257.057
1523.457, 9258.021
1525.385, 9228.581
1527.314, 9156.350
1529.242, 9065.334
1531.171, 9023.627
1533.099, 9006.325
1535.028, 9004.238
1536.956, 8991.339
1538.885, 8963.884
1540.813, 8896.525
1542.742, 8771.375
1544.670, 8708.478
1546.599, 8695.355
1548.527, 8693.052
1550.455, 8680.827
1552.384, 8628.940
1554.312, 8564.687
1556.241, 8490.334
1558.169, 8443.870
1560.098, 8439.576
1562.026, 8415.818
1563.955, 8376.265
1565.883, 8355.311
1567.812, 8332.930
1569.740, 8279.539
1571.669, 8211.979
1573.597, 8130.982
1575.526, 8065.054
1577.454, 8021.729
1579.382, 7969.522
1581.311, 7913.988
1583.239, 7898.413
1585.168, 7893.025
1587.096, 7864.339
1589.025, 7812.825
1590.953, 7725.266
1592.882, 7677.088
1594.810, 7682.120
1596.739, 7649.253
1598.667, 7590.338
1600.596, 7570.267
1602.524, 7552.468
1604.453, 7484.973
1606.381, 7423.208
1608.309, 7387.602
1610.238, 7353.218
1612.166, 7317.333
1614.095, 7287.659
1616.023, 7265.662
1617.952, 7267.856
1619.880, 7258.486
1621.809, 7184.732
1623.737, 7139.391
1625.666, 7150.457
1627.594, 7133.626
1629.523, 7086.912
1631.451, 7026.923
1633.380, 6973.576
1635.308, 6962.077
1637.236, 6955.368
1639.165, 6932.290
1641.093, 6911.257
1643.022, 6894.191
1644.950, 6874.477
1646.879, 6846.319
1648.807, 6784.078
1650.736, 6726.643
1652.664, 6715.769
1654.593, 6702.716
1656.521, 6671.408
1658.450, 6645.027
1660.378, 6625.989
1662.307, 6641.941
1664.235, 6650.161
1666.163, 6591.210
1668.092, 6521.730
1670.020, 6461.229
1671.949, 6409.765
1673.877, 6366.796
1675.806, 6370.060
1677.734, 6379.876
1679.663, 6294.282
1681.591, 6235.920
1683.520, 6309.099
1685.448, 6321.536
1687.377, 6229.108
1689.305, 6198.008
1691.234, 6199.695
1693.162, 6155.197
1695.090, 6105.340
1697.019, 6072.608
1698.947, 6057.265
1700.876, 6065.107
1702.804, 6039.940
1704.733, 5992.739
1706.661, 5951.011
1708.590, 5931.363
1710.518, 5960.612
1712.447, 5966.178
1714.375, 5928.253
1716.304, 5866.411
1718.232, 5792.463
1720.161, 5740.229
1722.089, 5698.644
1724.017, 5648.374
1725.946, 5642.398
1727.874, 5700.443
1729.803, 5659.141
1731.731, 5551.508
1733.660, 5523.706
1735.588, 5512.119
1737.517, 5453.267
1739.445, 5414.062
1741.374, 5409.036
1743.302, 5364.715
1745.231, 5292.894
1747.159, 5229.256
1749.088, 5186.004
1751.016, 5190.629
1752.944, 5177.847
1754.873, 5138.311
1756.801, 5128.093
1758.730, 5128.238
1760.658, 5077.967
1762.587, 5031.212
1764.515, 5040.725
1766.444, 5022.066
1768.372, 4969.986
1770.301, 4955.198
1772.229, 4955.560
1774.158, 4935.958
1776.086, 4900.269
1778.015, 4829.075
1779.943, 4815.848
1781.871, 4851.653
1783.800, 4818.486
1785.728, 4761.004
1787.657, 4723.713
1789.585, 4705.654
1791.514, 4718.960
1793.442, 4692.953
1795.371, 4639.892
1797.299, 4610.247
1799.228, 4593.358
1801.156, 4590.794
1803.085, 4575.498
1805.013, 4540.375
1806.942, 4510.542
1808.870, 4494.734
1810.798, 4529.551
1812.727, 4546.683
1814.655, 4503.371
1816.584, 4461.302
1818.512, 4426.264
1820.441, 4408.936
1822.369, 4396.685
1824.298, 4376.753
1826.226, 4363.516
1828.155, 4362.221
1830.083, 4350.510
1832.012, 4332.772
1833.940, 4329.813
1835.869, 4307.158
1837.797, 4236.560
1839.725, 4206.148
1841.654, 4221.414
1843.582, 4252.842
1845.511, 4267.306
1847.439, 4214.583
1849.368, 4183.971
1851.296, 4197.795
1853.225, 4192.682
1855.153, 4170.156
1857.082, 4125.034
1859.010, 4094.278
1860.939, 4097.546
1862.867, 4087.046
1864.796, 4060.433
1866.724, 4036.743
1868.652, 4009.165
1870.581, 3957.646
1872.509, 3950.205
1874.438, 3988.981
1876.366, 3966.610
1878.295, 3921.747
1880.223, 3900.830
1882.152, 3885.425
1884.080, 3870.764
1886.009, 3860.959
1887.937, 3855.402
1889.866, 3845.575
1891.794, 3831.039
1893.723, 3814.630
1895.651, 3793.920
1897.579, 3771.358
1899.508, 3776.540
1901.436, 3778.339
1903.365, 3742.116
1905.293, 3721.580
1907.222, 3720.007
1909.150, 3694.002
1911.079, 3662.208
1913.007, 3654.122
1914.936, 3651.415
1916.864, 3647.296
1918.793, 3627.082
1920.721, 3604.977
1922.650, 3611.685
1924.578, 3600.516
1926.506, 3542.544
1928.435, 3506.698
1930.363, 3489.645
1932.292, 3485.847
1934.220, 3484.911
1936.149, 3485.248
1938.077, 3482.903
1940.006, 3475.042
1941.934, 3445.012
1943.863, 3415.241
1945.791, 3394.592
1947.720, 3385.824
1949.648, 3381.932
1951.577, 3348.946
1953.505, 3312.282
1955.433, 3281.764
1957.362, 3283.194
1959.290, 3306.599
1961.219, 3285.489
1963.147, 3252.193
1965.076, 3222.073
1967.004, 3223.463
1968.933, 3251.167
1970.861, 3238.033
1972.790, 3212.460
1974.718, 3198.568
1976.647, 3177.886
1978.575, 3149.488
1980.504, 3142.796
1982.432, 3128.918
1984.360, 3069.816
1986.289, 3050.397
1988.217, 3075.659
1990.146, 3079.454
1992.074, 3074.035
1994.003, 3076.722
1995.931, 3057.516
1997.860, 3019.261
1999.788, 3004.794
2001.717, 3000.915
2003.645, 3002.079
2005.574, 2986.018
2007.502, 2958.346
2009.431, 2960.743
2011.359, 2961.654
2013.287, 2929.039
2015.216, 2909.775
2017.144, 2902.780
2019.073, 2887.884
2021.001, 2871.195
2022.930, 2859.630
2024.858, 2834.479
2026.787, 2804.844
2028.715, 2804.757
2030.644, 2806.927
2032.572, 2791.956
2034.501, 2793.728
2036.429, 2801.296
2038.358, 2790.824
2040.286, 2761.373
2042.214, 2694.441
2044.143, 2691.330
2046.071, 2718.569
2048.000, 2721.715
2049.928, 2704.990
2051.857, 2665.754
2053.785, 2662.588
2055.714, 2668.109
2057.642, 2644.910
2059.571, 2621.503
2061.499, 2606.592
2063.428, 2604.632
2065.356, 2608.537
2067.285, 2618.971
2069.213, 2602.058
2071.142, 2561.486
2073.070, 2545.760
2074.999, 2540.057
2076.927, 2538.095
2078.855, 2523.559
2080.784, 2498.728
2082.712, 2477.743
2084.641, 2462.851
2086.569, 2453.772
2088.498, 2478.736
2090.426, 2506.433
2092.355, 2476.118
2094.283, 2450.495
2096.212, 2438.729
2098.140, 2422.060
2100.069, 2402.052
2101.997, 2377.285
2103.926, 2383.074
2105.854, 2409.462
2107.782, 2397.778
2109.711, 2370.020
2111.639, 2340.234
2113.568, 2305.013
2115.496, 2278.717
2117.425, 2294.451
2119.353, 2300.057
2121.282, 2285.455
2123.210, 2276.607
2125.139, 2273.320
2127.067, 2274.947
2128.996, 2266.344
2130.924, 2242.758
2132.853, 2199.569
2134.781, 2180.540
2136.709, 2213.180
2138.638, 2225.569
2140.566, 2218.205
2142.495, 2170.515
2144.423, 2134.910
2146.352, 2127.637
2148.280, 2121.158
2150.209, 2109.203
2152.137, 2098.132
2154.066, 2092.145
2155.994, 2089.369
2157.923, 2087.416
2159.851, 2080.171
2161.780, 2072.194
2163.708, 2065.963
2165.636, 2063.677
2167.565, 2045.940
2169.493, 2033.882
2171.422, 2031.124
2173.350, 2015.753
2175.279, 1997.002
2177.207, 1979.365
2179.136, 1976.556
2181.064, 1973.975
2182.993, 1963.826
2184.921, 1946.019
2186.850, 1925.895
2188.778, 1952.870
2190.707, 1956.296
2192.635, 1917.746
2194.563, 1914.545
2196.492, 1914.280
2198.420, 1891.461
2200.349, 1880.755
2202.277, 1880.557
2204.206, 1883.340
2206.134, 1875.087
2208.063, 1846.375
2209.991, 1854.407
2211.920, 1866.117
2213.848, 1845.271
2215.777, 1821.210
2217.705, 1803.854
2219.634, 1809.645
2221.562, 1804.185
2223.490, 1777.703
2225.419, 1778.242
2227.347, 1781.134
2229.276, 1755.353
2231.204, 1753.969
2233.133, 1762.748
2235.061, 1731.585
2236.990, 1707.536
2238.918, 1698.548
2240.847, 1714.571
2242.775, 1733.373
2244.704, 1711.190
2246.632, 1702.169
2248.561, 1699.625
2250.489, 1671.871
2252.417, 1655.158
2254.346, 1655.557
2256.274, 1629.203
2258.203, 1612.138
2260.131, 1623.100
2262.060, 1631.682
2263.988, 1628.888
2265.917, 1605.192
2267.845, 1600.853
2269.774, 1601.032
2271.702, 1559.837
2273.631, 1552.070
2275.559, 1573.245
2277.488, 1544.959
2279.416, 1515.223
2281.344, 1522.468
2283.273, 1522.201
2285.201, 1511.461
2287.130, 1512.136
2289.058, 1514.952
2290.987, 1492.794
2292.915, 1474.779
2294.844, 1490.894
2296.772, 1501.445
2298.701, 1480.081
2300.629, 1468.173
2302.558, 1475.295
2304.486, 1467.454
2306.415, 1443.447
2308.343, 1427.425
2310.271, 1426.624
2312.200, 1422.460
2314.128, 1405.617
2316.057, 1399.084
2317.985, 1398.817
2319.914, 1395.064
2321.842, 1392.609
2323.771, 1391.838
2325.699, 1371.216
2327.628, 1356.024
2329.556, 1359.434
2331.485, 1353.018
2333.413, 1344.824
2335.342, 1346.901
2337.270, 1351.107
2339.198, 1348.455
2341.127, 1309.143
2343.055, 1298.642
2344.984, 1325.650
2346.912, 1303.697
2348.841, 1283.605
2350.769, 1285.178
2352.698, 1283.519
2354.626, 1280.060
2356.555, 1286.122
2358.483, 1273.703
2360.412, 1254.859
2362.340, 1232.059
2364.269, 1217.460
2366.197, 1215.237
2368.125, 1203.566
2370.054, 1199.407
2371.982, 1205.562
2373.911, 1215.099
2375.839, 1196.215
2377.768, 1154.391
2379.696, 1144.757
2381.625, 1153.225
2383.553, 1165.172
2385.482, 1164.282
2387.410, 1157.600
2389.339, 1139.363
2391.267, 1121.115
2393.196, 1114.545
2395.124, 1124.804
2397.052, 1129.602
2398.981, 1129.754
2400.909, 1141.851
2402.838, 1129.014
2404.766, 1091.550
2406.695, 1096.137
2408.623, 1105.046
2410.552, 1094.869
2412.480, 1064.965
2414.409, 1051.545
2416.337, 1075.468
2418.266, 1065.752
2420.194, 1049.049
2422.123, 1059.036
2424.051, 1039.695
2425.979, 1021.953
2427.908, 1048.889
2429.836, 1046.746
2431.765, 1032.992
2433.693, 1035.177
2435.622, 1023.808
2437.550, 1008.141
2439.479, 1007.870
2441.407, 1004.254
2443.336, 993.4139
2445.264, 965.2665
2447.193, 958.3080
2449.121, 969.2810
2451.050, 961.4791
2452.978, 958.5177
2454.906, 964.2856
2456.835, 968.6294
2458.763, 962.7723
2460.692, 944.8447
2462.620, 926.2847
2464.549, 914.4776
2466.477, 911.8831
2468.406, 914.2281
2470.334, 913.4311
2472.263, 905.9254
2474.191, 901.0338
2476.120, 901.2493
2478.048, 907.6831
2479.977, 887.7532
2481.905, 870.7880
2483.833, 880.9406
2485.762, 883.2402
2487.690, 874.5293
2489.619, 849.0319
2491.547, 839.4642
2493.476, 841.6373
2495.404, 855.3115
2497.333, 862.4825
2499.261, 858.8463
2501.190, 841.4984
2503.118, 834.2222
2505.047, 830.4961
2506.975, 816.8541
2508.904, 810.3385
2510.832, 805.0009
2512.760, 787.6907
2514.689, 787.8756
2516.617, 795.6034
2518.546, 791.9637
2520.474, 797.5388
2522.403, 799.8333
2524.331, 776.0068
2526.260, 762.2872
2528.188, 766.3945
2530.117, 768.3149
2532.045, 754.5486
2533.974, 744.9014
2535.902, 752.3314
2537.831, 747.9983
2539.759, 734.9786
2541.688, 725.7332
2543.616, 718.5214
2545.544, 705.6378
2547.473, 712.0386
2549.401, 719.6341
2551.330, 719.1226
2553.258, 712.6053
2555.187, 703.5159
2557.115, 702.5611
2559.044, 705.2308
2560.972, 694.7404
2562.901, 689.4771
2564.829, 704.7557
2566.758, 707.0284
2568.686, 686.9642
2570.615, 672.3285
2572.543, 669.2781
2574.471, 663.5355
2576.400, 665.2499
2578.328, 664.1372
2580.257, 663.7971
2582.185, 660.9620
2584.114, 658.1655
2586.042, 647.5007
2587.971, 637.6321
2589.899, 645.3469
2591.828, 641.6355
2593.756, 633.4318
2595.685, 621.9030
2597.613, 618.3593
2599.542, 626.7922
2601.470, 615.7589
2603.398, 609.1545
2605.327, 603.6161
2607.255, 601.7393
2609.184, 592.1134
2611.112, 588.0873
2613.041, 595.8702
2614.969, 590.7620
2616.898, 590.4916
2618.826, 587.7672
2620.755, 579.9673
2622.683, 581.8063
2624.612, 570.8368
2626.540, 565.2908
2628.469, 558.1386
2630.397, 562.5579
2632.325, 567.7264
2634.254, 550.8690
2636.182, 558.3481
2638.111, 563.3741
2640.039, 540.3735
2641.968, 547.1495
2643.896, 552.7271
2645.825, 543.9168
2647.753, 528.4518
2649.682, 512.1826
2651.610, 503.4470
2653.539, 515.6724
2655.467, 524.2156
2657.396, 520.2288
2659.324, 507.6111
2661.252, 522.9361
2663.181, 524.4426
2665.109, 493.5925
2667.038, 491.3800
2668.966, 510.9150
2670.895, 506.1064
2672.823, 482.2349
2674.752, 478.1435
2676.680, 481.6997
2678.609, 483.4000
2680.537, 482.2492
2682.466, 474.2870
2684.394, 463.0126
2686.323, 441.2240
2688.251, 443.6622
2690.179, 454.9972
2692.108, 446.8704
2694.036, 440.9219
2695.965, 447.4385
2697.893, 449.3338
2699.822, 445.0678
2701.750, 429.4557
2703.679, 418.8117
2705.607, 428.7778
2707.536, 436.1441
2709.464, 430.5202
2711.393, 437.6942
2713.321, 429.7813
2715.250, 415.8942
2717.178, 404.9380
2719.106, 405.8872
2721.035, 415.1723
2722.963, 423.4476
2724.892, 415.6314
2726.820, 416.4570
2728.749, 415.5131
2730.677, 387.8960
2732.606, 385.5717
2734.534, 392.1237
2736.463, 393.3434
2738.391, 389.4441
2740.320, 386.2425
2742.248, 388.4337
2744.177, 396.2863
2746.105, 390.5187
2748.033, 378.7613
2749.962, 381.2758
2751.890, 370.9756
2753.819, 362.9922
2755.747, 370.2334
2757.676, 356.0020
2759.604, 345.0503
2761.533, 349.7977
2763.461, 351.2047
2765.390, 345.1796
2767.318, 345.8006
2769.247, 357.9411
2771.175, 355.8773
2773.104, 338.5130
2775.032, 327.5241
2776.960, 326.9880
2778.889, 337.5992
2780.817, 332.6768
2782.746, 324.3739
2784.674, 320.2152
2786.603, 330.7723
2788.531, 327.7467
2790.460, 312.9101
2792.388, 309.7939
2794.317, 323.1569
2796.245, 318.0470
2798.174, 312.5111
2800.102, 315.5133
2802.031, 309.1060
2803.959, 308.1448
2805.887, 298.4447
2807.816, 298.0091
2809.744, 301.6648
2811.673, 294.2906
2813.601, 284.8177
2815.530, 293.1053
2817.458, 304.0831
2819.387, 312.2662
2821.315, 283.6769
2823.244, 269.2871
2825.172, 284.9812
2827.101, 273.8770
2829.029, 284.0080
2830.958, 298.0409
2832.886, 276.6675
2834.814, 273.0467
2836.743, 272.8401
2838.671, 268.4900
2840.600, 268.7687
2842.528, 272.9338
2844.457, 278.1632
2846.385, 271.1908
2848.314, 262.5898
2850.242, 256.3883
2852.171, 253.2907
2854.099, 244.5411
2856.028, 247.7573
2857.956, 259.3868
2859.885, 266.2199
2861.813, 269.9335
2863.741, 270.3340
2865.670, 266.5629
2867.598, 252.5025
2869.527, 244.0571
2871.455, 242.9581
2873.384, 243.0071
2875.312, 240.1897
2877.241, 237.7933
2879.169, 242.4088
2881.098, 236.2480
2883.026, 229.6058
2884.955, 224.6818
2886.883, 212.9704
2888.812, 217.4606
2890.740, 226.7296
2892.668, 228.3136
2894.597, 221.2189
2896.525, 220.4487
2898.454, 224.8846
2900.382, 220.3073
2902.311, 207.7264
2904.239, 198.8205
2906.168, 200.0363
2908.096, 194.6478
2910.025, 199.2195
2911.953, 209.4267
2913.882, 205.0421
2915.810, 214.4216
2917.739, 218.5665
2919.667, 206.1019
2921.595, 204.6556
2923.524, 194.2888
2925.452, 180.7963
2927.381, 189.0686
2929.309, 185.8837
2931.238, 178.2728
2933.166, 174.2406
2935.095, 185.5382
2937.023, 188.5832
2938.952, 181.3216
2940.880, 176.9568
2942.809, 174.2339
2944.737, 172.0069
2946.666, 174.4765
2948.594, 182.9883
2950.522, 179.4932
2952.451, 172.2792
2954.379, 177.3683
2956.308, 177.3391
2958.236, 180.2806
2960.165, 184.9344
2962.093, 160.6144
2964.022, 162.3217
2965.950, 169.3658
2967.879, 165.1215
2969.807, 170.3632
2971.736, 171.9972
2973.664, 164.1118
2975.593, 148.5700
2977.521, 134.8754
2979.449, 136.7762
2981.378, 147.0606
2983.306, 139.1243
2985.235, 141.1085
2987.163, 144.6368
2989.092, 159.1452
2991.020, 165.5596
2992.949, 151.9697
2994.877, 138.2370
2996.806, 137.9588
2998.734, 139.3111
3000.663, 137.7005
3002.591, 136.5890
3004.520, 128.5899
3006.448, 126.6601
3008.376, 131.8089
3010.305, 144.3564
3012.233, 155.1631
3014.162, 144.7774
3016.090, 125.5563
3018.019, 127.1579
3019.947, 117.3490
3021.876, 115.9523
3023.804, 126.9566
3025.733, 123.7990
3027.661, 124.3759
3029.590, 127.7185
3031.518, 123.1460
3033.447, 135.1329
3035.375, 123.6164
3037.303, 115.9351
3039.232, 118.1739
3041.160, 121.5846
3043.089, 124.6704
3045.017, 117.1507
3046.946, 117.8365
3048.874, 117.6279
3050.803, 110.3909
3052.731, 106.4489
3054.660, 108.5554
3056.588, 99.15114
3058.517, 96.35303
3060.445, 110.8943
3062.374, 114.8829
3064.302, 119.4042
3066.230, 127.0112
3068.159, 121.2899
3070.087, 99.76575
3072.016, 114.6214
3073.944, 120.2396
3075.873, 103.0480
3077.801, 110.0832
3079.730, 109.7746
3081.658, 102.3375
3083.587, 95.78856
3085.515, 111.2509
3087.444, 103.7112
3089.372, 93.00484
3091.301, 105.8031
3093.229, 100.0834
3095.157, 93.79416
3097.086, 102.6510
3099.014, 97.58400
3100.943, 93.74760
3102.871, 94.85830
3104.800, 94.79799
3106.728, 97.40696
3108.657, 99.42052
3110.585, 94.20638
3112.514, 93.05707
3114.442, 95.96603
3116.371, 109.0106
3118.299, 103.0681
3120.228, 95.96581
3122.156, 111.3266
3124.084, 104.6752
3126.013, 102.2472
3127.941, 107.3009
3129.870, 103.7324
3131.798, 106.5602
3133.727, 111.4258
3135.655, 112.5142
3137.584, 89.37543
3139.512, 105.9938
3141.441, 121.6053
3143.369, 121.4427
3145.298, 104.0012
3147.226, 81.96438
3149.155, 87.76145
3151.083, 101.9394
3153.011, 96.41574
3154.940, 98.09740
3156.868, 114.6955
3158.797, 129.9405
3160.725, 106.6284
3162.654, 109.6985
3164.582, 120.6079
3166.511, 120.0470
3168.439, 116.4430
3170.368, 106.1066
3172.296, 110.6179
3174.225, 121.3280
3176.153, 117.8047
3178.082, 144.5459
3180.010, 139.4076
3181.938, 121.1708
3183.867, 118.8906
3185.795, 125.6384
3187.724, 119.6248
3189.652, 118.4793
3191.581, 119.8698
3193.509, 112.2059
3195.438, 112.9579
3197.366, 120.6493
3199.295, 131.8397
3201.223, 127.3680
3203.152, 132.4499
3205.080, 131.3239
3207.009, 123.9913
3208.937, 127.3393
3210.865, 160.2132
3212.794, 149.8113
3214.722, 129.7911
3216.651, 142.8916
3218.579, 145.1541
3220.508, 152.8816
3222.436, 155.8679
3224.365, 147.2485
3226.293, 157.1709
3228.222, 171.2091
3230.150, 178.1776
3232.079, 167.5360
3234.007, 153.3451
3235.936, 172.9274
3237.864, 176.5815
3239.792, 174.0734
3241.721, 189.5074
3243.649, 177.2935
3245.578, 177.3713
3247.506, 185.8708
3249.435, 190.0024
3251.363, 184.9270
3253.292, 190.8941
3255.220, 197.4216
3257.149, 194.7039
3259.077, 187.9859
3261.006, 198.2151
3262.934, 191.3310
3264.863, 175.9662
3266.791, 178.7455
3268.719, 185.1004
3270.648, 183.1269
3272.576, 181.2749
3274.505, 185.9136
3276.433, 188.8488
3278.362, 179.6848
3280.290, 184.3130
3282.219, 194.6639
3284.147, 175.6258
3286.076, 168.0111
3288.004, 174.0021
3289.933, 176.9505
3291.861, 168.3319
3293.790, 170.5383
3295.718, 185.5497
3297.646, 177.5366
3299.575, 156.5542
3301.503, 170.6681
3303.432, 174.7229
3305.360, 166.2962
3307.289, 152.8711
3309.217, 142.7589
3311.146, 147.2377
3313.074, 157.3745
3315.003, 153.3918
3316.931, 138.4679
3318.860, 130.7892
3320.788, 151.2146
3322.717, 141.5760
3324.645, 138.7733
3326.573, 160.2400
3328.502, 131.0262
3330.430, 133.8818
3332.359, 153.4492
3334.287, 160.8465
3336.216, 137.3406
3338.144, 141.7486
3340.073, 127.8970
3342.001, 131.3151
3343.930, 149.2151
3345.858, 127.1810
3347.787, 117.6360
3349.715, 125.2565
3351.644, 130.9182
3353.572, 121.1969
3355.500, 103.4072
3357.429, 107.7954
3359.357, 121.0614
3361.286, 122.2182
3363.214, 98.30598
3365.143, 109.5880
3367.071, 96.23541
3369.000, 92.28539
3370.928, 100.5036
3372.857, 87.83951
3374.785, 113.5291
3376.714, 102.2755
3378.642, 86.56442
3380.571, 86.30048
3382.499, 72.69279
3384.427, 63.30432
3386.356, 69.08887
3388.284, 68.12634
3390.213, 54.15298
3392.141, 73.30357
3394.070, 78.67589
3395.998, 64.49996
3397.927, 58.04085
3399.855, 72.02193
3401.784, 52.60828
3403.712, 64.39481
3405.641, 73.94541
3407.569, 71.05299
3409.498, 62.75431
3411.426, 67.56978
3413.354, 80.12648
3415.283, 91.36757
3417.211, 87.65553
3419.140, 64.06205
3421.068, 45.47481
3422.997, 75.41261
3424.925, 73.15975
3426.854, 50.28874
3428.782, 57.76177
3430.711, 73.64182
3432.639, 72.22897
3434.568, 51.24479
3436.496, 33.84039
3438.425, 41.83834
3440.353, 59.57016
3442.281, 65.20751
3444.210, 44.68975
3446.138, 31.42706
3448.067, 54.27361
3449.995, 59.26793
3451.924, 47.30042
3453.852, 48.28770
3455.781, 60.87707
3457.709, 70.77429
3459.638, 58.65084
3461.566, 46.85555
3463.495, 46.72924
3465.423, 48.83821
3467.352, 43.93963
3469.280, 32.83170
3471.208, 31.40827
3473.137, 34.39772
3475.065, 45.84680
3476.994, 57.38705
3478.922, 44.77402
3480.851, 33.34598
3482.779, 43.15821
3484.708, 50.12519
3486.636, 48.90329
3488.565, 49.76037
3490.493, 14.41681
3492.422, 42.46236
3494.350, 47.61879
3496.279, 31.93924
3498.207, 36.44897
3500.135, 42.93840
3502.064, 29.55809
3503.992, 26.65989
3505.921, 27.38248
3507.849, 28.64561
3509.778, 48.57715
3511.706, 52.94228
3513.635, 34.34065
3515.563, 33.31964
3517.492, 41.50944
3519.420, 28.29707
3521.349, 38.80520
3523.277, 37.72403
3525.206, 25.54932
3527.134, 22.34512
3529.063, 31.46079
3530.991, 15.17618
3532.919, 32.00477
3534.848, 39.94428
3536.776, 37.83076
3538.705, 27.11416
3540.633, 8.084239
3542.562, 25.84542
3544.490, 40.30674
3546.419, 30.71714
3548.347, 18.10035
3550.276, 18.81523
3552.204, 25.30239
3554.133, 25.44366
3556.061, 20.31172
3557.990, 14.58202
3559.918, 14.40490
3561.846, 19.89322
3563.775, 15.14360
3565.703, 17.44479
3567.632, 38.55878
3569.560, 30.72714
3571.489, 9.304998
3573.417, 25.37193
3575.346, 8.656620
3577.274, 10.00061
3579.203, 22.18776
3581.131, 31.42173
3583.060, 27.43672
3584.988, 9.880269
3586.917, 27.25674
3588.845, 29.56231
3590.773, 36.35911
3592.702, 34.19771
3594.630, 19.23804
3596.559, 19.97844
3598.487, 28.07356
3600.416, 18.45420
3602.344, 13.99860
3604.273, 18.63612
3606.201, 24.19210
3608.130, 23.36941
3610.058, 41.00687
3611.987, 20.47274
3613.915, 6.561291
3615.844, 9.523301
3617.772, 16.93439
3619.700, 18.98562
3621.629, 14.30631
3623.557, 14.62178
3625.486, 14.05896
3627.414, 13.06484
3629.343, 15.55903
3631.271, 23.76266
3633.200, 26.27484
3635.128, 11.97883
3637.057, 14.74257
3638.985, 19.00272
3640.914, 12.40666
3642.842, 9.264665
3644.771, 26.86334
3646.699, 13.54994
3648.627, 9.450850
3650.556, 16.09928
3652.484, 23.23032
3654.413, 26.57382
3656.341, 27.98634
3658.270, 13.29654
3660.198, 12.75790
3662.127, 23.11726
3664.055, 20.24763
3665.984, 5.867837
3667.912, 27.73725
3669.841, 3.516727
3671.769, 18.77619
3673.698, 10.92746
3675.626, 6.921225
3677.554, 17.42186
3679.483, 4.783645
3681.411, 0.8231513
3683.340, 13.65798
3685.268, 14.92770
3687.197, -1.995328
3689.125, 2.712240
3691.054, 39.40630
3692.982, 25.35946
3694.911, 9.535969
3696.839, 33.70951
3698.768, 15.53308
3700.696, 5.140214
3702.625, 22.10544
3704.553, 26.53897
3706.481, 22.01782
3708.410, 20.11044
3710.338, 19.34881
3712.267, 1.148752
3714.195, 5.201365
3716.124, 32.97777
3718.052, 31.10513
3719.981, 6.182131
3721.909, 21.81520
3723.838, 11.98121
3725.766, 11.12717
3727.695, 24.37357
3729.623, 18.96297
3731.552, -21.52534
3733.480, -4.739199
3735.408, 7.287765
3737.337, 29.97900
3739.265, 27.67160
3741.194, 14.39404
3743.122, 14.55446
3745.051, 21.17362
3746.979, 16.00348
3748.908, 0.8369287
3750.836, 6.199359
3752.765, 4.701108
3754.693, 5.154742
3756.622, 16.89223
3758.550, 24.97375
3760.479, 15.79600
3762.407, 5.966386
3764.335, 3.009470
3766.264, 16.57533
3768.192, 13.94266
3770.121, 13.57364
3772.049, 41.98316
3773.978, 18.00500
3775.906, 21.81411
3777.835, 10.58190
3779.763, 4.500392
3781.692, 10.29463
3783.620, 19.87379
3785.549, 18.70716
3787.477, 2.877366
3789.406, 19.97651
3791.334, -13.01556
3793.262, 8.524093
3795.191, 9.230846
3797.119, -4.355817
3799.048, -3.923167
3800.976, 5.967966
3802.905, 11.69666
3804.833, 4.339323
3806.762, 11.68103
3808.690, 6.790436
3810.619, 24.77154
3812.547, 23.54263
3814.476, -5.474502
3816.404, -9.886241
3818.333, 7.361644
3820.261, 21.59994
3822.189, 4.246936
3824.118, 15.18106
3826.046, -4.057710
3827.975, -10.32484
3829.903, 12.07747
3831.832, 6.851204
3833.760, 20.39257
3835.689, 19.77673
3837.617, 23.82224
3839.546, 18.24855
3841.474, 11.73406
3843.403, 10.55915
3845.331, 12.53823
3847.260, 10.73140
3849.188, 7.9622567E-02
3851.116, 12.90028
3853.045, 2.692710
3854.973, 1.745417
3856.902, 18.23265
3858.830, 16.37573
3860.759, -8.627576
3862.687, -10.05707
3864.616, 40.70847
3866.544, 10.14552
3868.473, 1.324343
3870.401, 29.09311
3872.330, 11.67432
3874.258, -3.692925
3876.187, 21.33204
3878.115, 40.13284
3880.043, 11.59446
3881.972, 4.373083
3883.900, 21.66699
3885.829, 0.8265615
3887.757, 18.20726
3889.686, 2.455875
3891.614, 1.363671
3893.543, 11.55299
3895.471, 11.00169
3897.400, 5.362084
3899.328, -16.85002
3901.257, 4.520248
3903.185, 7.382707
3905.114, 29.17518
3907.042, 11.80526
3908.970, 6.864364
3910.899, 8.604744
3912.827, 1.653343
3914.756, 2.757735
3916.684, 7.934043
3918.613, 3.086337
3920.541, 25.21180
3922.470, 2.947355
3924.398, 0.4660078
3926.327, 12.27969
3928.255, 32.76011
3930.184, 36.53893
3932.112, 19.18755
3934.041, 14.25716
3935.969, 18.01627
3937.897, 19.27711
3939.826, 5.357172
3941.754, 17.46558
3943.683, 11.00916
3945.611, -1.102719
3947.540, 6.072668
3949.468, 14.48097
3951.397, 6.799304
3953.325, 3.335962
3955.254, 11.65657
3957.182, -3.992603
3959.111, 20.35991
3961.039, -1.315459
3962.968, -13.03677
3964.896, 4.008276
3966.824, 9.949341
3968.753, 8.494758
3970.681, 13.76830
3972.610, 18.59933
3974.538, 31.01988
3976.467, -0.4990806
3978.395, 22.94488
3980.324, 0.4636027
3982.252, 9.801965
3984.181, 6.839926
3986.109, 9.941306
3988.038, 11.43710
3989.966, 9.380088
3991.895, 13.43654
3993.823, 11.05466
3995.751, -11.73966
3997.680, -21.85035
3999.608, 18.90553
4001.537, 16.50461
4003.465, 1.605319
4005.394, -0.9531484
4007.322, 10.05494
4009.251, 7.925498
4011.179, 4.394540
4013.108, 16.30178
4015.036, 21.91988
4016.965, 7.424369
4018.893, 9.090289
4020.822, -13.35991
4022.750, 4.745983
4024.678, 7.806350
4026.607, -16.42023
4028.535, 0.8006249
4030.464, -4.494722
4032.392, 7.692626
4034.321, 15.24871
4036.249, -5.502832
4038.178, -4.787413
4040.106, 8.466020
4042.035, 16.26691
4043.963, 5.465630
4045.892, -1.525499
4047.820, 21.30789
4049.749, 12.83852
4051.677, 8.311498
4053.605, 7.831764
4055.534, 12.52495
4057.462, 3.771607
4059.391, -0.7981796
4061.319, -4.398270
4063.248, -16.99963
4065.176, 18.58212
4067.105, 26.84592
4069.033, 6.896164
4070.962, 27.91758
4072.890, -17.70935
4074.819, 26.56595
4076.747, 14.43577
4078.676, 18.16366
4080.604, 6.596004
4082.532, 4.741280
4084.461, 15.03067
4086.389, 3.449860
4088.318, -8.901160
4090.246, 6.026479
4092.175, 12.11248
4094.103, 31.82404
4096.032, -7.229486
4097.960, 3.342893
4099.889, -5.106008
4101.817, -1.593129
4103.746, 1.535765
4105.674, -1.122676
4107.603, 21.00692
4109.531, 16.20715
4111.459, 16.05582
4113.388, 28.72682
4115.316, 18.20865
4117.245, 2.734859
4119.173, 6.793582
4121.102, -2.968160
4123.030, -5.902273
4124.959, 13.92053
4126.887, 12.49385
4128.816, -18.09512
4130.744, 11.97061
4132.673, 28.92819
4134.601, 2.658266
4136.530, 3.869251
4138.458, 23.81846
4140.387, 13.14092
4142.315, 17.76017
4144.244, 28.70589
4146.172, 5.091781
4148.101, -6.868474
4150.029, 13.33479
4151.958, 18.57858
4153.886, 22.55720
4155.814, 12.09501
4157.743, 0.9325017
4159.671, 6.806639
4161.600, -10.92176
4163.528, 17.71070
4165.457, 15.57994
4167.385, -8.8963611E-03
4169.313, 2.860287
4171.242, 19.99535
4173.170, -12.00392
4175.099, 4.910232
4177.027, 4.926471
4178.956, -6.061172
4180.884, 7.592974
4182.813, 34.32468
4184.741, 28.48366
4186.670, -1.609117
4188.598, -2.706912
4190.527, 14.53565
4192.455, 17.06130
4194.384, 6.601476
4196.312, 19.37347
4198.241, 3.511209
4200.169, 27.23444
4202.098, 8.132231
4204.026, 11.46274
4205.955, 21.99063
4207.883, 4.260573
4209.812, -3.794951
4211.740, 14.86109
4213.668, -0.9050751
4215.597, 2.170211
4217.525, 6.740649
4219.454, 5.991363
4221.382, -2.511474
4223.311, 14.96457
4225.239, 12.97802
4227.167, 4.803277
4229.096, 1.953084
4231.024, 8.329189
4232.953, 17.20242
4234.881, 2.600315
4236.810, 13.55742
4238.738, 22.33065
4240.667, -4.024963
4242.595, -10.51564
4244.524, 7.190715
4246.452, 5.262609
4248.381, 21.13253
4250.309, 7.093398
4252.238, 13.53084
4254.166, -5.602444
4256.095, 8.793257
4258.023, 10.55248
4259.952, 17.16541
4261.880, -11.80705
4263.809, 15.60653
4265.737, 47.58358
4267.666, 29.38762
4269.594, 22.26094
4271.522, 8.238249
4273.451, -2.787678
4275.379, -0.7566890
4277.308, -5.877201
4279.236, 5.078211
4281.165, -6.980617
4283.093, 5.155102
4285.021, -5.4560799E-02
4286.950, 7.263000
4288.878, -4.393194
4290.807, -6.064958
4292.735, 7.463475
4294.664, 21.28876
4296.592, 28.28478
4298.521, 2.538148
4300.449, -0.9859267
4302.378, 3.609112
4304.306, 3.337569
4306.235, 15.21903
4308.163, -20.18926
4310.092, -27.23573
4312.020, 3.863731
4313.949, 7.432486
4315.877, 30.99875
4317.806, -15.16092
4319.734, -6.586442
4321.663, 12.07880
4323.591, 13.03448
4325.520, 22.69079
4327.448, 0.2496567
4329.376, -15.92526
4331.305, -23.39343
4333.233, 7.798651
4335.162, -4.327622
##END=



