##NAMES=Uranophane
##RRUFFID=R050380
##IDEAL CHEMISTRY=Ca(UO_2_)_2_(SiO_3_OH)_2_·5H_2_O
##LOCALITY=Grafton County, New Hampshire, USA
##OWNER=RRUFF
##SOURCE=University of Arizona Mineral Museum
##DESCRIPTION=Orange massive coating
##STATUS=The identification of this mineral has been confirmed by X-ray diffraction and chemical analysis
##URL=https://www.rruff.net/odr/rruff_sample/R050380
##MEASURED CHEMISTRY=(Ca_0.97_Pb_0.03_)(U_1.00_O_2_)_2_(Si_1.00_O_3_OH)_2_·5H_2_O
##DIFFRACTION SAMPLE DESCRIPTION=Powder
##CELL PARAMETERS=a: 15.971 b: 7.02 c: 6.67 alpha: 90 beta: 97.15 gamma: 90 volume: 742.1 crystal system: monoclinic
##FILETYPE=Raman RAW
##RAMAN WAVELENGTH=780

83.81592, 394.4905
85.74438, 419.8907
87.67285, 457.0255
89.60132, 495.6417
91.52979, 535.0719
93.45825, 560.9172
95.38672, 545.3395
97.31519, 532.7396
99.24365, 522.3396
101.1721, 514.4016
103.1006, 508.9227
105.0291, 505.7062
106.9575, 504.7484
108.8860, 506.0128
110.8145, 507.7278
112.7429, 509.5503
114.6714, 511.0731
116.5999, 511.1909
118.5283, 510.6341
120.4568, 511.4583
122.3853, 514.6956
124.3137, 515.9493
126.2422, 513.7755
128.1707, 510.5059
130.0991, 506.4006
132.0276, 502.1942
133.9561, 499.4684
135.8845, 498.7645
137.8130, 497.9726
139.7415, 496.2860
141.6699, 495.1216
143.5984, 495.4424
145.5269, 496.5963
147.4553, 497.4404
149.3838, 497.1563
151.3123, 499.2697
153.2407, 504.5513
155.1692, 511.0674
157.0977, 518.1727
159.0261, 526.2027
160.9546, 535.7465
162.8831, 547.0809
164.8115, 558.3804
166.7400, 570.6351
168.6685, 581.1059
170.5969, 588.3843
172.5254, 593.8566
174.4539, 598.5150
176.3823, 602.3701
178.3108, 605.6055
180.2393, 607.2184
182.1677, 611.0574
184.0962, 618.6813
186.0247, 628.1974
187.9531, 637.9739
189.8816, 648.5291
191.8101, 662.1707
193.7385, 679.1732
195.6670, 697.3251
197.5955, 716.9328
199.5239, 736.7239
201.4524, 758.6522
203.3809, 779.1477
205.3093, 793.3929
207.2378, 801.1398
209.1663, 799.8932
211.0947, 788.6080
213.0232, 770.2332
214.9517, 743.9042
216.8801, 713.0344
218.8086, 678.8461
220.7371, 641.9954
222.6655, 605.8145
224.5940, 569.8640
226.5225, 537.0988
228.4509, 508.2308
230.3794, 483.0634
232.3079, 462.2617
234.2363, 445.0472
236.1648, 430.1539
238.0933, 417.4303
240.0217, 407.4174
241.9502, 400.8908
243.8787, 395.8639
245.8071, 391.9612
247.7356, 389.0418
249.6641, 387.1187
251.5925, 386.1091
253.5210, 385.7155
255.4495, 385.9043
257.3779, 386.8730
259.3064, 388.8119
261.2349, 391.3180
263.1633, 394.2561
265.0918, 397.7292
267.0203, 401.8974
268.9487, 406.7003
270.8772, 411.9439
272.8057, 418.2790
274.7341, 423.7240
276.6626, 428.2607
278.5911, 431.6796
280.5195, 433.6677
282.4480, 434.4964
284.3765, 434.9008
286.3049, 435.0845
288.2334, 432.5918
290.1619, 425.6434
292.0903, 418.4544
294.0188, 411.0757
295.9473, 404.2188
297.8757, 398.5428
299.8042, 393.6996
301.7327, 389.0556
303.6611, 384.8797
305.5896, 379.9567
307.5181, 374.1191
309.4465, 367.8827
311.3750, 361.7008
313.3035, 354.7764
315.2319, 346.4849
317.1604, 337.0877
319.0889, 327.3953
321.0173, 317.2485
322.9458, 307.2836
324.8743, 297.3475
326.8027, 287.9061
328.7312, 279.2000
330.6597, 271.0051
332.5882, 263.0883
334.5166, 255.5565
336.4451, 248.7304
338.3736, 242.6250
340.3020, 237.2378
342.2305, 232.5278
344.1590, 228.6189
346.0874, 225.6803
348.0159, 223.4922
349.9444, 221.9904
351.8728, 221.1528
353.8013, 220.9838
355.7298, 221.4923
357.6582, 222.3764
359.5867, 223.6147
361.5152, 225.2566
363.4436, 227.0701
365.3721, 229.5862
367.3006, 234.1326
369.2290, 239.1388
371.1575, 241.0582
373.0860, 240.3658
375.0144, 241.2400
376.9429, 244.3449
378.8714, 247.3039
380.7998, 249.2046
382.7283, 251.1744
384.6568, 253.9935
386.5852, 256.8756
388.5137, 258.8990
390.4422, 260.1561
392.3706, 261.0089
394.2991, 261.5060
396.2276, 261.2335
398.1560, 260.2573
400.0845, 258.1895
402.0130, 254.6420
403.9414, 250.2610
405.8699, 245.3985
407.7984, 240.0907
409.7268, 234.3071
411.6553, 228.0775
413.5838, 222.1748
415.5122, 216.6522
417.4407, 211.5543
419.3692, 206.8259
421.2976, 202.5509
423.2261, 199.0941
425.1546, 195.8454
427.0830, 191.7173
429.0115, 187.2970
430.9400, 184.6485
432.8684, 184.3025
434.7969, 183.8744
436.7254, 183.0263
438.6538, 182.4735
440.5823, 182.4182
442.5108, 182.5973
444.4392, 182.8545
446.3677, 183.2632
448.2962, 184.0442
450.2246, 185.1356
452.1531, 185.7975
454.0816, 185.6235
456.0100, 186.0739
457.9385, 187.4092
459.8670, 188.8685
461.7954, 190.3897
463.7239, 191.7674
465.6524, 192.8009
467.5808, 193.6687
469.5093, 194.8418
471.4378, 196.2148
473.3662, 196.4439
475.2947, 195.4090
477.2232, 193.8374
479.1516, 191.7552
481.0801, 189.1520
483.0086, 185.4365
484.9370, 181.9764
486.8655, 179.6056
488.7940, 177.8331
490.7224, 176.1880
492.6509, 174.6035
494.5794, 172.3672
496.5078, 169.3837
498.4363, 168.1973
500.3648, 169.6380
502.2932, 170.7788
504.2217, 170.1566
506.1502, 169.8878
508.0786, 171.2527
510.0071, 173.0205
511.9356, 173.8500
513.8640, 174.1770
515.7925, 175.2607
517.7209, 176.9792
519.6494, 178.3951
521.5779, 179.3349
523.5063, 180.6303
525.4348, 182.4211
527.3633, 184.6862
529.2917, 187.3189
531.2202, 190.5186
533.1487, 194.7429
535.0771, 199.3898
537.0056, 203.9311
538.9341, 208.1368
540.8625, 211.4278
542.7910, 213.7880
544.7195, 214.9973
546.6479, 215.4458
548.5764, 213.6267
550.5049, 208.5413
552.4333, 202.5340
554.3618, 195.6753
556.2903, 188.8797
558.2188, 182.8544
560.1472, 177.2933
562.0757, 171.5618
564.0042, 165.9231
565.9326, 161.4091
567.8611, 158.1586
569.7896, 155.2384
571.7180, 152.6105
573.6465, 150.3098
575.5750, 148.3069
577.5034, 146.6723
579.4319, 145.7261
581.3604, 144.8288
583.2889, 143.3980
585.2173, 141.9303
587.1458, 141.0445
589.0743, 140.5813
591.0027, 139.9715
592.9312, 139.1946
594.8597, 138.4882
596.7881, 137.7367
598.7166, 137.4239
600.6451, 137.8592
602.5735, 138.0669
604.5020, 137.6126
606.4305, 137.1363
608.3589, 137.1886
610.2874, 137.1592
612.2159, 136.1926
614.1443, 135.0414
616.0728, 135.3314
618.0013, 136.7253
619.9297, 136.9491
621.8582, 135.8759
623.7867, 135.0923
625.7151, 134.6339
627.6436, 134.4923
629.5721, 134.8610
631.5005, 135.0351
633.4290, 134.5832
635.3575, 134.1514
637.2859, 134.1040
639.2144, 134.1371
641.1429, 133.8449
643.0714, 133.5524
644.9998, 133.9552
646.9283, 134.8297
648.8568, 135.2683
650.7852, 135.3006
652.7137, 135.1718
654.6422, 134.8444
656.5706, 134.8744
658.4991, 135.5605
660.4276, 136.0405
662.3560, 135.9947
664.2845, 135.8571
666.2130, 135.5721
668.1414, 135.4793
670.0699, 136.0357
671.9984, 136.7046
673.9268, 136.7351
675.8553, 136.5373
677.7838, 136.9289
679.7122, 137.7351
681.6407, 138.2427
683.5692, 138.4350
685.4976, 139.3265
687.4261, 141.3412
689.3546, 142.7224
691.2830, 142.4237
693.2115, 142.8720
695.1400, 144.7843
697.0684, 146.7965
698.9969, 148.6215
700.9254, 150.2341
702.8538, 151.5191
704.7823, 152.6901
706.7108, 153.6661
708.6392, 154.8546
710.5677, 156.9192
712.4962, 159.6485
714.4246, 162.2075
716.3531, 164.6165
718.2816, 168.1998
720.2100, 173.3098
722.1385, 178.0791
724.0670, 182.0159
725.9954, 186.9113
727.9239, 193.0365
729.8524, 199.6722
731.7808, 206.3248
733.7093, 214.1041
735.6378, 223.2421
737.5662, 233.9463
739.4947, 246.2753
741.4232, 260.3822
743.3516, 276.5009
745.2801, 294.4565
747.2086, 313.3825
749.1370, 334.2648
751.0655, 359.2881
752.9940, 388.3128
754.9224, 420.5716
756.8509, 456.1735
758.7794, 495.2010
760.7078, 537.7671
762.6363, 582.5381
764.5648, 629.7752
766.4932, 677.0186
768.4217, 724.1094
770.3502, 770.3946
772.2786, 814.9603
774.2071, 860.2222
776.1356, 905.9639
778.0640, 954.2253
779.9925, 1007.739
781.9210, 1061.654
783.8494, 1113.287
785.7779, 1163.327
787.7064, 1216.216
789.6348, 1265.067
791.5633, 1302.714
793.4918, 1328.100
795.4202, 1340.558
797.3487, 1338.377
799.2772, 1314.746
801.2056, 1270.721
803.1341, 1210.789
805.0626, 1135.416
806.9910, 1053.350
808.9195, 964.0038
810.8480, 877.1546
812.7764, 792.1877
814.7049, 714.5468
816.6334, 644.3430
818.5618, 582.8046
820.4903, 531.2624
822.4188, 486.5070
824.3472, 448.9052
826.2757, 416.2293
828.2042, 388.6394
830.1326, 364.3614
832.0611, 343.1602
833.9896, 324.1511
835.9180, 307.0912
837.8465, 291.4841
839.7750, 276.8537
841.7034, 263.4081
843.6319, 251.8565
845.5604, 241.3782
847.4888, 230.5690
849.4173, 219.6954
851.3458, 209.3802
853.2742, 199.6670
855.2027, 190.7306
857.1312, 182.5657
859.0596, 175.3523
860.9881, 169.1118
862.9166, 163.4092
864.8450, 158.2527
866.7735, 153.5937
868.7020, 149.3824
870.6304, 146.0230
872.5589, 143.6322
874.4874, 141.6949
876.4158, 140.1246
878.3443, 139.1443
880.2728, 138.9649
882.2012, 138.7927
884.1297, 138.3182
886.0582, 138.0748
887.9866, 138.4142
889.9151, 138.6536
891.8436, 138.3688
893.7720, 138.1781
895.7005, 138.4379
897.6290, 138.7235
899.5574, 138.6381
901.4859, 138.7486
903.4144, 139.3091
905.3428, 140.3357
907.2713, 141.4320
909.1998, 143.4337
911.1282, 147.5802
913.0567, 152.6858
914.9852, 157.3001
916.9136, 162.0610
918.8421, 167.6128
920.7706, 174.1210
922.6990, 181.9498
924.6275, 190.8828
926.5560, 200.3338
928.4844, 210.6042
930.4129, 222.7317
932.3414, 236.0858
934.2698, 249.1458
936.1983, 261.8901
938.1268, 274.3847
940.0552, 286.6395
941.9837, 298.8427
943.9122, 310.8887
945.8406, 321.8508
947.7691, 331.7242
949.6976, 340.5541
951.6260, 348.2979
953.5545, 357.0077
955.4830, 366.9759
957.4114, 376.2928
959.3399, 385.3964
961.2684, 391.5781
963.1968, 394.7986
965.1253, 395.1405
967.0538, 393.4015
968.9822, 386.3581
970.9107, 373.2773
972.8392, 356.5597
974.7676, 334.9515
976.6961, 313.2689
978.6246, 291.6051
980.5530, 270.2322
982.4815, 248.4107
984.4100, 229.6910
986.3384, 214.9503
988.2669, 201.6817
990.1954, 189.3460
992.1238, 179.2914
994.0523, 172.1828
995.9808, 165.7954
997.9092, 159.6591
999.8377, 154.2884
1001.766, 149.9152
1003.695, 145.8003
1005.623, 141.6491
1007.552, 138.2406
1009.480, 135.9519
1011.409, 133.8208
1013.337, 131.6319
1015.265, 129.4950
1017.194, 127.5528
1019.122, 125.2636
1021.051, 122.1669
1022.979, 119.5871
1024.908, 118.1270
1026.836, 116.5563
1028.765, 114.4347
1030.693, 112.4804
1032.622, 110.8856
1034.550, 109.4584
1036.479, 108.3058
1038.407, 107.0199
1040.335, 105.3447
1042.264, 103.8417
1044.192, 102.8232
1046.121, 101.6184
1048.049, 99.97887
1049.978, 98.35938
1051.906, 96.50785
1053.835, 95.26197
1055.763, 95.21414
1057.692, 94.96642
1059.620, 94.16820
1061.549, 93.42464
1063.477, 92.78040
1065.406, 92.26378
1067.334, 91.87686
1069.262, 91.63090
1071.191, 91.75732
1073.120, 91.57612
1075.048, 90.76961
1076.976, 90.11899
1078.905, 89.81193
1080.833, 89.46429
1082.762, 88.79695
1084.690, 88.62971
1086.619, 89.25945
1088.547, 89.83189
1090.476, 90.46170
1092.404, 90.46510
1094.333, 89.41763
1096.261, 89.06593
1098.190, 89.84792
1100.118, 89.86401
1102.047, 88.82959
1103.975, 88.05907
1105.903, 87.64433
1107.832, 87.29636
1109.760, 87.00423
1111.689, 86.75474
1113.617, 86.56725
1115.546, 86.16411
1117.474, 85.52071
1119.403, 85.27656
1121.331, 85.42171
1123.260, 85.42281
1125.188, 85.28468
1127.117, 85.02712
1129.045, 84.72421
1130.974, 84.97955
1132.902, 85.55397
1134.830, 85.25375
1136.759, 84.42384
1138.687, 84.23151
1140.616, 84.46532
1142.544, 84.71508
1144.473, 84.83212
1146.401, 84.42078
1148.330, 83.83243
1150.258, 83.52760
1152.187, 83.40321
1154.115, 83.52726
1156.044, 83.67390
1157.972, 83.62823
1159.901, 83.35535
1161.829, 82.47442
1163.757, 81.76809
1165.686, 82.07368
1167.614, 82.52754
1169.543, 82.68903
1171.471, 82.61373
1173.400, 82.16453
1175.328, 81.76057
1177.257, 81.49549
1179.185, 81.44260
1181.114, 81.97337
1183.042, 82.13394
1184.971, 81.26773
1186.899, 80.80651
1188.828, 81.30070
1190.756, 81.60521
1192.684, 81.49866
1194.613, 81.36478
1196.541, 81.28483
1198.470, 80.99081
1200.398, 80.36942
1202.327, 80.00661
1204.255, 79.93468
1206.184, 79.99919
1208.112, 80.19698
1210.041, 80.04994
1211.969, 79.64642
1213.898, 79.61472
1215.826, 79.90132
1217.755, 80.42442
1219.683, 80.83166
1221.611, 80.27280
1223.540, 79.46199
1225.468, 79.46302
1227.397, 79.71763
1229.325, 79.56831
1231.254, 79.44169
1233.182, 79.96412
1235.111, 80.36855
1237.039, 79.96468
1238.968, 79.55177
1240.896, 79.50142
1242.825, 79.48230
1244.753, 79.37882
1246.682, 79.26612
1248.610, 79.09508
1250.538, 79.24017
1252.467, 79.80386
1254.395, 80.27407
1256.324, 80.62376
1258.252, 80.66685
1260.181, 80.38085
1262.109, 80.28147
1264.038, 80.42776
1265.966, 80.42098
1267.895, 80.32513
1269.823, 80.91686
1271.752, 81.69964
1273.680, 81.28711
1275.609, 80.63496
1277.537, 81.19327
1279.465, 82.16141
1281.394, 82.83289
1283.322, 83.25514
1285.251, 83.28416
1287.179, 83.46086
1289.108, 84.30948
1291.036, 85.04150
1292.965, 85.16084
1294.893, 85.40475
1296.822, 86.19703
1298.750, 86.53335
1300.679, 86.21885
1302.607, 85.98892
1304.536, 85.85280
1306.464, 86.57433
1308.392, 87.90686
1310.321, 87.77166
1312.249, 86.77898
1314.178, 86.58187
1316.106, 86.88291
1318.035, 87.63508
1319.963, 88.16818
1321.892, 87.46133
1323.820, 86.84799
1325.749, 87.18355
1327.677, 87.64116
1329.606, 88.04430
1331.534, 88.23382
1333.463, 87.96677
1335.391, 87.61327
1337.319, 87.36166
1339.248, 87.58979
1341.176, 88.28695
1343.105, 88.51249
1345.033, 88.24471
1346.962, 87.96089
1348.890, 87.76158
1350.819, 87.43432
1352.747, 87.24093
1354.676, 87.87231
1356.604, 88.32996
1358.533, 87.49644
1360.461, 86.87869
1362.390, 87.58347
1364.318, 87.92607
1366.246, 87.25192
1368.175, 86.82403
1370.103, 86.95377
1372.032, 87.20323
1373.960, 87.35490
1375.889, 86.89005
1377.817, 86.21587
1379.746, 86.40771
1381.674, 87.04548
1383.603, 87.78508
1385.531, 88.15255
1387.460, 87.26008
1389.388, 86.20485
1391.317, 85.64352
1393.245, 85.28500
1395.173, 85.05477
1397.102, 84.97353
1399.030, 85.17964
1400.959, 85.30764
1402.887, 85.48225
1404.816, 84.92628
1406.744, 83.67776
1408.673, 83.07928
1410.601, 82.98933
1412.530, 83.31298
1414.458, 83.58294
1416.387, 83.07626
1418.315, 82.52213
1420.244, 82.21673
1422.172, 82.02908
1424.100, 82.13545
1426.029, 82.17068
1427.957, 82.02542
1429.886, 81.93375
1431.814, 81.80453
1433.743, 81.59944
1435.671, 81.42406
1437.600, 81.33105
1439.528, 81.29930
1441.457, 81.25474
1443.385, 81.06216
1445.314, 80.76030
1447.242, 80.42588
1449.171, 79.99585
1451.099, 79.78098
1453.027, 79.85146
1454.956, 79.94481
1456.884, 80.03551
1458.813, 79.79331
1460.741, 79.24102
1462.670, 79.29255
1464.598, 79.71879
1466.527, 79.84862
1468.455, 79.71459
1470.384, 79.28397
1472.312, 78.93571
1474.241, 78.70458
1476.169, 78.65640
1478.098, 79.04218
1480.026, 79.10399
1481.954, 78.75896
1483.883, 78.94022
1485.811, 79.50825
1487.740, 79.39622
1489.668, 78.87242
1491.597, 78.61600
1493.525, 78.65752
1495.454, 79.38748
1497.382, 79.97991
1499.311, 79.45540
1501.239, 79.10493
1503.168, 79.51783
1505.096, 79.76498
1507.025, 79.83610
1508.953, 80.15757
1510.881, 80.44016
1512.810, 79.83863
1514.738, 79.35930
1516.667, 80.52200
1518.595, 81.48452
1520.524, 80.97530
1522.452, 80.52519
1524.381, 80.50656
1526.309, 80.58697
1528.238, 80.68846
1530.166, 81.27278
1532.095, 82.05309
1534.023, 82.01399
1535.952, 81.63963
1537.880, 81.21301
1539.808, 80.79033
1541.737, 80.49406
1543.665, 80.45236
1545.594, 80.47054
1547.522, 80.19604
1549.451, 79.84039
1551.379, 79.54448
1553.308, 79.36758
1555.236, 79.84874
1557.165, 80.30592
1559.093, 79.60279
1561.022, 79.14639
1562.950, 80.07423
1564.879, 80.06139
1566.807, 78.64872
1568.735, 78.24979
1570.664, 78.70492
1572.592, 78.82742
1574.521, 78.82991
1576.449, 79.08399
1578.378, 79.28526
1580.306, 78.88449
1582.235, 78.67976
1584.163, 79.24792
1586.092, 79.63981
1588.020, 79.61893
1589.949, 79.52162
1591.877, 79.22090
1593.806, 77.92900
1595.734, 76.58649
1597.662, 76.36716
1599.591, 76.35384
1601.519, 75.80445
1603.448, 75.44727
1605.376, 75.77203
1607.305, 75.83406
1609.233, 75.51547
1611.162, 75.47878
1613.090, 75.61183
1615.019, 75.52598
1616.947, 75.21912
1618.876, 74.72657
1620.804, 74.41354
1622.733, 74.59593
1624.661, 74.30514
1626.589, 73.31988
1628.518, 73.25121
1630.446, 73.83016
1632.375, 73.89841
1634.303, 73.47083
1636.232, 72.51760
1638.160, 72.01199
1640.089, 72.47952
1642.017, 72.20016
1643.946, 71.13633
1645.874, 71.20853
1647.803, 71.77603
1649.731, 71.95369
1651.660, 71.85994
1653.588, 71.54388
1655.516, 71.14493
1657.445, 70.56824
1659.373, 70.11311
1661.302, 69.88846
1663.230, 69.62322
1665.159, 69.17915
1667.087, 68.83892
1669.016, 68.77035
1670.944, 68.69083
1672.873, 68.53896
1674.801, 68.42071
1676.730, 68.13878
1678.658, 67.83462
1680.587, 67.68941
1682.515, 67.38262
1684.443, 67.02681
1686.372, 66.78616
1688.300, 66.40623
1690.229, 66.20576
1692.157, 66.17962
1694.086, 66.26059
1696.014, 66.32231
1697.943, 65.81226
1699.871, 65.26218
1701.800, 64.72470
1703.728, 64.19175
1705.657, 64.05859
1707.585, 64.12365
1709.514, 64.27745
1711.442, 64.35648
1713.370, 64.27831
1715.299, 64.03668
1717.227, 63.73010
1719.156, 63.38998
1721.084, 63.41373
1723.013, 63.61785
1724.941, 63.08380
1726.870, 62.56669
1728.798, 62.90570
1730.727, 63.19649
1732.655, 63.05154
1734.584, 62.62300
1736.512, 62.00885
1738.441, 61.85260
1740.369, 61.85286
1742.297, 61.19960
1744.226, 60.89556
1746.154, 61.58176
1748.083, 61.73670
1750.011, 61.40157
1751.940, 61.14577
1753.868, 60.64979
1755.797, 60.44402
1757.725, 60.58791
1759.654, 60.73587
1761.582, 60.48194
1763.511, 59.65602
1765.439, 59.28045
1767.368, 59.41896
1769.296, 59.10860
1771.224, 58.48308
1773.153, 58.53881
1775.081, 58.93463
1777.010, 58.75048
1778.938, 58.24385
1780.867, 57.87001
1782.795, 58.00337
1784.724, 58.16894
1786.652, 57.48167
1788.581, 56.90324
1790.509, 56.74606
1792.438, 57.06621
1794.366, 57.91788
1796.295, 57.41652
1798.223, 56.54021
1800.151, 56.55293
1802.080, 56.52217
1804.008, 55.85862
1805.937, 55.25714
1807.865, 55.15797
1809.794, 55.34091
1811.722, 55.36614
1813.651, 54.96270
1815.579, 54.66692
1817.508, 55.01942
1819.436, 55.16117
1821.365, 54.71578
1823.293, 54.62089
1825.222, 54.81002
1827.150, 54.63374
1829.078, 54.37461
1831.007, 54.02188
1832.935, 53.49650
1834.864, 53.24189
1836.792, 53.36824
1838.721, 53.30704
1840.649, 53.01965
1842.578, 52.92073
1844.506, 52.99033
1846.435, 52.66288
1848.363, 52.03584
1850.292, 51.62537
1852.220, 51.55018
1854.149, 51.71301
1856.077, 51.46051
1858.005, 50.73094
1859.934, 50.64677
1861.862, 51.05397
1863.791, 51.00248
1865.719, 50.61965
1867.648, 50.44353
1869.576, 50.45741
1871.505, 50.38382
1873.433, 50.26888
1875.362, 50.01189
1877.290, 49.45144
1879.219, 49.34021
1881.147, 49.60670
1883.076, 49.63254
1885.004, 49.58220
1886.932, 49.36187
1888.861, 49.13386
1890.789, 49.15614
1892.718, 48.76170
1894.646, 47.99912
1896.575, 47.94873
1898.503, 48.07103
1900.432, 47.77387
1902.360, 47.40118
1904.289, 47.09490
1906.217, 47.30828
1908.146, 47.56480
1910.074, 47.25390
1912.003, 46.94032
1913.931, 46.77869
1915.859, 46.98229
1917.788, 47.26629
1919.716, 47.14948
1921.645, 46.79625
1923.573, 46.05779
1925.502, 45.67908
1927.430, 45.74623
1929.359, 45.65010
1931.287, 45.55915
1933.216, 45.89774
1935.144, 46.01711
1937.073, 45.41248
1939.001, 44.92058
1940.930, 44.75427
1942.858, 44.51691
1944.786, 44.05565
1946.715, 43.88236
1948.643, 44.17112
1950.572, 44.23652
1952.500, 44.06266
1954.429, 44.17699
1956.357, 44.14624
1958.286, 43.84488
1960.214, 43.63950
1962.143, 43.27915
1964.071, 43.05606
1966.000, 43.49131
1967.928, 43.44755
1969.857, 42.99903
1971.785, 43.09385
1973.714, 43.02415
1975.642, 42.53639
1977.570, 42.27129
1979.499, 42.12409
1981.427, 42.11350
1983.356, 41.98923
1985.284, 41.64661
1987.213, 41.65362
1989.141, 41.77827
1991.070, 41.53167
1992.998, 41.40982
1994.927, 41.09552
1996.855, 40.65045
1998.784, 40.76764
2000.712, 40.89750
2002.641, 40.29404
2004.569, 39.92165
2006.497, 40.03291
2008.426, 39.95298
2010.354, 39.79396
2012.283, 39.51002
2014.211, 39.28521
2016.140, 39.25491
2018.068, 38.91032
2019.997, 38.58538
2021.925, 38.41909
2023.854, 38.72495
2025.782, 39.19789
2027.711, 38.68023
2029.639, 38.32461
2031.568, 38.58340
2033.496, 38.23191
2035.424, 37.55076
2037.353, 37.82745
2039.281, 37.99511
2041.210, 37.44813
2043.138, 37.34360
2045.067, 37.67683
2046.995, 37.53039
2048.924, 37.18372
2050.852, 36.95359
2052.781, 37.00972
2054.709, 37.03651
2056.637, 36.40796
2058.566, 35.98769
2060.495, 36.14371
2062.423, 36.05823
2064.352, 35.53246
2066.280, 35.73864
2068.208, 36.36341
2070.137, 36.11555
2072.065, 35.65010
2073.994, 35.09600
2075.922, 34.94541
2077.851, 34.99186
2079.779, 34.76244
2081.708, 34.67988
2083.636, 34.80013
2085.565, 34.87553
2087.493, 34.46358
2089.422, 33.71743
2091.350, 33.79032
2093.279, 34.18005
2095.207, 34.14552
2097.135, 33.81809
2099.064, 33.49738
2100.992, 33.77906
2102.921, 33.88853
2104.849, 33.27255
2106.778, 33.00201
2108.706, 33.08797
2110.635, 33.10312
2112.563, 32.96586
2114.492, 32.89812
2116.420, 32.80596
2118.349, 32.65881
2120.277, 32.45719
2122.206, 32.19659
2124.134, 31.96585
2126.063, 32.06372
2127.991, 32.22597
2129.919, 32.01210
2131.848, 32.03159
2133.776, 31.94335
2135.705, 31.75834
2137.633, 31.59932
2139.562, 31.91008
2141.490, 32.07188
2143.419, 31.36385
2145.347, 31.01330
2147.276, 30.96226
2149.204, 30.85751
2151.133, 30.78444
2153.061, 30.72622
2154.990, 30.93414
2156.918, 31.23101
2158.846, 30.99775
2160.775, 30.55008
2162.703, 30.20373
2164.632, 30.07548
2166.560, 30.10164
2168.489, 30.01933
2170.417, 30.31818
2172.346, 30.37702
2174.274, 29.91904
2176.203, 29.72389
2178.131, 29.54201
2180.060, 29.21695
2181.988, 29.13583
2183.917, 29.28099
2185.845, 29.24750
2187.773, 29.25176
2189.702, 29.37251
2191.630, 29.13116
2193.559, 28.85704
2195.487, 28.91936
2197.416, 28.94615
2199.344, 28.67926
2201.273, 28.54271
2203.201, 28.57228
2205.130, 28.40463
2207.058, 28.23368
2208.987, 27.92749
2210.915, 27.64574
2212.844, 27.80079
2214.772, 27.86510
2216.700, 27.74601
2218.629, 27.74685
2220.557, 28.04636
2222.486, 27.91857
2224.414, 27.52141
2226.343, 27.25455
2228.271, 26.86066
2230.200, 26.90627
2232.128, 27.09010
2234.057, 26.91373
2235.985, 26.87075
2237.914, 26.87624
2239.842, 26.78117
2241.771, 26.84078
2243.699, 26.49355
2245.627, 26.14554
2247.556, 26.30262
2249.484, 26.46572
2251.413, 26.16478
2253.341, 25.94708
2255.270, 26.07431
2257.198, 26.33570
2259.127, 26.39208
2261.055, 26.02592
2262.984, 25.76434
2264.912, 25.85105
2266.841, 25.71462
2268.769, 25.58511
2270.698, 27.25998
2272.626, 28.01660
2274.554, 26.18852
2276.483, 25.00387
2278.411, 24.73050
2280.340, 24.58381
2282.268, 24.57382
2284.197, 24.50421
2286.125, 24.72231
2288.054, 25.08769
2289.982, 24.86073
2291.911, 24.15506
2293.839, 23.79267
2295.768, 24.12323
2297.696, 24.08476
2299.625, 23.87840
2301.553, 24.00321
2303.481, 23.93300
2305.410, 23.58840
2307.338, 23.44430
2309.267, 23.37025
2311.195, 23.37629
2313.124, 23.38473
2315.052, 23.40870
2316.981, 23.11709
2318.909, 22.81459
2320.838, 22.80292
2322.766, 22.66707
2324.695, 22.75894
2326.623, 23.04266
2328.552, 23.24248
2330.480, 23.02797
2332.408, 22.39005
2334.337, 22.13653
2336.265, 21.78908
2338.194, 21.95304
2340.122, 22.20321
2342.051, 22.23842
2343.979, 22.09314
2345.908, 21.62478
2347.836, 21.27380
2349.765, 21.62809
2351.693, 21.86132
2353.622, 21.60218
2355.550, 21.64067
2357.479, 21.68044
2359.407, 21.53402
2361.335, 21.51889
2363.264, 21.41985
2365.192, 21.38444
2367.121, 21.36498
2369.049, 21.20293
2370.978, 21.04199
2372.906, 20.93334
2374.835, 20.99433
2376.763, 20.72357
2378.692, 20.48784
2380.620, 20.93217
2382.549, 21.00280
2384.477, 20.86170
2386.406, 20.61419
2388.334, 20.21789
2390.262, 19.90403
2392.191, 19.90385
2394.119, 19.99615
2396.048, 19.96254
2397.976, 19.84603
2399.905, 19.77195
2401.833, 19.86096
2403.762, 19.96662
2405.690, 19.88006
2407.619, 19.75885
2409.547, 19.69916
2411.476, 19.73449
2413.404, 19.54967
2415.333, 19.29831
2417.261, 19.25822
2419.189, 18.90574
2421.118, 18.67654
2423.046, 19.03146
2424.975, 19.03918
2426.903, 18.82684
2428.832, 18.43979
2430.760, 18.19464
2432.689, 18.27990
2434.617, 18.57678
2436.546, 18.65980
2438.474, 18.41413
2440.403, 18.47293
2442.331, 18.55959
2444.260, 18.49050
2446.188, 18.33599
2448.116, 18.13232
2450.045, 17.80090
2451.973, 17.93114
2453.902, 17.89018
2455.830, 17.34530
2457.759, 17.38899
2459.687, 17.47766
2461.616, 17.13506
2463.544, 17.17860
2465.473, 17.50642
2467.401, 17.55297
2469.330, 17.26970
2471.258, 16.75855
2473.187, 16.93993
2475.115, 16.97637
2477.043, 16.76229
2478.972, 16.81494
2480.900, 16.85776
2482.829, 16.86666
2484.757, 16.56425
2486.686, 16.53068
2488.614, 16.78086
2490.543, 16.61220
2492.471, 16.29021
2494.400, 16.14977
2496.328, 16.16241
2498.257, 16.15661
2500.185, 16.19002
2502.114, 16.08865
2504.042, 15.97501
2505.970, 16.09143
2507.899, 15.92627
2509.827, 15.61220
2511.756, 15.52356
2513.684, 15.59689
2515.613, 15.78220
2517.541, 15.62375
2519.470, 15.40764
2521.398, 15.29500
2523.327, 15.37658
2525.255, 15.48238
2527.184, 15.57017
2529.112, 15.48170
2531.041, 15.22098
2532.969, 15.21149
2534.897, 15.33992
2536.826, 15.37324
2538.754, 15.16115
2540.683, 14.95589
2542.611, 14.77074
2544.540, 14.65046
2546.468, 14.82950
2548.397, 14.97133
2550.325, 14.92559
2552.254, 14.73299
2554.182, 14.69140
2556.111, 14.70924
2558.039, 14.38363
2559.968, 14.29722
2561.896, 14.71109
2563.824, 14.55292
2565.753, 14.23391
2567.681, 14.02037
2569.610, 14.19885
2571.538, 14.34455
2573.467, 14.10780
2575.395, 13.98875
2577.324, 13.95420
2579.252, 13.86841
2581.181, 13.76213
2583.109, 13.86848
2585.038, 13.71926
2586.966, 13.55715
2588.895, 13.65987
2590.823, 13.72977
2592.751, 13.63481
2594.680, 13.52337
2596.608, 13.56866
2598.537, 13.48168
2600.465, 13.29093
2602.394, 13.36049
2604.322, 13.47355
2606.251, 13.41368
2608.179, 13.04530
2610.108, 13.14311
2612.036, 13.53827
2613.965, 13.23848
2615.893, 12.95060
2617.822, 12.93996
2619.750, 13.07973
2621.678, 13.03581
2623.607, 12.92419
2625.535, 13.10133
2627.464, 13.10312
2629.392, 13.05308
2631.321, 12.82124
2633.249, 12.60163
2635.178, 12.52792
2637.106, 12.69709
2639.035, 12.61779
2640.963, 12.49701
2642.892, 12.59454
2644.820, 12.41588
2646.749, 12.29073
2648.677, 12.40419
2650.605, 12.28645
2652.534, 12.10057
2654.462, 12.03507
2656.391, 12.16625
2658.319, 12.19994
2660.248, 11.95524
2662.176, 11.84317
2664.105, 11.70995
2666.033, 11.47459
2667.962, 11.24715
2669.890, 11.18369
2671.819, 11.26022
2673.747, 11.26207
2675.676, 11.20750
2677.604, 11.00710
2679.532, 11.10146
2681.461, 11.19758
2683.389, 11.20152
2685.318, 10.93480
2687.246, 10.65346
2689.175, 10.65223
2691.103, 10.57312
2693.032, 10.57839
2694.960, 10.65880
2696.889, 10.28671
2698.817, 10.02469
2700.746, 10.01462
2702.674, 10.30235
2704.603, 10.40226
2706.531, 10.26652
2708.459, 10.04787
2710.388, 9.845325
2712.316, 9.696054
2714.245, 9.774204
2716.173, 9.778637
2718.102, 9.808753
2720.030, 9.863726
2721.959, 9.411734
2723.887, 9.119402
2725.816, 9.315825
2727.744, 9.515484
2729.673, 9.496091
2731.601, 9.184115
2733.530, 9.177274
2735.458, 9.273188
2737.386, 9.371058
2739.315, 9.123508
2741.243, 9.130081
2743.172, 9.267467
2745.100, 8.892147
2747.029, 8.860136
2748.957, 8.991525
2750.886, 8.807650
2752.814, 8.657925
2754.743, 8.683745
2756.671, 8.853987
2758.600, 8.749660
2760.528, 8.743023
2762.457, 8.949206
2764.385, 8.697897
2766.313, 8.614822
2768.242, 8.840155
2770.170, 8.397454
2772.099, 8.085779
2774.027, 8.123424
2775.956, 8.256797
2777.884, 8.159716
2779.813, 8.059091
2781.741, 8.014675
2783.670, 8.029275
2785.598, 8.040463
2787.527, 7.887555
2789.455, 8.164306
2791.384, 8.272208
2793.312, 8.037129
2795.240, 7.977822
2797.169, 7.898478
2799.097, 7.823784
2801.026, 7.993661
2802.954, 7.891732
2804.883, 7.659246
2806.811, 7.752226
2808.740, 7.865325
2810.668, 7.841266
2812.597, 7.421069
2814.525, 7.623301
2816.454, 7.693992
2818.382, 7.195177
2820.311, 7.357583
2822.239, 7.383576
2824.167, 7.140645
2826.096, 7.064736
2828.024, 7.082284
2829.953, 7.131731
2831.881, 7.132160
2833.810, 7.119031
2835.738, 7.200168
2837.667, 7.421295
2839.595, 7.138105
2841.524, 7.005455
2843.452, 7.155041
2845.381, 6.886037
2847.309, 6.910230
2849.238, 7.098262
2851.166, 7.058989
2853.094, 7.045588
2855.023, 7.040455
2856.951, 7.002380
2858.880, 6.916539
2860.808, 6.760282
2862.737, 6.593680
2864.665, 6.691511
2866.594, 6.643077
2868.522, 6.560901
2870.451, 6.741937
2872.379, 6.705572
2874.308, 6.661682
2876.236, 6.756234
2878.165, 6.750316
2880.093, 6.713519
2882.021, 6.673605
2883.950, 6.615880
2885.878, 6.415705
2887.807, 6.282225
2889.735, 6.570919
2891.664, 6.371658
2893.592, 6.168540
2895.521, 6.208085
2897.449, 6.117124
2899.378, 6.131217
2901.306, 6.229778
2903.235, 6.309240
2905.163, 6.135460
2907.092, 5.847320
2909.020, 5.580472
2910.948, 5.740783
2912.877, 6.072210
2914.805, 6.360491
2916.734, 6.239977
2918.662, 5.832883
2920.591, 5.528615
2922.519, 5.665232
2924.448, 5.649482
2926.376, 5.585562
2928.305, 5.595247
2930.233, 6.000742
2932.162, 5.989249
2934.090, 5.706511
2936.019, 5.486301
2937.947, 5.472716
2939.875, 5.409444
2941.804, 5.254024
2943.732, 5.466833
2945.661, 5.550377
2947.589, 5.467696
2949.518, 5.314483
2951.446, 5.354253
2953.375, 5.320697
2955.303, 5.123833
2957.232, 5.017038
2959.160, 4.953258
2961.089, 4.931540
2963.017, 4.963354
2964.946, 5.085833
2966.874, 5.079279
2968.802, 4.854074
2970.731, 4.812031
2972.659, 4.879106
2974.588, 4.924302
2976.516, 4.786291
2978.445, 4.723577
2980.373, 4.788720
2982.302, 4.909451
2984.230, 4.691845
2986.159, 4.691742
2988.087, 4.780503
2990.016, 4.759322
2991.944, 4.629777
2993.873, 4.740890
2995.801, 5.020407
2997.729, 4.917078
2999.658, 4.611060
3001.586, 4.387175
3003.515, 4.406885
3005.443, 4.286898
3007.372, 4.259677
3009.300, 4.317055
3011.229, 4.309726
3013.157, 4.167471
3015.086, 4.223743
3017.014, 4.488353
3018.943, 4.085282
3020.871, 3.931884
3022.800, 4.030263
3024.728, 4.254529
3026.656, 4.180387
3028.585, 4.241603
3030.513, 4.385099
3032.442, 4.105476
3034.370, 4.085046
3036.299, 4.134894
3038.227, 4.095785
3040.156, 3.975291
3042.084, 4.019561
3044.013, 4.116724
3045.941, 3.959970
3047.870, 3.861778
3049.798, 3.803136
3051.727, 3.766186
3053.655, 3.915804
3055.583, 3.746724
3057.512, 3.625906
3059.440, 3.807280
3061.369, 3.648135
3063.297, 3.709892
3065.226, 3.786315
3067.154, 3.658297
3069.083, 3.606547
3071.011, 3.589317
3072.940, 3.631099
3074.868, 3.674481
3076.797, 3.811493
3078.725, 3.929189
3080.654, 3.901696
3082.582, 3.578403
3084.510, 3.623586
3086.439, 3.763884
3088.367, 3.731750
3090.296, 3.579588
3092.224, 3.494381
3094.153, 3.471226
3096.081, 3.477455
3098.010, 3.638911
3099.938, 3.750123
3101.867, 3.658094
3103.795, 3.451863
3105.724, 3.276144
3107.652, 3.242970
3109.581, 3.371075
3111.509, 3.591009
3113.438, 3.733342
3115.366, 3.565677
3117.294, 3.164510
3119.223, 3.203661
3121.151, 3.331806
3123.080, 3.334508
3125.008, 3.195911
3126.937, 3.218783
3128.865, 3.226165
3130.794, 3.231308
3132.722, 3.194347
3134.651, 3.478902
3136.579, 3.433291
3138.508, 3.191871
3140.436, 3.145830
3142.365, 3.326042
3144.293, 3.432863
3146.221, 3.356284
3148.150, 3.101564
3150.078, 3.309790
3152.007, 3.328419
3153.935, 3.137451
3155.864, 3.279777
3157.792, 3.070735
3159.721, 3.032487
3161.649, 3.200676
3163.578, 2.912899
3165.506, 3.058864
3167.435, 3.217658
3169.363, 3.211480
3171.292, 3.095993
3173.220, 3.020474
3175.148, 2.873221
3177.077, 2.737200
3179.005, 2.874613
3180.934, 2.953825
3182.862, 3.052193
3184.791, 3.188096
3186.719, 3.689093
3188.648, 3.279313
3190.576, 2.944970
3192.505, 3.244255
3194.433, 3.039041
3196.362, 2.782275
3198.290, 2.703484
3200.219, 2.839672
3202.147, 2.813446
3204.075, 2.847943
3206.004, 2.821080
3207.932, 2.735266
3209.861, 2.539913
3211.789, 2.722942
3213.718, 2.779260
3215.646, 2.606641
3217.575, 2.551499
3219.503, 2.463143
3221.432, 2.415912
3223.360, 2.586466
3225.289, 3.013881
3227.217, 2.880344
3229.146, 2.800023
3231.074, 2.860612
3233.002, 2.539262
3234.931, 2.530172
3236.859, 2.596776
3238.788, 2.582558
3240.716, 2.416163
3242.645, 2.487461
3244.573, 2.634612
3246.502, 2.695834
3248.430, 2.457809
3250.359, 3.060589
3252.287, 2.936517
3254.216, 2.521012
3256.144, 2.857064
3258.073, 2.603058
3260.001, 2.545938
3261.929, 2.574372
3263.858, 2.525689
3265.786, 2.682517
3267.715, 2.893548
3269.643, 3.007865
3271.572, 2.986408
3273.500, 2.916284
3275.429, 3.065586
3277.357, 2.996372
3279.286, 2.736953
3281.214, 2.833681
3283.143, 3.068032
3285.071, 2.996400
3287.000, 2.806615
3288.928, 3.012405
3290.856, 2.835647
3292.785, 2.966147
3294.713, 3.074522
3296.642, 2.819134
3298.570, 3.244626
3300.499, 3.334108
3302.427, 3.193931
3304.356, 3.050202
3306.284, 3.053268
3308.213, 3.169895
3310.141, 3.188926
3312.070, 3.131907
3313.998, 3.219191
3315.927, 3.080437
3317.855, 3.120171
3319.783, 3.098798
3321.712, 2.675240
3323.640, 3.135019
3325.569, 2.881624
3327.497, 2.776198
3329.426, 3.197588
3331.354, 2.812980
3333.283, 2.863068
3335.211, 3.000163
3337.140, 3.036501
3339.068, 2.996524
3340.997, 2.636505
3342.925, 2.748394
3344.854, 2.965850
3346.782, 2.932804
3348.710, 2.859630
3350.639, 2.788010
3352.567, 2.776538
3354.496, 2.882094
3356.424, 3.089402
3358.353, 3.096451
3360.281, 3.136905
3362.210, 3.108413
3364.138, 2.924604
3366.067, 2.922349
3367.995, 3.050874
3369.924, 2.827765
3371.852, 2.475304
3373.781, 2.669632
3375.709, 2.792892
3377.637, 2.783177
3379.566, 2.794096
3381.494, 2.924225
3383.423, 2.660711
3385.351, 2.672389
3387.280, 3.826448
3389.208, 4.914631
3391.137, 3.057160
3393.065, 2.723353
3394.994, 2.836509
3396.922, 2.916906
3398.851, 2.851009
3400.779, 2.717678
3402.708, 2.778899
3404.636, 2.745391
3406.564, 2.674511
3408.493, 2.738718
3410.421, 2.617553
3412.350, 2.444425
3414.278, 2.489381
3416.207, 2.698345
3418.135, 2.728026
3420.064, 2.581054
3421.992, 2.646087
3423.921, 2.631779
3425.849, 2.427780
3427.778, 2.601652
3429.706, 2.789222
3431.635, 2.581378
3433.563, 2.388214
3435.491, 2.624845
3437.420, 2.647511
3439.348, 2.732110
3441.277, 2.542884
3443.205, 2.284579
3445.134, 2.379627
3447.062, 2.450277
3448.991, 2.289899
3450.919, 2.408184
3452.848, 2.671877
3454.776, 2.202411
3456.705, 2.012266
3458.633, 2.219464
3460.562, 2.630841
3462.490, 2.908482
3464.418, 2.577802
3466.347, 2.268149
3468.275, 2.486294
3470.204, 2.535010
3472.132, 2.070179
3474.061, 1.783631
3475.989, 2.070976
3477.918, 2.023132
3479.846, 2.003493
3481.775, 2.312095
3483.703, 2.196491
3485.632, 2.032497
3487.560, 1.912273
3489.489, 1.903994
3491.417, 1.991297
3493.345, 1.964415
3495.274, 2.005932
3497.202, 1.897716
3499.131, 1.974604
3501.059, 2.323238
3502.988, 1.909875
3504.916, 1.735689
3506.845, 1.677599
3508.773, 1.730810
3510.702, 1.923933
3512.630, 2.326676
3514.559, 1.675653
3516.487, 1.605736
3518.416, 1.678236
3520.344, 1.433641
3522.272, 1.808437
3524.201, 2.096143
3526.129, 1.905704
3528.058, 1.548313
3529.986, 1.410659
3531.915, 1.734521
3533.843, 1.704304
3535.772, 1.549452
3537.700, 1.638997
3539.629, 1.848876
3541.557, 1.668636
3543.486, 1.669188
3545.414, 1.284890
3547.343, 1.186630
3549.271, 1.387603
3551.199, 1.447390
3553.128, 1.818189
3555.056, 1.630853
3556.985, 1.475590
3558.913, 1.496140
3560.842, 1.533253
3562.770, 1.459400
3564.699, 1.629522
3566.627, 1.353814
3568.556, 1.211954
3570.484, 1.466286
3572.413, 1.288380
3574.341, 1.418552
3576.270, 1.341994
3578.198, 1.091349
3580.126, 0.9991630
3582.055, 1.381016
3583.983, 1.395074
3585.912, 1.033867
3587.840, 1.158355
3589.769, 1.294093
3591.697, 0.9977085
3593.626, 1.193205
3595.554, 1.021556
3597.483, 0.9829228
3599.411, 1.181044
3601.340, 1.349997
3603.268, 1.153358
3605.197, 1.119398
3607.125, 1.427433
3609.053, 1.433293
3610.982, 1.351825
3612.910, 1.489622
3614.839, 1.446455
3616.767, 1.668583
3618.696, 1.416438
3620.624, 1.262721
3622.553, 1.298545
3624.481, 1.174462
3626.410, 1.267504
3628.338, 1.234036
3630.267, 1.226580
3632.195, 1.163994
3634.124, 1.076774
3636.052, 1.264766
3637.980, 1.160573
3639.909, 0.7035369
3641.837, 0.7341623
3643.766, 1.002198
3645.694, 1.018072
3647.623, 1.116245
3649.551, 0.9089064
3651.480, 0.7342706
3653.408, 0.8942907
3655.337, 1.095305
3657.265, 0.9283657
3659.194, 0.8119478
3661.122, 0.8127064
3663.051, 0.9128082
3664.979, 0.9701264
3666.907, 0.8940101
3668.836, 0.7201797
3670.764, 0.7120829
3672.693, 0.5503804
3674.621, 0.8757061
3676.550, 1.025011
3678.478, 0.7771305
3680.407, 0.5717852
3682.335, 0.7252976
3684.264, 0.4772869
3686.192, 0.5489959
3688.121, 0.5418473
3690.049, 0.4258114
3691.978, 0.6184070
3693.906, 0.6701550
3695.834, 0.2968104
3697.763, 0.5215524
3699.691, 0.8109276
3701.620, 0.7553936
3703.548, 0.5289164
3705.477, 0.5615569
3707.405, 0.3973337
3709.334, 0.6138440
3711.262, 0.8496819
3713.191, 0.7033578
3715.119, 0.2718207
3717.048, 0.4719050
3718.976, 0.6430448
3720.905, 0.7056163
3722.833, 0.6387568
3724.761, 0.4730947
3726.690, 0.3997278
3728.618, 0.7157289
3730.547, 0.5303924
3732.475, 0.6313948
3734.404, 0.5536614
3736.332, 0.2418079
3738.261, 0.1744699
3740.189, 0.6777408
3742.118, 0.1186184
3744.046, 0.2674708
3745.975, 0.4847543
3747.903, 0.6846120
3749.832, 0.7613496
3751.760, 0.6354716
3753.688, 0.7181793
3755.617, 0.5429820
3757.545, 0.4099607
3759.474, 0.3083196
3761.402, 0.3201777
3763.331, 0.3851816
3765.259, 0.2842603
3767.188, 0.6961524
3769.116, 0.4773445
3771.045, 0.1116939
3772.973, 0.3714878
3774.902, 0.8154711
3776.830, 0.6911691
3778.759, 0.2079888
3780.687, 0.3314213
3782.615, 0.4678348
3784.544, 0.5501425
3786.472, 0.6805112
3788.401, 0.8041392
3790.329, 0.7523844
3792.258, 0.4902578
3794.186, 0.2775156
3796.115, 0.7276025
3798.043, 0.6617349
3799.972, 0.5724424
3801.900, 0.7201573
3803.829, 0.6840404
3805.757, 0.9373893
3807.686, 0.5901091
3809.614, 0.3426406
3811.542, 0.3467775
3813.471, 0.2730288
3815.399, 0.2647279
3817.328, 0.6593974
3819.256, 0.5331537
3821.185, 0.4928686
3823.113, 0.3500811
3825.042, 0.3570941
3826.970, 0.4411504
3828.899, 0.5288797
3830.827, 0.5515417
3832.756, 0.1422158
3834.684, 0.3431771
3836.613, 0.2458180
3838.541, 0.4036347
3840.469, 0.5440710
3842.398, 0.5249923
3844.326, 0.4274849
3846.255, 0.1140396
3848.183, 7.7514048E-03
3850.112, 0.3829279
3852.040, 0.5632794
3853.969, 0.3666294
3855.897, 0.3182845
3857.826, 0.5317480
3859.754, 0.4660428
3861.683, 0.4912721
3863.611, 0.1817713
3865.540, 0.3393578
3867.468, 0.5650455
3869.396, 0.5424064
3871.325, 0.4211611
3873.253, 0.4181080
3875.182, 0.4075682
3877.110, 0.5912102
3879.039, 0.8205577
3880.967, 0.5586056
3882.896, 0.4714547
3884.824, 0.4037159
3886.753, 0.2851120
3888.681, 0.4268716
3890.610, 0.4707335
3892.538, 0.2794477
3894.467, 0.2853115
3896.395, 0.4509756
3898.323, 0.3647782
3900.252, 0.2805921
3902.180, 0.3547654
3904.109, 0.3756869
3906.037, 0.5636533
3907.966, 0.3852361
3909.894, 0.1870316
3911.823, 0.3013234
3913.751, 0.2766888
3915.680, 0.3902327
3917.608, 0.5894442
3919.537, 0.4385558
3921.465, 0.6846755
3923.394, 0.5225298
3925.322, 0.3911729
3927.250, 0.5826524
3929.179, 0.3599305
3931.107, 0.3106633
3933.036, 0.4171838
3934.964, 0.2316362
3936.893, 0.4324254
3938.821, 0.5926796
3940.750, 0.3839349
3942.678, -5.5248071E-02
3944.607, 6.6162892E-02
3946.535, 0.3863210
3948.464, 0.4673543
3950.392, 0.3292466
3952.321, 0.2367013
3954.249, 0.3859666
3956.177, 0.2505735
3958.106, 0.5415269
3960.034, 0.2741374
3961.963, 0.5250847
3963.891, 0.5208434
3965.820, 0.2657198
3967.748, 0.2491700
3969.677, 0.2397463
3971.605, 0.3091106
3973.534, 0.2988406
3975.462, 0.5559651
3977.391, 0.1841175
3979.319, 1.6809629E-02
3981.248, 0.2760402
3983.176, 0.2668315
3985.104, 8.2244582E-02
3987.033, 0.3109142
3988.961, 0.2447464
3990.890, -3.3239659E-02
3992.818, 5.3643581E-02
3994.747, 0.2352882
3996.675, 0.3146371
3998.604, 0.3914832
4000.532, 0.2555946
4002.461, 0.1144917
4004.389, 0.3338782
4006.318, 0.5315229
4008.246, 0.1511672
4010.175, 0.4155235
4012.103, -2.6146481E-03
4014.031, 0.2192792
4015.960, 0.3101247
4017.888, 0.4306509
4019.817, 0.3591926
4021.745, 7.2526000E-03
4023.674, 9.0014443E-02
4025.602, 0.3195767
4027.531, 0.3818725
4029.459, 0.3456555
4031.388, 7.6124832E-02
4033.316, 5.0424069E-02
4035.245, 0.2539294
4037.173, 0.2646931
4039.102, 9.4301827E-02
4041.030, 0.1340314
4042.958, 0.4233893
4044.887, 1.5893780E-02
4046.815, 0.3948303
4048.744, 0.1254607
4050.672, 0.3716484
4052.601, 0.1546339
4054.529, 5.3775679E-02
4056.458, 0.1957465
4058.386, 7.7494107E-02
4060.315, -2.5489610E-02
4062.243, 0.5247548
4064.172, 0.2373206
4066.100, -4.4509540E-03
4068.029, 0.3345606
4069.957, 0.1872957
4071.885, 0.1985269
4073.814, 0.1192852
4075.742, 0.1766999
4077.671, 0.3465325
4079.599, 0.2379563
4081.528, 1.8804060E-02
4083.456, 0.3135642
4085.385, 9.4466813E-02
4087.313, 0.2274895
4089.242, 0.3519066
4091.170, 0.1329675
4093.099, 0.2372417
4095.027, 0.2356319
4096.956, 0.1575398
4098.884, 8.0953553E-02
4100.813, 0.2055434
4102.741, 0.4045251
4104.669, 6.2649220E-02
4106.598, 0.1736177
4108.526, -1.7767590E-02
4110.455, -8.4561437E-02
4112.383, 0.3095745
4114.312, 0.2391961
4116.240, -2.6258860E-02
4118.169, -2.4311680E-03
4120.097, 0.2344127
4122.026, 0.2893158
4123.954, 0.1958430
4125.883, 0.1932527
4127.811, -3.9299201E-02
4129.740, 7.5996071E-02
4131.668, 0.1246188
4133.597, 0.1096952
4135.525, 0.3216237
4137.454, 0.1580364
4139.382, 0.1136799
4141.311, 0.3561305
4143.239, 9.2545614E-02
4145.167, -0.1254927
4147.096, 0.1068661
4149.024, 0.2500924
4150.953, 0.3848109
4152.881, 0.1735826
4154.810, -0.2451577
4156.738, 0.1095939
4158.667, 0.2285116
4160.595, 0.4513797
4162.523, 5.4308020E-02
4164.452, 1.4156370E-02
4166.380, 0.3316580
4168.309, 0.1158625
4170.237, 1.7006969E-02
4172.166, 0.2488380
4174.094, 0.1392522
4176.023, 6.5894827E-02
4177.951, 0.2619006
4179.880, 0.3934094
4181.808, 0.3091263
4183.737, -0.2122872
4185.665, 2.2088939E-02
4187.594, 6.5244801E-02
4189.522, -3.5488948E-02
4191.451, 5.2593488E-02
4193.379, 0.1689473
4195.308, 0.2651692
4197.236, 0.2746637
4199.165, 0.3252252
4201.093, 0.4290959
4203.021, 0.3379234
4204.950, 0.2191370
4206.878, 0.1769931
4208.807, 0.2177293
4210.735, 0.2317240
4212.664, 3.4320168E-02
4214.592, 0.4047850
4216.521, 9.5037147E-02
4218.449, 0.1429148
4220.377, 8.1625342E-02
4222.306, -4.3917831E-02
4224.234, -0.3337823
4226.163, -0.1361029
4228.091, 0.2701874
4230.020, 0.1456620
4231.948, -1.7651759E-02
4233.877, 0.2021565
4235.805, 4.1193351E-02
4237.734, 4.6138070E-03
4239.662, 0.1231730
4241.591, 0.2147609
4243.519, 0.2259333
4245.448, 0.1620377
4247.376, 0.4608779
4249.305, -0.1291883
4251.233, -2.4153830E-02
4253.162, 0.3178926
4255.090, 0.3246521
4257.019, 0.2625415
4258.947, 0.2932650
4260.875, 0.3211023
4262.804, 0.1346219
4264.732, 0.1689790
4266.661, 0.4708669
4268.589, 0.1477534
4270.518, 1.9547369E-02
4272.446, 0.2234728
4274.375, 0.3181491
4276.303, 5.8183290E-02
4278.231, 0.1763893
4280.160, 3.4362050E-03
4282.088, 0.2501387
4284.017, 1.9781420E-02
4285.945, 0.2685522
4287.874, 0.4056553
4289.802, 6.9422267E-02
4291.731, 0.1059469
4293.659, -9.7465523E-02
4295.588, 2.5547070E-03
4297.516, 0.5546948
4299.445, 0.4232826
4301.373, 6.4314358E-02
4303.302, 0.3035847
4305.230, 0.4056600
4307.159, 0.2372839
4309.087, 0.2835380
4311.016, 2.0238640E-02
4312.944, 0.4402022
4314.873, 9.2176192E-02
4316.801, 0.5537056
4318.729, 0.2534453
4320.658, 0.2794759
4322.586, 0.1087564
4324.515, 0.1220275
4326.443, 0.2230546
4328.372, 0.1189201
4330.300, 5.0891180E-02
4332.229, 0.3681744
4334.157, 0.4017820
4336.085, 0.3249125
4338.014, 0.1752387
4339.942, -3.8293071E-02
4341.871, 0.1885861
4343.799, 0.3354675
4345.728, 0.3560261
4347.656, 0.2956346
4349.585, 0.2954769
4351.513, 0.1924021
4353.442, 4.3977700E-02
4355.370, 0.1590320
4357.299, 7.0597447E-02
4359.227, -0.1596763
4361.156, -4.4220392E-02
4363.084, 0.1907465
4365.013, -0.2915600
4366.941, 4.4727311E-02
4368.870, 4.5842741E-02
4370.798, 9.0578519E-02
4372.727, 8.0896443E-04
4374.655, 0.1218794
4376.583, 0.4424518
4378.512, 0.2659478
4380.440, -8.8830460E-03
4382.369, -0.1045473
##END=



