##NAMES=Utahite
##RRUFFID=R190036
##IDEAL CHEMISTRY=MgCu^2+^_4_Zn_2_Te^6+^_3_O_14_(OH)_4_·6H_2_O
##LOCALITY=Tombstone, Cochise County, Arizona, USA
##OWNER=RRUFF
##SOURCE=Peter Megaw
##DESCRIPTION=Blue acicular crystals found as isolated crystals, or as sprays, associated with quartz and greenish dugganite
##STATUS=The identification of this mineral has been confirmed by single-crystal X-ray diffraction
##URL=https://www.rruff.net/odr/rruff_sample/R190036
##DIFFRACTION SAMPLE DESCRIPTION=Single crystal, powder profile is calculated
##CELL PARAMETERS=a: 8.7828 b: 9.9994 c: 5.6881 alpha: 104.0181 beta: 90.0307 gamma: 95.9425 volume: 481.895 crystal system: triclinic
##FILETYPE=Raman RAW
##RAMAN WAVELENGTH=780

7.084375e+001, 1.210816e+003
7.277222e+001, 1.173395e+003
7.470068e+001, 1.170977e+003
7.662915e+001, 1.213035e+003
7.855762e+001, 1.263537e+003
8.048608e+001, 1.317893e+003
8.241455e+001, 1.375983e+003
8.434302e+001, 1.437975e+003
8.627148e+001, 1.503857e+003
8.819995e+001, 1.572763e+003
9.012842e+001, 1.651297e+003
9.205688e+001, 1.715562e+003
9.398535e+001, 1.755880e+003
9.591382e+001, 1.681411e+003
9.784229e+001, 1.511172e+003
9.977075e+001, 1.371575e+003
1.016992e+002, 1.263431e+003
1.036277e+002, 1.179047e+003
1.055562e+002, 1.109437e+003
1.074846e+002, 1.051879e+003
1.094131e+002, 1.000793e+003
1.113416e+002, 9.510062e+002
1.132700e+002, 9.022051e+002
1.151985e+002, 8.622726e+002
1.171270e+002, 8.297872e+002
1.190554e+002, 8.018272e+002
1.209839e+002, 7.773964e+002
1.229124e+002, 7.553571e+002
1.248408e+002, 7.345289e+002
1.267693e+002, 7.151738e+002
1.286978e+002, 6.995239e+002
1.306262e+002, 6.878744e+002
1.325547e+002, 6.770902e+002
1.344832e+002, 6.664631e+002
1.364116e+002, 6.560514e+002
1.383401e+002, 6.459749e+002
1.402686e+002, 6.361669e+002
1.421970e+002, 6.263144e+002
1.441255e+002, 6.163207e+002
1.460540e+002, 6.069487e+002
1.479824e+002, 5.984133e+002
1.499109e+002, 5.904891e+002
1.518394e+002, 5.829751e+002
1.537678e+002, 5.760980e+002
1.556963e+002, 5.707421e+002
1.576248e+002, 5.671332e+002
1.595532e+002, 5.616931e+002
1.614817e+002, 5.506429e+002
1.634102e+002, 5.413510e+002
1.653386e+002, 5.376633e+002
1.672671e+002, 5.363344e+002
1.691956e+002, 5.328525e+002
1.711240e+002, 5.273614e+002
1.730525e+002, 5.220565e+002
1.749810e+002, 5.166823e+002
1.769094e+002, 5.123275e+002
1.788379e+002, 5.092299e+002
1.807664e+002, 5.072672e+002
1.826948e+002, 5.069881e+002
1.846233e+002, 5.078523e+002
1.865518e+002, 5.073580e+002
1.884802e+002, 5.035750e+002
1.904087e+002, 5.014645e+002
1.923372e+002, 5.028756e+002
1.942656e+002, 5.047226e+002
1.961941e+002, 5.053950e+002
1.981226e+002, 5.049816e+002
2.000510e+002, 5.030967e+002
2.019795e+002, 4.982056e+002
2.039080e+002, 4.962383e+002
2.058364e+002, 5.001505e+002
2.077649e+002, 5.034003e+002
2.096934e+002, 5.024029e+002
2.116218e+002, 5.001014e+002
2.135503e+002, 4.998037e+002
2.154788e+002, 5.017743e+002
2.174072e+002, 5.035916e+002
2.193357e+002, 5.052053e+002
2.212642e+002, 5.067711e+002
2.231926e+002, 5.090557e+002
2.251211e+002, 5.104690e+002
2.270496e+002, 5.096044e+002
2.289780e+002, 5.070678e+002
2.309065e+002, 5.052756e+002
2.328350e+002, 5.045228e+002
2.347634e+002, 5.038197e+002
2.366919e+002, 5.029945e+002
2.386204e+002, 5.024308e+002
2.405488e+002, 5.031915e+002
2.424773e+002, 5.037093e+002
2.444058e+002, 5.013118e+002
2.463342e+002, 4.957440e+002
2.482627e+002, 4.937498e+002
2.501912e+002, 4.966049e+002
2.521196e+002, 4.987462e+002
2.540481e+002, 4.990085e+002
2.559766e+002, 4.976584e+002
2.579050e+002, 4.937196e+002
2.598335e+002, 4.885981e+002
2.617620e+002, 4.861754e+002
2.636904e+002, 4.866916e+002
2.656189e+002, 4.869525e+002
2.675474e+002, 4.867269e+002
2.694758e+002, 4.862175e+002
2.714043e+002, 4.847169e+002
2.733328e+002, 4.836777e+002
2.752612e+002, 4.848718e+002
2.771897e+002, 4.877062e+002
2.791182e+002, 4.894642e+002
2.810466e+002, 4.902539e+002
2.829751e+002, 4.892621e+002
2.849036e+002, 4.848105e+002
2.868320e+002, 4.808276e+002
2.887605e+002, 4.788632e+002
2.906890e+002, 4.780570e+002
2.926174e+002, 4.780425e+002
2.945459e+002, 4.784379e+002
2.964744e+002, 4.769305e+002
2.984028e+002, 4.727422e+002
3.003313e+002, 4.700286e+002
3.022598e+002, 4.715086e+002
3.041882e+002, 4.726445e+002
3.061167e+002, 4.704859e+002
3.080452e+002, 4.676151e+002
3.099736e+002, 4.686545e+002
3.119021e+002, 4.724330e+002
3.138306e+002, 4.736206e+002
3.157590e+002, 4.707306e+002
3.176875e+002, 4.684401e+002
3.196160e+002, 4.673622e+002
3.215445e+002, 4.673742e+002
3.234729e+002, 4.698063e+002
3.254014e+002, 4.724919e+002
3.273299e+002, 4.721310e+002
3.292583e+002, 4.692660e+002
3.311868e+002, 4.671188e+002
3.331153e+002, 4.664286e+002
3.350437e+002, 4.652860e+002
3.369722e+002, 4.639277e+002
3.389007e+002, 4.615497e+002
3.408291e+002, 4.561078e+002
3.427576e+002, 4.506806e+002
3.446861e+002, 4.494684e+002
3.466145e+002, 4.517261e+002
3.485430e+002, 4.515269e+002
3.504715e+002, 4.456525e+002
3.523999e+002, 4.434442e+002
3.543284e+002, 4.490539e+002
3.562569e+002, 4.535111e+002
3.581853e+002, 4.514519e+002
3.601138e+002, 4.480414e+002
3.620423e+002, 4.483168e+002
3.639707e+002, 4.516120e+002
3.658992e+002, 4.536553e+002
3.678277e+002, 4.542809e+002
3.697561e+002, 4.538950e+002
3.716846e+002, 4.507883e+002
3.736131e+002, 4.495496e+002
3.755415e+002, 4.530019e+002
3.774700e+002, 4.575714e+002
3.793985e+002, 4.604471e+002
3.813269e+002, 4.623543e+002
3.832554e+002, 4.652352e+002
3.851839e+002, 4.691457e+002
3.871123e+002, 4.739585e+002
3.890408e+002, 4.805076e+002
3.909693e+002, 4.856693e+002
3.928977e+002, 4.874616e+002
3.948262e+002, 4.893068e+002
3.967547e+002, 4.938404e+002
3.986831e+002, 4.991214e+002
4.006116e+002, 5.022520e+002
4.025401e+002, 5.033172e+002
4.044685e+002, 5.046175e+002
4.063970e+002, 5.060117e+002
4.083255e+002, 5.083369e+002
4.102539e+002, 5.122018e+002
4.121824e+002, 5.160622e+002
4.141109e+002, 5.205588e+002
4.160393e+002, 5.235665e+002
4.179678e+002, 5.233696e+002
4.198963e+002, 5.204200e+002
4.218247e+002, 5.156122e+002
4.237532e+002, 5.089907e+002
4.256817e+002, 5.012416e+002
4.276101e+002, 4.920844e+002
4.295386e+002, 4.829758e+002
4.314671e+002, 4.737894e+002
4.333955e+002, 4.654561e+002
4.353240e+002, 4.584328e+002
4.372525e+002, 4.523782e+002
4.391809e+002, 4.475887e+002
4.411094e+002, 4.434717e+002
4.430379e+002, 4.373394e+002
4.449663e+002, 4.292184e+002
4.468948e+002, 4.231456e+002
4.488233e+002, 4.198644e+002
4.507517e+002, 4.183271e+002
4.526802e+002, 4.199791e+002
4.546087e+002, 4.210441e+002
4.565371e+002, 4.192423e+002
4.584656e+002, 4.161082e+002
4.603941e+002, 4.134260e+002
4.623225e+002, 4.110097e+002
4.642510e+002, 4.080417e+002
4.661795e+002, 4.043501e+002
4.681079e+002, 4.024257e+002
4.700364e+002, 4.040290e+002
4.719649e+002, 4.048546e+002
4.738933e+002, 4.038767e+002
4.758218e+002, 4.023839e+002
4.777503e+002, 4.005729e+002
4.796787e+002, 3.989454e+002
4.816072e+002, 3.987996e+002
4.835357e+002, 3.991370e+002
4.854641e+002, 3.967941e+002
4.873926e+002, 3.911584e+002
4.893211e+002, 3.877668e+002
4.912495e+002, 3.889136e+002
4.931780e+002, 3.893859e+002
4.951065e+002, 3.880061e+002
4.970349e+002, 3.869161e+002
4.989634e+002, 3.879104e+002
5.008919e+002, 3.887293e+002
5.028203e+002, 3.860949e+002
5.047488e+002, 3.824146e+002
5.066773e+002, 3.835958e+002
5.086057e+002, 3.902400e+002
5.105342e+002, 3.937222e+002
5.124626e+002, 3.921518e+002
5.143911e+002, 3.909641e+002
5.163196e+002, 3.895369e+002
5.182480e+002, 3.896860e+002
5.201765e+002, 3.929431e+002
5.221050e+002, 3.967068e+002
5.240334e+002, 4.000019e+002
5.259619e+002, 4.022827e+002
5.278904e+002, 4.023942e+002
5.298188e+002, 4.007717e+002
5.317473e+002, 3.998101e+002
5.336758e+002, 3.997462e+002
5.356042e+002, 3.993176e+002
5.375327e+002, 3.987146e+002
5.394612e+002, 3.971920e+002
5.413896e+002, 3.939524e+002
5.433181e+002, 3.910662e+002
5.452466e+002, 3.891885e+002
5.471750e+002, 3.883604e+002
5.491035e+002, 3.894301e+002
5.510320e+002, 3.910976e+002
5.529604e+002, 3.913434e+002
5.548889e+002, 3.902534e+002
5.568174e+002, 3.883357e+002
5.587458e+002, 3.855749e+002
5.606743e+002, 3.827874e+002
5.626028e+002, 3.796618e+002
5.645313e+002, 3.782728e+002
5.664598e+002, 3.808271e+002
5.683882e+002, 3.821796e+002
5.703167e+002, 3.790175e+002
5.722452e+002, 3.755575e+002
5.741736e+002, 3.751976e+002
5.761021e+002, 3.760118e+002
5.780306e+002, 3.747457e+002
5.799590e+002, 3.722073e+002
5.818875e+002, 3.716675e+002
5.838160e+002, 3.730139e+002
5.857444e+002, 3.741202e+002
5.876729e+002, 3.747040e+002
5.896014e+002, 3.756151e+002
5.915298e+002, 3.769980e+002
5.934583e+002, 3.788309e+002
5.953868e+002, 3.816165e+002
5.973152e+002, 3.841725e+002
5.992437e+002, 3.849769e+002
6.011722e+002, 3.859783e+002
6.031006e+002, 3.896299e+002
6.050291e+002, 3.948168e+002
6.069576e+002, 3.993515e+002
6.088860e+002, 4.033759e+002
6.108145e+002, 4.075830e+002
6.127430e+002, 4.120182e+002
6.146714e+002, 4.166679e+002
6.165999e+002, 4.221724e+002
6.185284e+002, 4.265583e+002
6.204568e+002, 4.289879e+002
6.223853e+002, 4.312921e+002
6.243138e+002, 4.343851e+002
6.262422e+002, 4.371190e+002
6.281707e+002, 4.387799e+002
6.300992e+002, 4.397050e+002
6.320276e+002, 4.408207e+002
6.339561e+002, 4.411987e+002
6.358846e+002, 4.383820e+002
6.378130e+002, 4.327374e+002
6.397415e+002, 4.286309e+002
6.416700e+002, 4.266968e+002
6.435984e+002, 4.240597e+002
6.455269e+002, 4.204675e+002
6.474554e+002, 4.165704e+002
6.493839e+002, 4.126367e+002
6.513123e+002, 4.079224e+002
6.532408e+002, 4.006733e+002
6.551693e+002, 3.948702e+002
6.570977e+002, 3.936345e+002
6.590262e+002, 3.937953e+002
6.609547e+002, 3.931667e+002
6.628831e+002, 3.920838e+002
6.648116e+002, 3.906872e+002
6.667401e+002, 3.892562e+002
6.686685e+002, 3.890001e+002
6.705970e+002, 3.899287e+002
6.725255e+002, 3.913286e+002
6.744539e+002, 3.935267e+002
6.763824e+002, 3.939328e+002
6.783109e+002, 3.913275e+002
6.802393e+002, 3.913018e+002
6.821678e+002, 3.969506e+002
6.840963e+002, 4.006611e+002
6.860247e+002, 3.975629e+002
6.879532e+002, 3.947518e+002
6.898817e+002, 3.955955e+002
6.918101e+002, 3.982431e+002
6.937386e+002, 4.025924e+002
6.956671e+002, 4.068460e+002
6.975955e+002, 4.074962e+002
6.995240e+002, 4.062291e+002
7.014525e+002, 4.085562e+002
7.033809e+002, 4.138358e+002
7.053094e+002, 4.159772e+002
7.072379e+002, 4.150349e+002
7.091663e+002, 4.152296e+002
7.110948e+002, 4.169561e+002
7.130233e+002, 4.195764e+002
7.149517e+002, 4.236095e+002
7.168802e+002, 4.266170e+002
7.188087e+002, 4.267996e+002
7.207371e+002, 4.276525e+002
7.226656e+002, 4.312165e+002
7.245941e+002, 4.344279e+002
7.265225e+002, 4.358785e+002
7.284510e+002, 4.360929e+002
7.303795e+002, 4.346479e+002
7.323079e+002, 4.328988e+002
7.342364e+002, 4.331894e+002
7.361649e+002, 4.343015e+002
7.380933e+002, 4.334875e+002
7.400218e+002, 4.313150e+002
7.419503e+002, 4.300088e+002
7.438787e+002, 4.295401e+002
7.458072e+002, 4.278323e+002
7.477357e+002, 4.241965e+002
7.496641e+002, 4.233034e+002
7.515926e+002, 4.264406e+002
7.535211e+002, 4.303997e+002
7.554495e+002, 4.368937e+002
7.573780e+002, 4.408238e+002
7.593065e+002, 4.396395e+002
7.612349e+002, 4.383122e+002
7.631634e+002, 4.390247e+002
7.650919e+002, 4.393250e+002
7.670203e+002, 4.382165e+002
7.689488e+002, 4.357231e+002
7.708773e+002, 4.318518e+002
7.728057e+002, 4.265509e+002
7.747342e+002, 4.197099e+002
7.766627e+002, 4.115563e+002
7.785911e+002, 4.015656e+002
7.805196e+002, 3.908116e+002
7.824481e+002, 3.826792e+002
7.843765e+002, 3.771408e+002
7.863050e+002, 3.738760e+002
7.882335e+002, 3.732281e+002
7.901619e+002, 3.715626e+002
7.920904e+002, 3.686620e+002
7.940189e+002, 3.651353e+002
7.959473e+002, 3.602936e+002
7.978758e+002, 3.572581e+002
7.998043e+002, 3.570401e+002
8.017327e+002, 3.565696e+002
8.036612e+002, 3.552471e+002
8.055897e+002, 3.534543e+002
8.075181e+002, 3.507552e+002
8.094466e+002, 3.487485e+002
8.113751e+002, 3.481122e+002
8.133035e+002, 3.484304e+002
8.152320e+002, 3.498040e+002
8.171605e+002, 3.515669e+002
8.190889e+002, 3.544264e+002
8.210174e+002, 3.562587e+002
8.229459e+002, 3.533993e+002
8.248743e+002, 3.493692e+002
8.268028e+002, 3.497860e+002
8.287313e+002, 3.526555e+002
8.306597e+002, 3.542338e+002
8.325882e+002, 3.545283e+002
8.345167e+002, 3.527387e+002
8.364451e+002, 3.494979e+002
8.383736e+002, 3.488375e+002
8.403021e+002, 3.504881e+002
8.422305e+002, 3.525306e+002
8.441590e+002, 3.547986e+002
8.460875e+002, 3.547685e+002
8.480159e+002, 3.520723e+002
8.499444e+002, 3.499699e+002
8.518729e+002, 3.491428e+002
8.538013e+002, 3.473860e+002
8.557298e+002, 3.440248e+002
8.576583e+002, 3.406654e+002
8.595867e+002, 3.365720e+002
8.615152e+002, 3.345555e+002
8.634437e+002, 3.370881e+002
8.653721e+002, 3.385776e+002
8.673006e+002, 3.368405e+002
8.692291e+002, 3.350243e+002
8.711575e+002, 3.343868e+002
8.730860e+002, 3.338315e+002
8.750145e+002, 3.332891e+002
8.769429e+002, 3.320212e+002
8.788714e+002, 3.285716e+002
8.807999e+002, 3.253252e+002
8.827283e+002, 3.246833e+002
8.846568e+002, 3.246213e+002
8.865853e+002, 3.228049e+002
8.885137e+002, 3.208095e+002
8.904422e+002, 3.215067e+002
8.923707e+002, 3.222850e+002
8.942991e+002, 3.186542e+002
8.962276e+002, 3.132164e+002
8.981561e+002, 3.109716e+002
9.000845e+002, 3.106831e+002
9.020130e+002, 3.092869e+002
9.039415e+002, 3.069168e+002
9.058699e+002, 3.035487e+002
9.077984e+002, 2.995634e+002
9.097269e+002, 2.978306e+002
9.116553e+002, 2.982349e+002
9.135838e+002, 2.979301e+002
9.155123e+002, 2.968583e+002
9.174407e+002, 2.966423e+002
9.193692e+002, 2.974013e+002
9.212977e+002, 2.979899e+002
9.232261e+002, 2.987244e+002
9.251546e+002, 2.968976e+002
9.270831e+002, 2.916349e+002
9.290115e+002, 2.888643e+002
9.309400e+002, 2.893316e+002
9.328685e+002, 2.894805e+002
9.347969e+002, 2.890396e+002
9.367254e+002, 2.880611e+002
9.386539e+002, 2.862748e+002
9.405823e+002, 2.857938e+002
9.425108e+002, 2.876503e+002
9.444393e+002, 2.873022e+002
9.463677e+002, 2.826618e+002
9.482962e+002, 2.806509e+002
9.502247e+002, 2.841137e+002
9.521531e+002, 2.862428e+002
9.540816e+002, 2.848330e+002
9.560101e+002, 2.829209e+002
9.579385e+002, 2.804561e+002
9.598670e+002, 2.798083e+002
9.617955e+002, 2.835258e+002
9.637239e+002, 2.856900e+002
9.656524e+002, 2.828996e+002
9.675809e+002, 2.807410e+002
9.695093e+002, 2.813246e+002
9.714378e+002, 2.821649e+002
9.733663e+002, 2.824542e+002
9.752947e+002, 2.827559e+002
9.772232e+002, 2.839301e+002
9.791517e+002, 2.842215e+002
9.810801e+002, 2.820317e+002
9.830086e+002, 2.799489e+002
9.849371e+002, 2.791723e+002
9.868655e+002, 2.789603e+002
9.887940e+002, 2.798393e+002
9.907225e+002, 2.798940e+002
9.926509e+002, 2.771217e+002
9.945794e+002, 2.744306e+002
9.965079e+002, 2.732619e+002
9.984363e+002, 2.732475e+002
1.000365e+003, 2.751772e+002
1.002293e+003, 2.767983e+002
1.004222e+003, 2.765651e+002
1.006150e+003, 2.754337e+002
1.008079e+003, 2.725267e+002
1.010007e+003, 2.709406e+002
1.011936e+003, 2.745189e+002
1.013864e+003, 2.782766e+002
1.015793e+003, 2.788319e+002
1.017721e+003, 2.777740e+002
1.019649e+003, 2.752584e+002
1.021578e+003, 2.729189e+002
1.023506e+003, 2.720732e+002
1.025435e+003, 2.717746e+002
1.027363e+003, 2.720834e+002
1.029292e+003, 2.715837e+002
1.031220e+003, 2.679899e+002
1.033149e+003, 2.647047e+002
1.035077e+003, 2.644042e+002
1.037006e+003, 2.652900e+002
1.038934e+003, 2.669056e+002
1.040863e+003, 2.681002e+002
1.042791e+003, 2.680281e+002
1.044719e+003, 2.672738e+002
1.046648e+003, 2.660192e+002
1.048576e+003, 2.645307e+002
1.050505e+003, 2.623813e+002
1.052433e+003, 2.608460e+002
1.054362e+003, 2.613446e+002
1.056290e+003, 2.620223e+002
1.058219e+003, 2.617017e+002
1.060147e+003, 2.611102e+002
1.062076e+003, 2.599221e+002
1.064004e+003, 2.596749e+002
1.065933e+003, 2.627641e+002
1.067861e+003, 2.650607e+002
1.069790e+003, 2.634525e+002
1.071718e+003, 2.612982e+002
1.073647e+003, 2.607702e+002
1.075575e+003, 2.597255e+002
1.077504e+003, 2.556801e+002
1.079432e+003, 2.528698e+002
1.081360e+003, 2.544895e+002
1.083289e+003, 2.561195e+002
1.085217e+003, 2.563063e+002
1.087146e+003, 2.553261e+002
1.089074e+003, 2.521866e+002
1.091003e+003, 2.496344e+002
1.092931e+003, 2.481072e+002
1.094860e+003, 2.482333e+002
1.096788e+003, 2.524573e+002
1.098717e+003, 2.546244e+002
1.100645e+003, 2.507294e+002
1.102574e+003, 2.483828e+002
1.104502e+003, 2.508238e+002
1.106431e+003, 2.526149e+002
1.108359e+003, 2.532533e+002
1.110287e+003, 2.520851e+002
1.112216e+003, 2.460172e+002
1.114144e+003, 2.436513e+002
1.116073e+003, 2.493667e+002
1.118001e+003, 2.523957e+002
1.119930e+003, 2.510741e+002
1.121858e+003, 2.484895e+002
1.123787e+003, 2.431030e+002
1.125715e+003, 2.406741e+002
1.127644e+003, 2.430505e+002
1.129572e+003, 2.440034e+002
1.131501e+003, 2.426670e+002
1.133429e+003, 2.423314e+002
1.135358e+003, 2.436719e+002
1.137286e+003, 2.431718e+002
1.139214e+003, 2.401891e+002
1.141143e+003, 2.397567e+002
1.143071e+003, 2.420778e+002
1.145000e+003, 2.445240e+002
1.146928e+003, 2.470499e+002
1.148857e+003, 2.461350e+002
1.150785e+003, 2.422832e+002
1.152714e+003, 2.410341e+002
1.154642e+003, 2.416866e+002
1.156571e+003, 2.402402e+002
1.158499e+003, 2.376510e+002
1.160428e+003, 2.373339e+002
1.162356e+003, 2.384236e+002
1.164285e+003, 2.390722e+002
1.166213e+003, 2.393352e+002
1.168141e+003, 2.393233e+002
1.170070e+003, 2.389371e+002
1.171998e+003, 2.375322e+002
1.173927e+003, 2.361658e+002
1.175855e+003, 2.365943e+002
1.177784e+003, 2.370376e+002
1.179712e+003, 2.352373e+002
1.181641e+003, 2.335662e+002
1.183569e+003, 2.341774e+002
1.185498e+003, 2.349873e+002
1.187426e+003, 2.348908e+002
1.189355e+003, 2.345401e+002
1.191283e+003, 2.338745e+002
1.193212e+003, 2.335929e+002
1.195140e+003, 2.345764e+002
1.197068e+003, 2.344777e+002
1.198997e+003, 2.320116e+002
1.200925e+003, 2.305226e+002
1.202854e+003, 2.314583e+002
1.204782e+003, 2.301519e+002
1.206711e+003, 2.249814e+002
1.208639e+003, 2.232758e+002
1.210568e+003, 2.261743e+002
1.212496e+003, 2.289674e+002
1.214425e+003, 2.312336e+002
1.216353e+003, 2.329899e+002
1.218282e+003, 2.340891e+002
1.220210e+003, 2.327595e+002
1.222139e+003, 2.296719e+002
1.224067e+003, 2.284312e+002
1.225995e+003, 2.286195e+002
1.227924e+003, 2.289964e+002
1.229852e+003, 2.293597e+002
1.231781e+003, 2.288455e+002
1.233709e+003, 2.285514e+002
1.235638e+003, 2.312043e+002
1.237566e+003, 2.335614e+002
1.239495e+003, 2.311758e+002
1.241423e+003, 2.282724e+002
1.243352e+003, 2.279408e+002
1.245280e+003, 2.287858e+002
1.247209e+003, 2.310376e+002
1.249137e+003, 2.323699e+002
1.251066e+003, 2.311189e+002
1.252994e+003, 2.300344e+002
1.254922e+003, 2.297719e+002
1.256851e+003, 2.303229e+002
1.258779e+003, 2.325027e+002
1.260708e+003, 2.326324e+002
1.262636e+003, 2.289510e+002
1.264565e+003, 2.294308e+002
1.266493e+003, 2.356527e+002
1.268422e+003, 2.364159e+002
1.270350e+003, 2.319137e+002
1.272279e+003, 2.310311e+002
1.274207e+003, 2.328087e+002
1.276136e+003, 2.315276e+002
1.278064e+003, 2.290300e+002
1.279993e+003, 2.310452e+002
1.281921e+003, 2.344595e+002
1.283849e+003, 2.340733e+002
1.285778e+003, 2.325068e+002
1.287706e+003, 2.316569e+002
1.289635e+003, 2.321233e+002
1.291563e+003, 2.361579e+002
1.293492e+003, 2.387607e+002
1.295420e+003, 2.373251e+002
1.297349e+003, 2.349190e+002
1.299277e+003, 2.312889e+002
1.301206e+003, 2.307048e+002
1.303134e+003, 2.348216e+002
1.305063e+003, 2.367426e+002
1.306991e+003, 2.354367e+002
1.308920e+003, 2.348234e+002
1.310848e+003, 2.352257e+002
1.312776e+003, 2.366187e+002
1.314705e+003, 2.385644e+002
1.316633e+003, 2.388593e+002
1.318562e+003, 2.382808e+002
1.320490e+003, 2.388834e+002
1.322419e+003, 2.397104e+002
1.324347e+003, 2.396329e+002
1.326276e+003, 2.386919e+002
1.328204e+003, 2.353239e+002
1.330133e+003, 2.335285e+002
1.332061e+003, 2.374082e+002
1.333990e+003, 2.408860e+002
1.335918e+003, 2.414912e+002
1.337847e+003, 2.415071e+002
1.339775e+003, 2.410723e+002
1.341703e+003, 2.407240e+002
1.343632e+003, 2.405916e+002
1.345560e+003, 2.398132e+002
1.347489e+003, 2.383396e+002
1.349417e+003, 2.373746e+002
1.351346e+003, 2.370193e+002
1.353274e+003, 2.383946e+002
1.355203e+003, 2.402287e+002
1.357131e+003, 2.393895e+002
1.359060e+003, 2.376170e+002
1.360988e+003, 2.363714e+002
1.362917e+003, 2.358687e+002
1.364845e+003, 2.371144e+002
1.366774e+003, 2.372813e+002
1.368702e+003, 2.340948e+002
1.370630e+003, 2.323686e+002
1.372559e+003, 2.339408e+002
1.374487e+003, 2.351084e+002
1.376416e+003, 2.353381e+002
1.378344e+003, 2.352018e+002
1.380273e+003, 2.347433e+002
1.382201e+003, 2.344008e+002
1.384130e+003, 2.343759e+002
1.386058e+003, 2.360252e+002
1.387987e+003, 2.381506e+002
1.389915e+003, 2.383419e+002
1.391844e+003, 2.379841e+002
1.393772e+003, 2.385906e+002
1.395701e+003, 2.390211e+002
1.397629e+003, 2.387495e+002
1.399557e+003, 2.379351e+002
1.401486e+003, 2.363219e+002
1.403414e+003, 2.354803e+002
1.405343e+003, 2.357240e+002
1.407271e+003, 2.369043e+002
1.409200e+003, 2.387340e+002
1.411128e+003, 2.367773e+002
1.413057e+003, 2.326956e+002
1.414985e+003, 2.342501e+002
1.416914e+003, 2.379353e+002
1.418842e+003, 2.376040e+002
1.420771e+003, 2.361735e+002
1.422699e+003, 2.357721e+002
1.424628e+003, 2.365087e+002
1.426556e+003, 2.401084e+002
1.428484e+003, 2.416718e+002
1.430413e+003, 2.392495e+002
1.432341e+003, 2.371778e+002
1.434270e+003, 2.357887e+002
1.436198e+003, 2.357634e+002
1.438127e+003, 2.367206e+002
1.440055e+003, 2.349513e+002
1.441984e+003, 2.322063e+002
1.443912e+003, 2.334335e+002
1.445841e+003, 2.357109e+002
1.447769e+003, 2.357616e+002
1.449698e+003, 2.354581e+002
1.451626e+003, 2.363471e+002
1.453555e+003, 2.365919e+002
1.455483e+003, 2.350619e+002
1.457411e+003, 2.338121e+002
1.459340e+003, 2.326167e+002
1.461268e+003, 2.340774e+002
1.463197e+003, 2.380068e+002
1.465125e+003, 2.379512e+002
1.467054e+003, 2.355986e+002
1.468982e+003, 2.359053e+002
1.470911e+003, 2.365563e+002
1.472839e+003, 2.336116e+002
1.474768e+003, 2.319951e+002
1.476696e+003, 2.358733e+002
1.478625e+003, 2.375184e+002
1.480553e+003, 2.338872e+002
1.482482e+003, 2.303191e+002
1.484410e+003, 2.274262e+002
1.486339e+003, 2.280219e+002
1.488267e+003, 2.310976e+002
1.490195e+003, 2.289901e+002
1.492124e+003, 2.251379e+002
1.494052e+003, 2.271320e+002
1.495981e+003, 2.299607e+002
1.497909e+003, 2.283809e+002
1.499838e+003, 2.272180e+002
1.501766e+003, 2.286467e+002
1.503695e+003, 2.294010e+002
1.505623e+003, 2.288520e+002
1.507552e+003, 2.272466e+002
1.509480e+003, 2.248853e+002
1.511409e+003, 2.244813e+002
1.513337e+003, 2.252233e+002
1.515266e+003, 2.252264e+002
1.517194e+003, 2.249998e+002
1.519122e+003, 2.255062e+002
1.521051e+003, 2.253822e+002
1.522979e+003, 2.222815e+002
1.524908e+003, 2.221536e+002
1.526836e+003, 2.271168e+002
1.528765e+003, 2.278061e+002
1.530693e+003, 2.241439e+002
1.532622e+003, 2.234809e+002
1.534550e+003, 2.245475e+002
1.536479e+003, 2.228063e+002
1.538407e+003, 2.213285e+002
1.540336e+003, 2.243289e+002
1.542264e+003, 2.273142e+002
1.544193e+003, 2.274568e+002
1.546121e+003, 2.279706e+002
1.548049e+003, 2.304469e+002
1.549978e+003, 2.287992e+002
1.551906e+003, 2.233193e+002
1.553835e+003, 2.255208e+002
1.555763e+003, 2.309899e+002
1.557692e+003, 2.287063e+002
1.559620e+003, 2.246371e+002
1.561549e+003, 2.235894e+002
1.563477e+003, 2.226883e+002
1.565406e+003, 2.205040e+002
1.567334e+003, 2.187880e+002
1.569263e+003, 2.174577e+002
1.571191e+003, 2.195103e+002
1.573120e+003, 2.239152e+002
1.575048e+003, 2.241128e+002
1.576976e+003, 2.230365e+002
1.578905e+003, 2.267849e+002
1.580833e+003, 2.287426e+002
1.582762e+003, 2.240103e+002
1.584690e+003, 2.206276e+002
1.586619e+003, 2.209227e+002
1.588547e+003, 2.211422e+002
1.590476e+003, 2.209417e+002
1.592404e+003, 2.218079e+002
1.594333e+003, 2.229184e+002
1.596261e+003, 2.223303e+002
1.598190e+003, 2.210625e+002
1.600118e+003, 2.193816e+002
1.602047e+003, 2.185944e+002
1.603975e+003, 2.191184e+002
1.605903e+003, 2.208323e+002
1.607832e+003, 2.235200e+002
1.609760e+003, 2.233597e+002
1.611689e+003, 2.207972e+002
1.613617e+003, 2.159710e+002
1.615546e+003, 2.120224e+002
1.617474e+003, 2.131925e+002
1.619403e+003, 2.148911e+002
1.621331e+003, 2.151389e+002
1.623260e+003, 2.160445e+002
1.625188e+003, 2.178117e+002
1.627117e+003, 2.180134e+002
1.629045e+003, 2.172704e+002
1.630974e+003, 2.181139e+002
1.632902e+003, 2.189595e+002
1.634830e+003, 2.179067e+002
1.636759e+003, 2.165787e+002
1.638687e+003, 2.155207e+002
1.640616e+003, 2.148334e+002
1.642544e+003, 2.145715e+002
1.644473e+003, 2.135703e+002
1.646401e+003, 2.123501e+002
1.648330e+003, 2.133841e+002
1.650258e+003, 2.142744e+002
1.652187e+003, 2.121636e+002
1.654115e+003, 2.103572e+002
1.656044e+003, 2.097803e+002
1.657972e+003, 2.112751e+002
1.659901e+003, 2.150298e+002
1.661829e+003, 2.171144e+002
1.663757e+003, 2.174923e+002
1.665686e+003, 2.148574e+002
1.667614e+003, 2.122392e+002
1.669543e+003, 2.123451e+002
1.671471e+003, 2.113809e+002
1.673400e+003, 2.073453e+002
1.675328e+003, 2.081814e+002
1.677257e+003, 2.135612e+002
1.679185e+003, 2.128203e+002
1.681114e+003, 2.098680e+002
1.683042e+003, 2.120203e+002
1.684971e+003, 2.138657e+002
1.686899e+003, 2.121841e+002
1.688828e+003, 2.116274e+002
1.690756e+003, 2.131617e+002
1.692684e+003, 2.125874e+002
1.694613e+003, 2.102861e+002
1.696541e+003, 2.072533e+002
1.698470e+003, 2.052610e+002
1.700398e+003, 2.065514e+002
1.702327e+003, 2.093343e+002
1.704255e+003, 2.139316e+002
1.706184e+003, 2.137226e+002
1.708112e+003, 2.089666e+002
1.710041e+003, 2.068631e+002
1.711969e+003, 2.069397e+002
1.713898e+003, 2.098934e+002
1.715826e+003, 2.116976e+002
1.717755e+003, 2.088744e+002
1.719683e+003, 2.063203e+002
1.721611e+003, 2.045796e+002
1.723540e+003, 2.037927e+002
1.725468e+003, 2.039606e+002
1.727397e+003, 2.062746e+002
1.729325e+003, 2.075082e+002
1.731254e+003, 2.031270e+002
1.733182e+003, 2.005970e+002
1.735111e+003, 2.028023e+002
1.737039e+003, 2.030763e+002
1.738968e+003, 2.017455e+002
1.740896e+003, 2.014196e+002
1.742825e+003, 2.012831e+002
1.744753e+003, 1.995482e+002
1.746682e+003, 1.996958e+002
1.748610e+003, 2.059888e+002
1.750538e+003, 2.035940e+002
1.752467e+003, 1.931217e+002
1.754395e+003, 1.930731e+002
1.756324e+003, 1.972496e+002
1.758252e+003, 1.973277e+002
1.760181e+003, 1.966517e+002
1.762109e+003, 1.967980e+002
1.764038e+003, 1.950411e+002
1.765966e+003, 1.912994e+002
1.767895e+003, 1.938934e+002
1.769823e+003, 1.988696e+002
1.771752e+003, 1.998444e+002
1.773680e+003, 1.988344e+002
1.775609e+003, 1.964328e+002
1.777537e+003, 1.934626e+002
1.779465e+003, 1.903191e+002
1.781394e+003, 1.918802e+002
1.783322e+003, 1.955191e+002
1.785251e+003, 1.971208e+002
1.787179e+003, 1.969654e+002
1.789108e+003, 1.946794e+002
1.791036e+003, 1.933754e+002
1.792965e+003, 1.932882e+002
1.794893e+003, 1.914137e+002
1.796822e+003, 1.895567e+002
1.798750e+003, 1.922980e+002
1.800679e+003, 1.939425e+002
1.802607e+003, 1.909449e+002
1.804536e+003, 1.887631e+002
1.806464e+003, 1.880088e+002
1.808392e+003, 1.904370e+002
1.810321e+003, 1.927374e+002
1.812249e+003, 1.887814e+002
1.814178e+003, 1.851026e+002
1.816106e+003, 1.856178e+002
1.818035e+003, 1.841305e+002
1.819963e+003, 1.808154e+002
1.821892e+003, 1.793747e+002
1.823820e+003, 1.792932e+002
1.825749e+003, 1.800854e+002
1.827677e+003, 1.814656e+002
1.829606e+003, 1.837898e+002
1.831534e+003, 1.853857e+002
1.833463e+003, 1.862831e+002
1.835391e+003, 1.870113e+002
1.837319e+003, 1.869045e+002
1.839248e+003, 1.844301e+002
1.841176e+003, 1.835223e+002
1.843105e+003, 1.859323e+002
1.845033e+003, 1.875184e+002
1.846962e+003, 1.881552e+002
1.848890e+003, 1.867345e+002
1.850819e+003, 1.853602e+002
1.852747e+003, 1.856029e+002
1.854676e+003, 1.846706e+002
1.856604e+003, 1.820095e+002
1.858533e+003, 1.824682e+002
1.860461e+003, 1.837046e+002
1.862390e+003, 1.811283e+002
1.864318e+003, 1.784043e+002
1.866246e+003, 1.767990e+002
1.868175e+003, 1.756381e+002
1.870103e+003, 1.750628e+002
1.872032e+003, 1.769252e+002
1.873960e+003, 1.788967e+002
1.875889e+003, 1.784000e+002
1.877817e+003, 1.775165e+002
1.879746e+003, 1.766308e+002
1.881674e+003, 1.748912e+002
1.883603e+003, 1.729269e+002
1.885531e+003, 1.723509e+002
1.887460e+003, 1.719231e+002
1.889388e+003, 1.707148e+002
1.891317e+003, 1.704849e+002
1.893245e+003, 1.712397e+002
1.895173e+003, 1.727873e+002
1.897102e+003, 1.732416e+002
1.899030e+003, 1.688686e+002
1.900959e+003, 1.665103e+002
1.902887e+003, 1.679485e+002
1.904816e+003, 1.671852e+002
1.906744e+003, 1.655728e+002
1.908673e+003, 1.673382e+002
1.910601e+003, 1.686017e+002
1.912530e+003, 1.660785e+002
1.914458e+003, 1.654211e+002
1.916387e+003, 1.664136e+002
1.918315e+003, 1.633575e+002
1.920244e+003, 1.605996e+002
1.922172e+003, 1.630086e+002
1.924100e+003, 1.653609e+002
1.926029e+003, 1.665919e+002
1.927957e+003, 1.650231e+002
1.929886e+003, 1.636392e+002
1.931814e+003, 1.704447e+002
1.933743e+003, 1.741541e+002
1.935671e+003, 1.690754e+002
1.937600e+003, 1.651829e+002
1.939528e+003, 1.633264e+002
1.941457e+003, 1.665994e+002
1.943385e+003, 1.680318e+002
1.945314e+003, 1.619937e+002
1.947242e+003, 1.602326e+002
1.949171e+003, 1.640083e+002
1.951099e+003, 1.640779e+002
1.953027e+003, 1.625305e+002
1.954956e+003, 1.612271e+002
1.956884e+003, 1.606080e+002
1.958813e+003, 1.607644e+002
1.960741e+003, 1.608849e+002
1.962670e+003, 1.611880e+002
1.964598e+003, 1.630348e+002
1.966527e+003, 1.631315e+002
1.968455e+003, 1.602719e+002
1.970384e+003, 1.582188e+002
1.972312e+003, 1.577669e+002
1.974241e+003, 1.615089e+002
1.976169e+003, 1.642515e+002
1.978098e+003, 1.630685e+002
1.980026e+003, 1.603581e+002
1.981954e+003, 1.569874e+002
1.983883e+003, 1.547029e+002
1.985811e+003, 1.543671e+002
1.987740e+003, 1.588605e+002
1.989668e+003, 1.588434e+002
1.991597e+003, 1.546955e+002
1.993525e+003, 1.585475e+002
1.995454e+003, 1.624155e+002
1.997382e+003, 1.565012e+002
1.999311e+003, 1.535534e+002
2.001239e+003, 1.554117e+002
2.003168e+003, 1.540127e+002
2.005096e+003, 1.519402e+002
2.007025e+003, 1.523158e+002
2.008953e+003, 1.530293e+002
2.010881e+003, 1.537561e+002
2.012810e+003, 1.512053e+002
2.014738e+003, 1.479348e+002
2.016667e+003, 1.473134e+002
2.018595e+003, 1.485951e+002
2.020524e+003, 1.523262e+002
2.022452e+003, 1.493145e+002
2.024381e+003, 1.437674e+002
2.026309e+003, 1.437971e+002
2.028238e+003, 1.433547e+002
2.030166e+003, 1.403482e+002
2.032095e+003, 1.429157e+002
2.034023e+003, 1.471826e+002
2.035952e+003, 1.428645e+002
2.037880e+003, 1.413140e+002
2.039808e+003, 1.463240e+002
2.041737e+003, 1.472061e+002
2.043665e+003, 1.454689e+002
2.045594e+003, 1.448650e+002
2.047522e+003, 1.443039e+002
2.049451e+003, 1.434008e+002
2.051379e+003, 1.436800e+002
2.053308e+003, 1.443756e+002
2.055236e+003, 1.438420e+002
2.057165e+003, 1.429290e+002
2.059093e+003, 1.419549e+002
2.061022e+003, 1.393010e+002
2.062950e+003, 1.372945e+002
2.064879e+003, 1.421630e+002
2.066807e+003, 1.449314e+002
2.068736e+003, 1.424760e+002
2.070664e+003, 1.436854e+002
2.072593e+003, 1.460828e+002
2.074521e+003, 1.450421e+002
2.076449e+003, 1.426899e+002
2.078378e+003, 1.393568e+002
2.080306e+003, 1.404268e+002
2.082235e+003, 1.422028e+002
2.084163e+003, 1.382404e+002
2.086092e+003, 1.354797e+002
2.088020e+003, 1.358281e+002
2.089949e+003, 1.370855e+002
2.091877e+003, 1.382287e+002
2.093806e+003, 1.385774e+002
2.095734e+003, 1.366711e+002
2.097663e+003, 1.322756e+002
2.099591e+003, 1.318196e+002
2.101520e+003, 1.332357e+002
2.103448e+003, 1.352194e+002
2.105376e+003, 1.349842e+002
2.107305e+003, 1.323981e+002
2.109233e+003, 1.303402e+002
2.111162e+003, 1.293024e+002
2.113090e+003, 1.296247e+002
2.115019e+003, 1.312142e+002
2.116947e+003, 1.328275e+002
2.118876e+003, 1.272647e+002
2.120804e+003, 1.234457e+002
2.122733e+003, 1.260918e+002
2.124661e+003, 1.278831e+002
2.126590e+003, 1.284550e+002
2.128518e+003, 1.292142e+002
2.130447e+003, 1.280228e+002
2.132375e+003, 1.240068e+002
2.134303e+003, 1.280135e+002
2.136232e+003, 1.336849e+002
2.138160e+003, 1.279788e+002
2.140089e+003, 1.232442e+002
2.142017e+003, 1.222898e+002
2.143946e+003, 1.284622e+002
2.145874e+003, 1.346952e+002
2.147803e+003, 1.331264e+002
2.149731e+003, 1.290404e+002
2.151660e+003, 1.242098e+002
2.153588e+003, 1.249562e+002
2.155517e+003, 1.270011e+002
2.157445e+003, 1.279433e+002
2.159374e+003, 1.272555e+002
2.161302e+003, 1.253727e+002
2.163230e+003, 1.225126e+002
2.165159e+003, 1.216152e+002
2.167087e+003, 1.251469e+002
2.169016e+003, 1.236380e+002
2.170944e+003, 1.216975e+002
2.172873e+003, 1.271166e+002
2.174801e+003, 1.292939e+002
2.176730e+003, 1.262078e+002
2.178658e+003, 1.242043e+002
2.180587e+003, 1.234216e+002
2.182515e+003, 1.243739e+002
2.184444e+003, 1.234833e+002
2.186372e+003, 1.215676e+002
2.188301e+003, 1.237165e+002
2.190229e+003, 1.241575e+002
2.192157e+003, 1.204418e+002
2.194086e+003, 1.208380e+002
2.196014e+003, 1.225362e+002
2.197943e+003, 1.208040e+002
2.199871e+003, 1.178953e+002
2.201800e+003, 1.148299e+002
2.203728e+003, 1.172667e+002
2.205657e+003, 1.195294e+002
2.207585e+003, 1.174550e+002
2.209514e+003, 1.159784e+002
2.211442e+003, 1.162513e+002
2.213371e+003, 1.227873e+002
2.215299e+003, 1.228447e+002
2.217228e+003, 1.135454e+002
2.219156e+003, 1.139716e+002
2.221084e+003, 1.170148e+002
2.223013e+003, 1.141534e+002
2.224941e+003, 1.117990e+002
2.226870e+003, 1.105935e+002
2.228798e+003, 1.098502e+002
2.230727e+003, 1.105387e+002
2.232655e+003, 1.135036e+002
2.234584e+003, 1.152954e+002
2.236512e+003, 1.155054e+002
2.238441e+003, 1.125337e+002
2.240369e+003, 1.119575e+002
2.242298e+003, 1.139008e+002
2.244226e+003, 1.125867e+002
2.246155e+003, 1.109936e+002
2.248083e+003, 1.110884e+002
2.250011e+003, 1.098413e+002
2.251940e+003, 1.087772e+002
2.253868e+003, 1.115815e+002
2.255797e+003, 1.110259e+002
2.257725e+003, 1.063043e+002
2.259654e+003, 1.059659e+002
2.261582e+003, 1.073329e+002
2.263511e+003, 1.091124e+002
2.265439e+003, 1.090135e+002
2.267368e+003, 1.077864e+002
2.269296e+003, 1.065660e+002
2.271225e+003, 1.061417e+002
2.273153e+003, 1.065616e+002
2.275082e+003, 1.059541e+002
2.277010e+003, 1.065228e+002
2.278938e+003, 1.095286e+002
2.280867e+003, 1.107698e+002
2.282795e+003, 1.107921e+002
2.284724e+003, 1.106397e+002
2.286652e+003, 1.108071e+002
2.288581e+003, 1.109540e+002
2.290509e+003, 1.082432e+002
2.292438e+003, 1.065167e+002
2.294366e+003, 1.077272e+002
2.296295e+003, 1.071574e+002
2.298223e+003, 1.061019e+002
2.300152e+003, 1.066912e+002
2.302080e+003, 1.078852e+002
2.304009e+003, 1.085493e+002
2.305937e+003, 1.038751e+002
2.307865e+003, 1.013777e+002
2.309794e+003, 1.040609e+002
2.311722e+003, 1.046169e+002
2.313651e+003, 1.043382e+002
2.315579e+003, 1.052870e+002
2.317508e+003, 1.028051e+002
2.319436e+003, 9.872002e+001
2.321365e+003, 9.748257e+001
2.323293e+003, 9.908690e+001
2.325222e+003, 1.031079e+002
2.327150e+003, 1.000857e+002
2.329079e+003, 9.851048e+001
2.331007e+003, 1.044595e+002
2.332936e+003, 1.057338e+002
2.334864e+003, 1.041008e+002
2.336792e+003, 1.022533e+002
2.338721e+003, 1.007619e+002
2.340649e+003, 9.965010e+001
2.342578e+003, 9.901277e+001
2.344506e+003, 9.749339e+001
2.346435e+003, 9.483202e+001
2.348363e+003, 9.545415e+001
2.350292e+003, 9.784566e+001
2.352220e+003, 1.012822e+002
2.354149e+003, 9.944402e+001
2.356077e+003, 9.604420e+001
2.358006e+003, 9.866454e+001
2.359934e+003, 1.002474e+002
2.361863e+003, 9.962089e+001
2.363791e+003, 9.535316e+001
2.365719e+003, 9.354466e+001
2.367648e+003, 9.565493e+001
2.369576e+003, 9.586323e+001
2.371505e+003, 9.507971e+001
2.373433e+003, 9.377085e+001
2.375362e+003, 9.429031e+001
2.377290e+003, 9.526107e+001
2.379219e+003, 9.440657e+001
2.381147e+003, 9.350627e+001
2.383076e+003, 9.272757e+001
2.385004e+003, 9.186115e+001
2.386933e+003, 9.073121e+001
2.388861e+003, 8.934029e+001
2.390790e+003, 8.871599e+001
2.392718e+003, 8.878493e+001
2.394646e+003, 9.022160e+001
2.396575e+003, 8.778527e+001
2.398503e+003, 8.587291e+001
2.400432e+003, 8.974422e+001
2.402360e+003, 9.033986e+001
2.404289e+003, 8.898638e+001
2.406217e+003, 8.972725e+001
2.408146e+003, 9.100783e+001
2.410074e+003, 9.209129e+001
2.412003e+003, 9.002673e+001
2.413931e+003, 8.974148e+001
2.415860e+003, 9.273882e+001
2.417788e+003, 9.325513e+001
2.419717e+003, 9.225752e+001
2.421645e+003, 9.036461e+001
2.423573e+003, 8.902811e+001
2.425502e+003, 8.708427e+001
2.427430e+003, 8.253062e+001
2.429359e+003, 8.365156e+001
2.431287e+003, 8.768407e+001
2.433216e+003, 8.840598e+001
2.435144e+003, 8.952269e+001
2.437073e+003, 9.006857e+001
2.439001e+003, 8.350466e+001
2.440930e+003, 8.088676e+001
2.442858e+003, 8.394644e+001
2.444787e+003, 8.782930e+001
2.446715e+003, 8.829834e+001
2.448644e+003, 8.391277e+001
2.450572e+003, 8.539691e+001
2.452500e+003, 8.681874e+001
2.454429e+003, 8.281168e+001
2.456357e+003, 8.348256e+001
2.458286e+003, 8.525829e+001
2.460214e+003, 8.423918e+001
2.462143e+003, 8.004624e+001
2.464071e+003, 7.606175e+001
2.466000e+003, 7.824421e+001
2.467928e+003, 7.952647e+001
2.469857e+003, 7.929855e+001
2.471785e+003, 7.834659e+001
2.473714e+003, 7.729942e+001
2.475642e+003, 7.672128e+001
2.477571e+003, 7.967841e+001
2.479499e+003, 8.272130e+001
2.481427e+003, 8.454301e+001
2.483356e+003, 8.172755e+001
2.485284e+003, 7.909231e+001
2.487213e+003, 7.885976e+001
2.489141e+003, 8.172105e+001
2.491070e+003, 8.382415e+001
2.492998e+003, 8.302584e+001
2.494927e+003, 8.185637e+001
2.496855e+003, 7.984322e+001
2.498784e+003, 7.622221e+001
2.500712e+003, 7.447543e+001
2.502641e+003, 7.513046e+001
2.504569e+003, 8.011143e+001
2.506498e+003, 7.849309e+001
2.508426e+003, 7.388496e+001
2.510354e+003, 7.390378e+001
2.512283e+003, 7.412971e+001
2.514211e+003, 7.415021e+001
2.516140e+003, 7.409956e+001
2.518068e+003, 7.464497e+001
2.519997e+003, 7.529573e+001
2.521925e+003, 7.347080e+001
2.523854e+003, 7.517294e+001
2.525782e+003, 7.943434e+001
2.527711e+003, 7.795684e+001
2.529639e+003, 7.603316e+001
2.531568e+003, 7.506119e+001
2.533496e+003, 7.459419e+001
2.535425e+003, 7.435394e+001
2.537353e+003, 7.421490e+001
2.539281e+003, 7.381602e+001
2.541210e+003, 7.217970e+001
2.543138e+003, 6.898767e+001
2.545067e+003, 7.092448e+001
2.546995e+003, 7.206299e+001
2.548924e+003, 6.939914e+001
2.550852e+003, 7.274545e+001
2.552781e+003, 7.544271e+001
2.554709e+003, 7.395055e+001
2.556638e+003, 7.384611e+001
2.558566e+003, 7.521212e+001
2.560495e+003, 7.780594e+001
2.562423e+003, 7.489155e+001
2.564352e+003, 7.169938e+001
2.566280e+003, 7.163628e+001
2.568208e+003, 7.014723e+001
2.570137e+003, 7.043633e+001
2.572065e+003, 7.503523e+001
2.573994e+003, 7.542508e+001
2.575922e+003, 7.313408e+001
2.577851e+003, 6.931035e+001
2.579779e+003, 6.932967e+001
2.581708e+003, 7.034661e+001
2.583636e+003, 6.973365e+001
2.585565e+003, 6.976032e+001
2.587493e+003, 6.968729e+001
2.589422e+003, 6.843821e+001
2.591350e+003, 6.878597e+001
2.593279e+003, 6.937458e+001
2.595207e+003, 6.825450e+001
2.597135e+003, 7.014888e+001
2.599064e+003, 7.127457e+001
2.600992e+003, 6.711902e+001
2.602921e+003, 6.239359e+001
2.604849e+003, 5.995321e+001
2.606778e+003, 6.332967e+001
2.608706e+003, 6.143901e+001
2.610635e+003, 6.040114e+001
2.612563e+003, 6.643031e+001
2.614492e+003, 6.575378e+001
2.616420e+003, 6.371107e+001
2.618349e+003, 6.510174e+001
2.620277e+003, 6.278963e+001
2.622206e+003, 6.036455e+001
2.624134e+003, 6.055548e+001
2.626063e+003, 6.054450e+001
2.627991e+003, 6.010787e+001
2.629919e+003, 5.927760e+001
2.631848e+003, 6.006021e+001
2.633776e+003, 6.035151e+001
2.635705e+003, 5.899817e+001
2.637633e+003, 5.733149e+001
2.639562e+003, 5.632717e+001
2.641490e+003, 5.651421e+001
2.643419e+003, 6.112217e+001
2.645347e+003, 6.315169e+001
2.647276e+003, 6.024751e+001
2.649204e+003, 6.105268e+001
2.651133e+003, 6.125775e+001
2.653061e+003, 5.962196e+001
2.654990e+003, 6.097063e+001
2.656918e+003, 6.315508e+001
2.658846e+003, 6.509224e+001
2.660775e+003, 6.602598e+001
2.662703e+003, 6.274844e+001
2.664632e+003, 5.653412e+001
2.666560e+003, 5.698610e+001
2.668489e+003, 5.851567e+001
2.670417e+003, 5.972980e+001
2.672346e+003, 6.080159e+001
2.674274e+003, 6.129099e+001
2.676203e+003, 6.129898e+001
2.678131e+003, 6.143212e+001
2.680060e+003, 6.027139e+001
2.681988e+003, 5.737569e+001
2.683917e+003, 5.120090e+001
2.685845e+003, 5.225994e+001
2.687773e+003, 5.560868e+001
2.689702e+003, 5.372664e+001
2.691630e+003, 5.445763e+001
2.693559e+003, 5.517931e+001
2.695487e+003, 5.282331e+001
2.697416e+003, 5.187529e+001
2.699344e+003, 5.191894e+001
2.701273e+003, 5.231211e+001
2.703201e+003, 4.867014e+001
2.705130e+003, 4.773991e+001
2.707058e+003, 5.172886e+001
2.708987e+003, 5.051619e+001
2.710915e+003, 4.920990e+001
2.712844e+003, 4.974520e+001
2.714772e+003, 5.207950e+001
2.716700e+003, 5.383300e+001
2.718629e+003, 5.409571e+001
2.720557e+003, 5.191920e+001
2.722486e+003, 4.850985e+001
2.724414e+003, 4.578383e+001
2.726343e+003, 4.659327e+001
2.728271e+003, 5.162654e+001
2.730200e+003, 5.521432e+001
2.732128e+003, 4.835839e+001
2.734057e+003, 4.444828e+001
2.735985e+003, 4.449038e+001
2.737914e+003, 4.951714e+001
2.739842e+003, 4.991405e+001
2.741771e+003, 5.089263e+001
2.743699e+003, 5.564132e+001
2.745627e+003, 5.938697e+001
2.747556e+003, 5.843970e+001
2.749484e+003, 5.234663e+001
2.751413e+003, 4.479143e+001
2.753341e+003, 4.495927e+001
2.755270e+003, 4.971177e+001
2.757198e+003, 4.345257e+001
2.759127e+003, 4.229052e+001
2.761055e+003, 4.512494e+001
2.762984e+003, 4.762985e+001
2.764912e+003, 4.645824e+001
2.766841e+003, 4.438924e+001
2.768769e+003, 4.378225e+001
2.770698e+003, 4.449477e+001
2.772626e+003, 4.466805e+001
2.774554e+003, 4.369594e+001
2.776483e+003, 4.365430e+001
2.778411e+003, 4.281085e+001
2.780340e+003, 4.183596e+001
2.782268e+003, 4.622660e+001
2.784197e+003, 4.385960e+001
2.786125e+003, 3.882728e+001
2.788054e+003, 4.184804e+001
2.789982e+003, 4.868953e+001
2.791911e+003, 5.252163e+001
2.793839e+003, 4.438396e+001
2.795768e+003, 4.254504e+001
2.797696e+003, 4.292881e+001
2.799625e+003, 4.328344e+001
2.801553e+003, 4.460643e+001
2.803481e+003, 4.109875e+001
2.805410e+003, 3.511054e+001
2.807338e+003, 4.098506e+001
2.809267e+003, 4.092215e+001
2.811195e+003, 3.809232e+001
2.813124e+003, 4.060066e+001
2.815052e+003, 4.115490e+001
2.816981e+003, 4.199246e+001
2.818909e+003, 4.476074e+001
2.820838e+003, 4.297902e+001
2.822766e+003, 4.080685e+001
2.824695e+003, 4.000517e+001
2.826623e+003, 4.006878e+001
2.828552e+003, 4.169741e+001
2.830480e+003, 4.340529e+001
2.832408e+003, 4.214323e+001
2.834337e+003, 3.862734e+001
2.836265e+003, 3.862424e+001
2.838194e+003, 4.649741e+001
2.840122e+003, 4.105246e+001
2.842051e+003, 3.687721e+001
2.843979e+003, 3.876898e+001
2.845908e+003, 4.177039e+001
2.847836e+003, 3.824348e+001
2.849765e+003, 3.282204e+001
2.851693e+003, 3.671806e+001
2.853622e+003, 3.993087e+001
2.855550e+003, 4.108025e+001
2.857479e+003, 3.962791e+001
2.859407e+003, 3.502771e+001
2.861335e+003, 3.198243e+001
2.863264e+003, 3.245037e+001
2.865192e+003, 3.819859e+001
2.867121e+003, 4.019358e+001
2.869049e+003, 4.041897e+001
2.870978e+003, 4.420664e+001
2.872906e+003, 3.570740e+001
2.874835e+003, 2.948726e+001
2.876763e+003, 3.425211e+001
2.878692e+003, 3.463548e+001
2.880620e+003, 3.093875e+001
2.882549e+003, 2.765400e+001
2.884477e+003, 3.834858e+001
2.886406e+003, 3.854705e+001
2.888334e+003, 3.393645e+001
2.890262e+003, 3.221832e+001
2.892191e+003, 3.334621e+001
2.894119e+003, 3.259321e+001
2.896048e+003, 2.992488e+001
2.897976e+003, 3.228140e+001
2.899905e+003, 3.497504e+001
2.901833e+003, 3.664291e+001
2.903762e+003, 3.632355e+001
2.905690e+003, 3.828478e+001
2.907619e+003, 3.727094e+001
2.909547e+003, 3.220448e+001
2.911476e+003, 3.841704e+001
2.913404e+003, 3.544077e+001
2.915333e+003, 2.803352e+001
2.917261e+003, 3.248048e+001
2.919189e+003, 3.576659e+001
2.921118e+003, 3.721045e+001
2.923046e+003, 3.702902e+001
2.924975e+003, 3.554499e+001
2.926903e+003, 3.510706e+001
2.928832e+003, 3.521797e+001
2.930760e+003, 3.371098e+001
2.932689e+003, 3.189614e+001
2.934617e+003, 3.117917e+001
2.936546e+003, 3.232670e+001
2.938474e+003, 3.638088e+001
2.940403e+003, 3.336073e+001
2.942331e+003, 2.682181e+001
2.944260e+003, 3.029573e+001
2.946188e+003, 3.198910e+001
2.948116e+003, 3.345460e+001
2.950045e+003, 3.546084e+001
2.951973e+003, 2.800767e+001
2.953902e+003, 2.468467e+001
2.955830e+003, 2.645446e+001
2.957759e+003, 2.879385e+001
2.959687e+003, 2.645470e+001
2.961616e+003, 2.369121e+001
2.963544e+003, 2.354968e+001
2.965473e+003, 2.906891e+001
2.967401e+003, 2.965666e+001
2.969330e+003, 2.749623e+001
2.971258e+003, 3.127863e+001
2.973187e+003, 2.626383e+001
2.975115e+003, 2.378438e+001
2.977043e+003, 2.819938e+001
2.978972e+003, 2.537769e+001
2.980900e+003, 2.478176e+001
2.982829e+003, 2.745991e+001
2.984757e+003, 3.283230e+001
2.986686e+003, 3.300191e+001
2.988614e+003, 3.102857e+001
2.990543e+003, 2.931484e+001
2.992471e+003, 3.200314e+001
2.994400e+003, 2.403105e+001
2.996328e+003, 2.097576e+001
2.998257e+003, 3.334070e+001
3.000185e+003, 2.768012e+001
3.002114e+003, 2.626615e+001
3.004042e+003, 3.078151e+001
3.005970e+003, 3.242601e+001
3.007899e+003, 2.696679e+001
3.009827e+003, 2.658822e+001
3.011756e+003, 3.308695e+001
3.013684e+003, 2.654098e+001
3.015613e+003, 2.551969e+001
3.017541e+003, 2.695872e+001
3.019470e+003, 2.434408e+001
3.021398e+003, 2.611086e+001
3.023327e+003, 2.456212e+001
3.025255e+003, 1.980666e+001
3.027184e+003, 1.591536e+001
3.029112e+003, 2.027764e+001
3.031041e+003, 2.319453e+001
3.032969e+003, 2.014448e+001
3.034897e+003, 2.267007e+001
3.036826e+003, 2.435139e+001
3.038754e+003, 2.473382e+001
3.040683e+003, 2.450065e+001
3.042611e+003, 2.676147e+001
3.044540e+003, 2.417602e+001
3.046468e+003, 1.892433e+001
3.048397e+003, 1.908536e+001
3.050325e+003, 2.614968e+001
3.052254e+003, 2.857719e+001
3.054182e+003, 2.292825e+001
3.056111e+003, 1.847126e+001
3.058039e+003, 1.917986e+001
3.059968e+003, 2.174306e+001
3.061896e+003, 2.266597e+001
3.063824e+003, 1.554055e+001
3.065753e+003, 1.579138e+001
3.067681e+003, 2.040325e+001
3.069610e+003, 2.077045e+001
3.071538e+003, 2.599416e+001
3.073467e+003, 2.585017e+001
3.075395e+003, 2.168171e+001
3.077324e+003, 2.550198e+001
3.079252e+003, 2.198994e+001
3.081181e+003, 2.053911e+001
3.083109e+003, 2.352377e+001
3.085038e+003, 1.919376e+001
3.086966e+003, 1.851272e+001
3.088895e+003, 1.973285e+001
3.090823e+003, 2.018865e+001
3.092751e+003, 1.617700e+001
3.094680e+003, 1.585457e+001
3.096608e+003, 1.731417e+001
3.098537e+003, 1.702534e+001
3.100465e+003, 2.617758e+001
3.102394e+003, 2.784529e+001
3.104322e+003, 2.351329e+001
3.106251e+003, 2.147010e+001
3.108179e+003, 2.084472e+001
3.110108e+003, 1.749251e+001
3.112036e+003, 1.430187e+001
3.113965e+003, 1.981531e+001
3.115893e+003, 2.354498e+001
3.117822e+003, 2.528814e+001
3.119750e+003, 2.463486e+001
3.121678e+003, 1.770764e+001
3.123607e+003, 1.905442e+001
3.125535e+003, 2.036043e+001
3.127464e+003, 1.860030e+001
3.129392e+003, 2.070060e+001
3.131321e+003, 2.233077e+001
3.133249e+003, 2.276050e+001
3.135178e+003, 2.131230e+001
3.137106e+003, 1.349536e+001
3.139035e+003, 1.177699e+001
3.140963e+003, 1.372498e+001
3.142892e+003, 1.594593e+001
3.144820e+003, 1.992798e+001
3.146749e+003, 1.877672e+001
3.148677e+003, 1.557295e+001
3.150605e+003, 1.406877e+001
3.152534e+003, 1.662355e+001
3.154462e+003, 1.601309e+001
3.156391e+003, 1.535097e+001
3.158319e+003, 1.833615e+001
3.160248e+003, 1.933423e+001
3.162176e+003, 2.108237e+001
3.164105e+003, 2.113753e+001
3.166033e+003, 1.741787e+001
3.167962e+003, 1.775973e+001
3.169890e+003, 1.962877e+001
3.171819e+003, 2.053863e+001
3.173747e+003, 1.917513e+001
3.175676e+003, 1.956189e+001
3.177604e+003, 2.139274e+001
3.179532e+003, 2.124617e+001
3.181461e+003, 1.676039e+001
3.183389e+003, 1.753630e+001
3.185318e+003, 1.732649e+001
3.187246e+003, 1.761361e+001
3.189175e+003, 2.067228e+001
3.191103e+003, 1.632468e+001
3.193032e+003, 1.224033e+001
3.194960e+003, 1.013943e+001
3.196889e+003, 9.943319e+000
3.198817e+003, 1.173801e+001
3.200746e+003, 1.271597e+001
3.202674e+003, 1.478597e+001
3.204603e+003, 1.942022e+001
3.206531e+003, 1.910299e+001
3.208459e+003, 1.881196e+001
3.210388e+003, 1.794082e+001
3.212316e+003, 1.662698e+001
3.214245e+003, 2.541967e+001
3.216173e+003, 1.972565e+001
3.218102e+003, 1.268269e+001
3.220030e+003, 1.360806e+001
3.221959e+003, 1.694076e+001
3.223887e+003, 1.643340e+001
3.225816e+003, 1.584639e+001
3.227744e+003, 1.745632e+001
3.229673e+003, 2.141565e+001
3.231601e+003, 2.257534e+001
3.233530e+003, 1.994964e+001
3.235458e+003, 1.677938e+001
3.237386e+003, 2.196742e+001
3.239315e+003, 1.301206e+001
3.241243e+003, 1.419975e+001
3.243172e+003, 2.095788e+001
3.245100e+003, 1.119967e+001
3.247029e+003, 1.405300e+001
3.248957e+003, 1.612360e+001
3.250886e+003, 1.563454e+001
3.252814e+003, 1.493739e+001
3.254743e+003, 1.698527e+001
3.256671e+003, 1.464214e+001
3.258600e+003, 1.256763e+001
3.260528e+003, 1.484176e+001
3.262457e+003, 1.423246e+001
3.264385e+003, 1.676158e+001
3.266313e+003, 1.529799e+001
3.268242e+003, 9.288993e+000
3.270170e+003, 1.202631e+001
3.272099e+003, 1.662304e+001
3.274027e+003, 1.662583e+001
3.275956e+003, 1.351891e+001
3.277884e+003, 1.437008e+001
3.279813e+003, 1.489865e+001
3.281741e+003, 1.684696e+001
3.283670e+003, 1.778630e+001
3.285598e+003, 1.484417e+001
3.287527e+003, 1.340200e+001
3.289455e+003, 8.212271e+000
3.291384e+003, 6.279654e+000
3.293312e+003, 1.161027e+001
3.295240e+003, 1.729039e+001
3.297169e+003, 1.908161e+001
3.299097e+003, 1.845384e+001
3.301026e+003, 1.666872e+001
3.302954e+003, 1.337635e+001
3.304883e+003, 1.699181e+001
3.306811e+003, 1.798837e+001
3.308740e+003, 1.646331e+001
3.310668e+003, 1.582535e+001
3.312597e+003, 1.662203e+001
3.314525e+003, 1.662956e+001
3.316454e+003, 1.369693e+001
3.318382e+003, 9.546892e+000
3.320311e+003, 1.409628e+001
3.322239e+003, 1.331714e+001
3.324167e+003, 1.195176e+001
3.326096e+003, 1.178293e+001
3.328024e+003, 1.169521e+001
3.329953e+003, 1.434113e+001
3.331881e+003, 1.398885e+001
3.333810e+003, 1.379038e+001
3.335738e+003, 1.483499e+001
3.337667e+003, 4.314778e+000
3.339595e+003, 6.414022e+000
3.341524e+003, 9.352005e+000
3.343452e+003, 9.877665e+000
3.345381e+003, 1.365787e+001
3.347309e+003, 1.118913e+001
3.349238e+003, 1.066337e+001
3.351166e+003, 1.135854e+001
3.353094e+003, 1.123512e+001
3.355023e+003, 1.325669e+001
3.356951e+003, 1.109778e+001
3.358880e+003, 1.208797e+001
3.360808e+003, 1.395638e+001
3.362737e+003, 6.822856e+000
3.364665e+003, 7.618930e+000
3.366594e+003, 1.412296e+001
3.368522e+003, 1.870700e+001
3.370451e+003, 1.783913e+001
3.372379e+003, 1.755431e+001
3.374308e+003, 1.864305e+001
3.376236e+003, 1.198972e+001
3.378165e+003, 6.486016e+000
3.380093e+003, 1.536961e+001
3.382021e+003, 1.542173e+001
3.383950e+003, 6.617678e+000
3.385878e+003, 8.215264e+000
3.387807e+003, 1.931955e+001
3.389735e+003, 1.143245e+001
3.391664e+003, 1.136590e+001
3.393592e+003, 1.818373e+001
3.395521e+003, 1.822581e+001
3.397449e+003, 6.572423e+000
3.399378e+003, 1.953376e+001
3.401306e+003, 1.889374e+001
3.403235e+003, 1.696318e+001
3.405163e+003, 1.627232e+001
3.407092e+003, 1.076026e+001
3.409020e+003, 1.203470e+001
3.410948e+003, 1.316652e+001
3.412877e+003, 1.783941e+001
3.414805e+003, 2.561777e+001
3.416734e+003, 2.950774e+001
3.418662e+003, 2.963866e+001
3.420591e+003, 2.342545e+001
3.422519e+003, 1.681803e+001
3.424448e+003, 1.348273e+001
3.426376e+003, 9.508868e+000
3.428305e+003, 1.344453e+001
3.430233e+003, 1.782738e+001
3.432162e+003, 2.048732e+001
3.434090e+003, 2.110533e+001
3.436019e+003, 1.485784e+001
3.437947e+003, 8.693872e+000
3.439875e+003, 9.654586e+000
3.441804e+003, 1.425709e+001
3.443732e+003, 1.619285e+001
3.445661e+003, 2.201407e+001
3.447589e+003, 2.057994e+001
3.449518e+003, 1.236831e+001
3.451446e+003, 5.917981e+000
##END=



