##NAMES=Vaesite
##RRUFFID=R070763
##IDEAL CHEMISTRY=NiS_2_
##LOCALITY=Shaba (Katanga), Congo (Zaïre)
##OWNER=RRUFF
##SOURCE=Michael Scott
##DESCRIPTION=Metallic black micro-octahedra in massive aggregates associated with pyrite
##STATUS=The identification of this mineral has been confirmed by single-crystal X-ray diffraction
##URL=https://www.rruff.net/odr/rruff_sample/R070763
##DIFFRACTION SAMPLE DESCRIPTION=Single crystal, powder profile is calculated
##CELL PARAMETERS=a: 5.674 b: 5.674 c: 5.674 alpha: 90 beta: 90 gamma: 90 volume: 182.69 crystal system: cubic
##FILETYPE=Raman RAW
##RAMAN WAVELENGTH=532

187.3833, 718.0460
189.3118, 719.8209
191.2402, 726.4205
193.1687, 730.4885
195.0972, 733.0156
197.0256, 736.5276
198.9541, 742.1926
200.8826, 748.3670
202.8110, 753.2721
204.7395, 758.3120
206.6680, 763.4939
208.5964, 766.7573
210.5249, 763.6023
212.4534, 761.5258
214.3818, 764.4929
216.3103, 777.5299
218.2388, 784.5105
220.1672, 777.6329
222.0957, 767.1259
224.0242, 765.1793
225.9526, 781.6909
227.8811, 796.4893
229.8096, 802.0584
231.7380, 797.2296
233.6665, 796.7672
235.5950, 807.6877
237.5234, 823.3737
239.4519, 834.4839
241.3804, 837.8965
243.3088, 840.1955
245.2373, 843.3568
247.1658, 845.7866
249.0942, 846.2584
251.0227, 843.0038
252.9512, 839.0546
254.8796, 836.6649
256.8081, 837.8545
258.7366, 838.9835
260.6650, 839.1087
262.5935, 836.6230
264.5220, 834.6337
266.4504, 832.3647
268.3789, 831.2957
270.3074, 832.0979
272.2358, 834.4965
274.1643, 840.4380
276.0928, 852.4420
278.0212, 869.5662
279.9497, 882.2941
281.8782, 889.6056
283.8066, 893.5143
285.7351, 893.2393
287.6636, 886.2944
289.5920, 887.6863
291.5205, 905.9749
293.4490, 933.5781
295.3774, 950.3460
297.3059, 947.6974
299.2344, 946.1254
301.1628, 955.8849
303.0913, 983.8521
305.0198, 1001.833
306.9482, 1004.474
308.8767, 997.6895
310.8052, 991.2241
312.7336, 985.4022
314.6621, 980.5151
316.5906, 977.1899
318.5190, 973.6895
320.4475, 967.6154
322.3760, 953.7310
324.3044, 941.8356
326.2329, 936.9163
328.1613, 939.8026
330.0898, 948.7214
332.0183, 968.3721
333.9467, 996.4874
335.8752, 1015.805
337.8037, 1022.375
339.7321, 1024.016
341.6606, 1025.167
343.5891, 1026.000
345.5175, 1026.313
347.4460, 1027.898
349.3745, 1028.249
351.3029, 1023.808
353.2314, 1009.360
355.1599, 997.9075
357.0883, 994.7690
359.0168, 1002.420
360.9453, 1007.935
362.8737, 1008.455
364.8022, 1008.705
366.7307, 1012.084
368.6591, 1019.707
370.5876, 1028.577
372.5161, 1038.248
374.4445, 1048.505
376.3730, 1058.938
378.3015, 1072.430
380.2299, 1082.322
382.1584, 1086.499
384.0869, 1084.498
386.0154, 1077.437
387.9438, 1063.044
389.8723, 1044.502
391.8008, 1027.002
393.7292, 1010.685
395.6577, 995.1194
397.5862, 980.7183
399.5146, 967.6409
401.4431, 952.8206
403.3716, 933.2749
405.3000, 914.2876
407.2285, 897.6951
409.1570, 881.8089
411.0854, 873.7056
413.0139, 882.1117
414.9424, 898.2430
416.8708, 900.3235
418.7993, 880.3804
420.7278, 862.7392
422.6562, 855.9580
424.5847, 859.1133
426.5132, 864.0484
428.4416, 874.3346
430.3701, 883.8209
432.2986, 887.4763
434.2270, 885.1970
436.1555, 881.4093
438.0840, 874.0203
440.0124, 866.5080
441.9409, 864.0751
443.8694, 872.7149
445.7978, 878.4724
447.7263, 880.1041
449.6548, 881.3963
451.5832, 880.3442
453.5117, 870.4572
455.4402, 859.5717
457.3686, 857.0178
459.2971, 868.4561
461.2256, 877.3929
463.1540, 874.8494
465.0825, 869.8450
467.0110, 873.3483
468.9394, 895.7423
470.8679, 912.3027
472.7964, 917.5120
474.7248, 912.7514
476.6533, 907.1406
478.5818, 897.6863
480.5102, 888.2059
482.4387, 885.7469
484.3672, 896.9227
486.2956, 905.6196
488.2241, 902.3376
490.1526, 889.7511
492.0810, 887.3235
494.0095, 901.6876
495.9380, 914.7255
497.8664, 912.7167
499.7949, 902.0022
501.7234, 896.4126
503.6518, 901.5195
505.5803, 900.2906
507.5088, 891.3926
509.4372, 876.3933
511.3657, 866.6439
513.2942, 870.0930
515.2227, 878.6028
517.1511, 880.9974
519.0796, 871.8068
521.0081, 864.7993
522.9365, 869.5813
524.8650, 881.5965
526.7935, 891.3400
528.7219, 896.6939
530.6504, 901.0800
532.5789, 902.4756
534.5073, 899.3553
536.4358, 896.6138
538.3643, 898.1196
540.2927, 901.9135
542.2212, 902.5052
544.1497, 898.8126
546.0781, 896.7971
548.0066, 896.5123
549.9351, 900.5839
551.8635, 908.2759
553.7920, 917.4799
555.7205, 913.9171
557.6489, 906.8608
559.5774, 906.8794
561.5059, 909.9503
563.4343, 905.6792
565.3628, 898.7222
567.2913, 896.2334
569.2197, 899.1933
571.1482, 903.1884
573.0767, 905.6497
575.0051, 899.4050
576.9335, 891.5143
578.8620, 885.4254
580.7905, 888.1674
582.7189, 899.9141
584.6474, 912.6164
586.5759, 920.0648
588.5043, 921.2009
590.4328, 919.3340
592.3613, 917.1315
594.2897, 917.2999
596.2182, 922.7415
598.1467, 935.2012
600.0751, 942.2117
602.0036, 941.5627
603.9321, 938.8903
605.8605, 935.9756
607.7890, 923.2433
609.7175, 909.6788
611.6459, 907.9699
613.5744, 914.2267
615.5029, 916.6573
617.4313, 914.6547
619.3598, 916.2250
621.2883, 919.5228
623.2167, 923.0736
625.1452, 929.0925
627.0737, 939.4220
629.0021, 947.8937
630.9306, 951.3671
632.8591, 947.4719
634.7875, 933.6016
636.7160, 915.0786
638.6445, 909.3262
640.5729, 918.0209
642.5014, 932.1524
644.4299, 930.5911
646.3583, 925.4438
648.2868, 924.2592
650.2153, 928.3535
652.1437, 930.9444
654.0722, 925.1201
656.0007, 917.3748
657.9291, 916.3965
659.8576, 929.2275
661.7861, 940.1793
663.7145, 941.1890
665.6430, 936.4355
667.5715, 931.2753
669.4999, 927.3992
671.4284, 927.6482
673.3569, 928.5105
675.2853, 927.0623
677.2138, 925.3077
679.1423, 930.8666
681.0707, 941.5983
682.9992, 949.2831
684.9277, 952.9398
686.8561, 955.0664
688.7846, 957.5289
690.7131, 954.4886
692.6415, 943.4868
694.5700, 924.7774
696.4985, 915.2816
698.4269, 931.4500
700.3554, 954.4575
702.2839, 964.2599
704.2123, 954.7095
706.1408, 941.6445
708.0693, 933.0958
709.9977, 932.9801
711.9262, 937.8828
713.8547, 948.1927
715.7831, 955.0578
717.7116, 956.7068
719.6401, 957.7288
721.5685, 959.7595
723.4970, 962.8700
725.4255, 963.1029
727.3539, 960.0889
729.2824, 952.0933
731.2109, 942.5295
733.1393, 931.0477
735.0678, 925.5834
736.9963, 926.6399
738.9247, 927.8600
740.8532, 926.3292
742.7817, 921.7326
744.7101, 929.2800
746.6386, 942.1563
748.5671, 953.5535
750.4955, 957.7532
752.4240, 952.1451
754.3525, 946.3463
756.2809, 948.2860
758.2094, 961.3764
760.1379, 971.4048
762.0663, 970.8290
763.9948, 965.5005
765.9233, 965.5609
767.8517, 973.4578
769.7802, 979.2684
771.7087, 973.3445
773.6371, 960.0840
775.5656, 956.3599
777.4941, 972.2737
779.4225, 987.0259
781.3510, 991.0381
783.2795, 984.5290
785.2079, 975.5474
787.1364, 963.0040
789.0649, 953.0637
790.9933, 948.7830
792.9218, 947.4310
794.8503, 951.0516
796.7787, 966.1213
798.7072, 981.0605
800.6357, 990.5739
802.5641, 987.7438
804.4926, 980.0457
806.4211, 965.9541
808.3495, 958.0719
810.2780, 963.4240
812.2065, 974.5021
814.1349, 982.3738
816.0634, 985.5800
817.9919, 989.1425
819.9203, 992.5487
821.8488, 994.7740
823.7773, 997.1168
825.7057, 997.7000
827.6342, 996.9717
829.5627, 995.3516
831.4911, 999.2931
833.4196, 1005.061
835.3481, 1012.393
837.2766, 1014.946
839.2050, 1013.856
841.1335, 1011.543
843.0620, 1008.300
844.9904, 1001.009
846.9189, 997.9398
848.8474, 1006.137
850.7758, 1020.122
852.7043, 1022.580
854.6328, 1001.995
856.5612, 987.6282
858.4897, 997.1782
860.4182, 1024.470
862.3466, 1038.188
864.2751, 1024.931
866.2036, 1014.138
868.1320, 1011.701
870.0605, 1013.095
871.9890, 1013.461
873.9174, 1012.238
875.8459, 1013.210
877.7744, 1019.229
879.7028, 1027.270
881.6313, 1033.135
883.5598, 1035.565
885.4882, 1037.539
887.4167, 1039.318
889.3452, 1040.762
891.2736, 1040.934
893.2021, 1038.172
895.1306, 1038.751
897.0590, 1049.604
898.9875, 1062.021
900.9160, 1065.044
902.8444, 1054.005
904.7729, 1045.885
906.7014, 1043.902
908.6298, 1044.205
910.5583, 1045.194
912.4868, 1051.795
914.4152, 1055.035
916.3437, 1049.225
918.2722, 1040.582
920.2006, 1038.395
922.1291, 1045.271
924.0576, 1054.143
925.9860, 1066.040
927.9145, 1073.771
929.8430, 1075.871
931.7714, 1071.461
933.6999, 1066.534
935.6284, 1056.407
937.5568, 1051.854
939.4853, 1062.790
941.4138, 1083.599
943.3422, 1095.302
945.2707, 1091.437
947.1992, 1086.165
949.1276, 1084.635
951.0561, 1086.508
952.9846, 1087.738
954.9130, 1088.337
956.8415, 1084.970
958.7700, 1072.085
960.6984, 1060.795
962.6269, 1064.123
964.5554, 1085.230
966.4838, 1102.535
968.4123, 1104.549
970.3408, 1107.349
972.2692, 1119.328
974.1977, 1143.658
976.1262, 1152.709
978.0546, 1132.139
979.9831, 1103.124
981.9116, 1094.523
983.8400, 1116.520
985.7685, 1132.839
987.6970, 1136.192
989.6254, 1133.797
991.5539, 1130.629
993.4824, 1125.663
995.4108, 1123.514
997.3393, 1126.565
999.2678, 1131.403
1001.196, 1140.467
1003.125, 1151.375
1005.053, 1153.268
1006.982, 1145.741
1008.910, 1141.104
1010.839, 1144.619
1012.767, 1145.073
1014.695, 1141.765
1016.624, 1133.046
1018.552, 1127.034
1020.481, 1127.583
1022.409, 1134.862
1024.338, 1140.668
1026.266, 1141.410
1028.195, 1141.293
1030.123, 1141.324
1032.052, 1141.585
1033.980, 1145.330
1035.909, 1162.685
1037.837, 1178.458
1039.766, 1186.859
1041.694, 1181.910
1043.623, 1166.968
1045.551, 1155.300
1047.479, 1152.718
1049.408, 1160.104
1051.336, 1165.737
1053.265, 1165.165
1055.193, 1163.889
1057.122, 1165.096
1059.050, 1164.431
1060.979, 1163.162
1062.907, 1165.574
1064.836, 1178.287
1066.764, 1181.864
1068.693, 1166.677
1070.621, 1154.876
1072.549, 1160.348
1074.478, 1174.469
1076.406, 1177.652
1078.335, 1169.522
1080.263, 1165.297
1082.192, 1176.055
1084.120, 1195.272
1086.049, 1208.436
1087.977, 1207.160
1089.906, 1204.707
1091.834, 1199.652
1093.763, 1195.268
1095.691, 1197.085
1097.620, 1219.291
1099.548, 1230.398
1101.476, 1216.661
1103.405, 1201.635
1105.333, 1201.789
1107.262, 1213.995
1109.190, 1223.075
1111.119, 1230.159
1113.047, 1236.507
1114.976, 1236.085
1116.904, 1226.550
1118.833, 1213.981
1120.761, 1212.891
1122.690, 1221.340
1124.618, 1226.624
1126.547, 1228.519
1128.475, 1233.224
1130.403, 1250.382
1132.332, 1262.714
1134.260, 1262.072
1136.189, 1257.612
1138.117, 1259.774
1140.046, 1270.135
1141.974, 1277.248
1143.903, 1272.959
1145.831, 1264.347
1147.760, 1252.159
1149.688, 1241.555
1151.617, 1243.384
1153.545, 1264.649
1155.474, 1276.943
1157.402, 1275.008
1159.330, 1268.808
1161.259, 1264.395
1163.187, 1259.376
1165.116, 1260.308
1167.044, 1276.832
1168.973, 1291.631
1170.901, 1294.249
1172.830, 1286.807
1174.758, 1278.998
1176.687, 1268.365
1178.615, 1267.961
1180.544, 1287.110
1182.472, 1309.527
1184.401, 1321.346
1186.329, 1323.651
1188.257, 1323.220
1190.186, 1318.197
1192.114, 1314.948
1194.043, 1311.328
1195.971, 1305.017
1197.900, 1301.863
1199.828, 1307.400
1201.757, 1320.908
1203.685, 1342.831
1205.614, 1363.730
1207.542, 1370.380
1209.471, 1361.248
1211.399, 1352.149
1213.328, 1345.730
1215.256, 1342.457
1217.184, 1347.080
1219.113, 1360.271
1221.041, 1372.395
1222.970, 1379.345
1224.898, 1380.754
1226.827, 1371.735
1228.755, 1355.322
1230.684, 1346.675
1232.612, 1353.613
1234.541, 1359.382
1236.469, 1358.943
1238.398, 1362.203
1240.326, 1371.252
1242.255, 1382.957
1244.183, 1385.563
1246.111, 1373.382
1248.040, 1362.728
1249.968, 1363.242
1251.897, 1375.165
1253.825, 1382.520
1255.754, 1380.368
1257.682, 1382.997
1259.611, 1409.112
1261.539, 1432.135
1263.468, 1431.139
1265.396, 1415.743
1267.325, 1415.879
1269.253, 1444.344
1271.182, 1456.084
1273.110, 1427.631
1275.038, 1398.121
1276.967, 1403.738
1278.895, 1452.388
1280.824, 1476.718
1282.752, 1459.599
1284.681, 1446.277
1286.609, 1449.027
1288.538, 1462.997
1290.466, 1479.509
1292.395, 1501.081
1294.323, 1513.790
1296.252, 1511.225
1298.180, 1505.356
1300.109, 1497.452
1302.037, 1484.458
1303.965, 1475.206
1305.894, 1473.024
1307.822, 1474.620
1309.751, 1474.868
1311.679, 1474.969
1313.608, 1479.573
1315.536, 1489.519
1317.465, 1502.140
1319.393, 1521.740
1321.322, 1537.923
1323.250, 1549.132
1325.179, 1554.643
1327.107, 1553.582
1329.036, 1537.001
1330.964, 1532.761
1332.892, 1552.285
1334.821, 1569.774
1336.749, 1570.976
1338.678, 1559.577
1340.606, 1556.149
1342.535, 1565.885
1344.463, 1573.212
1346.392, 1571.718
1348.320, 1565.389
1350.249, 1556.613
1352.177, 1547.196
1354.106, 1550.556
1356.034, 1577.268
1357.963, 1598.440
1359.891, 1596.362
1361.819, 1586.490
1363.748, 1590.004
1365.676, 1610.430
1367.605, 1619.744
1369.533, 1604.972
1371.462, 1590.460
1373.390, 1582.002
1375.319, 1580.197
1377.247, 1585.971
1379.176, 1605.617
1381.104, 1620.143
1383.033, 1630.289
1384.961, 1634.499
1386.890, 1627.742
1388.818, 1614.219
1390.746, 1609.185
1392.675, 1615.511
1394.603, 1623.718
1396.532, 1636.579
1398.460, 1647.189
1400.389, 1648.772
1402.317, 1644.354
1404.246, 1645.051
1406.174, 1652.933
1408.103, 1659.919
1410.031, 1662.719
1411.960, 1664.495
1413.888, 1666.670
1415.817, 1670.107
1417.745, 1678.969
1419.673, 1697.171
1421.602, 1711.550
1423.530, 1716.992
1425.459, 1716.981
1427.387, 1712.678
1429.316, 1704.841
1431.244, 1701.155
1433.173, 1706.057
1435.101, 1708.359
1437.030, 1696.863
1438.958, 1687.495
1440.887, 1702.141
1442.815, 1746.196
1444.744, 1772.875
1446.672, 1764.140
1448.600, 1759.460
1450.529, 1769.322
1452.457, 1784.101
1454.386, 1795.349
1456.314, 1803.788
1458.243, 1802.360
1460.171, 1778.684
1462.100, 1761.819
1464.028, 1758.827
1465.957, 1764.370
1467.885, 1775.932
1469.814, 1794.067
1471.742, 1807.185
1473.671, 1811.116
1475.599, 1814.477
1477.527, 1820.882
1479.456, 1829.066
1481.384, 1839.156
1483.313, 1846.913
1485.241, 1842.214
1487.170, 1816.198
1489.098, 1802.958
1491.027, 1823.990
1492.955, 1853.207
1494.884, 1871.608
1496.812, 1880.553
1498.741, 1883.229
1500.669, 1877.313
1502.598, 1871.703
1504.526, 1865.584
1506.454, 1862.714
1508.383, 1870.180
1510.311, 1886.494
1512.240, 1893.148
1514.168, 1885.248
1516.097, 1878.532
1518.025, 1877.524
1519.954, 1878.609
1521.882, 1879.060
1523.811, 1878.772
1525.739, 1881.184
1527.668, 1886.137
1529.596, 1891.488
1531.525, 1896.412
1533.453, 1906.297
1535.381, 1928.092
1537.310, 1952.889
1539.238, 1963.590
1541.167, 1951.630
1543.095, 1947.962
1545.024, 1962.746
1546.952, 1974.194
1548.881, 1970.422
1550.809, 1961.983
1552.738, 1966.290
1554.666, 1986.359
1556.595, 1991.097
1558.523, 1965.005
1560.452, 1949.195
1562.380, 1958.481
1564.308, 1975.825
1566.237, 1985.720
1568.165, 1989.735
1570.094, 1994.571
1572.022, 1998.489
1573.951, 2002.747
1575.879, 2005.578
1577.808, 2010.257
1579.736, 2023.375
1581.665, 2041.548
1583.593, 2049.313
1585.522, 2044.000
1587.450, 2040.612
1589.379, 2034.486
1591.307, 2034.535
1593.235, 2055.506
1595.164, 2082.233
1597.092, 2083.469
1599.021, 2056.604
1600.949, 2046.196
1602.878, 2066.683
1604.806, 2085.366
1606.735, 2093.599
1608.663, 2094.216
1610.592, 2087.564
1612.520, 2076.313
1614.449, 2069.168
1616.377, 2066.070
1618.306, 2066.059
1620.234, 2068.937
1622.162, 2074.722
1624.091, 2087.118
1626.019, 2100.359
1627.948, 2103.027
1629.876, 2094.603
1631.805, 2089.510
1633.733, 2090.194
1635.662, 2094.020
1637.590, 2102.228
1639.519, 2111.557
1641.447, 2115.765
1643.376, 2117.580
1645.304, 2131.864
1647.233, 2164.394
1649.161, 2186.668
1651.089, 2184.302
1653.018, 2180.638
1654.946, 2194.606
1656.875, 2212.727
1658.803, 2212.100
1660.732, 2193.114
1662.660, 2177.278
1664.589, 2166.950
1666.517, 2159.174
1668.446, 2151.287
1670.374, 2146.708
1672.303, 2148.098
1674.231, 2154.916
1676.160, 2168.635
1678.088, 2191.471
1680.016, 2203.950
1681.945, 2194.369
1683.873, 2186.833
1685.802, 2193.609
1687.730, 2207.115
1689.659, 2219.920
1691.587, 2232.253
1693.516, 2246.025
1695.444, 2264.653
1697.373, 2273.688
1699.301, 2263.819
1701.230, 2250.783
1703.158, 2240.113
1705.087, 2233.108
1707.015, 2230.667
1708.943, 2232.728
1710.872, 2243.655
1712.800, 2266.216
1714.729, 2291.039
1716.657, 2325.758
1718.586, 2351.175
1720.514, 2346.342
1722.443, 2325.054
1724.371, 2319.275
1726.300, 2330.314
1728.228, 2337.598
1730.157, 2343.021
1732.085, 2338.109
1734.014, 2300.414
1735.942, 2269.976
1737.870, 2290.882
1739.799, 2342.818
1741.727, 2361.310
1743.656, 2339.443
1745.584, 2330.173
1747.513, 2347.052
1749.441, 2363.532
1751.370, 2375.755
1753.298, 2381.302
1755.227, 2371.394
1757.155, 2353.099
1759.084, 2354.447
1761.012, 2383.612
1762.941, 2400.698
1764.869, 2396.088
1766.797, 2389.766
1768.726, 2388.480
1770.654, 2386.054
1772.583, 2373.891
1774.511, 2355.832
1776.440, 2346.389
1778.368, 2346.625
1780.297, 2352.853
1782.225, 2376.458
1784.154, 2390.361
1786.082, 2379.734
1788.011, 2365.756
1789.939, 2366.893
1791.868, 2378.117
1793.796, 2382.792
1795.724, 2376.642
1797.653, 2377.803
1799.581, 2391.386
1801.510, 2404.409
1803.438, 2416.240
1805.367, 2424.317
1807.295, 2420.071
1809.224, 2412.667
1811.152, 2427.243
1813.081, 2468.403
1815.009, 2490.962
1816.938, 2486.795
1818.866, 2480.340
1820.795, 2475.180
1822.723, 2472.116
1824.651, 2472.971
1826.580, 2475.328
1828.508, 2471.782
1830.437, 2463.635
1832.365, 2472.785
1834.294, 2506.423
1836.222, 2527.615
1838.151, 2520.469
1840.079, 2511.852
1842.008, 2513.509
1843.936, 2521.448
1845.865, 2538.116
1847.793, 2557.985
1849.722, 2558.763
1851.650, 2537.402
1853.578, 2525.911
1855.507, 2534.188
1857.435, 2540.679
1859.364, 2533.555
1861.292, 2526.109
1863.221, 2529.445
1865.149, 2538.484
1867.078, 2542.144
1869.006, 2540.240
1870.935, 2545.577
1872.863, 2567.933
1874.792, 2577.510
1876.720, 2550.449
1878.649, 2534.778
1880.577, 2567.028
1882.505, 2608.375
1884.434, 2610.647
1886.362, 2583.171
1888.291, 2574.303
1890.219, 2594.262
1892.148, 2604.057
1894.076, 2599.387
1896.005, 2590.686
1897.933, 2567.171
1899.862, 2554.149
1901.790, 2575.496
1903.719, 2611.449
1905.647, 2633.735
1907.576, 2642.550
1909.504, 2636.121
1911.432, 2608.317
1913.361, 2596.390
1915.289, 2611.486
1917.218, 2632.688
1919.146, 2658.070
1921.075, 2679.768
1923.003, 2697.052
1924.932, 2703.808
1926.860, 2680.512
1928.789, 2631.181
1930.717, 2606.453
1932.646, 2616.639
1934.574, 2624.981
1936.503, 2621.296
1938.431, 2619.831
1940.359, 2628.367
1942.288, 2638.747
1944.216, 2644.957
1946.145, 2647.656
1948.073, 2646.938
1950.002, 2642.007
1951.930, 2643.252
1953.859, 2656.165
1955.787, 2665.276
1957.716, 2666.744
1959.644, 2667.738
1961.573, 2670.533
1963.501, 2672.931
1965.430, 2672.425
1967.358, 2670.548
1969.286, 2671.817
1971.215, 2676.156
1973.143, 2676.221
1975.072, 2670.630
1977.000, 2668.365
1978.929, 2672.200
1980.857, 2677.780
1982.786, 2685.176
1984.714, 2691.587
1986.643, 2690.933
1988.571, 2689.801
1990.500, 2703.614
1992.428, 2729.277
1994.357, 2736.412
1996.285, 2717.284
1998.214, 2706.794
2000.142, 2711.848
2002.070, 2718.854
2003.999, 2729.988
2005.927, 2736.615
2007.856, 2726.833
2009.784, 2715.252
2011.713, 2723.567
2013.641, 2746.052
2015.570, 2757.106
2017.498, 2756.357
2019.427, 2747.607
2021.355, 2724.995
2023.284, 2715.944
2025.212, 2737.454
2027.141, 2754.064
2029.069, 2741.631
2030.997, 2726.654
2032.926, 2732.554
2034.854, 2748.601
2036.783, 2759.128
2038.711, 2763.708
2040.640, 2755.924
2042.568, 2729.337
2044.497, 2716.043
2046.425, 2724.316
2048.354, 2736.427
2050.282, 2755.865
2052.211, 2770.078
2054.139, 2768.197
2056.067, 2762.395
2057.996, 2768.260
2059.924, 2778.687
2061.853, 2770.217
2063.781, 2744.634
2065.710, 2744.696
2067.638, 2778.917
2069.567, 2793.153
2071.495, 2765.020
2073.424, 2752.393
2075.352, 2791.230
2077.281, 2827.958
2079.209, 2829.737
2081.137, 2817.652
2083.066, 2808.888
2084.994, 2804.066
2086.923, 2807.711
2088.851, 2819.909
2090.780, 2821.219
2092.708, 2805.609
2094.637, 2792.363
2096.565, 2772.174
2098.494, 2771.187
2100.422, 2817.071
2102.351, 2854.437
2104.279, 2855.180
2106.208, 2843.753
2108.136, 2835.949
2110.064, 2832.634
2111.993, 2838.271
2113.921, 2849.958
2115.850, 2852.108
2117.778, 2842.630
2119.707, 2832.271
2121.635, 2816.219
2123.564, 2809.740
2125.492, 2825.951
2127.421, 2836.563
2129.349, 2830.087
2131.278, 2818.040
2133.206, 2804.127
2135.135, 2792.818
2137.063, 2788.520
2138.991, 2791.892
2140.920, 2808.749
2142.848, 2837.627
2144.777, 2854.740
2146.705, 2857.074
2148.634, 2859.029
2150.562, 2865.139
2152.491, 2865.008
2154.419, 2845.498
2156.348, 2832.658
2158.276, 2841.272
2160.205, 2856.909
2162.133, 2875.058
2164.062, 2888.476
2165.990, 2880.355
2167.918, 2857.788
2169.847, 2852.754
2171.775, 2865.405
2173.704, 2878.142
2175.632, 2890.528
2177.561, 2901.859
2179.489, 2914.587
2181.418, 2918.511
2183.346, 2908.298
2185.275, 2892.060
2187.203, 2856.046
2189.132, 2834.476
2191.060, 2872.048
2192.989, 2924.418
2194.917, 2924.304
2196.845, 2892.570
2198.774, 2896.612
2200.702, 2935.855
2202.631, 2954.989
2204.559, 2951.160
2206.488, 2945.878
2208.416, 2940.994
2210.345, 2932.766
2212.273, 2910.960
2214.202, 2903.833
2216.130, 2940.860
2218.059, 2971.757
2219.987, 2966.705
2221.916, 2946.705
2223.844, 2922.845
2225.772, 2902.563
2227.701, 2903.412
2229.629, 2918.884
2231.558, 2913.852
2233.486, 2889.775
2235.415, 2891.313
2237.343, 2923.026
2239.272, 2953.959
2241.200, 2983.513
2243.129, 2999.175
2245.057, 2987.692
2246.986, 2976.945
2248.914, 2981.034
2250.843, 2980.870
2252.771, 2954.171
2254.699, 2932.190
2256.628, 2952.190
2258.556, 2987.552
2260.485, 2997.867
2262.413, 2991.009
2264.342, 2990.040
2266.270, 2993.036
2268.199, 2983.524
2270.127, 2958.804
2272.056, 2949.180
2273.984, 2965.694
2275.913, 2974.497
2277.841, 2966.121
2279.770, 2959.540
2281.698, 2950.931
2283.626, 2954.477
2285.555, 2990.571
2287.483, 3021.396
2289.412, 3017.706
2291.340, 3006.436
2293.269, 3011.079
2295.197, 3024.592
2297.126, 3039.368
2299.054, 3053.707
2300.983, 3059.906
2302.911, 3058.514
2304.840, 3064.647
2306.768, 3083.744
2308.697, 3083.035
2310.625, 3055.640
2312.553, 3032.641
2314.482, 3011.766
2316.410, 3014.860
2318.339, 3060.193
2320.267, 3104.532
2322.196, 3139.260
2324.124, 3157.617
2326.053, 3148.743
2327.981, 3129.925
2329.910, 3110.281
2331.838, 3092.073
2333.767, 3076.894
2335.695, 3066.043
2337.624, 3064.606
2339.552, 3069.342
2341.480, 3068.670
2343.409, 3063.275
2345.337, 3059.902
2347.266, 3058.495
2349.194, 3061.642
2351.123, 3068.856
2353.051, 3082.467
2354.980, 3115.644
2356.908, 3127.858
2358.837, 3100.986
2360.765, 3079.311
2362.694, 3073.591
2364.622, 3077.786
2366.551, 3097.779
2368.479, 3116.057
2370.407, 3122.873
2372.336, 3122.666
2374.264, 3116.647
2376.193, 3108.624
2378.121, 3098.511
2380.050, 3092.598
2381.978, 3110.332
2383.907, 3142.851
2385.835, 3160.616
2387.764, 3163.347
2389.692, 3147.238
2391.621, 3110.276
2393.549, 3099.093
2395.478, 3130.638
2397.406, 3144.613
2399.334, 3127.483
2401.263, 3125.007
2403.191, 3152.313
2405.120, 3164.272
2407.048, 3138.086
2408.977, 3125.092
2410.905, 3156.755
2412.834, 3185.459
2414.762, 3184.402
2416.691, 3178.498
2418.619, 3188.376
2420.548, 3193.978
2422.476, 3167.921
2424.405, 3138.213
2426.333, 3138.670
2428.261, 3156.393
2430.190, 3178.056
2432.118, 3198.337
2434.047, 3203.302
2435.975, 3195.882
2437.904, 3188.012
2439.832, 3179.447
2441.761, 3172.628
2443.689, 3166.491
2445.618, 3175.587
2447.546, 3202.693
2449.475, 3213.219
2451.403, 3200.615
2453.332, 3191.845
2455.260, 3190.587
2457.188, 3194.900
2459.117, 3208.323
2461.045, 3220.607
2462.974, 3228.331
2464.902, 3237.342
2466.831, 3252.261
2468.759, 3262.749
2470.688, 3261.776
2472.616, 3258.576
2474.545, 3261.583
2476.473, 3260.498
2478.402, 3246.133
2480.330, 3226.868
2482.259, 3202.374
2484.187, 3185.510
2486.115, 3197.849
2488.044, 3222.811
2489.972, 3239.721
2491.901, 3247.804
2493.829, 3236.135
2495.758, 3216.702
2497.686, 3235.622
2499.615, 3283.293
2501.543, 3296.451
2503.472, 3277.795
2505.400, 3270.593
2507.329, 3275.003
2509.257, 3286.118
2511.186, 3304.443
2513.114, 3308.708
2515.042, 3290.560
2516.971, 3282.012
2518.899, 3288.260
2520.828, 3290.832
2522.756, 3286.606
2524.685, 3286.477
2526.613, 3289.501
2528.542, 3306.514
2530.470, 3355.737
2532.399, 3386.728
2534.327, 3379.890
2536.256, 3364.381
2538.184, 3331.044
2540.113, 3317.676
2542.041, 3354.665
2543.969, 3382.178
2545.898, 3359.822
2547.826, 3338.499
2549.755, 3349.366
2551.683, 3366.346
2553.612, 3380.586
2555.540, 3383.421
2557.469, 3354.637
2559.397, 3326.066
2561.326, 3329.976
2563.254, 3345.007
2565.183, 3348.840
2567.111, 3353.057
2569.040, 3383.485
2570.968, 3415.027
2572.896, 3397.643
2574.825, 3359.437
2576.753, 3355.309
2578.682, 3371.121
2580.610, 3377.104
2582.539, 3378.074
2584.467, 3389.889
2586.396, 3407.042
2588.324, 3402.519
2590.253, 3382.482
2592.181, 3391.213
2594.110, 3422.502
2596.038, 3440.932
2597.967, 3445.898
2599.895, 3433.929
2601.823, 3405.474
2603.752, 3396.320
2605.680, 3409.093
2607.609, 3415.282
2609.537, 3414.329
2611.466, 3417.078
2613.394, 3423.933
2615.323, 3432.861
2617.251, 3443.336
2619.180, 3459.725
2621.108, 3491.488
2623.037, 3499.156
2624.965, 3473.324
2626.894, 3471.652
2628.822, 3504.275
2630.750, 3524.078
2632.679, 3522.123
2634.607, 3514.652
2636.536, 3492.065
2638.464, 3489.415
2640.393, 3522.019
2642.321, 3532.228
2644.250, 3503.753
2646.178, 3488.529
2648.107, 3506.526
2650.035, 3513.153
2651.964, 3479.980
2653.892, 3468.105
2655.821, 3495.900
2657.749, 3523.313
2659.677, 3548.567
2661.606, 3557.265
2663.534, 3532.997
2665.463, 3519.026
2667.391, 3539.212
2669.320, 3551.579
2671.248, 3538.912
2673.177, 3533.132
2675.105, 3544.225
2677.034, 3557.236
2678.962, 3566.149
2680.891, 3578.247
2682.819, 3598.249
2684.748, 3617.024
2686.676, 3631.675
2688.604, 3643.439
2690.533, 3656.439
2692.461, 3657.262
2694.390, 3626.231
2696.318, 3606.990
2698.247, 3626.911
2700.175, 3643.565
2702.104, 3643.103
2704.032, 3636.619
2705.961, 3619.822
2707.889, 3613.004
2709.818, 3640.122
2711.746, 3653.897
2713.675, 3621.069
2715.603, 3596.426
2717.531, 3601.310
2719.460, 3611.976
2721.388, 3623.782
2723.317, 3634.292
2725.245, 3650.579
2727.174, 3653.253
2729.102, 3614.527
2731.031, 3595.931
2732.959, 3629.108
2734.888, 3656.328
2736.816, 3654.663
2738.745, 3649.531
2740.673, 3645.245
2742.602, 3647.544
2744.530, 3665.393
2746.458, 3678.931
2748.387, 3686.480
2750.315, 3682.196
2752.244, 3653.997
2754.172, 3634.202
2756.101, 3631.717
2758.029, 3641.465
2759.958, 3674.982
2761.886, 3692.476
2763.815, 3677.125
2765.743, 3668.123
2767.672, 3682.046
2769.600, 3694.470
2771.529, 3703.885
2773.457, 3703.203
2775.385, 3684.113
2777.314, 3678.704
2779.242, 3700.523
2781.171, 3712.757
2783.099, 3699.158
2785.028, 3689.537
2786.956, 3686.610
2788.885, 3685.794
2790.813, 3685.904
2792.742, 3692.942
2794.670, 3713.951
2796.599, 3718.753
2798.527, 3692.057
2800.456, 3678.787
2802.384, 3680.940
2804.313, 3690.957
2806.241, 3708.926
2808.169, 3728.139
2810.098, 3750.117
2812.026, 3760.917
2813.955, 3758.426
2815.883, 3756.652
2817.812, 3755.572
2819.740, 3744.667
2821.669, 3723.277
2823.597, 3720.275
2825.526, 3736.664
2827.454, 3738.170
2829.383, 3727.029
2831.311, 3720.711
2833.240, 3720.194
2835.168, 3730.804
2837.096, 3748.696
2839.025, 3753.521
2840.953, 3749.349
2842.882, 3750.891
2844.810, 3759.622
2846.739, 3788.021
2848.667, 3821.269
2850.596, 3824.671
2852.524, 3810.883
2854.453, 3798.580
2856.381, 3790.275
2858.310, 3794.560
2860.238, 3799.703
2862.167, 3779.805
2864.095, 3764.642
2866.023, 3807.985
2867.952, 3849.645
2869.880, 3819.243
2871.809, 3785.271
2873.737, 3812.288
2875.666, 3837.922
2877.594, 3808.475
2879.523, 3780.237
2881.451, 3780.510
2883.380, 3791.655
2885.308, 3806.839
2887.237, 3829.562
2889.165, 3886.724
2891.094, 3904.857
2893.022, 3845.690
2894.950, 3803.337
2896.879, 3802.748
2898.807, 3816.741
2900.736, 3854.520
2902.664, 3874.257
2904.593, 3870.524
2906.521, 3860.607
2908.450, 3843.823
2910.378, 3844.592
2912.307, 3872.495
2914.235, 3880.236
2916.164, 3866.251
2918.092, 3871.021
2920.021, 3892.553
2921.949, 3900.041
2923.877, 3894.361
2925.806, 3879.552
2927.734, 3859.957
2929.663, 3850.566
2931.591, 3852.896
2933.520, 3879.580
2935.448, 3911.971
2937.377, 3912.070
2939.305, 3900.819
2941.234, 3907.658
2943.162, 3921.946
2945.091, 3944.436
2947.019, 3956.180
2948.948, 3935.262
2950.876, 3906.477
2952.804, 3874.940
2954.733, 3857.395
2956.661, 3868.898
2958.590, 3882.182
2960.518, 3887.856
2962.447, 3889.194
2964.375, 3880.054
2966.304, 3889.668
2968.232, 3933.605
2970.161, 3959.464
2972.089, 3947.884
2974.018, 3941.487
2975.946, 3941.103
2977.875, 3937.122
2979.803, 3929.036
2981.731, 3920.579
2983.660, 3912.020
2985.588, 3903.479
2987.517, 3896.677
2989.445, 3900.642
2991.374, 3912.937
2993.302, 3933.739
2995.231, 3953.635
2997.159, 3955.369
2999.088, 3947.471
3001.016, 3931.431
3002.945, 3922.104
3004.873, 3941.099
3006.802, 3958.673
3008.730, 3949.448
3010.658, 3942.597
3012.587, 3959.192
3014.515, 3959.553
3016.444, 3910.415
3018.372, 3880.346
3020.301, 3883.222
3022.229, 3891.046
3024.158, 3900.726
3026.086, 3909.824
3028.015, 3917.812
3029.943, 3926.452
3031.872, 3934.932
3033.800, 3914.916
3035.729, 3876.672
3037.657, 3870.889
3039.585, 3886.656
3041.514, 3891.688
3043.442, 3895.956
3045.371, 3925.912
3047.299, 3953.591
3049.228, 3943.491
3051.156, 3924.828
3053.085, 3918.322
3055.013, 3916.039
3056.942, 3914.088
3058.870, 3916.073
3060.799, 3931.239
3062.727, 3934.647
3064.656, 3919.443
3066.584, 3901.589
3068.512, 3877.792
3070.441, 3893.332
3072.369, 3962.504
3074.298, 3976.790
3076.226, 3943.250
3078.155, 3909.208
3080.083, 3883.440
3082.012, 3902.162
3083.940, 3940.073
3085.869, 3951.066
3087.797, 3941.877
3089.726, 3905.526
3091.654, 3874.791
3093.583, 3879.583
3095.511, 3896.504
3097.439, 3922.043
3099.368, 3937.445
3101.296, 3928.518
3103.225, 3919.268
3105.153, 3908.731
3107.082, 3918.741
3109.010, 3954.522
3110.939, 3958.017
3112.867, 3925.406
3114.796, 3926.877
3116.724, 3952.272
3118.653, 3939.527
3120.581, 3910.567
3122.510, 3913.039
3124.438, 3926.674
3126.366, 3928.821
3128.295, 3921.393
3130.223, 3891.860
3132.152, 3875.951
3134.080, 3906.827
3136.009, 3930.138
3137.937, 3927.661
3139.866, 3937.776
3141.794, 3981.703
3143.723, 3982.520
3145.651, 3928.750
3147.580, 3925.072
3149.508, 3962.312
3151.437, 3959.662
3153.365, 3932.542
3155.293, 3931.827
3157.222, 3939.812
3159.150, 3921.646
3161.079, 3906.473
3163.007, 3929.799
3164.936, 3951.496
3166.864, 3950.315
3168.793, 3941.297
3170.721, 3922.864
3172.650, 3915.749
3174.578, 3929.587
3176.507, 3931.586
3178.435, 3920.902
3180.364, 3931.224
3182.292, 3958.058
3184.220, 3959.239
3186.149, 3944.924
3188.077, 3929.360
3190.006, 3929.251
3191.934, 3985.780
3193.863, 4039.381
3195.791, 4047.065
3197.720, 4030.920
3199.648, 3980.298
3201.577, 3950.793
3203.505, 3960.747
3205.434, 3986.647
3207.362, 4029.026
3209.291, 4022.397
3211.219, 3969.965
3213.147, 3959.588
3215.076, 3978.539
3217.004, 4003.215
3218.933, 4016.173
3220.861, 3973.454
3222.790, 3938.117
3224.718, 3977.617
3226.647, 4009.075
3228.575, 3989.623
3230.504, 3974.111
3232.432, 3972.294
3234.361, 3981.926
3236.289, 4002.876
3238.218, 4004.222
3240.146, 3987.869
3242.074, 3970.762
3244.003, 3960.432
3245.931, 3983.777
3247.860, 4012.835
3249.788, 4025.845
3251.717, 4016.391
3253.645, 3961.024
3255.574, 3930.906
3257.502, 3975.856
3259.431, 3999.840
3261.359, 3991.672
3263.288, 3984.125
3265.216, 3979.548
3267.145, 3983.376
3269.073, 3992.916
3271.001, 4004.250
3272.930, 4011.119
3274.858, 3999.099
3276.787, 3990.217
3278.715, 4013.995
3280.644, 4023.891
3282.572, 3996.485
3284.501, 3982.654
3286.429, 4004.058
3288.358, 3995.805
3290.286, 3960.501
3292.215, 3957.081
3294.143, 3978.035
3296.072, 4007.923
3298.000, 4034.599
3299.928, 4048.745
3301.857, 4043.675
3303.785, 3996.009
3305.714, 3963.276
3307.642, 3964.739
3309.571, 3971.732
3311.499, 3978.526
3313.428, 3996.641
3315.356, 4023.302
3317.285, 4018.410
3319.213, 3997.468
3321.142, 3996.808
3323.070, 4003.932
3324.999, 4008.445
3326.927, 4009.388
3328.855, 4010.778
3330.784, 3997.743
3332.712, 3958.031
3334.641, 3948.842
3336.569, 3976.582
3338.498, 3998.757
3340.426, 4012.690
3342.355, 4005.848
3344.283, 3992.574
3346.212, 3997.723
3348.140, 4001.995
3350.069, 3988.028
3351.997, 3972.493
3353.926, 3955.472
3355.854, 3954.519
3357.782, 3976.423
3359.711, 3969.513
3361.639, 3941.480
3363.568, 3954.966
3365.496, 3979.824
3367.425, 3932.414
3369.353, 3893.494
3371.282, 3951.682
3373.210, 3999.198
3375.139, 3983.361
3377.067, 3973.948
3378.996, 3981.193
3380.924, 3987.197
3382.853, 3990.739
3384.781, 3987.715
3386.709, 3980.423
3388.638, 3969.307
3390.566, 3961.893
3392.495, 3968.468
3394.423, 3975.717
3396.352, 3978.926
3398.280, 3982.453
3400.209, 3987.844
3402.137, 3980.149
3404.066, 3964.787
3405.994, 3977.759
3407.923, 4004.519
3409.851, 4026.061
3411.780, 4035.756
3413.708, 4027.911
3415.636, 4007.631
3417.565, 3969.545
3419.493, 3954.161
3421.422, 3969.139
3423.350, 3960.737
3425.279, 3935.217
3427.207, 3925.019
3429.136, 3924.610
3431.064, 3928.123
3432.993, 3938.336
3434.921, 3962.941
3436.850, 3978.099
3438.778, 3971.754
3440.707, 3978.999
3442.635, 3997.326
3444.563, 3965.776
3446.492, 3916.401
3448.420, 3928.147
3450.349, 3953.760
3452.277, 3951.049
3454.206, 3951.358
3456.134, 3983.973
3458.063, 3979.059
3459.991, 3931.063
3461.920, 3938.353
3463.848, 3982.908
3465.777, 3973.896
3467.705, 3952.438
3469.634, 3975.833
3471.562, 3993.148
3473.490, 3969.308
3475.419, 3951.121
3477.347, 3947.795
3479.276, 3941.708
3481.204, 3933.711
3483.133, 3945.170
3485.061, 3957.476
3486.990, 3931.002
3488.918, 3909.560
3490.847, 3928.646
3492.775, 3936.719
3494.704, 3902.675
3496.632, 3910.547
3498.561, 3953.784
3500.489, 3948.765
3502.417, 3922.860
3504.346, 3933.582
3506.274, 3943.024
3508.203, 3909.031
3510.131, 3903.612
3512.060, 3967.849
3513.988, 3980.543
3515.917, 3939.993
3517.845, 3900.248
3519.774, 3875.317
3521.702, 3915.802
3523.631, 3953.946
3525.559, 3930.934
3527.488, 3909.446
3529.416, 3903.466
3531.344, 3905.177
3533.273, 3914.067
3535.201, 3938.419
3537.130, 3965.554
3539.058, 3974.263
3540.987, 3970.082
3542.915, 3950.220
3544.844, 3930.319
3546.772, 3912.518
3548.701, 3904.001
3550.629, 3904.416
3552.558, 3905.022
3554.486, 3909.106
3556.415, 3925.139
3558.343, 3940.127
3560.271, 3946.121
3562.200, 3953.651
3564.128, 3973.341
3566.057, 3951.663
3567.985, 3906.403
3569.914, 3915.439
3571.842, 3941.178
3573.771, 3938.434
3575.699, 3925.472
3577.628, 3892.017
3579.556, 3903.705
3581.485, 3965.721
3583.413, 3961.771
3585.342, 3921.015
3587.270, 3931.368
3589.198, 3947.946
3591.127, 3938.575
3593.055, 3913.147
3594.984, 3860.670
3596.912, 3862.537
3598.841, 3909.974
3600.769, 3882.768
3602.698, 3835.844
3604.626, 3866.435
3606.555, 3909.584
3608.483, 3932.692
3610.412, 3953.623
3612.340, 3974.705
3614.269, 3980.878
3616.197, 3975.925
3618.125, 3968.410
3620.054, 3961.921
3621.982, 3962.219
3623.911, 3958.365
3625.839, 3945.958
3627.768, 3945.659
3629.696, 3956.695
3631.625, 3946.464
3633.553, 3936.517
3635.482, 3972.184
3637.410, 3986.512
3639.339, 3927.716
3641.267, 3916.635
3643.196, 3975.506
3645.124, 3968.773
3647.052, 3928.436
3648.981, 3930.810
3650.909, 3942.804
3652.838, 3935.358
3654.766, 3944.526
3656.695, 3980.948
3658.623, 3990.057
3660.552, 3975.541
3662.480, 3946.562
3664.409, 3930.430
3666.337, 3971.111
3668.266, 4002.596
3670.194, 4010.773
3672.123, 3976.368
3674.051, 3911.453
3675.979, 3916.925
3677.908, 3948.309
3679.836, 3964.107
3681.765, 3956.052
3683.693, 3909.606
3685.622, 3910.977
3687.550, 3963.695
3689.479, 3960.063
3691.407, 3934.133
3693.336, 3936.169
3695.264, 3937.872
3697.193, 3923.060
3699.121, 3927.475
3701.050, 3956.330
3702.978, 3927.635
3704.906, 3881.096
3706.835, 3884.252
3708.763, 3900.418
3710.692, 3911.195
3712.620, 3931.009
3714.549, 3963.639
3716.477, 3952.750
3718.406, 3926.116
3720.334, 3942.010
3722.263, 3953.772
3724.191, 3931.449
3726.120, 3929.268
3728.048, 3959.585
3729.977, 3939.959
3731.905, 3902.898
3733.833, 3903.370
3735.762, 3925.105
3737.690, 3968.982
3739.619, 3983.160
3741.547, 3957.844
3743.476, 3941.384
3745.404, 3937.441
3747.333, 3965.453
3749.261, 3978.231
3751.190, 3943.074
3753.118, 3946.118
3755.047, 3998.629
3756.975, 3983.810
3758.904, 3942.034
3760.832, 3936.020
3762.760, 3930.239
3764.689, 3905.851
3766.617, 3905.652
3768.546, 3931.533
3770.474, 3943.620
3772.403, 3949.517
3774.331, 3960.459
3776.260, 3964.857
3778.188, 3956.998
3780.117, 3961.665
3782.045, 3975.679
3783.974, 3961.135
3785.902, 3939.425
3787.831, 3933.064
3789.759, 3921.420
3791.688, 3895.628
3793.616, 3932.748
3795.544, 4004.289
3797.473, 3986.886
3799.401, 3949.900
3801.330, 3935.899
3803.258, 3944.898
3805.187, 3977.474
3807.115, 3953.734
3809.044, 3907.754
3810.972, 3914.790
3812.901, 3937.859
3814.829, 3970.491
3816.758, 3968.763
3818.686, 3931.415
3820.615, 3912.499
3822.543, 3909.976
3824.471, 3930.404
3826.400, 3941.943
3828.328, 3931.272
3830.257, 3941.367
3832.185, 3963.961
3834.114, 3938.433
3836.042, 3926.345
3837.971, 4019.501
3839.899, 4021.410
3841.828, 3906.701
3843.756, 3888.201
3845.685, 3926.871
3847.613, 3955.273
3849.542, 3968.623
3851.470, 3954.300
3853.398, 3950.323
3855.327, 3956.940
3857.255, 3964.115
3859.184, 3966.011
3861.112, 3955.220
3863.041, 3951.142
3864.969, 3963.236
3866.898, 3943.575
3868.826, 3909.704
3870.755, 3899.129
3872.683, 3917.692
3874.612, 3986.164
3876.540, 3985.881
3878.469, 3911.987
3880.397, 3890.126
3882.325, 3900.146
3884.254, 3931.813
3886.182, 3936.850
3888.111, 3897.282
3890.039, 3896.997
3891.968, 3918.361
3893.896, 3902.062
3895.825, 3883.865
3897.753, 3892.726
3899.682, 3887.617
3901.610, 3854.558
3903.539, 3872.636
3905.467, 3900.983
3907.396, 3867.429
3909.324, 3863.772
3911.252, 3887.715
3913.181, 3875.090
3915.109, 3853.712
3917.038, 3822.003
3918.966, 3810.775
3920.895, 3820.134
3922.823, 3825.813
3924.752, 3843.315
3926.680, 3826.358
3928.609, 3797.433
3930.537, 3812.007
3932.466, 3844.735
3934.394, 3869.158
3936.323, 3864.356
3938.251, 3856.054
3940.179, 3854.151
3942.108, 3836.047
3944.036, 3820.422
3945.965, 3829.463
3947.893, 3861.387
3949.822, 3839.737
3951.750, 3800.355
3953.679, 3805.311
3955.607, 3809.568
3957.536, 3817.827
3959.464, 3812.052
3961.393, 3806.419
3963.321, 3794.457
3965.250, 3778.055
3967.178, 3800.198
3969.106, 3805.570
3971.035, 3798.814
3972.963, 3782.745
3974.892, 3778.963
3976.820, 3790.378
3978.749, 3788.096
3980.677, 3764.532
3982.606, 3739.161
3984.534, 3753.427
3986.463, 3788.845
3988.391, 3774.173
3990.320, 3744.004
3992.248, 3777.563
3994.177, 3783.618
3996.105, 3725.610
3998.033, 3698.629
3999.962, 3699.511
4001.890, 3711.719
4003.819, 3728.262
4005.747, 3753.216
4007.676, 3750.289
4009.604, 3742.306
4011.533, 3786.562
4013.461, 3798.480
4015.390, 3736.514
4017.318, 3712.114
4019.247, 3721.162
4021.175, 3730.115
4023.104, 3741.309
4025.032, 3756.351
4026.960, 3771.698
4028.889, 3786.927
4030.817, 3797.806
4032.746, 3808.543
4034.674, 3821.751
4036.603, 3827.330
4038.531, 3824.405
4040.460, 3813.828
4042.388, 3802.276
4044.317, 3796.152
4046.245, 3783.405
4048.174, 3762.163
4050.102, 3759.939
4052.031, 3757.896
4053.959, 3721.335
4055.887, 3695.764
4057.816, 3697.576
4059.744, 3702.509
4061.673, 3703.411
4063.601, 3702.391
4065.530, 3683.484
4067.458, 3634.631
4069.387, 3629.921
4071.315, 3648.738
4073.244, 3666.007
4075.172, 3656.382
4077.101, 3567.311
4079.029, 3575.197
4080.958, 3650.881
4082.886, 3658.517
4084.814, 3644.827
4086.743, 3619.985
4088.671, 3613.726
4090.600, 3616.621
4092.528, 3604.236
4094.457, 3599.647
4096.385, 3583.033
4098.313, 3576.482
4100.242, 3580.312
4102.170, 3598.024
4104.099, 3631.822
4106.027, 3632.018
4107.956, 3614.272
4109.884, 3600.388
4111.813, 3617.649
4113.741, 3632.232
4115.670, 3620.495
4117.598, 3616.914
4119.527, 3607.200
4121.455, 3607.294
4123.384, 3627.192
4125.312, 3642.233
4127.241, 3667.979
4129.169, 3747.434
4131.098, 3796.004
4133.026, 3793.318
4134.955, 3782.864
4136.883, 3793.879
4138.812, 3831.359
4140.740, 3826.705
4142.668, 3797.230
4144.597, 3831.079
4146.525, 3862.777
4148.454, 3784.079
4150.382, 3773.794
4152.311, 3831.655
4154.239, 3790.286
4156.167, 3744.963
4158.096, 3782.602
4160.024, 3775.588
4161.953, 3718.422
4163.881, 3664.131
4165.810, 3636.610
4167.738, 3695.317
4169.667, 3710.374
4171.595, 3645.647
4173.524, 3625.938
4175.452, 3632.585
4177.381, 3619.865
4179.309, 3624.384
4181.238, 3664.658
4183.166, 3606.242
4185.095, 3527.945
4187.023, 3545.180
4188.952, 3561.732
4190.880, 3551.235
4192.809, 3569.357
4194.737, 3591.466
4196.666, 3591.314
4198.594, 3578.340
4200.522, 3557.475
4202.451, 3560.931
4204.379, 3561.795
4206.308, 3545.679
4208.236, 3537.795
4210.165, 3534.739
4212.093, 3504.869
4214.021, 3489.954
4215.950, 3556.155
4217.878, 3579.574
4219.807, 3553.206
4221.735, 3535.317
4223.664, 3532.305
4225.592, 3559.378
4227.521, 3566.301
4229.449, 3553.591
4231.378, 3530.152
4233.306, 3495.455
4235.235, 3517.534
4237.163, 3531.957
4239.092, 3539.136
4241.020, 3517.371
4242.949, 3532.982
4244.877, 3533.612
4246.806, 3533.631
4248.734, 3554.498
4250.663, 3536.945
4252.591, 3557.481
4254.520, 3562.815
4256.448, 3575.106
4258.376, 3572.325
4260.305, 3545.685
4262.233, 3514.064
4264.162, 3496.685
4266.090, 3592.353
4268.019, 3689.798
4269.947, 3605.934
4271.875, 3547.251
4273.804, 3553.459
4275.732, 3564.849
4277.661, 3581.395
4279.589, 3617.096
4281.518, 3612.899
4283.446, 3573.776
4285.375, 3584.795
4287.303, 3598.884
4289.232, 3575.058
4291.160, 3567.787
4293.089, 3572.857
4295.017, 3566.088
4296.946, 3562.625
4298.874, 3568.396
4300.803, 3596.322
4302.731, 3625.583
4304.660, 3599.902
4306.588, 3593.060
4308.517, 3627.408
4310.445, 3665.383
4312.374, 3689.906
4314.302, 3673.636
4316.230, 3659.621
4318.159, 3654.161
4320.087, 3639.083
4322.016, 3650.563
4323.944, 3736.513
4325.873, 3701.690
4327.801, 3595.575
4329.729, 3637.829
4331.658, 3679.760
4333.586, 3665.235
4335.515, 3652.109
4337.443, 3645.264
4339.372, 3652.293
4341.300, 3645.477
4343.229, 3625.293
4345.157, 3675.241
4347.086, 3715.188
4349.014, 3663.562
4350.943, 3662.634
4352.871, 3700.621
4354.800, 3672.035
4356.728, 3654.377
4358.657, 3685.524
4360.585, 3693.800
4362.514, 3688.658
4364.442, 3695.732
4366.371, 3688.095
4368.299, 3661.906
4370.228, 3655.385
4372.156, 3671.227
4374.084, 3730.538
4376.013, 3754.770
4377.941, 3742.961
4379.870, 3702.832
4381.798, 3666.882
4383.727, 3647.068
4385.655, 3654.049
4387.583, 3677.946
4389.512, 3713.712
4391.440, 3734.744
4393.369, 3737.637
4395.297, 3728.102
4397.226, 3730.997
4399.154, 3767.898
4401.083, 3753.011
4403.011, 3711.513
4404.940, 3710.498
4406.868, 3711.553
4408.797, 3705.424
4410.725, 3709.123
4412.654, 3714.630
4414.582, 3704.185
4416.511, 3741.055
4418.439, 3795.417
4420.368, 3746.245
4422.296, 3685.721
4424.225, 3645.238
4426.153, 3667.101
4428.082, 3699.688
4430.010, 3663.024
4431.938, 3685.027
4433.867, 3758.593
4435.795, 3755.667
4437.724, 3722.401
4439.652, 3674.236
4441.581, 3700.090
4443.509, 3752.274
4445.438, 3767.561
4447.366, 3756.766
4449.294, 3732.709
4451.223, 3744.260
4453.151, 3768.638
4455.080, 3797.756
4457.008, 3802.242
4458.937, 3788.722
4460.865, 3762.109
4462.794, 3742.495
4464.722, 3734.884
4466.651, 3756.882
4468.579, 3772.474
4470.508, 3760.283
4472.436, 3769.777
4474.365, 3780.734
4476.293, 3744.657
4478.222, 3765.284
4480.150, 3829.384
4482.079, 3786.252
4484.007, 3730.599
4485.936, 3708.206
4487.864, 3713.137
4489.792, 3736.160
4491.721, 3785.561
4493.649, 3777.321
4495.578, 3722.093
4497.506, 3731.063
4499.435, 3748.139
4501.363, 3752.527
4503.292, 3746.572
4505.220, 3737.488
4507.148, 3731.725
4509.077, 3732.791
4511.005, 3727.219
4512.934, 3644.674
4514.862, 3634.345
4516.791, 3749.098
4518.719, 3729.617
4520.648, 3697.353
4522.576, 3775.994
4524.505, 3760.805
4526.433, 3691.969
4528.362, 3662.451
4530.290, 3676.435
4532.219, 3720.934
4534.147, 3708.466
4536.076, 3690.889
4538.004, 3697.872
4539.933, 3681.525
4541.861, 3650.366
4543.790, 3603.822
4545.718, 3598.189
4547.646, 3629.427
4549.575, 3681.249
4551.503, 3679.101
4553.432, 3605.884
4555.360, 3631.243
4557.289, 3656.688
4559.217, 3596.620
4561.146, 3620.091
4563.074, 3682.783
4565.002, 3700.849
4566.931, 3668.032
4568.859, 3606.389
4570.788, 3668.054
4572.716, 3708.661
4574.645, 3673.144
4576.573, 3656.190
4578.502, 3634.865
4580.430, 3575.160
4582.359, 3591.643
4584.287, 3637.029
4586.216, 3586.480
4588.144, 3589.869
4590.073, 3649.482
4592.001, 3551.062
4593.930, 3496.483
4595.858, 3563.961
4597.787, 3573.624
4599.715, 3558.854
4601.644, 3554.506
4603.572, 3522.689
4605.500, 3486.436
4607.429, 3501.928
4609.357, 3491.389
4611.286, 3459.314
4613.214, 3523.733
4615.143, 3534.178
4617.071, 3449.883
4619.000, 3430.834
4620.928, 3443.017
4622.856, 3469.966
4624.785, 3422.875
4626.713, 3367.110
4628.642, 3422.568
4630.570, 3432.443
4632.499, 3403.294
4634.427, 3411.666
4636.356, 3412.687
4638.284, 3396.344
4640.213, 3351.865
4642.141, 3331.493
4644.070, 3369.743
4645.998, 3402.787
4647.927, 3418.861
4649.855, 3405.896
4651.784, 3375.319
4653.712, 3350.123
4655.641, 3373.233
4657.569, 3386.672
4659.498, 3380.202
4661.426, 3331.698
4663.354, 3325.290
4665.283, 3378.173
4667.211, 3385.294
4669.140, 3379.138
4671.068, 3374.132
4672.997, 3348.723
4674.925, 3325.884
4676.854, 3334.092
4678.782, 3314.363
4680.710, 3292.638
4682.639, 3316.837
4684.567, 3313.996
4686.496, 3292.189
4688.424, 3290.011
4690.353, 3299.993
4692.281, 3316.378
4694.210, 3316.490
4696.138, 3320.972
4698.067, 3336.940
4699.995, 3331.709
4701.924, 3324.410
4703.852, 3325.555
4705.781, 3327.376
4707.709, 3328.188
4709.638, 3335.033
4711.566, 3284.828
4713.495, 3237.741
4715.423, 3303.406
4717.352, 3304.965
4719.280, 3262.952
4721.208, 3284.129
4723.137, 3273.043
4725.065, 3233.781
4726.994, 3295.522
4728.922, 3339.407
4730.851, 3333.854
4732.779, 3290.989
4734.708, 3262.246
4736.636, 3275.221
4738.564, 3261.137
4740.493, 3245.509
4742.421, 3244.578
4744.350, 3262.879
4746.278, 3273.787
4748.207, 3244.112
4750.135, 3246.470
4752.064, 3255.105
4753.992, 3221.764
4755.921, 3199.654
4757.849, 3198.261
4759.778, 3238.439
4761.706, 3252.209
4763.635, 3242.923
4765.563, 3260.895
4767.492, 3253.978
4769.420, 3222.978
4771.349, 3248.407
4773.277, 3273.614
4775.206, 3279.785
4777.134, 3259.185
4779.063, 3232.443
4780.991, 3208.374
4782.919, 3215.601
4784.848, 3228.672
4786.776, 3234.130
4788.705, 3227.019
4790.633, 3219.955
4792.562, 3223.238
4794.490, 3225.499
4796.418, 3228.907
4798.347, 3239.167
4800.275, 3207.863
4802.204, 3178.689
4804.132, 3223.037
4806.061, 3224.839
4807.989, 3203.657
4809.918, 3191.515
4811.846, 3225.692
4813.775, 3272.461
4815.703, 3255.786
4817.632, 3234.970
4819.560, 3222.812
4821.489, 3238.241
4823.417, 3236.760
4825.346, 3222.032
4827.274, 3229.270
4829.203, 3237.722
4831.131, 3241.945
4833.060, 3235.569
4834.988, 3234.219
4836.917, 3233.259
4838.845, 3172.306
4840.773, 3161.511
4842.702, 3214.518
4844.630, 3191.287
4846.559, 3201.043
4848.487, 3263.011
4850.416, 3177.860
4852.344, 3128.997
4854.272, 3173.147
4856.201, 3213.278
4858.129, 3236.023
4860.058, 3237.743
4861.986, 3261.994
4863.915, 3277.878
4865.843, 3272.554
4867.772, 3246.221
4869.700, 3235.692
4871.629, 3261.970
4873.557, 3236.401
4875.486, 3213.924
4877.414, 3218.642
4879.343, 3182.193
4881.271, 3166.397
4883.200, 3217.749
4885.128, 3187.821
4887.057, 3168.309
4888.985, 3204.373
4890.914, 3241.721
4892.842, 3241.021
4894.771, 3175.174
4896.699, 3192.083
4898.627, 3202.591
4900.556, 3157.705
4902.484, 3197.814
4904.413, 3228.673
4906.341, 3194.371
4908.270, 3184.940
4910.198, 3192.496
4912.126, 3212.006
4914.055, 3212.797
4915.983, 3224.688
4917.912, 3259.151
4919.840, 3197.530
4921.769, 3159.473
4923.697, 3219.743
4925.626, 3188.217
4927.554, 3169.578
4929.483, 3205.008
4931.411, 3189.439
4933.340, 3187.043
4935.268, 3228.021
4937.197, 3179.038
4939.125, 3171.668
4941.054, 3246.565
4942.982, 3206.234
4944.911, 3165.692
4946.839, 3167.972
4948.768, 3208.076
4950.696, 3228.389
4952.625, 3211.136
4954.553, 3159.067
4956.481, 3141.377
4958.410, 3161.703
4960.338, 3142.208
4962.267, 3152.495
4964.195, 3194.729
4966.124, 3197.847
4968.052, 3163.569
4969.980, 3127.951
4971.909, 3245.882
4973.837, 3253.260
4975.766, 3165.252
4977.694, 3125.207
4979.623, 3129.014
4981.551, 3147.075
4983.480, 3119.670
4985.408, 3098.916
4987.337, 3098.200
4989.265, 3141.507
4991.194, 3140.413
4993.122, 3127.280
4995.051, 3156.565
4996.979, 3165.438
4998.908, 3156.795
5000.836, 3137.146
5002.765, 3133.615
5004.693, 3119.130
5006.622, 3048.539
5008.550, 3103.799
5010.479, 3148.882
5012.407, 3107.604
5014.335, 3089.167
5016.264, 3090.616
5018.192, 3105.238
5020.121, 3092.058
5022.049, 3062.114
5023.978, 3027.264
5025.906, 3052.176
5027.834, 3063.400
5029.763, 3056.206
5031.691, 3088.948
5033.620, 3100.309
5035.548, 3088.556
5037.477, 3079.559
5039.405, 3060.871
5041.334, 3057.124
5043.262, 3124.564
5045.191, 3130.859
5047.119, 3084.029
5049.048, 2979.132
5050.976, 3003.001
5052.905, 3047.901
5054.833, 3023.256
5056.762, 3035.754
5058.690, 3054.499
5060.619, 3058.463
5062.547, 3027.250
5064.476, 3008.305
5066.404, 3016.705
5068.333, 3010.554
5070.261, 3009.345
5072.189, 3009.872
5074.118, 2964.516
5076.046, 2988.076
5077.975, 3045.931
5079.903, 3025.385
5081.832, 3028.305
5083.760, 3043.030
5085.688, 3041.901
5087.617, 3028.289
5089.545, 3023.683
5091.474, 3044.584
5093.402, 3050.421
5095.331, 3027.656
5097.259, 2972.543
5099.188, 2984.428
5101.116, 2974.086
5103.045, 2932.813
5104.973, 2967.259
5106.902, 2952.370
5108.830, 2907.301
5110.759, 2938.166
5112.687, 2959.434
5114.616, 2966.446
5116.544, 2963.971
5118.473, 2985.158
5120.401, 3003.333
5122.330, 2996.257
5124.258, 2923.474
5126.187, 2907.164
5128.115, 2990.943
5130.043, 2941.252
5131.972, 2908.286
5133.900, 2917.899
5135.829, 2913.719
5137.757, 2910.823
5139.686, 2907.068
5141.614, 2894.583
5143.542, 2871.668
5145.471, 2867.539
5147.399, 2911.474
5149.328, 2938.554
5151.256, 2939.598
5153.185, 2914.865
5155.113, 2875.674
5157.042, 2881.552
5158.970, 2920.066
5160.899, 2875.133
5162.827, 2881.202
5164.756, 2910.134
5166.684, 2883.451
5168.613, 2884.732
5170.541, 2885.371
5172.470, 2856.869
5174.398, 2890.225
5176.327, 2897.485
5178.255, 2849.479
5180.184, 2849.549
5182.112, 2836.904
5184.041, 2807.270
5185.969, 2775.000
5187.897, 2811.939
5189.826, 2862.509
5191.754, 2852.733
5193.683, 2859.959
5195.611, 2882.313
5197.540, 2912.551
5199.468, 2820.186
5201.396, 2790.832
5203.325, 2835.603
5205.253, 2842.691
5207.182, 2812.359
5209.110, 2779.371
5211.039, 2792.271
5212.967, 2796.182
5214.896, 2794.751
5216.824, 2792.502
5218.753, 2823.202
5220.681, 2819.434
5222.610, 2793.655
5224.538, 2866.687
5226.467, 2864.700
5228.395, 2819.813
5230.324, 2808.306
5232.252, 2774.530
5234.181, 2751.895
5236.109, 2758.786
5238.038, 2769.088
5239.966, 2782.976
5241.895, 2801.357
5243.823, 2842.293
5245.751, 2808.080
5247.680, 2751.360
5249.608, 2741.135
5251.537, 2760.510
5253.465, 2770.074
5255.394, 2759.819
5257.322, 2795.171
5259.250, 2803.952
5261.179, 2785.431
5263.107, 2765.742
5265.036, 2765.807
5266.964, 2762.046
5268.893, 2732.613
5270.821, 2772.392
5272.750, 2751.603
5274.678, 2666.493
5276.607, 2658.611
5278.535, 2702.746
5280.464, 2743.751
5282.392, 2712.864
5284.321, 2683.038
5286.249, 2684.869
5288.178, 2726.387
5290.106, 2760.500
5292.035, 2756.049
5293.963, 2733.476
5295.892, 2740.169
5297.820, 2753.334
5299.749, 2763.553
5301.677, 2765.566
5303.605, 2755.393
5305.534, 2710.015
5307.462, 2657.399
5309.391, 2694.279
5311.319, 2709.562
5313.248, 2713.536
5315.176, 2727.134
5317.104, 2702.297
5319.033, 2685.458
5320.961, 2682.776
5322.890, 2637.396
5324.818, 2641.106
5326.747, 2652.575
5328.675, 2613.214
5330.604, 2680.235
5332.532, 2724.495
5334.461, 2701.320
5336.389, 2638.458
5338.318, 2627.934
5340.246, 2657.222
5342.175, 2706.610
5344.103, 2714.106
5346.032, 2683.395
5347.960, 2633.619
5349.889, 2639.043
5351.817, 2658.457
5353.746, 2663.022
5355.674, 2628.143
5357.603, 2655.324
5359.531, 2674.232
5361.459, 2659.141
5363.388, 2647.104
5365.316, 2640.984
5367.245, 2646.044
5369.173, 2668.174
5371.102, 2680.686
5373.030, 2666.734
5374.958, 2636.703
5376.887, 2648.341
5378.815, 2640.116
5380.744, 2633.231
5382.672, 2656.939
5384.601, 2650.379
5386.529, 2640.637
5388.458, 2643.728
5390.386, 2685.953
5392.315, 2673.437
5394.243, 2643.025
5396.172, 2630.609
5398.100, 2605.733
5400.029, 2632.343
5401.957, 2670.548
5403.886, 2582.523
5405.814, 2586.446
5407.743, 2619.433
5409.671, 2635.423
5411.600, 2616.752
5413.528, 2592.731
5415.457, 2579.926
5417.385, 2591.246
5419.313, 2600.319
5421.242, 2586.085
5423.170, 2563.276
5425.099, 2640.318
5427.027, 2585.960
5428.956, 2523.705
5430.884, 2591.764
5432.813, 2559.957
5434.741, 2558.192
5436.669, 2588.737
5438.598, 2584.335
5440.526, 2548.756
5442.455, 2533.905
5444.383, 2558.503
5446.312, 2586.614
5448.240, 2543.874
5450.169, 2494.985
5452.097, 2529.469
5454.026, 2577.760
5455.954, 2589.755
5457.883, 2574.933
5459.811, 2599.660
5461.740, 2563.199
5463.668, 2518.520
5465.597, 2504.801
5467.525, 2521.028
5469.454, 2542.731
5471.382, 2552.809
5473.311, 2537.008
5475.239, 2507.504
5477.167, 2534.399
5479.096, 2580.421
5481.024, 2491.683
5482.953, 2485.912
5484.881, 2518.326
5486.810, 2543.821
5488.738, 2522.370
5490.667, 2519.432
5492.595, 2526.898
5494.523, 2527.284
5496.452, 2528.057
5498.380, 2514.389
5500.309, 2487.212
5502.237, 2444.618
5504.166, 2465.097
5506.094, 2475.895
5508.023, 2468.344
5509.951, 2530.450
5511.880, 2535.514
5513.808, 2533.629
5515.737, 2559.476
5517.665, 2525.894
5519.594, 2521.733
5521.522, 2526.434
5523.451, 2498.736
5525.379, 2513.964
5527.308, 2489.972
5529.236, 2446.901
5531.165, 2473.922
5533.093, 2438.839
5535.021, 2423.164
5536.950, 2447.502
5538.878, 2464.633
5540.807, 2478.760
5542.735, 2502.954
5544.664, 2528.016
5546.592, 2453.694
5548.521, 2430.856
5550.449, 2430.372
5552.377, 2408.394
5554.306, 2444.291
5556.234, 2467.949
5558.163, 2479.989
5560.091, 2503.211
5562.020, 2479.612
5563.948, 2454.237
5565.877, 2444.723
5567.805, 2456.589
5569.734, 2431.869
5571.662, 2436.666
5573.591, 2458.450
5575.519, 2370.951
5577.448, 2428.973
5579.376, 2460.107
5581.305, 2408.327
5583.233, 2465.043
5585.162, 2406.041
5587.090, 2358.701
5589.019, 2394.198
5590.947, 2353.960
5592.875, 2390.076
5594.804, 2436.379
5596.732, 2427.401
5598.661, 2400.755
5600.589, 2371.015
5602.518, 2364.343
5604.446, 2397.500
5606.375, 2419.952
5608.303, 2403.873
5610.231, 2390.589
5612.160, 2438.845
5614.088, 2408.568
5616.017, 2366.292
5617.945, 2349.960
5619.874, 2384.602
5621.802, 2401.663
5623.731, 2378.369
5625.659, 2342.511
5627.588, 2340.114
5629.516, 2318.919
5631.445, 2363.028
5633.373, 2422.298
5635.302, 2376.154
5637.230, 2386.897
5639.159, 2352.098
5641.087, 2294.865
5643.016, 2346.523
5644.944, 2334.391
5646.873, 2342.064
5648.801, 2365.971
5650.729, 2330.005
5652.658, 2359.263
5654.586, 2352.813
5656.515, 2316.954
5658.443, 2335.071
5660.372, 2335.645
5662.300, 2310.100
5664.229, 2285.491
5666.157, 2309.759
5668.085, 2324.124
5670.014, 2326.839
5671.942, 2325.052
5673.871, 2332.276
5675.799, 2306.241
5677.728, 2336.177
5679.656, 2386.437
5681.585, 2318.054
5683.513, 2329.273
5685.442, 2334.061
5687.370, 2315.981
5689.299, 2297.009
5691.227, 2301.228
5693.156, 2306.793
5695.084, 2309.968
5697.013, 2313.317
5698.941, 2261.783
5700.870, 2280.829
5702.798, 2326.804
5704.727, 2315.029
5706.655, 2294.285
5708.583, 2260.896
5710.512, 2262.902
5712.440, 2340.299
5714.369, 2307.546
5716.297, 2278.040
5718.226, 2279.388
5720.154, 2307.367
5722.083, 2299.433
5724.011, 2280.801
5725.939, 2265.300
5727.868, 2257.575
5729.796, 2247.170
5731.725, 2228.682
5733.653, 2241.957
5735.582, 2284.349
5737.510, 2277.366
5739.439, 2208.319
5741.367, 2203.829
5743.296, 2263.050
5745.224, 2248.583
5747.153, 2275.033
5749.081, 2277.264
5751.010, 2258.319
5752.938, 2270.671
5754.867, 2264.177
5756.795, 2247.080
5758.724, 2236.994
5760.652, 2251.573
5762.581, 2226.539
5764.509, 2274.274
5766.438, 2298.217
5768.366, 2220.581
5770.294, 2231.646
5772.223, 2262.485
5774.151, 2259.922
5776.080, 2230.055
5778.008, 2278.688
5779.937, 2260.767
5781.865, 2236.722
5783.793, 2229.932
5785.722, 2218.003
5787.650, 2253.554
5789.579, 2266.044
5791.507, 2235.997
5793.436, 2176.012
5795.364, 2208.124
5797.293, 2219.196
5799.221, 2219.389
5801.150, 2231.930
5803.078, 2219.639
5805.007, 2202.442
5806.935, 2209.975
5808.864, 2238.543
5810.792, 2246.444
5812.721, 2197.679
5814.649, 2158.462
5816.578, 2160.722
5818.506, 2213.458
5820.435, 2174.110
5822.363, 2157.364
5824.292, 2187.427
5826.220, 2245.892
5828.148, 2257.161
5830.077, 2200.976
5832.005, 2184.481
5833.934, 2218.256
5835.862, 2198.263
5837.791, 2158.658
5839.719, 2164.548
5841.647, 2198.264
5843.576, 2214.895
5845.504, 2192.353
5847.433, 2188.373
5849.361, 2197.785
5851.290, 2201.562
5853.218, 2157.411
5855.147, 2181.293
5857.075, 2162.573
5859.004, 2104.937
5860.932, 2092.379
5862.861, 2147.909
5864.789, 2179.270
5866.718, 2179.142
5868.646, 2165.108
5870.575, 2161.005
5872.503, 2120.859
5874.432, 2129.262
5876.360, 2166.290
5878.289, 2120.789
5880.217, 2146.517
5882.146, 2155.550
5884.074, 2142.277
5886.002, 2127.586
5887.931, 2137.098
5889.859, 2100.304
5891.788, 2095.778
5893.716, 2134.810
5895.645, 2165.725
5897.573, 2114.504
5899.501, 2105.697
5901.430, 2145.795
5903.358, 2186.407
5905.287, 2107.425
5907.215, 2095.084
5909.144, 2118.209
5911.072, 2126.185
5913.001, 2086.630
5914.929, 2085.200
5916.858, 2085.611
5918.786, 2090.856
5920.715, 2111.425
5922.643, 2175.459
5924.572, 2093.612
5926.500, 2088.449
5928.429, 2126.051
5930.357, 2085.958
5932.286, 2114.013
5934.214, 2101.576
5936.143, 2082.252
5938.071, 2088.121
5940.000, 2147.347
5941.928, 2090.830
5943.856, 2102.372
5945.785, 2129.086
5947.713, 2099.318
5949.642, 2034.590
5951.570, 2023.271
5953.499, 2035.373
5955.427, 2059.309
5957.355, 2093.777
5959.284, 2045.462
5961.212, 2049.017
5963.141, 2059.145
5965.069, 2050.367
5966.998, 2065.346
5968.926, 2072.671
5970.855, 2072.750
5972.783, 2043.887
5974.712, 2052.397
5976.640, 2045.930
5978.569, 2038.849
5980.497, 2052.619
5982.426, 2027.966
5984.354, 2041.406
5986.283, 2039.639
5988.211, 2044.833
5990.140, 2034.955
5992.068, 2029.734
5993.997, 1995.217
5995.925, 2044.146
5997.854, 2051.190
5999.782, 2035.231
6001.710, 2020.776
6003.639, 2018.048
6005.567, 2049.308
6007.496, 2029.270
6009.424, 2003.774
6011.353, 1996.393
6013.281, 1982.539
6015.209, 2012.766
6017.138, 2005.240
6019.066, 1992.801
6020.995, 2008.726
6022.923, 2045.898
6024.852, 1999.963
6026.780, 1972.573
6028.709, 1981.596
6030.637, 2005.444
6032.566, 2006.450
6034.494, 1979.887
6036.423, 2029.662
6038.351, 2047.528
6040.280, 1979.943
6042.208, 2004.451
6044.137, 2009.186
6046.065, 1969.397
6047.994, 1964.339
6049.922, 2023.068
6051.851, 1996.960
6053.779, 2012.769
6055.708, 2020.920
6057.636, 2021.828
6059.564, 1993.793
6061.493, 2003.131
6063.421, 1997.492
6065.350, 1991.238
6067.278, 2005.837
6069.207, 1966.634
6071.135, 1948.494
6073.063, 1984.080
6074.992, 1983.586
6076.920, 1976.716
6078.849, 1993.830
6080.777, 2001.376
6082.706, 1999.920
6084.634, 1959.091
6086.563, 1971.727
6088.491, 1964.539
6090.420, 1957.635
6092.348, 1981.068
6094.277, 1951.852
6096.205, 1977.110
6098.134, 1982.224
6100.062, 1998.224
6101.991, 1994.274
6103.919, 1976.671
6105.848, 1960.626
6107.776, 1925.378
6109.705, 1945.101
6111.633, 1990.423
6113.562, 1983.227
6115.490, 1941.548
6117.418, 1913.623
6119.347, 1930.732
6121.275, 1938.122
6123.204, 1931.389
6125.132, 1931.620
6127.061, 1946.181
6128.989, 1958.637
6130.917, 1908.251
6132.846, 1878.807
6134.774, 1902.595
6136.703, 1930.402
6138.631, 1921.316
6140.560, 1883.256
6142.488, 1935.405
6144.417, 1920.641
6146.345, 1909.528
6148.274, 1921.091
6150.202, 1897.465
6152.131, 1914.015
6154.059, 1922.896
6155.988, 1919.529
6157.916, 1902.802
6159.845, 1881.331
6161.773, 1898.737
6163.702, 1934.638
6165.630, 1917.937
6167.559, 1906.882
6169.487, 1933.335
6171.416, 1937.496
6173.344, 1922.492
6175.272, 1856.342
6177.201, 1854.642
6179.129, 1894.726
6181.058, 1877.869
6182.986, 1864.842
6184.915, 1897.641
6186.843, 1865.055
6188.771, 1838.773
6190.700, 1876.800
6192.628, 1891.839
6194.557, 1950.529
6196.485, 1884.443
6198.414, 1882.967
6200.342, 1933.513
6202.271, 1880.439
6204.199, 1892.583
6206.128, 1888.078
6208.056, 1880.978
6209.985, 1850.947
6211.913, 1806.811
6213.842, 1819.274
6215.770, 1878.139
6217.699, 1874.013
6219.627, 1859.657
6221.556, 1855.363
6223.484, 1853.217
6225.413, 1900.340
6227.341, 1894.253
6229.270, 1878.267
6231.198, 1855.733
6233.126, 1847.251
6235.055, 1887.439
6236.983, 1819.735
6238.912, 1856.295
6240.840, 1907.896
6242.769, 1879.597
6244.697, 1792.889
6246.625, 1797.480
6248.554, 1832.899
6250.482, 1830.628
6252.411, 1855.699
6254.339, 1878.501
6256.268, 1860.538
6258.196, 1877.153
6260.125, 1843.833
6262.053, 1885.184
6263.982, 1860.408
6265.910, 1817.916
6267.839, 1873.824
6269.767, 1828.230
6271.696, 1804.063
6273.624, 1868.262
6275.553, 1827.367
6277.481, 1744.739
6279.410, 1837.254
6281.338, 1828.321
6283.267, 1834.990
6285.195, 1835.626
6287.124, 1814.544
6289.052, 1803.563
6290.980, 1846.844
6292.909, 1772.583
6294.837, 1799.089
6296.766, 1809.897
6298.694, 1818.165
6300.623, 1831.153
6302.551, 1806.161
6304.479, 1783.476
6306.408, 1788.301
6308.336, 1832.459
6310.265, 1803.410
6312.193, 1744.005
6314.122, 1805.899
6316.050, 1802.324
6317.979, 1778.147
6319.907, 1780.261
6321.836, 1799.507
6323.764, 1795.969
6325.693, 1757.631
6327.621, 1798.310
6329.550, 1747.350
6331.478, 1780.109
6333.407, 1789.886
6335.335, 1764.386
6337.264, 1788.767
6339.192, 1842.002
6341.121, 1833.154
6343.049, 1808.658
6344.978, 1786.750
6346.906, 1788.803
6348.834, 1805.716
6350.763, 1744.917
6352.691, 1785.627
6354.620, 1764.945
6356.548, 1756.198
6358.477, 1774.732
6360.405, 1791.073
6362.333, 1785.878
6364.262, 1779.459
6366.190, 1746.260
6368.119, 1808.615
6370.047, 1808.570
6371.976, 1731.886
6373.904, 1731.781
6375.833, 1814.297
6377.761, 1821.767
6379.690, 1801.966
6381.618, 1760.530
6383.547, 1743.091
6385.475, 1766.637
6387.404, 1752.841
6389.332, 1758.483
6391.261, 1748.315
6393.189, 1765.158
6395.118, 1792.790
6397.046, 1800.976
6398.975, 1779.725
6400.903, 1750.009
6402.832, 1719.017
6404.760, 1747.891
6406.688, 1779.178
6408.617, 1786.416
6410.545, 1780.388
6412.474, 1771.214
6414.402, 1751.355
6416.331, 1783.915
6418.259, 1799.453
6420.188, 1753.651
6422.116, 1711.123
6424.044, 1738.244
6425.973, 1740.902
6427.901, 1767.375
6429.830, 1711.824
6431.758, 1759.660
6433.687, 1781.162
6435.615, 1721.946
6437.544, 1718.658
6439.472, 1750.496
6441.401, 1752.373
6443.329, 1766.759
6445.258, 1744.586
6447.186, 1710.094
6449.115, 1700.883
6451.043, 1710.732
6452.972, 1732.411
6454.900, 1728.328
6456.829, 1698.214
6458.757, 1705.083
6460.686, 1747.669
6462.614, 1766.725
6464.542, 1720.681
6466.471, 1742.278
6468.399, 1680.819
6470.328, 1701.817
6472.256, 1724.338
6474.185, 1736.139
6476.113, 1737.799
6478.042, 1698.938
6479.970, 1712.400
6481.898, 1704.895
6483.827, 1696.528
6485.755, 1717.356
6487.684, 1684.388
6489.612, 1704.752
6491.541, 1703.827
6493.469, 1712.645
6495.398, 1700.365
6497.326, 1694.602
6499.255, 1709.943
6501.183, 1713.599
6503.112, 1698.891
6505.040, 1708.328
6506.969, 1674.624
6508.897, 1678.778
6510.826, 1699.264
6512.754, 1685.617
6514.683, 1695.440
6516.611, 1696.324
6518.540, 1656.584
6520.468, 1687.494
6522.396, 1687.850
6524.325, 1656.833
6526.253, 1685.323
6528.182, 1655.761
6530.110, 1640.779
6532.039, 1632.119
6533.967, 1635.613
6535.896, 1624.100
6537.824, 1655.276
6539.752, 1632.703
6541.681, 1614.791
6543.609, 1603.626
6545.538, 1622.197
6547.466, 1661.901
##END=



