##NAMES=Vanadinite
##RRUFFID=R050376
##IDEAL CHEMISTRY=Pb_5_(VO_4_)_3_Cl
##LOCALITY=Morocco
##OWNER=RRUFF
##SOURCE=Eugene Schlepp
##DESCRIPTION=Red hoppered crystal
##STATUS=The identification of this mineral has been confirmed by X-ray diffraction and chemical analysis
##URL=https://www.rruff.net/odr/rruff_sample/R050376
##MEASURED CHEMISTRY=Pb_5.00_(V_1.00_O_4_)_3_Cl_1.00_
##DIFFRACTION SAMPLE DESCRIPTION=Powder
##CELL PARAMETERS=a: 10.3254 b: 10.3254 c: 7.344 alpha: 90 beta: 90 gamma: 120 volume: 678.07 crystal system: hexagonal
##FILETYPE=Raman RAW
##RAMAN WAVELENGTH=780

83.81592, 2520.961
85.74438, 2793.382
87.67285, 3221.400
89.60132, 3726.111
91.52979, 4281.262
93.45825, 4707.749
95.38672, 4771.430
97.31519, 4759.442
99.24365, 4678.631
101.1721, 4559.026
103.1006, 4409.383
105.0291, 4236.078
106.9575, 4044.604
108.8860, 3816.481
110.8145, 3611.800
112.7429, 3418.858
114.6714, 3254.007
116.5999, 3124.021
118.5283, 3025.468
120.4568, 2957.111
122.3853, 2918.411
124.3137, 2907.748
126.2422, 2927.733
128.1707, 2966.045
130.0991, 3021.677
132.0276, 3089.145
133.9561, 3161.778
135.8845, 3247.218
137.8130, 3312.886
139.7415, 3356.558
141.6699, 3382.148
143.5984, 3390.096
145.5269, 3380.759
147.4553, 3353.490
149.3838, 3307.568
151.3123, 3243.892
153.2407, 3158.059
155.1692, 3062.604
157.0977, 2953.133
159.0261, 2841.105
160.9546, 2738.494
162.8831, 2644.807
164.8115, 2565.541
166.7400, 2505.823
168.6685, 2449.024
170.5969, 2392.563
172.5254, 2334.879
174.4539, 2274.949
176.3823, 2212.912
178.3108, 2148.583
180.2393, 2084.489
182.1677, 2012.539
184.0962, 1926.774
186.0247, 1836.934
187.9531, 1748.490
189.8816, 1661.115
191.8101, 1571.786
193.7385, 1478.214
195.6670, 1394.040
197.5955, 1323.761
199.5239, 1259.001
201.4524, 1194.656
203.3809, 1133.265
205.3093, 1078.379
207.2378, 1030.269
209.1663, 990.5768
211.0947, 961.4964
213.0232, 935.9413
214.9517, 910.6466
216.8801, 888.1985
218.8086, 871.4855
220.7371, 859.9590
222.6655, 849.1374
224.5940, 838.4896
226.5225, 831.4043
228.4509, 829.3845
230.3794, 830.7697
232.3079, 835.5409
234.2363, 843.1836
236.1648, 851.7059
238.0933, 861.3457
240.0217, 877.7247
241.9502, 900.2805
243.8787, 933.2347
245.8071, 978.6151
247.7356, 1032.769
249.6641, 1093.355
251.5925, 1160.681
253.5210, 1235.716
255.4495, 1319.713
257.3779, 1404.647
259.3064, 1489.282
261.2349, 1574.327
263.1633, 1653.795
265.0918, 1738.004
267.0203, 1834.225
268.9487, 1944.067
270.8772, 2082.068
272.8057, 2250.117
274.7341, 2448.992
276.6626, 2683.351
278.5911, 2941.438
280.5195, 3232.079
282.4480, 3536.027
284.3765, 3835.528
286.3049, 4134.641
288.2334, 4374.596
290.1619, 4565.086
292.0903, 4678.809
294.0188, 4672.961
295.9473, 4624.514
297.8757, 4559.805
299.8042, 4497.864
301.7327, 4478.296
303.6611, 4490.892
305.5896, 4588.658
307.5181, 4772.697
309.4465, 5028.798
311.3750, 5385.925
313.3035, 5783.167
315.2319, 6213.867
317.1604, 6644.526
319.0889, 6975.694
321.0173, 7220.483
322.9458, 7287.428
324.8743, 7152.935
326.8027, 6892.244
328.7312, 6472.618
330.6597, 5991.531
332.5882, 5487.047
334.5166, 4981.020
336.4451, 4539.933
338.3736, 4162.521
340.3020, 3871.308
342.2305, 3671.446
344.1590, 3547.546
346.0874, 3509.781
348.0159, 3534.957
349.9444, 3627.636
351.8728, 3770.741
353.8013, 3933.635
355.7298, 4117.655
357.6582, 4266.337
359.5867, 4388.699
361.5152, 4436.367
363.4436, 4405.910
365.3721, 4277.046
367.3006, 4006.458
369.2290, 3639.806
371.1575, 3237.663
373.0860, 2806.917
375.0144, 2408.418
376.9429, 2039.833
378.8714, 1727.008
380.7998, 1487.747
382.7283, 1296.305
384.6568, 1154.059
386.5852, 1048.327
388.5137, 971.0867
390.4422, 917.5820
392.3706, 872.2052
394.2991, 834.6151
396.2276, 803.7586
398.1560, 783.1750
400.0845, 764.3685
402.0130, 745.4167
403.9414, 727.5748
405.8699, 713.0633
407.7984, 699.8386
409.7268, 684.2171
411.6553, 666.2386
413.5838, 647.9471
415.5122, 631.9392
417.4407, 610.4677
419.3692, 579.7115
421.2976, 547.2402
423.2261, 514.8217
425.1546, 483.5605
427.0830, 453.7711
429.0115, 426.0079
430.9400, 402.4115
432.8684, 383.3245
434.7969, 367.3901
436.7254, 356.4966
438.6538, 345.5540
440.5823, 332.8850
442.5108, 320.8745
444.4392, 310.9521
446.3677, 302.5155
448.2962, 295.3926
450.2246, 289.4095
452.1531, 282.2183
454.0816, 272.3377
456.0100, 265.2004
457.9385, 262.6450
459.8670, 259.2244
461.7954, 252.5233
463.7239, 245.5655
465.6524, 240.6561
467.5808, 236.3741
469.5093, 230.1702
471.4378, 222.3602
473.3662, 217.2874
475.2947, 215.7132
477.2232, 212.9643
479.1516, 207.9989
481.0801, 203.7757
483.0086, 201.8289
484.9370, 200.2112
486.8655, 197.8196
488.7940, 195.1399
490.7224, 192.6103
492.6509, 190.3060
494.5794, 188.9346
496.5078, 188.5442
498.4363, 187.3878
500.3648, 185.2434
502.2932, 182.5662
504.2217, 178.9383
506.1502, 175.6062
508.0786, 173.3349
510.0071, 171.3719
511.9356, 168.6968
513.8640, 165.8157
515.7925, 164.4106
517.7209, 164.2171
519.6494, 163.1931
521.5779, 161.0262
523.5063, 159.0255
525.4348, 156.8876
527.3633, 156.0022
529.2917, 158.7070
531.2202, 160.4873
533.1487, 157.3192
535.0771, 152.3069
537.0056, 149.6181
538.9341, 148.6876
540.8625, 148.1671
542.7910, 148.0173
544.7195, 148.0022
546.6479, 148.0923
548.5764, 148.3373
550.5049, 149.3014
552.4333, 149.6269
554.3618, 148.1411
556.2903, 146.6575
558.2188, 146.9601
560.1472, 147.7727
562.0757, 146.9508
564.0042, 145.2136
565.9326, 145.5721
567.8611, 148.6230
569.7896, 150.0244
571.7180, 148.1321
573.6465, 146.8908
575.5750, 146.7295
577.5034, 146.8397
579.4319, 147.1246
581.3604, 147.4329
583.2889, 147.4252
585.2173, 147.5930
587.1458, 148.4278
589.0743, 149.9069
591.0027, 152.2424
592.9312, 155.6578
594.8597, 157.4631
596.7881, 156.7224
598.7166, 157.1146
600.6451, 159.4142
602.5735, 161.4420
604.5020, 162.2084
606.4305, 163.1947
608.3589, 165.3981
610.2874, 167.9887
612.2159, 170.7428
614.1443, 173.2337
616.0728, 174.6132
618.0013, 175.0089
619.9297, 175.0637
621.8582, 174.6762
623.7867, 175.3169
625.7151, 177.1714
627.6436, 179.3100
629.5721, 181.9357
631.5005, 183.8420
633.4290, 184.1114
635.3575, 184.2679
637.2859, 184.6795
639.2144, 185.6201
641.1429, 188.0573
643.0714, 190.7380
644.9998, 190.9254
646.9283, 189.5122
648.8568, 190.3752
650.7852, 193.2559
652.7137, 195.5283
654.6422, 196.9322
656.5706, 198.4595
658.4991, 200.2806
660.4276, 202.1981
662.3560, 202.9230
664.2845, 205.5342
666.2130, 212.1357
668.1414, 219.5884
670.0699, 225.5709
671.9984, 231.6588
673.9268, 239.5452
675.8553, 248.8659
677.7838, 258.3048
679.7122, 268.5430
681.6407, 282.2430
683.5692, 299.4706
685.4976, 317.6662
687.4261, 336.5596
689.3546, 356.6645
691.2830, 378.9488
693.2115, 400.9629
695.1400, 421.5580
697.0684, 443.2058
698.9969, 465.8725
700.9254, 490.8400
702.8538, 518.7975
704.7823, 549.4839
706.7108, 583.0196
708.6392, 618.9497
710.5677, 658.4108
712.4962, 699.6732
714.4246, 738.6534
716.3531, 775.2238
718.2816, 801.9099
720.2100, 819.0943
722.1385, 824.4296
724.0670, 816.4846
725.9954, 800.4956
727.9239, 773.7247
729.8524, 745.5012
731.7808, 714.9532
733.7093, 688.7626
735.6378, 666.2015
737.5662, 653.8248
739.4947, 656.2052
741.4232, 669.9603
743.3516, 694.3369
745.2801, 727.6008
747.2086, 767.0333
749.1370, 813.9403
751.0655, 870.8976
752.9940, 938.0174
754.9224, 1015.945
756.8509, 1104.998
758.7794, 1203.519
760.7078, 1311.674
762.6363, 1426.628
764.5648, 1547.261
766.4932, 1681.204
768.4217, 1828.303
770.3502, 1994.813
772.2786, 2182.374
774.2071, 2389.826
776.1356, 2618.491
778.0640, 2865.689
779.9925, 3131.821
781.9210, 3414.572
783.8494, 3722.660
785.7779, 4035.850
787.7064, 4333.712
789.6348, 4625.761
791.5633, 4923.434
793.4918, 5227.608
795.4202, 5541.188
797.3487, 5863.009
799.2772, 6186.303
801.2056, 6513.593
803.1341, 6859.527
805.0626, 7225.233
806.9910, 7623.905
808.9195, 8059.772
810.8480, 8506.591
812.7764, 8968.455
814.7049, 9422.592
816.6334, 9911.185
818.5618, 10312.28
820.4903, 10646.60
822.4188, 10835.93
824.3472, 10886.10
826.2757, 10750.92
828.2042, 10391.31
830.1326, 9870.366
832.0611, 9165.463
833.9896, 8381.186
835.9180, 7549.162
837.8465, 6715.749
839.7750, 5892.353
841.7034, 5116.972
843.6319, 4427.557
845.5604, 3821.361
847.4888, 3297.795
849.4173, 2853.038
851.3458, 2484.669
853.2742, 2186.310
855.2027, 1926.963
857.1312, 1705.974
859.0596, 1517.575
860.9881, 1362.503
862.9166, 1228.187
864.8450, 1115.887
866.7735, 1020.123
868.7020, 942.8846
870.6304, 872.6190
872.5589, 809.2034
874.4874, 749.9190
876.4158, 693.4310
878.3443, 645.7002
880.2728, 609.6642
882.2012, 576.5912
884.1297, 543.8120
886.0582, 514.6457
887.9866, 491.9184
889.9151, 469.3781
891.8436, 443.0453
893.7720, 418.8394
895.7005, 398.4015
897.6290, 381.7816
899.5574, 371.3905
901.4859, 361.8018
903.4144, 349.2526
905.3428, 336.4063
907.2713, 324.2729
909.1998, 314.0247
911.1282, 307.9752
913.0567, 303.3144
914.9852, 296.7539
916.9136, 289.5041
918.8421, 283.7822
920.7706, 278.2058
922.6990, 270.4288
924.6275, 261.0955
926.5560, 250.8849
928.4844, 240.3814
930.4129, 230.6569
932.3414, 221.8143
934.2698, 214.0196
936.1983, 207.3552
938.1268, 202.5414
940.0552, 199.1507
941.9837, 194.9275
943.9122, 190.0114
945.8406, 186.1887
947.7691, 183.4640
949.6976, 180.0529
951.6260, 175.8372
953.5545, 172.7307
955.4830, 171.0011
957.4114, 168.5868
959.3399, 165.2244
961.2684, 162.2502
963.1968, 160.1931
965.1253, 156.6360
967.0538, 150.4025
968.9822, 145.9739
970.9107, 143.8696
972.8392, 142.2652
974.7676, 141.5528
976.6961, 140.1032
978.6246, 137.6349
980.5530, 134.9415
982.4815, 131.6229
984.4100, 129.8857
986.3384, 130.6505
988.2669, 130.6549
990.1954, 129.3744
992.1238, 127.3285
994.0523, 124.3295
995.9808, 121.5458
997.9092, 118.8507
999.8377, 118.0017
1001.766, 120.1170
1003.695, 121.2519
1005.623, 120.0742
1007.552, 119.3584
1009.480, 120.2621
1011.409, 119.9350
1013.337, 116.8034
1015.265, 115.1977
1017.194, 117.2528
1019.122, 117.8459
1021.051, 114.6155
1022.979, 112.6253
1024.908, 114.0900
1026.836, 114.5728
1028.765, 111.8410
1030.693, 110.6726
1032.622, 113.4078
1034.550, 115.2772
1036.479, 114.6088
1038.407, 114.1126
1040.335, 114.1582
1042.264, 114.8521
1044.192, 117.2303
1046.121, 118.4306
1048.049, 117.2157
1049.978, 116.0600
1051.906, 114.8868
1053.835, 114.6628
1055.763, 116.1407
1057.692, 117.5377
1059.620, 118.9402
1061.549, 119.5864
1063.477, 118.2059
1065.406, 118.1900
1067.334, 121.4172
1069.262, 123.3872
1071.191, 123.3495
1073.120, 122.4382
1075.048, 119.0958
1076.976, 118.0688
1078.905, 121.2422
1080.833, 123.9494
1082.762, 126.1375
1084.690, 127.2848
1086.619, 127.0454
1088.547, 126.3624
1090.476, 125.1108
1092.404, 123.9959
1094.333, 122.9136
1096.261, 122.3679
1098.190, 122.5700
1100.118, 122.7324
1102.047, 122.9943
1103.975, 122.1897
1105.903, 120.0515
1107.832, 118.4127
1109.760, 117.2985
1111.689, 116.9510
1113.617, 117.5273
1115.546, 116.4479
1117.474, 113.5729
1119.403, 113.1777
1121.331, 115.1778
1123.260, 115.9200
1125.188, 115.5466
1127.117, 115.5243
1129.045, 115.7202
1130.974, 115.2859
1132.902, 114.3676
1134.830, 114.0359
1136.759, 113.9053
1138.687, 111.9803
1140.616, 109.3275
1142.544, 109.2768
1144.473, 110.2099
1146.401, 108.2684
1148.330, 105.2259
1150.258, 104.3010
1152.187, 104.4296
1154.115, 104.2482
1156.044, 103.9266
1157.972, 103.6618
1159.901, 103.1474
1161.829, 101.8593
1163.757, 100.5777
1165.686, 99.88011
1167.614, 99.75038
1169.543, 100.5679
1171.471, 100.9294
1173.400, 99.62246
1175.328, 98.74447
1177.257, 100.1029
1179.185, 100.4468
1181.114, 97.25060
1183.042, 95.48802
1184.971, 97.90153
1186.899, 98.77758
1188.828, 95.99821
1190.756, 94.22670
1192.684, 94.12691
1194.613, 94.48805
1196.541, 95.65022
1198.470, 96.08484
1200.398, 95.60809
1202.327, 95.67966
1204.255, 96.30644
1206.184, 96.06992
1208.112, 95.11069
1210.041, 94.07377
1211.969, 93.12464
1213.898, 93.73376
1215.826, 95.33104
1217.755, 95.97008
1219.683, 96.24638
1221.611, 97.77728
1223.540, 99.61768
1225.468, 99.86540
1227.397, 99.62044
1229.325, 100.6016
1231.254, 101.6165
1233.182, 101.5546
1235.111, 101.4746
1237.039, 101.2778
1238.968, 101.6988
1240.896, 103.6835
1242.825, 105.5882
1244.753, 106.7197
1246.682, 108.0517
1248.610, 109.7488
1250.538, 111.9187
1252.467, 114.7302
1254.395, 116.4045
1256.324, 116.7895
1258.252, 117.7749
1260.181, 119.3633
1262.109, 120.7382
1264.038, 122.1405
1265.966, 125.0920
1267.895, 128.9082
1269.823, 131.4085
1271.752, 132.9230
1273.680, 133.8957
1275.609, 134.4921
1277.537, 134.6730
1279.465, 135.3633
1281.394, 137.6353
1283.322, 139.8130
1285.251, 140.7517
1287.179, 141.8532
1289.108, 143.9820
1291.036, 145.7448
1292.965, 146.7420
1294.893, 147.4679
1296.822, 147.2902
1298.750, 148.4946
1300.679, 151.7698
1302.607, 153.8493
1304.536, 154.5972
1306.464, 154.9923
1308.392, 155.0938
1310.321, 155.3941
1312.249, 156.1520
1314.178, 157.5583
1316.106, 159.0847
1318.035, 160.8796
1319.963, 162.1094
1321.892, 161.1001
1323.820, 160.5266
1325.749, 162.3766
1327.677, 164.3246
1329.606, 165.3723
1331.534, 165.8597
1333.463, 165.7221
1335.391, 165.9350
1337.319, 167.0356
1339.248, 166.9512
1341.176, 165.0959
1343.105, 164.5397
1345.033, 165.4204
1346.962, 165.8388
1348.890, 165.7742
1350.819, 165.5341
1352.747, 165.7618
1354.676, 167.5122
1356.604, 169.8188
1358.533, 173.1005
1360.461, 174.2845
1362.390, 169.8165
1364.318, 166.7740
1366.246, 167.0863
1368.175, 167.8238
1370.103, 169.1954
1372.032, 169.3244
1373.960, 167.8627
1375.889, 167.1475
1377.817, 167.0382
1379.746, 167.6995
1381.674, 169.0144
1383.603, 170.8854
1385.531, 172.6632
1387.460, 171.7985
1389.388, 170.9232
1391.317, 173.4338
1393.245, 176.3543
1395.173, 178.0830
1397.102, 179.6679
1399.030, 180.3210
1400.959, 182.7205
1402.887, 188.2439
1404.816, 191.3733
1406.744, 191.6885
1408.673, 193.7242
1410.601, 197.4403
1412.530, 201.2327
1414.458, 204.4295
1416.387, 205.8165
1418.315, 207.9310
1420.244, 212.6373
1422.172, 219.0731
1424.100, 227.8310
1426.029, 234.0711
1427.957, 235.7748
1429.886, 238.8757
1431.814, 243.8065
1433.743, 250.4554
1435.671, 259.0591
1437.600, 263.2070
1439.528, 264.0125
1441.457, 266.6326
1443.385, 270.4088
1445.314, 273.4391
1447.242, 275.9073
1449.171, 279.3107
1451.099, 283.4554
1453.027, 287.3448
1454.956, 289.3275
1456.884, 290.1625
1458.813, 291.8015
1460.741, 293.1265
1462.670, 291.7685
1464.598, 289.8379
1466.527, 291.4194
1468.455, 293.6271
1470.384, 293.3919
1472.312, 292.4853
1474.241, 291.0678
1476.169, 291.3564
1478.098, 295.1616
1480.026, 295.8521
1481.954, 292.1605
1483.883, 289.5792
1485.811, 288.7132
1487.740, 290.4296
1489.668, 292.8592
1491.597, 291.1266
1493.525, 287.2896
1495.454, 284.5676
1497.382, 280.9450
1499.311, 274.0435
1501.239, 267.2244
1503.168, 261.8867
1505.096, 255.7268
1507.025, 248.7777
1508.953, 242.7954
1510.881, 236.9769
1512.810, 230.7727
1514.738, 224.7549
1516.667, 218.5119
1518.595, 213.4187
1520.524, 211.5682
1522.452, 209.3450
1524.381, 204.9631
1526.309, 200.3069
1528.238, 195.6888
1530.166, 193.2882
1532.095, 192.1907
1534.023, 189.9521
1535.952, 187.6170
1537.880, 186.2505
1539.808, 186.3333
1541.737, 187.8362
1543.665, 188.8015
1545.594, 188.8675
1547.522, 188.1081
1549.451, 186.7361
1551.379, 186.6566
1553.308, 187.7949
1555.236, 189.4411
1557.165, 190.1983
1559.093, 188.6457
1561.022, 187.7975
1562.950, 188.6807
1564.879, 190.2976
1566.807, 192.3465
1568.735, 193.7519
1570.664, 194.7724
1572.592, 197.5539
1574.521, 200.0929
1576.449, 197.3400
1578.378, 195.1499
1580.306, 198.9402
1582.235, 201.9356
1584.163, 201.4635
1586.092, 202.8497
1588.020, 207.0577
1589.949, 208.6790
1591.877, 207.9036
1593.806, 209.5340
1595.734, 212.2966
1597.662, 213.4405
1599.591, 214.0905
1601.519, 215.6984
1603.448, 218.5542
1605.376, 221.9816
1607.305, 222.8882
1609.233, 222.0740
1611.162, 221.8888
1613.090, 222.9321
1615.019, 226.7083
1616.947, 230.6237
1618.876, 232.8260
1620.804, 233.6487
1622.733, 233.3991
1624.661, 233.6910
1626.589, 234.1606
1628.518, 234.7037
1630.446, 235.7555
1632.375, 237.6826
1634.303, 238.9274
1636.232, 238.4364
1638.160, 237.3779
1640.089, 236.4789
1642.017, 236.0906
1643.946, 235.7972
1645.874, 234.6851
1647.803, 233.1529
1649.731, 232.1163
1651.660, 232.0614
1653.588, 231.7784
1655.516, 230.8152
1657.445, 230.2843
1659.373, 229.8294
1661.302, 228.2133
1663.230, 227.3395
1665.159, 227.4946
1667.087, 228.3449
1669.016, 229.7216
1670.944, 229.3944
1672.873, 228.2644
1674.801, 227.2008
1676.730, 225.6314
1678.658, 223.7798
1680.587, 224.0304
1682.515, 225.4991
1684.443, 225.2308
1686.372, 224.6234
1688.300, 225.7817
1690.229, 226.7803
1692.157, 226.2421
1694.086, 223.2151
1696.014, 219.9145
1697.943, 220.3457
1699.871, 221.3526
1701.800, 218.4944
1703.728, 216.5986
1705.657, 219.7954
1707.585, 220.4068
1709.514, 217.0056
1711.442, 214.9922
1713.370, 214.0202
1715.299, 212.0854
1717.227, 211.2255
1719.156, 213.1443
1721.084, 212.0746
1723.013, 207.4464
1724.941, 206.1205
1726.870, 206.6236
1728.798, 203.7612
1730.727, 200.0809
1732.655, 198.5278
1734.584, 200.0889
1736.512, 203.4496
1738.441, 201.8842
1740.369, 198.8857
1742.297, 200.9266
1744.226, 202.5660
1746.154, 197.6967
1748.083, 193.6495
1750.011, 194.9415
1751.940, 194.8584
1753.868, 192.2003
1755.797, 192.9093
1757.725, 193.4726
1759.654, 191.3979
1761.582, 190.6598
1763.511, 189.5397
1765.439, 188.1150
1767.368, 187.4243
1769.296, 185.7632
1771.224, 184.6448
1773.153, 185.4465
1775.081, 184.6174
1777.010, 182.3134
1778.938, 181.6170
1780.867, 181.9772
1782.795, 179.3067
1784.724, 176.4858
1786.652, 179.2241
1788.581, 180.6907
1790.509, 174.5590
1792.438, 170.9215
1794.366, 170.7631
1796.295, 171.2002
1798.223, 171.2767
1800.151, 167.5435
1802.080, 164.0565
1804.008, 164.1486
1805.937, 162.7863
1807.865, 160.1907
1809.794, 158.8773
1811.722, 157.2580
1813.651, 154.8806
1815.579, 153.2869
1817.508, 152.0018
1819.436, 151.2657
1821.365, 151.1505
1823.293, 150.8451
1825.222, 149.7516
1827.150, 147.0786
1829.078, 145.8496
1831.007, 146.5319
1832.935, 145.0389
1834.864, 142.6885
1836.792, 141.5363
1838.721, 140.4630
1840.649, 139.7822
1842.578, 139.1894
1844.506, 137.9746
1846.435, 137.1822
1848.363, 137.4347
1850.292, 137.0388
1852.220, 135.6929
1854.149, 134.9695
1856.077, 134.6557
1858.005, 134.8072
1859.934, 135.0863
1861.862, 134.9321
1863.791, 135.3413
1865.719, 135.7711
1867.648, 135.8826
1869.576, 135.4691
1871.505, 134.4745
1873.433, 133.6884
1875.362, 133.9077
1877.290, 134.3799
1879.219, 134.0843
1881.147, 135.7852
1883.076, 136.1429
1885.004, 134.2856
1886.932, 134.1288
1888.861, 134.4797
1890.789, 133.1560
1892.718, 132.0473
1894.646, 131.3771
1896.575, 130.6362
1898.503, 130.4798
1900.432, 131.8456
1902.360, 131.9929
1904.289, 129.7654
1906.217, 126.5178
1908.146, 123.4737
1910.074, 124.2378
1912.003, 124.9671
1913.931, 121.4739
1915.859, 119.5503
1917.788, 120.6504
1919.716, 118.1857
1921.645, 114.4600
1923.573, 113.4865
1925.502, 112.9978
1927.430, 112.3231
1929.359, 112.6754
1931.287, 112.1078
1933.216, 109.0918
1935.144, 106.7547
1937.073, 105.6069
1939.001, 103.3480
1940.930, 100.2109
1942.858, 100.4787
1944.786, 101.1183
1946.715, 98.71601
1948.643, 96.22372
1950.572, 94.23045
1952.500, 93.94014
1954.429, 93.95890
1956.357, 92.70192
1958.286, 90.42183
1960.214, 86.35913
1962.143, 85.75272
1964.071, 86.77483
1966.000, 85.01004
1967.928, 83.39137
1969.857, 83.18117
1971.785, 83.08464
1973.714, 82.33315
1975.642, 79.63179
1977.570, 77.62593
1979.499, 77.95034
1981.427, 77.31306
1983.356, 75.82890
1985.284, 75.31732
1987.213, 73.75505
1989.141, 71.99237
1991.070, 72.15444
1992.998, 71.29781
1994.927, 70.61192
1996.855, 69.75625
1998.784, 68.23423
2000.712, 66.76868
2002.641, 66.28142
2004.569, 66.63564
2006.497, 66.04705
2008.426, 66.17538
2010.354, 66.00198
2012.283, 64.82883
2014.211, 63.51257
2016.140, 62.36538
2018.068, 63.26674
2019.997, 63.09182
2021.925, 61.34844
2023.854, 60.52314
2025.782, 60.42213
2027.711, 60.61275
2029.639, 59.52549
2031.568, 58.07203
2033.496, 58.08062
2035.424, 58.43239
2037.353, 58.14409
2039.281, 56.86104
2041.210, 55.99929
2043.138, 56.39736
2045.067, 55.22783
2046.995, 52.84282
2048.924, 52.38555
2050.852, 52.65104
2052.781, 53.30408
2054.709, 53.80007
2056.637, 53.43229
2058.566, 52.02633
2060.495, 50.24445
2062.423, 48.98692
2064.352, 47.71607
2066.280, 47.33187
2068.208, 47.51536
2070.137, 47.06382
2072.065, 46.45438
2073.994, 45.84938
2075.922, 44.86514
2077.851, 45.28611
2079.779, 46.76795
2081.708, 46.55074
2083.636, 45.74788
2085.565, 43.91972
2087.493, 42.69241
2089.422, 43.36983
2091.350, 43.85389
2093.279, 43.58412
2095.207, 43.85124
2097.135, 43.94067
2099.064, 42.91131
2100.992, 42.29428
2102.921, 42.85559
2104.849, 43.02576
2106.778, 42.57684
2108.706, 42.06545
2110.635, 42.90422
2112.563, 43.55827
2114.492, 41.61836
2116.420, 40.44039
2118.349, 40.36712
2120.277, 40.40266
2122.206, 40.41383
2124.134, 40.03444
2126.063, 40.26830
2127.991, 40.51291
2129.919, 39.31335
2131.848, 38.31583
2133.776, 38.37117
2135.705, 39.04954
2137.633, 38.96925
2139.562, 38.11491
2141.490, 37.44445
2143.419, 38.18660
2145.347, 38.91590
2147.276, 38.41936
2149.204, 38.79309
2151.133, 38.51108
2153.061, 36.80639
2154.990, 36.91645
2156.918, 38.32338
2158.846, 38.70157
2160.775, 38.07866
2162.703, 38.16147
2164.632, 37.90824
2166.560, 36.78222
2168.489, 35.62012
2170.417, 36.05578
2172.346, 37.52645
2174.274, 38.20592
2176.203, 37.51206
2178.131, 36.25709
2180.060, 36.75387
2181.988, 37.19267
2183.917, 36.90292
2185.845, 36.88625
2187.773, 36.74202
2189.702, 36.70916
2191.630, 36.48778
2193.559, 37.11306
2195.487, 38.31585
2197.416, 38.01470
2199.344, 36.04192
2201.273, 35.87194
2203.201, 37.22227
2205.130, 36.80102
2207.058, 35.54417
2208.987, 34.91385
2210.915, 35.30830
2212.844, 36.06790
2214.772, 36.27499
2216.700, 34.97406
2218.629, 34.04551
2220.557, 35.06060
2222.486, 35.26732
2224.414, 34.90426
2226.343, 35.16980
2228.271, 35.67895
2230.200, 35.41285
2232.128, 35.66482
2234.057, 35.97771
2235.985, 35.91098
2237.914, 36.28229
2239.842, 35.37459
2241.771, 34.48258
2243.699, 33.74597
2245.627, 33.72741
2247.556, 34.31422
2249.484, 34.34843
2251.413, 35.11189
2253.341, 35.78450
2255.270, 35.79253
2257.198, 34.80498
2259.127, 34.54780
2261.055, 36.64345
2262.984, 37.40411
2264.912, 35.63641
2266.841, 34.92191
2268.769, 35.48139
2270.698, 35.48457
2272.626, 35.61697
2274.554, 35.77426
2276.483, 35.74221
2278.411, 34.94770
2280.340, 34.39317
2282.268, 35.16526
2284.197, 35.82441
2286.125, 34.63145
2288.054, 34.52034
2289.982, 34.88152
2291.911, 35.01752
2293.839, 35.14213
2295.768, 34.18079
2297.696, 33.59679
2299.625, 33.62895
2301.553, 33.92759
2303.481, 34.95421
2305.410, 36.44009
2307.338, 35.54004
2309.267, 33.82477
2311.195, 34.13742
2313.124, 34.31456
2315.052, 33.75391
2316.981, 33.55461
2318.909, 34.53702
2320.838, 34.37507
2322.766, 32.97539
2324.695, 33.25163
2326.623, 34.74351
2328.552, 34.83591
2330.480, 34.83372
2332.408, 35.88071
2334.337, 35.56225
2336.265, 34.89805
2338.194, 33.63689
2340.122, 32.18425
2342.051, 32.41362
2343.979, 33.94893
2345.908, 35.18267
2347.836, 36.06739
2349.765, 35.89161
2351.693, 34.78254
2353.622, 34.67305
2355.550, 34.60845
2357.479, 34.68463
2359.407, 35.48956
2361.335, 36.14592
2363.264, 36.41514
2365.192, 34.98963
2367.121, 33.89917
2369.049, 33.90052
2370.978, 35.18674
2372.906, 35.58188
2374.835, 35.14849
2376.763, 34.45281
2378.692, 33.90453
2380.620, 34.66828
2382.549, 34.94820
2384.477, 34.21941
2386.406, 33.45243
2388.334, 34.08199
2390.262, 34.36201
2392.191, 34.13445
2394.119, 34.52607
2396.048, 36.23500
2397.976, 35.25968
2399.905, 33.32197
2401.833, 33.68218
2403.762, 34.79720
2405.690, 35.63605
2407.619, 34.73132
2409.547, 33.99807
2411.476, 33.66904
2413.404, 33.43655
2415.333, 34.26449
2417.261, 34.75846
2419.189, 34.46645
2421.118, 34.99379
2423.046, 35.61134
2424.975, 35.61920
2426.903, 34.98817
2428.832, 34.18901
2430.760, 33.84746
2432.689, 33.40087
2434.617, 33.85401
2436.546, 34.92159
2438.474, 35.28012
2440.403, 34.16859
2442.331, 34.26424
2444.260, 34.23594
2446.188, 34.27774
2448.116, 35.32931
2450.045, 35.78814
2451.973, 35.02287
2453.902, 35.01056
2455.830, 34.00296
2457.759, 33.63644
2459.687, 34.60367
2461.616, 34.83098
2463.544, 34.94668
2465.473, 34.67117
2467.401, 34.43509
2469.330, 34.88463
2471.258, 34.70443
2473.187, 34.69357
2475.115, 34.70720
2477.043, 34.40631
2478.972, 34.67669
2480.900, 35.45785
2482.829, 36.63932
2484.757, 35.40583
2486.686, 35.07518
2488.614, 36.09242
2490.543, 34.92540
2492.471, 34.78355
2494.400, 35.14127
2496.328, 35.50068
2498.257, 35.83497
2500.185, 35.98537
2502.114, 35.68783
2504.042, 34.77432
2505.970, 33.22872
2507.899, 33.62504
2509.827, 35.00607
2511.756, 34.95475
2513.684, 35.98135
2515.613, 37.63374
2517.541, 36.64664
2519.470, 36.12872
2521.398, 36.36174
2523.327, 34.45147
2525.255, 34.43188
2527.184, 36.05132
2529.112, 36.04171
2531.041, 35.15234
2532.969, 34.97324
2534.897, 36.46067
2536.826, 36.67412
2538.754, 35.42241
2540.683, 36.36313
2542.611, 36.89125
2544.540, 35.61172
2546.468, 35.12621
2548.397, 35.04082
2550.325, 35.80795
2552.254, 36.05395
2554.182, 36.05196
2556.111, 36.45154
2558.039, 37.04532
2559.968, 37.57570
2561.896, 37.00551
2563.824, 36.89274
2565.753, 37.65988
2567.681, 36.72840
2569.610, 36.17397
2571.538, 36.80970
2573.467, 36.43049
2575.395, 36.25454
2577.324, 37.22797
2579.252, 37.23099
2581.181, 36.71333
2583.109, 36.92542
2585.038, 37.80080
2586.966, 36.52112
2588.895, 35.15090
2590.823, 35.07636
2592.751, 35.55862
2594.680, 36.10246
2596.608, 36.91532
2598.537, 36.58152
2600.465, 36.15086
2602.394, 38.23198
2604.322, 37.45345
2606.251, 35.56985
2608.179, 36.62580
2610.108, 36.42936
2612.036, 35.69538
2613.965, 38.63934
2615.893, 38.68484
2617.822, 37.30005
2619.750, 35.61892
2621.678, 35.25923
2623.607, 35.96746
2625.535, 36.20851
2627.464, 36.93594
2629.392, 37.75993
2631.321, 37.98666
2633.249, 37.73509
2635.178, 37.04697
2637.106, 37.30471
2639.035, 37.29908
2640.963, 37.29958
2642.892, 38.42753
2644.820, 37.95871
2646.749, 37.09777
2648.677, 36.49870
2650.605, 37.36968
2652.534, 38.33627
2654.462, 38.14965
2656.391, 38.13128
2658.319, 38.17793
2660.248, 37.98798
2662.176, 36.73951
2664.105, 36.20018
2666.033, 37.42213
2667.962, 38.44151
2669.890, 38.15080
2671.819, 35.89410
2673.747, 37.21422
2675.676, 38.15631
2677.604, 37.40088
2679.532, 36.00751
2681.461, 36.28299
2683.389, 38.04635
2685.318, 37.97660
2687.246, 38.22006
2689.175, 37.92860
2691.103, 37.92782
2693.032, 37.51010
2694.960, 36.75457
2696.889, 37.21918
2698.817, 36.99749
2700.746, 36.30181
2702.674, 37.31449
2704.603, 38.76312
2706.531, 39.17041
2708.459, 37.55993
2710.388, 37.82690
2712.316, 39.08138
2714.245, 39.03363
2716.173, 39.09263
2718.102, 38.65060
2720.030, 36.89341
2721.959, 37.36195
2723.887, 38.32404
2725.816, 39.19369
2727.744, 39.27031
2729.673, 38.66786
2731.601, 38.08939
2733.530, 37.37020
2735.458, 36.59832
2737.386, 36.60820
2739.315, 37.96606
2741.243, 38.64623
2743.172, 39.07954
2745.100, 37.96596
2747.029, 38.00680
2748.957, 38.53230
2750.886, 37.81000
2752.814, 38.14381
2754.743, 38.50755
2756.671, 38.19492
2758.600, 38.12939
2760.528, 37.64002
2762.457, 36.88837
2764.385, 37.47198
2766.313, 37.07250
2768.242, 35.69807
2770.170, 39.71067
2772.099, 40.32148
2774.027, 37.62038
2775.956, 39.26381
2777.884, 39.97843
2779.813, 39.65156
2781.741, 38.62269
2783.670, 37.71911
2785.598, 37.37656
2787.527, 37.45484
2789.455, 38.72912
2791.384, 39.36264
2793.312, 38.60003
2795.240, 38.89135
2797.169, 38.92481
2799.097, 38.91410
2801.026, 38.92532
2802.954, 39.35497
2804.883, 39.68025
2806.811, 38.48383
2808.740, 38.43159
2810.668, 38.75773
2812.597, 38.41333
2814.525, 37.41247
2816.454, 37.20374
2818.382, 38.49459
2820.311, 39.08502
2822.239, 38.42068
2824.167, 37.13640
2826.096, 38.14013
2828.024, 37.61593
2829.953, 37.35492
2831.881, 39.96665
2833.810, 39.18070
2835.738, 38.47816
2837.667, 40.05238
2839.595, 38.07531
2841.524, 37.26382
2843.452, 38.51534
2845.381, 39.07075
2847.309, 38.94304
2849.238, 38.60845
2851.166, 38.94573
2853.094, 38.03997
2855.023, 37.55147
2856.951, 38.65316
2858.880, 39.59070
2860.808, 39.23316
2862.737, 37.86056
2864.665, 38.40583
2866.594, 37.59253
2868.522, 36.46722
2870.451, 38.64920
2872.379, 37.97610
2874.308, 36.98360
2876.236, 37.63694
2878.165, 37.93326
2880.093, 37.42960
2882.021, 36.79727
2883.950, 38.52946
2885.878, 38.97007
2887.807, 38.83329
2889.735, 39.69728
2891.664, 39.24794
2893.592, 38.61597
2895.521, 38.40107
2897.449, 38.06033
2899.378, 37.36788
2901.306, 36.84817
2903.235, 37.71506
2905.163, 37.04120
2907.092, 36.55685
2909.020, 37.72471
2910.948, 39.30675
2912.877, 40.31328
2914.805, 40.40363
2916.734, 39.44956
2918.662, 37.90793
2920.591, 37.05407
2922.519, 37.97421
2924.448, 39.35355
2926.376, 38.97619
2928.305, 36.94779
2930.233, 37.41150
2932.162, 38.56408
2934.090, 39.24612
2936.019, 38.37893
2937.947, 37.48963
2939.875, 37.48865
2941.804, 38.38949
2943.732, 38.84194
2945.661, 38.93431
2947.589, 38.81043
2949.518, 38.77346
2951.446, 37.95148
2953.375, 37.53653
2955.303, 37.98148
2957.232, 36.92809
2959.160, 37.38648
2961.089, 38.59777
2963.017, 38.48351
2964.946, 37.81559
2966.874, 37.11541
2968.802, 36.65461
2970.731, 39.34060
2972.659, 40.69378
2974.588, 39.93275
2976.516, 37.34460
2978.445, 36.46851
2980.373, 36.88514
2982.302, 37.85091
2984.230, 38.50037
2986.159, 38.18678
2988.087, 37.10952
2990.016, 36.00884
2991.944, 37.11689
2993.873, 37.25387
2995.801, 36.32497
2997.729, 37.13462
2999.658, 37.03488
3001.586, 36.48048
3003.515, 36.04856
3005.443, 37.26353
3007.372, 37.46889
3009.300, 37.07195
3011.229, 38.61813
3013.157, 37.34694
3015.086, 36.06542
3017.014, 36.31013
3018.943, 37.68747
3020.871, 36.76231
3022.800, 35.52842
3024.728, 37.28268
3026.656, 36.96099
3028.585, 35.89074
3030.513, 35.25566
3032.442, 37.43461
3034.370, 38.50613
3036.299, 37.90183
3038.227, 35.98283
3040.156, 36.30869
3042.084, 36.04509
3044.013, 35.28808
3045.941, 35.16858
3047.870, 36.13282
3049.798, 35.69951
3051.727, 34.50729
3053.655, 36.24971
3055.583, 35.46590
3057.512, 34.50131
3059.440, 34.77280
3061.369, 36.73097
3063.297, 36.85140
3065.226, 36.01124
3067.154, 36.27162
3069.083, 38.22064
3071.011, 37.66934
3072.940, 35.05108
3074.868, 35.32246
3076.797, 37.43120
3078.725, 37.25258
3080.654, 34.24143
3082.582, 35.93902
3084.510, 35.81487
3086.439, 35.69367
3088.367, 37.60463
3090.296, 36.73236
3092.224, 35.28255
3094.153, 35.04652
3096.081, 36.97367
3098.010, 36.57503
3099.938, 35.77303
3101.867, 35.02140
3103.795, 35.05430
3105.724, 34.02772
3107.652, 33.48728
3109.581, 34.88064
3111.509, 35.85885
3113.438, 35.93128
3115.366, 35.81957
3117.294, 35.96253
3119.223, 33.74625
3121.151, 33.84023
3123.080, 34.67816
3125.008, 34.39137
3126.937, 34.66276
3128.865, 35.28221
3130.794, 35.58662
3132.722, 34.58889
3134.651, 34.30366
3136.579, 34.30857
3138.508, 34.60390
3140.436, 35.06435
3142.365, 36.12910
3144.293, 35.87121
3146.221, 35.22556
3148.150, 35.58368
3150.078, 36.14578
3152.007, 35.14047
3153.935, 33.88942
3155.864, 37.44635
3157.792, 37.24870
3159.721, 35.33281
3161.649, 33.61928
3163.578, 34.94096
3165.506, 34.39582
3167.435, 34.28963
3169.363, 35.44603
3171.292, 34.35977
3173.220, 34.20039
3175.148, 34.55156
3177.077, 34.46893
3179.005, 33.33101
3180.934, 33.79549
3182.862, 34.16080
3184.791, 33.47816
3186.719, 33.25066
3188.648, 32.58631
3190.576, 31.43665
3192.505, 30.71168
3194.433, 33.26083
3196.362, 33.00607
3198.290, 32.15289
3200.219, 32.23776
3202.147, 35.81869
3204.075, 34.38213
3206.004, 33.10994
3207.932, 33.81964
3209.861, 30.55920
3211.789, 30.91559
3213.718, 32.21593
3215.646, 32.49038
3217.575, 31.33366
3219.503, 32.02414
3221.432, 32.55307
3223.360, 32.21976
3225.289, 32.22147
3227.217, 32.24913
3229.146, 32.58144
3231.074, 32.25733
3233.002, 30.70241
3234.931, 32.77752
3236.859, 32.30408
3238.788, 30.70552
3240.716, 33.79526
3242.645, 32.84430
3244.573, 31.16337
3246.502, 29.69425
3248.430, 29.92918
3250.359, 29.10282
3252.287, 29.59394
3254.216, 30.58128
3256.144, 29.63422
3258.073, 31.94872
3260.001, 31.76254
3261.929, 30.70868
3263.858, 30.80300
3265.786, 30.59155
3267.715, 31.83426
3269.643, 31.94419
3271.572, 29.90483
3273.500, 30.26716
3275.429, 30.63123
3277.357, 30.40703
3279.286, 30.27842
3281.214, 31.02576
3283.143, 30.51628
3285.071, 31.01410
3287.000, 31.93927
3288.928, 30.69665
3290.856, 31.21703
3292.785, 30.32603
3294.713, 30.13462
3296.642, 32.54593
3298.570, 30.03698
3300.499, 30.22160
3302.427, 30.48125
3304.356, 29.44337
3306.284, 31.49922
3308.213, 31.94925
3310.141, 32.07700
3312.070, 31.90632
3313.998, 29.85132
3315.927, 31.10006
3317.855, 32.66587
3319.783, 33.08401
3321.712, 32.05655
3323.640, 30.75798
3325.569, 31.48810
3327.497, 31.97600
3329.426, 31.27976
3331.354, 31.12101
3333.283, 31.87300
3335.211, 31.17795
3337.140, 30.87835
3339.068, 33.69275
3340.997, 31.94665
3342.925, 31.70903
3344.854, 31.62432
3346.782, 30.27802
3348.710, 30.16777
3350.639, 30.73019
3352.567, 31.27536
3354.496, 31.33375
3356.424, 30.65712
3358.353, 31.72705
3360.281, 33.08727
3362.210, 33.20884
3364.138, 31.18384
3366.067, 30.19469
3367.995, 32.83119
3369.924, 32.70712
3371.852, 30.62901
3373.781, 32.71219
3375.709, 34.72989
3377.637, 35.19661
3379.566, 33.30274
3381.494, 29.96534
3383.423, 33.06073
3385.351, 33.21476
3387.280, 32.74630
3389.208, 32.65719
3391.137, 31.62938
3393.065, 31.59253
3394.994, 31.46700
3396.922, 30.69249
3398.851, 30.29988
3400.779, 34.10731
3402.708, 34.18551
3404.636, 33.14367
3406.564, 32.36922
3408.493, 32.16131
3410.421, 33.31236
3412.350, 31.70071
3414.278, 31.76167
3416.207, 34.35726
3418.135, 36.02643
3420.064, 33.36614
3421.992, 32.04721
3423.921, 32.00371
3425.849, 32.19939
3427.778, 33.08799
3429.706, 33.63821
3431.635, 33.58282
3433.563, 33.07220
3435.491, 32.59169
3437.420, 32.62637
3439.348, 34.08353
3441.277, 32.84079
3443.205, 30.79117
3445.134, 32.67647
3447.062, 33.91814
3448.991, 31.84023
3450.919, 30.95644
3452.848, 32.60672
3454.776, 34.62574
3456.705, 30.41232
3458.633, 29.77233
3460.562, 30.84547
3462.490, 31.43442
3464.418, 32.69863
3466.347, 31.16236
3468.275, 27.92968
3470.204, 27.45359
3472.132, 30.26406
3474.061, 29.33673
3475.989, 28.11248
3477.918, 28.24107
3479.846, 28.15498
3481.775, 26.93241
3483.703, 26.83301
3485.632, 28.82831
3487.560, 28.10078
3489.489, 26.84217
3491.417, 27.53646
3493.345, 27.28027
3495.274, 27.12292
3497.202, 25.97702
3499.131, 25.24398
3501.059, 25.84627
3502.988, 25.14297
3504.916, 27.35052
3506.845, 27.38003
3508.773, 27.84734
3510.702, 30.31379
3512.630, 26.20603
3514.559, 28.20340
3516.487, 28.42527
3518.416, 26.85363
3520.344, 25.68879
3522.272, 25.82206
3524.201, 24.00476
3526.129, 26.76432
3528.058, 27.68661
3529.986, 24.73149
3531.915, 26.46424
3533.843, 27.11516
3535.772, 25.84926
3537.700, 24.98345
3539.629, 25.33851
3541.557, 25.74068
3543.486, 25.63266
3545.414, 24.15199
3547.343, 23.50112
3549.271, 24.60452
3551.199, 26.48869
3553.128, 25.35717
3555.056, 21.25779
3556.985, 22.62611
3558.913, 26.23268
3560.842, 26.03139
3562.770, 24.47916
3564.699, 22.28518
3566.627, 24.15016
3568.556, 26.01585
3570.484, 24.84211
3572.413, 22.90824
3574.341, 23.73595
3576.270, 22.08770
3578.198, 22.15282
3580.126, 23.91115
3582.055, 23.31310
3583.983, 23.90496
3585.912, 25.40365
3587.840, 25.74857
3589.769, 25.79934
3591.697, 25.86747
3593.626, 22.09818
3595.554, 22.16585
3597.483, 23.16793
3599.411, 22.72813
3601.340, 22.06550
3603.268, 23.91451
3605.197, 21.86234
3607.125, 22.57937
3609.053, 22.58262
3610.982, 21.11040
3612.910, 19.97104
3614.839, 21.74133
3616.767, 22.54025
3618.696, 21.83760
3620.624, 19.51283
3622.553, 18.72709
3624.481, 22.32269
3626.410, 22.43464
3628.338, 21.12090
3630.267, 19.81747
3632.195, 20.23568
3634.124, 21.46485
3636.052, 19.30823
3637.980, 21.11352
3639.909, 22.09501
3641.837, 22.64631
3643.766, 22.45952
3645.694, 20.98570
3647.623, 18.91513
3649.551, 21.29866
3651.480, 20.97794
3653.408, 19.38684
3655.337, 19.63612
3657.265, 22.27306
3659.194, 20.91708
3661.122, 20.70531
3663.051, 20.65884
3664.979, 20.25620
3666.907, 19.46432
3668.836, 18.50937
3670.764, 18.01349
3672.693, 18.65065
3674.621, 18.65333
3676.550, 17.77647
3678.478, 17.51344
3680.407, 18.85233
3682.335, 16.76557
3684.264, 16.73812
3686.192, 17.37739
3688.121, 18.35811
3690.049, 18.96123
3691.978, 18.33176
3693.906, 18.26649
3695.834, 17.85143
3697.763, 18.84671
3699.691, 19.48057
3701.620, 18.99602
3703.548, 18.48306
3705.477, 20.02375
3707.405, 17.38227
3709.334, 16.65884
3711.262, 18.09392
3713.191, 18.40599
3715.119, 16.32044
3717.048, 18.34306
3718.976, 17.61893
3720.905, 18.07388
3722.833, 18.41716
3724.761, 17.78183
3726.690, 16.60376
3728.618, 15.89900
3730.547, 18.00663
3732.475, 18.37111
3734.404, 17.44941
3736.332, 15.80160
3738.261, 15.48775
3740.189, 17.86672
3742.118, 11.05103
3744.046, 14.55839
3745.975, 18.40368
3747.903, 19.20458
3749.832, 17.12654
3751.760, 14.06380
3753.688, 15.73149
3755.617, 14.84312
3757.545, 15.77540
3759.474, 14.60615
3761.402, 14.08573
3763.331, 14.59711
3765.259, 11.10830
3767.188, 13.98508
3769.116, 17.87044
3771.045, 15.83950
3772.973, 13.46277
3774.902, 13.76595
3776.830, 14.93402
3778.759, 14.38643
3780.687, 15.42832
3782.615, 16.69543
3784.544, 16.66306
3786.472, 16.20307
3788.401, 17.06470
3790.329, 18.43831
3792.258, 14.37973
3794.186, 14.67787
3796.115, 13.30829
3798.043, 14.98455
3799.972, 14.06851
3801.900, 12.12142
3803.829, 15.46173
3805.757, 12.23310
3807.686, 14.12004
3809.614, 12.17157
3811.542, 11.81151
3813.471, 12.66974
3815.399, 12.75836
3817.328, 12.40268
3819.256, 12.86757
3821.185, 13.06445
3823.113, 12.69101
3825.042, 13.66416
3826.970, 13.30946
3828.899, 11.79259
3830.827, 11.40195
3832.756, 9.174653
3834.684, 9.339554
3836.613, 11.22593
3838.541, 11.22139
3840.469, 12.50674
3842.398, 14.25701
3844.326, 13.35408
3846.255, 12.07445
3848.183, 13.33615
3850.112, 11.30879
3852.040, 11.72170
3853.969, 11.69265
3855.897, 11.16206
3857.826, 10.92385
3859.754, 10.16322
3861.683, 14.68364
3863.611, 13.80007
3865.540, 11.07363
3867.468, 10.64554
3869.396, 10.56987
3871.325, 11.20518
3873.253, 14.01233
3875.182, 15.83730
3877.110, 12.92757
3879.039, 10.93499
3880.967, 8.209311
3882.896, 10.03371
3884.824, 12.13376
3886.753, 11.41182
3888.681, 10.51727
3890.610, 9.839082
3892.538, 10.55457
3894.467, 8.051951
3896.395, 9.603382
3898.323, 9.136731
3900.252, 8.940563
3902.180, 10.14327
3904.109, 8.588327
3906.037, 8.838488
3907.966, 11.27434
3909.894, 7.189214
3911.823, 9.901330
3913.751, 10.08397
3915.680, 8.550112
3917.608, 8.420757
3919.537, 7.276633
3921.465, 7.929983
3923.394, 9.785280
3925.322, 8.432707
3927.250, 10.51648
3929.179, 10.76858
3931.107, 9.758685
3933.036, 9.503489
3934.964, 9.519883
3936.893, 9.114720
3938.821, 8.827908
3940.750, 10.25278
3942.678, 8.803759
3944.607, 8.768175
3946.535, 8.587501
3948.464, 8.207115
3950.392, 8.645122
3952.321, 9.304430
3954.249, 9.793585
3956.177, 7.072037
3958.106, 7.892390
3960.034, 7.454180
3961.963, 7.911694
3963.891, 8.182515
3965.820, 7.039973
3967.748, 6.300233
3969.677, 7.742145
3971.605, 7.276196
3973.534, 8.321302
3975.462, 7.394475
3977.391, 7.473918
3979.319, 7.031255
3981.248, 7.494245
3983.176, 7.000239
3985.104, 6.139653
3987.033, 7.644328
3988.961, 7.366573
3990.890, 5.161123
3992.818, 2.957013
3994.747, 3.712146
3996.675, 4.624703
3998.604, 5.543414
4000.532, 5.992978
4002.461, 6.452895
4004.389, 6.304778
4006.318, 3.449953
4008.246, 5.948784
4010.175, 7.368248
4012.103, 5.755599
4014.031, 4.585410
4015.960, 3.944278
4017.888, 5.660625
4019.817, 7.081168
4021.745, 5.873101
4023.674, 5.193452
4025.602, 6.622299
4027.531, 4.213931
4029.459, 3.666007
4031.388, 2.598425
4033.316, 6.872839
4035.245, 6.015211
4037.173, 3.562545
4039.102, 4.156431
4041.030, 4.704235
4042.958, 3.589899
4044.887, 3.571329
4046.815, 3.572099
4048.744, 3.366423
4050.672, 5.235602
4052.601, 4.546659
4054.529, 2.720778
4056.458, 3.253613
4058.386, 3.987356
4060.315, 2.661451
4062.243, 2.414586
4064.172, 4.454649
4066.100, 5.184411
4068.029, 3.863484
4069.957, 3.925966
4071.885, 2.842957
4073.814, 3.526606
4075.742, 3.735674
4077.671, 2.743497
4079.599, 2.485820
4081.528, 3.416163
4083.456, 4.088433
4085.385, 4.133121
4087.313, 3.879315
4089.242, 3.967412
4091.170, 5.404143
4093.099, 2.096225
4095.027, 1.018742
4096.956, 1.669241
4098.884, 2.437019
4100.813, 3.074047
4102.741, 2.789644
4104.669, 2.337742
4106.598, 2.095410
4108.526, 1.789892
4110.455, 2.552412
4112.383, 1.642653
4114.312, 2.392467
4116.240, 4.485485
4118.169, 3.702290
4120.097, 2.985672
4122.026, 2.425673
4123.954, 1.771861
4125.883, 2.566729
4127.811, -0.2116681
4129.740, 1.705401
4131.668, 0.7816828
4133.597, 2.502088
4135.525, 0.6974570
4137.454, 1.310748
4139.382, 0.6157116
4141.311, 0.9712243
4143.239, 1.507366
4145.167, 1.266371
4147.096, 0.1791002
4149.024, -0.2768289
4150.953, 2.841801
4152.881, 2.578195
4154.810, 0.1793769
4156.738, 1.009517
4158.667, -3.4271572E-02
4160.595, -0.4173333
4162.523, 2.418874
4164.452, 1.565091
4166.380, 1.758793
4168.309, 0.8139150
4170.237, 0.5099197
4172.166, 1.787602
4174.094, 1.544655
4176.023, 1.281216
4177.951, 1.090705
4179.880, 1.345857
4181.808, 0.2089843
4183.737, 2.648856
4185.665, 1.204229
4187.594, 2.991691
4189.522, 0.4318676
4191.451, 2.336620
4193.379, 1.775042
4195.308, 0.9481818
4197.236, 1.195689
4199.165, 0.5301830
4201.093, -6.9374353E-02
4203.021, 0.6599563
4204.950, 2.206315
4206.878, -1.027072
4208.807, 2.519004
4210.735, -0.3302682
4212.664, 1.622241
4214.592, 0.6432140
4216.521, 1.740615
4218.449, 2.097778
4220.377, 0.8602317
4222.306, 1.587209
4224.234, 0.3947319
4226.163, -0.4525233
4228.091, 1.582664
4230.020, 1.664604
4231.948, -0.1147918
4233.877, 0.7289883
4235.805, -0.5304465
4237.734, 2.025360
4239.662, 2.168056
4241.591, 1.000659
4243.519, -0.5214618
4245.448, 1.276407
4247.376, 1.102785
4249.305, 1.914034
4251.233, 6.5226451E-02
4253.162, 1.584697
4255.090, 2.740973
4257.019, 2.655869
4258.947, 1.134874
4260.875, 0.1566383
4262.804, 9.8705455E-04
4264.732, -0.1853049
4266.661, 1.747443
4268.589, 2.418182
4270.518, -2.604561
4272.446, -0.9459850
4274.375, -2.506617
4276.303, 2.419627
4278.231, 0.8970636
4280.160, -1.490148
4282.088, 9.8640457E-02
4284.017, 1.150185
4285.945, 1.695241
4287.874, 0.6374229
4289.802, 0.2558568
4291.731, 1.246594
4293.659, 3.896551
4295.588, 2.932276
4297.516, 2.392590
4299.445, 1.456873
4301.373, 0.9616434
4303.302, 2.881230
4305.230, 3.219933
4307.159, 2.078049
4309.087, 1.644332
4311.016, 1.095276
4312.944, 0.4046592
4314.873, 4.294600
4316.801, 2.122232
4318.729, 2.958135
4320.658, -0.6336708
4322.586, 5.153281
4324.515, 3.738665
4326.443, 2.246155
4328.372, 1.314324
4330.300, -1.628162
4332.229, 0.7766427
4334.157, -0.6008219
4336.085, 0.6050773
4338.014, -0.6902652
4339.942, 1.297682
4341.871, 0.9229366
4343.799, 1.001217
4345.728, 9.5262211E-03
4347.656, -0.2920421
4349.585, 3.4824122E-02
4351.513, 0.6143494
4353.442, 0.7041992
4355.370, 0.1848116
4357.299, 2.659944
4359.227, 1.536041
4361.156, -1.535491
4363.084, 1.295850
4365.013, -0.3358680
4366.941, -2.835604
4368.870, 2.704218
4370.798, 6.3272312E-02
4372.727, 2.369604
4374.655, 2.271588
4376.583, 0.7406218
4378.512, -0.9995793
4380.440, -0.1711826
4382.369, 0.8372425
##END=



