##NAMES=Varulite
##RRUFFID=R160033
##IDEAL CHEMISTRY=Na_2_Mn(MnFe^3+^)(PO_4_)_3_
##LOCALITY=Nancy Pegmatite, Argentina
##OWNER=RRUFF
##SOURCE=Jaroslav Hyrŝl
##DESCRIPTION=Brown crystals, associated with light brown fillowite
##STATUS=The identification of this mineral is confirmed by single-crystal X-ray diffraction and chemical analysis
##URL=https://www.rruff.net/odr/rruff_sample/R160033
##MEASURED CHEMISTRY=(Na_1.15_Mn^2+^_0. 36_Ca_0.05_)(Mn^2+^_1.20_Mg_0.41_Fe^2+^_0.39_)(Fe^3+^_0.78_Al_0.22_)(PO_4_)_3_
##DIFFRACTION SAMPLE DESCRIPTION=Single crystal, powder profile is calculated
##CELL PARAMETERS=a: 11.9896 b: 12.5003 c: 6.4309 alpha: 90 beta: 114.597 gamma: 90 volume: 876.367 crystal system: monoclinic
##FILETYPE=Raman Processed
##RAMAN WAVELENGTH=532

100.3281, 458.8395
102.2566, 468.7047
104.1851, 478.6914
106.1135, 489.7289
108.0420, 507.7998
109.9705, 529.5640
111.8989, 559.9797
113.8274, 595.6119
115.7559, 629.3412
117.6843, 661.0972
119.6128, 695.0983
121.5413, 734.1937
123.4697, 779.8949
125.3982, 821.7674
127.3267, 858.5748
129.2551, 890.1286
131.1836, 916.8824
133.1121, 934.5778
135.0405, 948.5818
136.9690, 962.0882
138.8975, 973.2610
140.8259, 985.3531
142.7544, 999.8676
144.6829, 1016.161
146.6113, 1030.077
148.5398, 1039.097
150.4683, 1046.170
152.3967, 1053.846
154.3252, 1061.237
156.2537, 1070.425
158.1821, 1083.342
160.1106, 1099.880
162.0391, 1115.384
163.9675, 1127.801
165.8960, 1138.801
167.8245, 1151.064
169.7529, 1165.198
171.6814, 1178.842
173.6099, 1191.061
175.5383, 1201.750
177.4668, 1209.862
179.3953, 1215.175
181.3237, 1217.751
183.2522, 1218.778
185.1807, 1218.240
187.1091, 1216.862
189.0376, 1215.143
190.9661, 1213.214
192.8945, 1211.835
194.8230, 1210.862
196.7515, 1210.731
198.6799, 1212.296
200.6084, 1216.888
202.5369, 1222.201
204.4653, 1227.114
206.3938, 1231.411
208.3223, 1235.468
210.2507, 1239.240
212.1792, 1242.753
214.1077, 1246.174
216.0361, 1249.883
217.9646, 1253.351
219.8931, 1256.216
221.8215, 1258.458
223.7500, 1260.298
225.6785, 1261.923
227.6069, 1263.267
229.5354, 1263.783
231.4639, 1263.730
233.3923, 1262.693
235.3208, 1260.515
237.2493, 1256.716
239.1777, 1252.927
241.1062, 1249.667
243.0347, 1246.994
244.9631, 1244.223
246.8916, 1240.655
248.8201, 1237.593
250.7485, 1235.845
252.6770, 1236.330
254.6055, 1237.048
256.5339, 1237.556
258.4624, 1237.967
260.3909, 1238.958
262.3193, 1241.330
264.2478, 1243.765
266.1763, 1245.332
268.1047, 1244.878
270.0332, 1245.000
271.9617, 1246.599
273.8901, 1249.213
275.8186, 1251.175
277.7471, 1252.709
279.6755, 1253.389
281.6040, 1252.609
283.5325, 1249.987
285.4609, 1247.376
287.3894, 1245.596
289.3179, 1244.422
291.2463, 1242.285
293.1748, 1237.956
295.1033, 1233.485
297.0317, 1230.316
298.9602, 1228.675
300.8887, 1226.432
302.8171, 1222.882
304.7456, 1218.235
306.6741, 1213.172
308.6025, 1207.103
310.5310, 1201.162
312.4595, 1195.956
314.3879, 1191.576
316.3164, 1187.301
318.2449, 1182.749
320.1733, 1178.199
322.1018, 1174.414
324.0303, 1172.193
325.9587, 1169.814
327.8872, 1166.406
329.8157, 1161.717
331.7441, 1157.945
333.6726, 1155.838
335.6011, 1154.633
337.5295, 1153.078
339.4580, 1150.967
341.3865, 1148.742
343.3149, 1146.257
345.2434, 1143.175
347.1719, 1140.899
349.1003, 1139.734
351.0288, 1138.973
352.9573, 1138.004
354.8857, 1136.887
356.8142, 1135.693
358.7427, 1134.570
360.6711, 1133.610
362.5996, 1132.750
364.5281, 1132.576
366.4565, 1132.130
368.3850, 1130.909
370.3135, 1128.903
372.2419, 1126.043
374.1704, 1122.279
376.0989, 1117.683
378.0273, 1112.579
379.9558, 1106.940
381.8843, 1100.938
383.8127, 1094.693
385.7412, 1088.208
387.6697, 1081.583
389.5981, 1074.230
391.5266, 1066.899
393.4551, 1060.497
395.3835, 1054.658
397.3120, 1050.014
399.2405, 1046.671
401.1689, 1044.542
403.0974, 1043.422
405.0259, 1043.850
406.9543, 1044.753
408.8828, 1045.986
410.8113, 1048.232
412.7397, 1048.429
414.6682, 1045.535
416.5967, 1040.338
418.5251, 1034.613
420.4536, 1027.964
422.3821, 1021.286
424.3105, 1014.349
426.2390, 1007.038
428.1675, 1001.541
430.0959, 997.5991
432.0244, 995.6317
433.9529, 996.6423
435.8813, 1001.278
437.8098, 1007.068
439.7383, 1013.551
441.6667, 1020.721
443.5952, 1029.103
445.5237, 1040.248
447.4521, 1051.335
449.3806, 1061.533
451.3091, 1070.989
453.2375, 1078.433
455.1660, 1083.805
457.0945, 1086.851
459.0229, 1087.122
460.9514, 1082.488
462.8799, 1077.022
464.8083, 1070.350
466.7368, 1062.941
468.6653, 1057.178
470.5938, 1054.694
472.5222, 1052.605
474.4507, 1049.388
476.3792, 1044.168
478.3076, 1039.487
480.2361, 1036.307
482.1646, 1033.394
484.0930, 1029.069
486.0215, 1022.526
487.9500, 1016.007
489.8784, 1010.318
491.8069, 1005.367
493.7354, 999.5637
495.6638, 992.9659
497.5923, 985.4035
499.5208, 976.5413
501.4492, 966.2462
503.3777, 956.1625
505.3062, 946.9540
507.2346, 938.0997
509.1631, 928.7540
511.0916, 918.0826
513.0200, 908.5095
514.9485, 901.2823
516.8770, 895.7997
518.8054, 890.3661
520.7339, 884.7312
522.6624, 879.2066
524.5908, 873.5754
526.5193, 867.6194
528.4478, 862.9738
530.3762, 860.1852
532.3047, 858.4636
534.2332, 856.9974
536.1616, 855.0630
538.0901, 854.6140
540.0186, 855.9926
541.9470, 859.1937
543.8755, 863.6703
545.8040, 869.3966
547.7324, 876.8570
549.6609, 885.9613
551.5894, 896.6716
553.5178, 909.9727
555.4463, 926.8622
557.3748, 945.2039
559.3032, 963.7998
561.2317, 982.5831
563.1602, 1001.131
565.0886, 1020.615
567.0171, 1039.220
568.9456, 1054.571
570.8740, 1064.323
572.8025, 1073.391
574.7310, 1081.967
576.6594, 1090.333
578.5879, 1098.991
580.5164, 1107.473
582.4448, 1117.122
584.3733, 1128.104
586.3018, 1140.280
588.2302, 1155.089
590.1587, 1172.379
592.0872, 1192.177
594.0156, 1215.042
595.9441, 1241.248
597.8726, 1267.639
599.8010, 1296.124
601.7295, 1323.597
603.6580, 1345.984
605.5864, 1365.516
607.5149, 1377.230
609.4434, 1377.776
611.3718, 1369.695
613.3003, 1358.294
615.2288, 1342.360
617.1572, 1324.822
619.0857, 1306.839
621.0142, 1288.442
622.9426, 1268.132
624.8711, 1245.013
626.7996, 1220.872
628.7280, 1196.038
630.6565, 1170.280
632.5850, 1146.013
634.5134, 1123.056
636.4419, 1101.790
638.3704, 1082.539
640.2988, 1064.514
642.2273, 1050.083
644.1558, 1040.733
646.0842, 1034.978
648.0127, 1031.053
649.9412, 1030.034
651.8696, 1029.006
653.7981, 1028.086
655.7266, 1026.837
657.6550, 1023.545
659.5835, 1017.553
661.5120, 1010.974
663.4404, 1004.796
665.3689, 998.9257
667.2974, 992.2120
669.2258, 983.1365
671.1543, 974.3097
673.0828, 966.5220
675.0112, 959.6807
676.9397, 954.0057
678.8682, 949.4918
680.7966, 945.9499
682.7251, 943.3448
684.6536, 941.9962
686.5820, 940.0990
688.5105, 937.0414
690.4390, 933.7634
692.3674, 931.3519
694.2959, 930.1020
696.2244, 929.1705
698.1528, 928.4460
700.0813, 928.1161
702.0098, 928.3959
703.9382, 929.5549
705.8667, 930.9586
707.7952, 932.2514
709.7236, 933.6757
711.6521, 935.9813
713.5806, 939.6923
715.5090, 943.2398
717.4375, 945.6209
719.3660, 947.2884
721.2944, 949.7513
723.2229, 953.9378
725.1514, 957.9516
727.0798, 961.0860
729.0083, 963.3593
730.9368, 965.9838
732.8652, 968.9831
734.7937, 972.2838
736.7222, 976.0981
738.6506, 980.4171
740.5791, 984.2507
742.5076, 987.3851
744.4360, 990.1937
746.3645, 992.7920
748.2930, 995.1725
750.2214, 997.4483
752.1499, 999.0854
754.0784, 1001.177
756.0068, 1004.722
757.9353, 1010.129
759.8638, 1014.489
761.7922, 1016.351
763.7207, 1017.928
765.6492, 1020.939
767.5776, 1025.698
769.5061, 1030.486
771.4346, 1035.097
773.3630, 1039.462
775.2915, 1043.594
777.2200, 1047.465
779.1484, 1050.884
781.0769, 1053.326
783.0054, 1055.665
784.9338, 1059.062
786.8623, 1064.432
788.7908, 1068.853
790.7192, 1071.401
792.6477, 1073.166
794.5762, 1075.221
796.5046, 1077.604
798.4331, 1080.211
800.3616, 1082.901
802.2900, 1085.821
804.2185, 1089.237
806.1470, 1093.431
808.0754, 1097.617
810.0039, 1101.624
811.9324, 1105.554
813.8608, 1109.541
815.7893, 1113.573
817.7178, 1117.389
819.6462, 1120.583
821.5747, 1123.539
823.5032, 1126.959
825.4316, 1132.049
827.3601, 1135.802
829.2886, 1136.571
831.2170, 1136.440
833.1455, 1138.527
835.0740, 1144.063
837.0024, 1148.310
838.9309, 1149.160
840.8594, 1148.342
842.7878, 1148.295
844.7163, 1149.825
846.6448, 1151.066
848.5732, 1151.698
850.5017, 1152.056
852.4302, 1152.801
854.3586, 1154.306
856.2871, 1155.019
858.2156, 1154.344
860.1440, 1152.778
862.0725, 1150.788
864.0010, 1147.552
865.9294, 1145.029
867.8579, 1143.862
869.7864, 1143.075
871.7148, 1141.508
873.6433, 1139.157
875.5718, 1135.885
877.5002, 1131.311
879.4287, 1125.901
881.3572, 1120.052
883.2856, 1113.665
885.2141, 1107.300
887.1426, 1100.731
889.0710, 1094.533
890.9995, 1089.395
892.9280, 1085.486
894.8564, 1081.912
896.7849, 1078.222
898.7134, 1075.186
900.6418, 1073.287
902.5703, 1072.593
904.4988, 1072.480
906.4272, 1072.006
908.3557, 1072.533
910.2842, 1075.066
912.2126, 1079.907
914.1411, 1085.019
916.0696, 1088.845
917.9980, 1094.198
919.9265, 1102.821
921.8550, 1114.512
923.7834, 1127.663
925.7119, 1141.617
927.6404, 1158.018
929.5688, 1177.450
931.4973, 1200.089
933.4258, 1226.199
935.3542, 1255.559
937.2827, 1288.167
939.2112, 1324.315
941.1396, 1363.627
943.0681, 1405.368
944.9966, 1450.686
946.9250, 1495.672
948.8535, 1538.766
950.7820, 1580.300
952.7104, 1621.448
954.6389, 1660.006
956.5674, 1700.698
958.4958, 1742.366
960.4243, 1787.316
962.3528, 1839.599
964.2813, 1900.246
966.2097, 1964.132
968.1382, 2029.360
970.0667, 2098.156
971.9951, 2173.688
973.9236, 2259.226
975.8521, 2341.126
977.7805, 2424.451
979.7090, 2498.845
981.6375, 2558.950
983.5659, 2604.897
985.4944, 2625.830
987.4229, 2618.560
989.3513, 2587.801
991.2798, 2531.819
993.2083, 2453.960
995.1367, 2368.344
997.0652, 2270.832
998.9937, 2172.986
1000.922, 2076.807
1002.851, 1983.000
1004.779, 1897.828
1006.708, 1820.963
1008.636, 1751.812
1010.564, 1690.851
1012.493, 1637.876
1014.421, 1591.008
1016.350, 1550.516
1018.278, 1515.392
1020.207, 1487.418
1022.135, 1463.781
1024.064, 1442.299
1025.992, 1423.001
1027.921, 1406.360
1029.849, 1393.391
1031.778, 1381.983
1033.706, 1370.320
1035.635, 1358.299
1037.563, 1349.012
1039.491, 1343.213
1041.420, 1339.125
1043.348, 1336.178
1045.277, 1334.153
1047.205, 1332.737
1049.134, 1331.855
1051.062, 1331.893
1052.991, 1333.180
1054.919, 1335.572
1056.848, 1338.721
1058.776, 1342.365
1060.705, 1347.658
1062.633, 1354.923
1064.562, 1363.745
1066.490, 1373.893
1068.418, 1385.199
1070.347, 1396.882
1072.275, 1408.809
1074.204, 1420.784
1076.132, 1433.299
1078.061, 1446.262
1079.989, 1456.634
1081.918, 1463.662
1083.846, 1468.885
1085.775, 1473.725
1087.703, 1476.870
1089.632, 1474.698
1091.560, 1466.445
1093.489, 1456.251
1095.417, 1444.479
1097.345, 1431.529
1099.274, 1417.412
1101.202, 1402.078
1103.131, 1388.023
1105.059, 1376.255
1106.988, 1365.297
1108.916, 1354.311
1110.845, 1343.283
1112.773, 1333.354
1114.702, 1324.484
1116.630, 1316.334
1118.559, 1309.413
1120.487, 1302.920
1122.416, 1295.494
1124.344, 1287.193
1126.272, 1278.257
1128.201, 1268.043
1130.129, 1257.983
1132.058, 1249.041
1133.986, 1241.288
1135.915, 1234.086
1137.843, 1228.750
1139.772, 1222.369
1141.700, 1213.965
1143.629, 1203.732
1145.557, 1192.363
1147.486, 1178.632
1149.414, 1165.650
1151.343, 1155.487
1153.271, 1145.247
1155.199, 1131.398
1157.128, 1113.981
1159.056, 1096.692
1160.985, 1079.333
1162.913, 1063.256
1164.842, 1049.286
1166.770, 1037.185
1168.699, 1025.400
1170.627, 1014.390
1172.556, 1003.004
1174.484, 990.5731
1176.413, 977.8733
1178.341, 965.9145
1180.270, 954.9649
1182.198, 943.6292
1184.126, 931.6368
1186.055, 919.2933
1187.983, 906.4856
1189.912, 893.4172
1191.840, 880.6186
1193.769, 868.0035
1195.697, 856.3385
1197.626, 845.9971
1199.554, 836.8932
1201.483, 828.8466
1203.411, 821.8124
1205.340, 816.4334
1207.268, 813.1616
1209.197, 810.9130
1211.125, 809.4486
1213.053, 808.5419
1214.982, 807.1967
1216.910, 804.5501
1218.839, 802.6671
1220.767, 803.1398
1222.696, 803.8384
1224.624, 802.1804
1226.553, 798.2791
1228.481, 795.4215
1230.410, 794.6519
1232.338, 794.5047
1234.267, 794.4181
1236.195, 794.3776
1238.124, 794.3425
1240.052, 794.2487
1241.980, 794.0723
1243.909, 793.9006
1245.837, 793.4906
1247.766, 792.4615
1249.694, 790.7182
1251.623, 789.6893
1253.551, 790.2283
1255.480, 790.5056
1257.408, 789.6999
1259.337, 788.3970
1261.265, 787.5231
1263.194, 787.0730
1265.122, 786.8436
1267.051, 787.0881
1268.979, 787.1998
1270.907, 786.7869
1272.836, 785.9641
1274.764, 785.2531
1276.693, 784.6947
1278.621, 784.2599
1280.550, 783.8753
1282.478, 783.6456
1284.407, 783.8275
1286.335, 784.6072
1288.264, 784.5155
1290.192, 782.3228
1292.121, 780.7744
1294.049, 781.1054
1295.978, 782.5211
1297.906, 783.6932
1299.834, 784.6855
1301.763, 785.0905
1303.691, 784.3876
1305.620, 783.5837
1307.548, 783.2253
1309.477, 783.2307
1311.405, 783.5049
1313.334, 784.3348
1315.262, 784.6426
1317.191, 783.3887
1319.119, 782.1718
1321.048, 782.2332
1322.976, 783.6373
1324.905, 784.8679
1326.833, 786.1617
1328.761, 786.8770
1330.690, 786.4738
1332.618, 785.6414
1334.547, 785.2787
1336.475, 785.5711
1338.404, 785.5099
1340.332, 784.2726
1342.261, 783.6835
1344.189, 785.1484
1346.118, 787.3955
1348.046, 788.0206
1349.975, 786.7546
1351.903, 786.2522
1353.832, 787.5726
1355.760, 788.9906
1357.688, 789.6193
1359.617, 789.6850
1361.545, 789.6602
1363.474, 789.5021
1365.402, 789.4661
1367.331, 789.5644
1369.259, 789.8180
1371.188, 790.2670
1373.116, 790.8780
1375.045, 791.5166
1376.973, 792.9366
1378.902, 793.2247
1380.830, 791.0018
1382.759, 788.7318
1384.687, 788.5042
1386.615, 790.1674
1388.544, 791.3124
1390.472, 791.8630
1392.401, 792.0980
1394.329, 791.7288
1396.258, 791.3072
1398.186, 791.4753
1400.115, 792.0587
1402.043, 792.0399
1403.972, 790.9706
1405.900, 790.1492
1407.829, 790.2042
1409.757, 790.5919
1411.686, 790.9134
1413.614, 791.1977
1415.542, 791.4122
1417.471, 791.5117
1419.399, 791.6962
1421.328, 792.0526
1423.256, 792.4061
1425.185, 792.5610
1427.113, 792.4396
1429.042, 792.1871
1430.970, 791.7083
1432.899, 791.1683
1434.827, 790.6104
1436.756, 790.1373
1438.684, 789.9188
1440.613, 790.0701
1442.541, 790.2955
1444.469, 790.6213
1446.398, 791.0620
1448.326, 791.5143
1450.255, 792.0411
1452.183, 792.7734
1454.112, 793.5984
1456.040, 793.8950
1457.969, 793.1103
1459.897, 792.7178
1461.826, 793.6959
1463.754, 794.9021
1465.683, 795.4243
1467.611, 795.3577
1469.540, 794.7969
1471.468, 793.3437
1473.396, 792.6356
1475.325, 793.7668
1477.253, 795.2753
1479.182, 796.1151
1481.110, 796.3307
1483.039, 796.3145
1484.967, 796.1263
1486.896, 795.5876
1488.824, 794.3744
1490.753, 793.1038
1492.681, 791.9701
1494.610, 791.0731
1496.538, 790.9355
1498.467, 791.9982
1500.395, 792.7650
1502.323, 792.9613
1504.252, 792.9208
1506.180, 792.8083
1508.109, 792.6101
1510.037, 792.2423
1511.966, 791.4443
1513.894, 791.1444
1515.823, 791.8676
1517.751, 792.5533
1519.680, 792.7147
1521.608, 792.5912
1523.537, 792.5510
1525.465, 792.5634
1527.394, 792.6783
1529.322, 792.8385
1531.250, 793.1062
1533.179, 793.7038
1535.107, 794.2462
1537.036, 794.0779
1538.964, 793.3049
1540.893, 793.3560
1542.821, 794.9088
1544.750, 795.9047
1546.678, 794.5803
1548.607, 793.4951
1550.535, 795.2352
1552.464, 798.7877
1554.392, 800.7965
1556.321, 800.5217
1558.249, 801.8422
1560.177, 808.5283
1562.106, 813.3860
1564.034, 810.8561
1565.963, 804.4515
1567.891, 799.5651
1569.820, 796.2644
1571.748, 794.3314
1573.677, 794.3207
1575.605, 794.4579
1577.534, 793.7152
1579.462, 792.8502
1581.391, 792.7833
1583.319, 793.4102
1585.248, 793.5593
1587.176, 793.0453
1589.104, 792.4789
1591.033, 792.0046
1592.961, 791.5994
1594.890, 791.2435
1596.818, 790.9305
1598.747, 790.6417
1600.675, 790.3500
1602.604, 790.2216
1604.532, 790.6569
1606.461, 790.9283
1608.389, 790.9934
1610.318, 790.7971
1612.246, 789.9184
1614.175, 788.2166
1616.103, 788.0016
1618.031, 790.2844
1619.960, 792.0427
1621.888, 792.5220
1623.817, 792.3674
1625.745, 791.5508
1627.674, 790.3974
1629.602, 790.0865
1631.531, 791.4492
1633.459, 791.7873
1635.388, 790.7100
1637.316, 789.4464
1639.245, 788.2144
1641.173, 787.1618
1643.102, 786.5163
1645.030, 786.2612
1646.958, 785.8652
1648.887, 784.9113
1650.815, 784.4229
1652.744, 785.0187
1654.672, 785.3798
1656.601, 784.2318
1658.529, 782.6278
1660.458, 782.7278
1662.386, 784.9951
1664.315, 786.2111
1666.243, 785.3842
1668.172, 785.0289
1670.100, 786.0011
1672.029, 787.2344
1673.957, 787.8176
1675.885, 788.0304
1677.814, 788.8153
1679.742, 790.4329
1681.671, 791.8618
1683.599, 793.3641
1685.528, 794.2260
1687.456, 793.5414
1689.385, 792.6048
1691.313, 792.8732
1693.242, 794.1109
1695.170, 794.7186
1697.099, 794.5978
1699.027, 794.1124
1700.956, 792.8930
1702.884, 791.8895
1704.813, 791.7548
1706.741, 791.9143
1708.669, 791.5259
1710.598, 790.6660
1712.526, 790.5671
1714.455, 792.2111
1716.383, 792.7613
1718.312, 790.7024
1720.240, 789.0364
1722.169, 789.4257
1724.097, 790.6849
1726.026, 791.2296
1727.954, 791.0039
1729.883, 790.5927
1731.811, 789.2522
1733.740, 788.9145
1735.668, 791.4393
1737.596, 793.1106
1739.525, 791.9011
1741.453, 789.1656
1743.382, 786.4594
1745.310, 783.8220
1747.239, 782.3140
1749.167, 782.3861
1751.096, 782.7332
1753.024, 783.4626
1754.953, 783.9352
1756.881, 783.7150
1758.810, 782.9943
1760.738, 782.0522
1762.667, 780.9020
1764.595, 779.6744
1766.523, 778.0895
1768.452, 777.1394
1770.380, 777.4670
1772.309, 777.8385
1774.237, 777.5507
1776.166, 777.1757
1778.094, 777.7920
1780.023, 779.1887
1781.951, 778.7379
1783.880, 775.0311
1785.808, 772.6296
1787.737, 772.4750
1789.665, 772.6976
1791.594, 773.0858
1793.522, 773.2722
1795.450, 772.8485
1797.379, 771.8923
1799.307, 770.7861
1801.236, 769.4513
1803.164, 768.3699
1805.093, 767.8431
1807.021, 767.3160
1808.950, 766.5803
1810.878, 766.0045
1812.807, 765.8519
1814.735, 766.0611
1816.664, 766.5602
1818.592, 767.3429
1820.521, 767.5499
1822.449, 766.6707
1824.377, 766.0868
1826.306, 766.3790
1828.234, 766.5986
1830.163, 766.1889
1832.091, 765.4886
1834.020, 764.8985
1835.948, 764.4671
1837.877, 764.4252
1839.805, 765.0123
1841.734, 764.8704
1843.662, 763.0490
1845.591, 761.7937
1847.519, 762.6331
1849.448, 763.8679
1851.376, 763.9409
1853.304, 763.3641
1855.233, 763.4205
1857.161, 764.1610
1859.090, 764.2835
1861.018, 763.4339
1862.947, 762.8338
1864.875, 762.8694
1866.804, 763.2301
1868.732, 763.4820
1870.661, 764.0533
1872.589, 765.7668
1874.518, 768.2979
1876.446, 769.9642
1878.375, 770.6282
1880.303, 770.4082
1882.231, 768.9778
1884.160, 767.1467
1886.088, 764.4654
1888.017, 762.3722
1889.945, 762.5145
1891.874, 763.8267
1893.802, 764.3156
1895.731, 764.0192
1897.659, 763.3904
1899.588, 761.5826
1901.516, 760.9186
1903.445, 762.4177
1905.373, 763.5200
1907.302, 762.9702
1909.230, 762.1431
1911.158, 762.3409
1913.087, 763.0844
1915.015, 763.1390
1916.944, 762.5447
1918.872, 762.2935
1920.801, 762.5116
1922.729, 762.7740
1924.658, 763.1165
1926.586, 763.1329
1928.515, 762.5052
1930.443, 761.5663
1932.372, 760.4481
1934.300, 759.3245
1936.229, 758.5368
1938.157, 758.1101
1940.085, 757.9075
1942.014, 758.0456
1943.942, 757.9063
1945.871, 756.9830
1947.799, 756.2840
1949.728, 756.4668
1951.656, 756.7625
1953.585, 756.7463
1955.513, 756.3527
1957.442, 755.1179
1959.370, 753.0331
1961.299, 752.2535
1963.227, 753.6732
1965.156, 754.7105
1967.084, 754.9747
1969.012, 755.2537
1970.941, 756.0248
1972.869, 756.4216
1974.798, 755.2927
1976.726, 753.6793
1978.655, 753.6971
1980.583, 755.1152
1982.512, 754.3444
1984.440, 750.8213
1986.369, 749.5948
1988.297, 752.4783
1990.226, 754.6351
1992.154, 754.1707
1994.083, 753.3841
1996.011, 753.5004
1997.939, 753.7990
1999.868, 753.1980
2001.796, 752.2644
2003.725, 752.8146
2005.653, 754.8641
2007.582, 755.9202
2009.510, 755.7547
2011.439, 755.0079
2013.367, 752.4863
2015.296, 751.1684
2017.224, 753.0243
2019.153, 755.1107
2021.081, 755.0891
2023.010, 754.0693
2024.938, 753.9226
2026.866, 754.5112
2028.795, 754.4148
2030.723, 753.5568
2032.652, 753.0012
2034.580, 752.9734
2036.509, 753.0045
2038.437, 752.6815
2040.366, 752.7807
2042.294, 753.7302
2044.223, 754.8997
2046.151, 756.1127
2048.080, 757.0021
2050.008, 756.7183
2051.937, 755.6081
2053.865, 755.4761
2055.793, 756.6366
2057.722, 757.1096
2059.650, 756.2582
2061.579, 755.7056
2063.507, 755.8149
2065.436, 756.0724
2067.364, 756.3524
2069.293, 756.4756
2071.221, 756.3678
2073.150, 755.9662
2075.078, 755.0213
2077.007, 753.6455
2078.935, 752.8193
2080.864, 752.6774
2082.792, 752.5090
2084.720, 752.3502
2086.649, 752.1107
2088.577, 751.7170
2090.506, 751.4757
2092.434, 751.6232
2094.363, 751.8649
2096.291, 751.8631
2098.220, 751.7948
2100.148, 751.9085
2102.077, 752.0394
2104.005, 751.8055
2105.934, 751.0918
2107.862, 750.4291
2109.791, 750.2903
2111.719, 749.3976
2113.647, 747.0448
2115.576, 745.3659
2117.504, 745.5750
2119.433, 745.8092
2121.361, 745.1608
2123.290, 744.3059
2125.218, 743.4347
2127.147, 742.8929
2129.075, 743.6981
2131.004, 745.3653
2132.932, 745.8499
2134.861, 744.9903
2136.789, 744.2457
2138.718, 743.5886
2140.646, 743.4656
2142.574, 744.6422
2144.503, 745.3867
2146.431, 744.7990
2148.360, 744.2866
2150.288, 744.9738
2152.217, 745.8206
2154.145, 745.8199
2156.074, 745.2090
2158.002, 744.2066
2159.931, 742.9261
2161.859, 742.5544
2163.788, 743.1182
2165.716, 743.0087
2167.645, 741.8781
2169.573, 741.2001
2171.501, 741.3740
2173.430, 741.9061
2175.358, 743.0390
2177.287, 744.0764
2179.215, 744.8146
2181.144, 745.1646
2183.072, 744.6388
2185.001, 743.8497
2186.929, 743.9322
2188.858, 744.5744
2190.786, 744.5251
2192.715, 743.7644
2194.643, 743.3672
2196.572, 743.4778
2198.500, 743.4034
2200.428, 742.9122
2202.357, 742.9474
2204.285, 744.2265
2206.214, 745.1918
2208.142, 745.0304
2210.071, 744.5531
2211.999, 743.7464
2213.928, 743.2980
2215.856, 744.4807
2217.785, 746.2592
2219.713, 746.6013
2221.642, 745.8005
2223.570, 745.1819
2225.499, 744.7398
2227.427, 744.6985
2229.355, 745.0955
2231.284, 745.0743
2233.212, 744.3635
2235.141, 743.4124
2237.069, 742.3019
2238.998, 740.9554
2240.926, 739.1095
2242.855, 737.4665
2244.783, 736.4642
2246.712, 735.9251
2248.640, 735.9749
2250.569, 736.2568
2252.497, 736.1994
2254.426, 735.9015
2256.354, 735.6608
2258.282, 735.4269
2260.211, 734.9901
2262.139, 734.3055
2264.068, 733.4499
2265.996, 732.2488
2267.925, 731.5038
2269.853, 731.5518
2271.782, 731.6739
2273.710, 732.4939
2275.639, 732.3228
2277.567, 729.4207
2279.496, 726.8593
2281.424, 726.9527
2283.353, 727.5228
2285.281, 726.4640
2287.209, 724.8053
2289.138, 723.9654
2291.066, 723.6967
2292.995, 723.7596
2294.923, 724.0035
2296.852, 722.8201
2298.780, 719.8934
2300.709, 718.3610
2302.637, 718.7292
2304.566, 719.2743
2306.494, 720.2081
2308.423, 720.5997
2310.351, 720.0038
2312.280, 719.4150
2314.208, 719.2994
2316.136, 718.9678
2318.065, 717.6051
2319.993, 716.5613
2321.922, 715.6804
2323.850, 716.6347
2325.779, 719.7582
2327.707, 726.7362
2329.636, 744.6782
2331.564, 767.4127
2333.493, 777.1417
2335.421, 774.7255
2337.350, 764.7153
2339.278, 747.6946
2341.207, 735.3110
2343.135, 728.6130
2345.063, 723.3368
2346.992, 719.6334
2348.920, 715.6917
2350.849, 710.4563
2352.777, 706.3762
2354.706, 703.9430
2356.634, 702.4378
2358.563, 701.5558
2360.491, 701.5297
2362.420, 703.5230
2364.348, 705.0046
2366.277, 703.8725
2368.205, 701.8643
2370.134, 700.2528
2372.062, 699.1866
2373.990, 699.2048
2375.919, 699.8266
2377.847, 699.8127
2379.776, 699.3139
2381.704, 698.9540
2383.633, 698.7691
2385.561, 699.5746
2387.490, 701.3831
2389.418, 701.8311
2391.347, 700.4205
2393.275, 699.7667
2395.204, 700.3632
2397.132, 701.1149
2399.061, 702.5911
2400.989, 702.9412
2402.917, 700.7468
2404.846, 699.1541
2406.774, 699.2073
2408.703, 699.6860
2410.631, 700.4315
2412.560, 701.0536
2414.488, 701.0696
2416.417, 701.1703
2418.345, 702.1603
2420.274, 703.2785
2422.202, 703.5052
2424.131, 703.3663
2426.059, 703.7833
2427.988, 704.4511
2429.916, 704.5714
2431.844, 704.3530
2433.773, 704.6094
2435.701, 705.2299
2437.630, 705.3391
2439.558, 704.9163
2441.487, 704.5081
2443.415, 704.0577
2445.344, 703.9372
2447.272, 704.2090
2449.201, 704.5699
2451.129, 705.0370
2453.058, 705.4139
2454.986, 705.9059
2456.915, 705.4329
2458.843, 702.6964
2460.771, 700.8815
2462.700, 701.8698
2464.628, 702.3624
2466.557, 700.6493
2468.485, 699.0895
2470.414, 698.7758
2472.342, 698.8069
2474.271, 698.7813
2476.199, 698.8275
2478.128, 698.8514
2480.056, 699.1996
2481.985, 701.0626
2483.913, 702.6396
2485.842, 701.0417
2487.770, 698.1124
2489.698, 696.6298
2491.627, 696.2429
2493.555, 696.6588
2495.484, 697.4274
2497.412, 697.1396
2499.341, 696.1232
2501.269, 695.8089
2503.198, 696.1257
2505.126, 696.0231
2507.055, 695.3830
2508.983, 696.0858
2510.912, 698.1639
2512.840, 698.0020
2514.769, 695.2084
2516.697, 693.4171
2518.625, 693.2128
2520.554, 693.1398
2522.482, 692.9495
2524.411, 693.2469
2526.339, 694.5609
2528.268, 695.0970
2530.196, 694.3764
2532.125, 693.7081
2534.053, 693.4877
2535.982, 693.0364
2537.910, 691.2811
2539.839, 690.5837
2541.767, 692.8692
2543.696, 694.3837
2545.624, 692.9023
2547.552, 691.7308
2549.481, 692.8768
2551.409, 693.5385
2553.338, 691.6563
2555.266, 689.6492
2557.195, 688.5945
2559.123, 688.5330
2561.052, 690.1447
2562.980, 691.9957
2564.909, 693.2349
2566.837, 693.6630
2568.766, 692.2136
2570.694, 690.6598
2572.623, 691.0841
2574.551, 692.2692
2576.479, 692.9161
2578.408, 693.1674
2580.336, 693.2228
2582.265, 693.1028
2584.193, 692.8491
2586.122, 692.3858
2588.050, 690.7922
2589.979, 689.1463
2591.907, 690.7113
2593.836, 693.9988
2595.764, 694.3214
2597.693, 692.3809
2599.621, 691.1004
2601.550, 690.4100
2603.478, 689.9781
2605.406, 689.7667
2607.335, 689.3618
2609.263, 688.8592
2611.192, 689.1735
2613.120, 690.2770
2615.049, 690.2390
2616.977, 689.0468
2618.906, 688.4256
2620.834, 688.3566
2622.763, 688.5552
2624.691, 688.9930
2626.620, 688.9030
2628.548, 688.1616
2630.477, 687.6310
2632.405, 687.3119
2634.333, 687.5172
2636.262, 688.3093
2638.190, 688.9698
2640.119, 689.4784
2642.047, 689.0833
2643.976, 687.2907
2645.904, 685.9308
2647.833, 684.8827
2649.761, 685.1730
2651.690, 687.3206
2653.618, 687.8059
2655.547, 685.8783
2657.475, 685.0523
2659.404, 686.3531
2661.332, 686.9186
2663.260, 685.9701
2665.189, 685.5457
2667.117, 685.8987
2669.046, 685.6972
2670.974, 684.5654
2672.903, 684.1042
2674.831, 685.2023
2676.760, 685.4342
2678.688, 684.2404
2680.617, 682.8276
2682.545, 681.0819
2684.474, 679.9190
2686.402, 679.6243
2688.331, 679.2641
2690.259, 678.2160
2692.188, 678.3411
2694.116, 681.3811
2696.044, 682.5758
2697.973, 680.8652
2699.901, 679.7546
2701.830, 679.6703
2703.758, 680.5017
2705.687, 682.9764
2707.615, 684.3043
2709.544, 683.5306
2711.472, 682.5513
2713.401, 681.3038
2715.329, 680.4719
2717.258, 680.2806
2719.186, 680.0745
2721.115, 679.7158
2723.043, 679.5883
2724.971, 679.9317
2726.900, 680.2347
2728.828, 680.4037
2730.757, 680.8831
2732.685, 681.8843
2734.614, 682.1199
2736.542, 680.8153
2738.471, 679.9838
2740.399, 679.9307
2742.328, 679.7520
2744.256, 679.3300
2746.185, 679.5994
2748.113, 681.0260
2750.042, 681.1819
2751.970, 678.9731
2753.898, 677.7411
2755.827, 677.6447
2757.755, 678.3000
2759.684, 679.8690
2761.612, 680.0783
2763.541, 678.4408
2765.469, 677.7479
2767.398, 678.5280
2769.326, 678.6335
2771.255, 677.8969
2773.183, 677.8477
2775.112, 678.5228
2777.040, 678.9250
2778.969, 679.0032
2780.897, 678.3878
2782.825, 677.0002
2784.754, 676.5696
2786.682, 677.0273
2788.611, 676.5662
2790.539, 675.2733
2792.468, 674.4280
2794.396, 674.0164
2796.325, 673.5984
2798.253, 673.1746
2800.182, 672.5908
2802.110, 672.0314
2804.039, 672.6640
2805.967, 673.9719
2807.896, 673.9832
2809.824, 673.1016
2811.752, 672.4879
2813.681, 672.1749
2815.609, 672.5275
2817.538, 672.9929
2819.466, 671.9947
2821.395, 670.6380
2823.323, 671.4625
2825.252, 672.8881
2827.180, 671.8198
2829.109, 670.1896
2831.037, 671.1270
2832.966, 672.3580
2834.894, 670.7103
2836.823, 668.7442
2838.751, 669.6497
2840.679, 670.9198
2842.608, 670.1375
2844.536, 669.2343
2846.465, 669.9590
2848.393, 670.5652
2850.322, 669.6650
2852.250, 668.6085
2854.179, 667.7944
2856.107, 667.6208
2858.036, 668.8509
2859.964, 669.7667
2861.893, 669.4286
2863.821, 668.9219
2865.750, 668.0088
2867.678, 667.9817
2869.606, 669.4389
2871.535, 670.6622
2873.463, 671.4951
2875.392, 671.3865
2877.320, 669.7958
2879.249, 668.8621
2881.177, 668.8752
2883.106, 669.0323
2885.034, 669.1125
2886.963, 670.3464
2888.891, 673.3966
2890.820, 673.6350
2892.748, 671.0057
2894.677, 670.2027
2896.605, 671.1146
2898.533, 670.2878
2900.462, 668.0740
2902.390, 667.4867
2904.319, 668.1085
2906.247, 667.9632
2908.176, 667.2623
2910.104, 666.0789
2912.033, 665.0559
2913.961, 665.8635
2915.890, 667.3478
2917.818, 667.9783
2919.747, 667.9754
2921.675, 667.3604
2923.604, 666.5773
2925.532, 665.7091
2927.460, 665.2805
2929.389, 666.3058
2931.317, 666.9988
2933.246, 666.1569
2935.174, 665.3005
2937.103, 664.5709
2939.031, 664.9996
2940.960, 668.4641
2942.888, 669.2316
2944.817, 664.9597
2946.745, 661.8769
2948.674, 662.2998
2950.602, 661.8923
2952.531, 660.0011
2954.459, 659.6638
2956.387, 661.1018
2958.316, 661.8493
2960.244, 661.6260
2962.173, 660.8484
2964.101, 659.5134
2966.030, 658.1330
2967.958, 656.8109
2969.887, 655.7130
2971.815, 655.0957
2973.744, 656.0818
2975.672, 657.4317
2977.601, 656.4306
2979.529, 654.7690
2981.458, 654.4147
2983.386, 654.1274
2985.314, 652.1545
2987.243, 650.6609
2989.171, 651.8441
2991.100, 652.8598
2993.028, 652.8305
2994.957, 651.8054
2996.885, 648.7015
2998.814, 646.7968
3000.742, 647.0417
3002.671, 647.0313
3004.599, 646.4162
3006.528, 645.3746
3008.456, 643.4630
3010.385, 643.5600
3012.313, 645.5850
3014.241, 644.9689
3016.170, 642.1474
3018.098, 641.7606
3020.027, 643.0399
3021.955, 643.6426
3023.884, 643.4658
3025.812, 641.8843
3027.741, 639.8477
3029.669, 638.1653
3031.598, 637.0486
3033.526, 636.7530
3035.455, 636.9582
3037.383, 637.7708
3039.312, 638.3356
3041.240, 638.0430
3043.168, 637.8448
3045.097, 638.3378
3047.025, 638.0774
3048.954, 636.5879
3050.882, 635.5742
3052.811, 635.2885
3054.739, 635.5107
3056.668, 636.1922
3058.596, 637.1018
3060.525, 638.1010
3062.453, 638.5805
3064.382, 638.7041
3066.310, 639.1365
3068.239, 639.4813
3070.167, 638.9074
3072.095, 637.9528
3074.024, 636.9803
3075.952, 636.0811
3077.881, 635.3899
3079.809, 634.6409
3081.738, 634.0111
3083.666, 632.8130
3085.595, 630.0434
3087.523, 628.5889
3089.452, 629.1434
3091.380, 629.3547
3093.309, 628.8492
3095.237, 628.4392
3097.166, 628.0616
3099.094, 627.0387
3101.022, 625.6823
3102.951, 626.0787
3104.879, 627.1683
3106.808, 626.9648
3108.736, 625.8646
3110.665, 623.7061
3112.593, 621.8790
3114.522, 621.7036
3116.450, 621.8766
3118.379, 621.6783
3120.307, 621.6569
3122.236, 622.0022
3124.164, 622.2917
3126.093, 622.4002
3128.021, 622.3684
3129.949, 622.1611
3131.878, 621.5693
3133.806, 620.6673
3135.735, 620.5707
3137.663, 620.8457
3139.592, 619.5377
3141.520, 617.8168
3143.449, 617.8878
3145.377, 618.4478
3147.306, 618.5072
3149.234, 618.1052
3151.163, 616.5956
3153.091, 615.9628
3155.020, 617.8162
3156.948, 618.4003
3158.876, 615.9526
3160.805, 615.0090
3162.733, 615.8422
3164.662, 616.2722
3166.590, 616.2024
3168.519, 616.2148
3170.447, 616.2922
3172.376, 616.4258
3174.304, 616.5617
3176.233, 616.5037
3178.161, 616.5446
3180.090, 617.2154
3182.018, 617.5926
3183.947, 616.8143
3185.875, 616.4756
3187.803, 618.0448
3189.732, 617.8704
3191.660, 615.3760
3193.589, 614.2635
3195.517, 614.8799
3197.446, 614.5189
3199.374, 613.4855
3201.303, 613.5614
3203.231, 614.1016
3205.160, 614.3334
3207.088, 614.0743
3209.017, 612.4734
3210.945, 611.5043
3212.874, 612.9064
3214.802, 613.5701
3216.730, 611.2588
3218.659, 610.1680
3220.587, 610.6932
3222.516, 610.8204
3224.444, 610.3731
3226.373, 611.0797
3228.301, 612.3514
3230.230, 611.0100
3232.158, 608.7957
3234.087, 608.1376
3236.015, 608.2070
3237.944, 608.6540
3239.872, 608.7226
3241.801, 607.8969
3243.729, 606.9020
3245.657, 605.3433
3247.586, 605.2655
3249.514, 606.8506
3251.443, 607.5671
3253.371, 607.2873
3255.300, 605.4387
3257.228, 603.1255
3259.157, 603.4871
3261.085, 604.4865
3263.014, 604.1061
3264.942, 603.3076
3266.871, 602.4329
3268.799, 601.7553
3270.728, 601.4066
3272.656, 600.9465
3274.584, 600.1658
3276.513, 600.0988
3278.441, 600.5533
3280.370, 599.8575
3282.298, 598.5636
3284.227, 597.8199
3286.155, 597.6508
3288.084, 598.7950
3290.012, 599.2920
3291.941, 596.9802
3293.869, 595.4482
3295.798, 595.7197
3297.726, 595.8748
3299.655, 595.5637
3301.583, 595.1149
3303.511, 594.5926
3305.440, 594.7493
3307.368, 595.1748
3309.297, 595.0246
3311.225, 594.7172
3313.154, 594.9233
3315.082, 594.8064
3317.011, 593.7315
3318.939, 592.7561
3320.868, 591.9764
3322.796, 592.0244
3324.725, 592.8810
3326.653, 592.3903
3328.582, 590.9402
3330.510, 590.5837
3332.438, 590.5828
3334.367, 589.8830
3336.295, 589.2217
3338.224, 589.3494
3340.152, 589.3572
3342.081, 588.7791
3344.009, 588.7167
3345.938, 589.5236
3347.866, 589.5508
3349.795, 588.9274
3351.723, 588.4350
3353.652, 588.0735
3355.580, 588.1699
3357.509, 587.8965
3359.437, 585.6493
3361.365, 584.4809
3363.294, 586.6755
3365.222, 587.9291
3367.151, 587.6461
3369.079, 587.5388
3371.008, 587.6464
3372.936, 586.6629
3374.865, 585.5373
3376.793, 587.1666
3378.722, 588.5690
3380.650, 585.8506
3382.579, 584.0026
3384.507, 585.4364
3386.436, 585.9034
3388.364, 583.8490
3390.292, 583.0270
3392.221, 583.2136
3394.149, 582.6874
3396.078, 581.9974
3398.006, 582.3992
3399.935, 583.0363
3401.863, 583.4189
3403.792, 583.3871
3405.720, 582.5306
3407.649, 581.9625
3409.577, 581.7808
3411.506, 581.4398
3413.434, 581.0954
3415.363, 582.0549
3417.291, 583.4281
3419.219, 584.1703
3421.148, 584.1214
3423.076, 582.6279
3425.005, 581.1201
3426.933, 579.7483
3428.862, 579.4756
3430.790, 580.5091
3432.719, 581.7399
3434.647, 582.7186
3436.576, 581.8668
3438.504, 580.4213
3440.433, 579.5177
3442.361, 578.9667
3444.290, 578.6837
3446.218, 578.6185
3448.146, 578.8426
3450.075, 578.0181
3452.003, 576.4161
3453.932, 576.0504
3455.860, 576.3509
3457.789, 576.6619
3459.717, 576.7822
3461.646, 577.0098
3463.574, 576.1996
3465.503, 573.7361
3467.431, 572.7728
3469.360, 573.5714
3471.288, 574.3751
3473.217, 574.8082
3475.145, 573.3654
3477.073, 571.9891
3479.002, 573.3751
3480.930, 573.4260
3482.859, 570.3701
3484.787, 568.9641
3486.716, 570.0905
3488.644, 571.0237
3490.573, 571.6118
3492.501, 571.5973
3494.430, 570.9136
3496.358, 568.9427
3498.287, 567.2782
3500.215, 566.5531
3502.144, 566.4902
3504.072, 567.1990
3506.000, 567.2925
3507.929, 566.9648
3509.857, 566.7227
3511.786, 566.7267
3513.714, 567.4088
3515.643, 567.8967
3517.571, 567.8201
3519.500, 567.3024
3521.428, 566.3725
3523.357, 566.5870
3525.285, 567.5361
3527.214, 567.6589
3529.142, 567.2316
3531.071, 566.3672
3532.999, 565.4521
3534.927, 564.4678
3536.856, 564.2281
3538.784, 564.8207
3540.713, 563.6314
3542.641, 561.6010
3544.570, 562.5893
3546.498, 563.6876
3548.427, 561.4863
3550.355, 559.7552
3552.284, 559.7596
3554.212, 559.7895
3556.141, 559.6491
3558.069, 559.8518
3559.998, 560.1682
3561.926, 559.7708
3563.854, 559.5678
3565.783, 560.5076
3567.711, 561.3920
3569.640, 561.8948
3571.568, 562.2244
3573.497, 562.3243
3575.425, 561.4703
3577.354, 560.3627
3579.282, 560.4735
3581.211, 560.2350
3583.139, 558.4346
3585.068, 557.8340
3586.996, 559.4019
3588.925, 560.7042
3590.853, 561.5213
3592.781, 561.2828
3594.710, 560.3091
3596.638, 558.2293
3598.567, 556.9390
3600.495, 557.6568
3602.424, 557.6645
3604.352, 556.9164
3606.281, 557.3104
3608.209, 558.2103
3610.138, 558.9033
3612.066, 558.5695
3613.995, 556.0089
3615.923, 554.5199
3617.852, 554.9222
3619.780, 555.6947
3621.708, 556.5300
3623.637, 556.4356
3625.565, 555.8264
3627.494, 554.4627
3629.422, 554.1339
3631.351, 556.7406
3633.279, 557.2379
3635.208, 555.8118
3637.136, 555.3578
3639.065, 555.3956
3640.993, 554.9575
3642.922, 554.6004
3644.850, 554.4064
3646.779, 555.0375
3648.707, 556.5118
3650.635, 555.8673
3652.564, 554.1072
3654.492, 553.7219
3656.421, 553.9645
3658.349, 554.9134
3660.278, 554.8190
3662.206, 553.2602
3664.135, 552.8268
3666.063, 553.3438
3667.992, 553.5978
3669.920, 553.7373
3671.849, 554.1970
3673.777, 553.8453
3675.706, 552.0844
3677.634, 550.7908
3679.563, 550.3024
3681.491, 552.3240
3683.419, 554.3787
3685.348, 552.6555
3687.276, 551.2172
3689.205, 551.8484
3691.133, 552.5579
3693.062, 553.0283
3694.990, 551.5120
3696.919, 549.6848
3698.847, 550.4063
3700.776, 551.3241
3702.704, 551.3265
3704.633, 551.1201
3706.561, 550.7842
3708.490, 551.0784
3710.418, 551.6111
3712.346, 551.8776
3714.275, 551.7879
3716.203, 550.8297
3718.132, 550.6447
3720.060, 551.3656
3721.989, 553.1044
3723.917, 554.5236
3725.846, 552.2057
3727.774, 550.2313
3729.703, 551.2943
3731.631, 551.9113
3733.560, 551.7663
3735.488, 550.7538
3737.417, 549.9596
3739.345, 552.6771
3741.273, 554.1096
3743.202, 550.4958
3745.130, 548.4105
3747.059, 548.2387
3748.987, 548.5773
3750.916, 548.9056
3752.844, 548.1586
3754.773, 547.5278
3756.701, 547.6860
3758.630, 547.3553
3760.558, 546.6766
3762.487, 547.9557
3764.415, 549.4851
3766.344, 548.7916
3768.272, 547.8022
3770.200, 547.2475
3772.129, 547.0387
3774.057, 547.1556
3775.986, 547.3250
3777.914, 547.2557
3779.843, 546.2621
3781.771, 545.7094
3783.700, 546.2468
3785.628, 545.7196
3787.557, 544.9130
3789.485, 547.5596
3791.414, 549.9539
3793.342, 548.8465
3795.271, 547.8726
3797.199, 548.1412
3799.127, 546.5008
3801.056, 544.2301
3802.984, 544.3104
3804.913, 545.0817
3806.841, 545.7795
3808.770, 546.2522
3810.698, 546.4796
3812.627, 545.9701
3814.555, 545.4149
3816.484, 546.1852
3818.412, 546.5372
3820.341, 545.6389
3822.269, 545.4163
3824.198, 545.8191
3826.126, 545.6581
3828.054, 544.7499
3829.983, 541.8102
3831.911, 540.4952
3833.840, 541.7645
3835.768, 543.4501
3837.697, 544.6279
3839.625, 542.2404
3841.554, 540.1546
3843.482, 540.7382
3845.411, 542.2070
3847.339, 544.2043
3849.268, 543.5344
3851.196, 541.9604
3853.125, 541.7039
3855.053, 541.5875
3856.981, 541.2772
3858.910, 540.3776
3860.838, 539.4028
3862.767, 540.9958
3864.695, 542.4689
3866.624, 541.6206
3868.552, 540.4384
3870.481, 539.3134
3872.409, 540.9121
3874.338, 542.8324
3876.266, 540.5463
3878.195, 538.6957
3880.123, 539.4143
3882.052, 540.3517
3883.980, 541.1968
3885.908, 541.0079
3887.837, 540.4743
3889.765, 539.9132
3891.694, 539.7341
3893.622, 539.9996
3895.551, 541.4187
3897.479, 542.8438
3899.408, 542.2938
3901.336, 541.7839
3903.265, 541.9464
3905.193, 541.9824
3907.122, 541.9058
3909.050, 541.8481
3910.979, 541.9576
3912.907, 542.2822
3914.835, 543.3488
3916.764, 544.9524
3918.692, 543.2654
3920.621, 541.2231
3922.549, 542.1132
3924.478, 543.8252
3926.406, 545.9457
3928.335, 544.9885
3930.263, 542.6039
3932.192, 542.0262
3934.120, 541.7926
3936.049, 541.1970
3937.977, 540.9476
3939.906, 540.8754
3941.834, 540.0018
3943.762, 539.5559
3945.691, 540.6052
3947.619, 541.4983
3949.548, 542.1161
3951.476, 543.6995
3953.405, 545.3198
3955.333, 546.0241
3957.262, 546.0052
3959.190, 545.1358
3961.119, 544.6189
3963.047, 544.4168
3964.976, 544.5076
3966.904, 544.6153
3968.833, 544.5950
3970.761, 545.2278
3972.689, 545.8564
3974.618, 543.2244
3976.546, 541.6928
3978.475, 544.7903
3980.403, 546.0248
3982.332, 545.2131
3984.260, 543.7125
3986.189, 542.6547
3988.117, 543.2512
3990.046, 543.5110
3991.974, 543.3047
3993.903, 544.0685
3995.831, 544.7173
3997.760, 543.7222
3999.688, 543.4017
4001.616, 544.4122
4003.545, 544.4441
4005.473, 544.5206
4007.402, 546.8143
4009.330, 548.1945
4011.259, 547.7117
4013.187, 546.8738
4015.116, 546.0544
4017.044, 545.6151
4018.973, 545.8897
4020.901, 547.0847
4022.830, 546.8615
4024.758, 545.7465
4026.687, 545.5161
4028.615, 545.0475
4030.543, 543.3836
4032.472, 543.1628
4034.400, 544.0553
4036.329, 545.1403
4038.257, 545.1562
4040.186, 542.6727
4042.114, 542.3565
4044.043, 543.7958
4045.971, 544.3920
4047.900, 544.5567
4049.828, 544.5364
4051.757, 544.0945
4053.685, 543.5267
4055.614, 545.3797
4057.542, 547.0529
4059.470, 546.2872
4061.399, 545.6051
4063.327, 545.2355
4065.256, 545.2256
4067.184, 545.2391
4069.113, 544.5900
4071.041, 545.3302
4072.970, 547.1037
4074.898, 546.7224
4076.827, 546.3036
4078.755, 548.0432
4080.684, 547.4327
4082.612, 544.4177
4084.541, 542.9464
4086.469, 542.5339
4088.397, 543.0552
4090.326, 544.5418
4092.254, 546.4874
4094.183, 543.6927
4096.111, 541.1312
4098.040, 544.0999
4099.968, 544.5798
4101.896, 542.6227
4103.825, 543.4078
4105.754, 544.6365
4107.682, 544.6186
4109.610, 544.7330
4111.539, 545.0154
4113.468, 544.7663
4115.396, 544.5842
4117.324, 544.7527
4119.253, 545.8205
4121.182, 547.4904
4123.110, 548.3213
4125.038, 548.5525
4126.967, 547.8419
4128.896, 549.1056
4130.824, 551.4918
4132.752, 550.8729
4134.681, 550.3954
4136.609, 552.2295
4138.538, 553.2736
4140.466, 553.6676
4142.395, 553.6907
4144.323, 554.0692
4146.251, 555.1840
4148.180, 556.1963
4150.108, 556.6843
4152.037, 555.3066
4153.965, 555.0251
4155.894, 556.6621
4157.822, 557.4795
4159.751, 557.6821
4161.679, 557.2443
4163.607, 557.8890
4165.536, 559.8542
4167.465, 560.6746
4169.393, 560.6425
4171.321, 559.8880
4173.250, 559.0601
4175.179, 558.4199
4177.107, 560.6407
4179.035, 563.3032
4180.964, 564.4340
4182.893, 565.2590
4184.821, 565.9236
4186.749, 566.6252
4188.678, 567.2806
4190.606, 567.9861
4192.535, 567.9049
4194.463, 567.4595
4196.392, 568.0021
4198.320, 568.4310
4200.249, 568.2781
4202.177, 568.5104
4204.105, 568.9545
4206.034, 569.0628
4207.962, 569.7835
4209.891, 571.2609
4211.819, 572.0074
4213.748, 572.6823
4215.676, 573.7297
4217.604, 575.9965
4219.533, 578.7338
4221.462, 577.2645
4223.390, 575.5978
4225.318, 576.2501
4227.247, 577.6680
4229.176, 579.1337
4231.104, 578.1365
4233.032, 578.7362
4234.961, 582.2889
4236.890, 583.8098
4238.818, 583.8077
4240.746, 582.7546
4242.675, 581.4896
##END=



