##NAMES=Vauquelinite
##RRUFFID=R060926
##IDEAL CHEMISTRY=CuPb_2_(CrO_4_)(PO_4_)(OH)
##LOCALITY=Hardshell mine, Patagonia, Arizona, USA
##OWNER=RRUFF
##SOURCE=Bob Jenkins
##DESCRIPTION=Apple-green tabular crystals
##STATUS=The identification of this mineral has been confirmed only by single crystal X-ray diffraction
##URL=https://www.rruff.net/odr/rruff_sample/R060926
##DIFFRACTION SAMPLE DESCRIPTION=Single crystal, powder profile is calculated
##CELL PARAMETERS=a: 13.821 b: 5.866 c: 9.632 alpha: 90 beta: 94.48 gamma: 90 volume: 778.5 crystal system: monoclinic
##FILETYPE=Raman RAW
##RAMAN WAVELENGTH=785

148.4939, 1999.646
150.4224, 2046.980
152.3508, 2078.147
154.2793, 2092.058
156.2078, 2100.770
158.1362, 2102.416
160.0647, 2103.599
161.9932, 2108.619
163.9216, 2112.633
165.8501, 2108.791
167.7786, 2098.392
169.7070, 2087.408
171.6355, 2076.194
173.5640, 2065.267
175.4924, 2055.700
177.4209, 2045.621
179.3494, 2031.658
181.2778, 2016.516
183.2063, 2005.402
185.1348, 1997.573
187.0632, 1998.704
188.9917, 2023.318
190.9202, 2039.713
192.8486, 2030.426
194.7771, 2010.279
196.7056, 2002.224
198.6340, 2003.130
200.5625, 1987.499
202.4910, 1945.851
204.4194, 1899.576
206.3479, 1845.250
208.2764, 1794.628
210.2048, 1758.138
212.1333, 1730.404
214.0618, 1701.001
215.9902, 1669.311
217.9187, 1639.254
219.8472, 1611.676
221.7756, 1585.316
223.7041, 1558.542
225.6326, 1533.914
227.5610, 1514.042
229.4895, 1498.313
231.4180, 1486.059
233.3464, 1479.583
235.2749, 1469.568
237.2034, 1451.325
239.1318, 1434.133
241.0603, 1422.248
242.9888, 1413.527
244.9172, 1405.139
246.8457, 1397.251
248.7742, 1391.244
250.7026, 1387.127
252.6311, 1385.400
254.5596, 1389.081
256.4880, 1391.742
258.4165, 1385.195
260.3450, 1378.056
262.2734, 1383.118
264.2019, 1400.494
266.1304, 1417.426
268.0588, 1433.936
269.9873, 1448.309
271.9158, 1451.868
273.8442, 1462.244
275.7727, 1494.267
277.7012, 1538.408
279.6296, 1581.371
281.5581, 1622.934
283.4866, 1663.908
285.4150, 1695.852
287.3435, 1740.170
289.2720, 1803.943
291.2004, 1875.705
293.1289, 1949.215
295.0574, 2026.318
296.9858, 2110.188
298.9143, 2201.114
300.8428, 2293.585
302.7712, 2380.367
304.6997, 2479.999
306.6282, 2576.319
308.5566, 2705.719
310.4851, 2868.212
312.4136, 3090.637
314.3420, 3403.729
316.2705, 3807.245
318.1990, 4287.859
320.1274, 4852.522
322.0559, 5492.237
323.9844, 6230.910
325.9128, 7015.013
327.8413, 7858.866
329.7697, 8707.670
331.6982, 9536.952
333.6267, 10330.33
335.5551, 10984.55
337.4836, 11468.22
339.4121, 11867.61
341.3405, 12175.47
343.2690, 12419.13
345.1975, 12609.87
347.1259, 12734.31
349.0544, 12840.39
350.9829, 12864.15
352.9113, 12640.45
354.8398, 12155.41
356.7683, 11470.01
358.6967, 10443.45
360.6252, 9460.170
362.5537, 8483.172
364.4821, 7659.097
366.4106, 7100.269
368.3391, 6727.006
370.2675, 6489.358
372.1960, 6377.360
374.1245, 6273.382
376.0529, 6214.282
377.9814, 6077.223
379.9099, 5864.245
381.8383, 5571.424
383.7668, 5161.959
385.6953, 4708.580
387.6237, 4229.551
389.5522, 3758.362
391.4807, 3352.787
393.4091, 3013.154
395.3376, 2740.849
397.2661, 2549.353
399.1945, 2391.174
401.1230, 2268.739
403.0515, 2169.427
404.9799, 2101.913
406.9084, 2041.293
408.8369, 1964.817
410.7654, 1881.122
412.6938, 1812.601
414.6223, 1761.191
416.5508, 1710.043
418.4792, 1660.659
420.4077, 1607.683
422.3362, 1543.922
424.2646, 1487.731
426.1931, 1448.651
428.1216, 1419.826
430.0500, 1398.425
431.9785, 1382.255
433.9070, 1365.113
435.8354, 1346.256
437.7639, 1336.375
439.6924, 1337.701
441.6208, 1339.615
443.5493, 1341.508
445.4778, 1342.445
447.4062, 1340.952
449.3347, 1339.603
451.2632, 1339.445
453.1916, 1340.917
455.1201, 1347.789
457.0486, 1359.443
458.9770, 1357.984
460.9055, 1343.218
462.8340, 1316.995
464.7624, 1276.515
466.6909, 1231.654
468.6194, 1182.443
470.5478, 1134.704
472.4763, 1090.957
474.4048, 1050.861
476.3332, 1013.131
478.2617, 978.7061
480.1902, 952.8088
482.1186, 936.8494
484.0471, 917.1614
485.9756, 891.8528
487.9040, 869.8815
489.8325, 854.0313
491.7610, 839.8834
493.6894, 825.5101
495.6179, 812.3092
497.5464, 803.1105
499.4748, 794.5989
501.4033, 779.5515
503.3318, 759.7999
505.2602, 748.4289
507.1887, 745.9058
509.1172, 744.0382
511.0456, 743.6058
512.9741, 738.0638
514.9026, 721.5928
516.8311, 707.4921
518.7595, 704.3816
520.6880, 702.5728
522.6165, 694.0457
524.5449, 683.6505
526.4734, 679.4474
528.4019, 680.3555
530.3303, 680.4481
532.2588, 679.7722
534.1873, 678.4238
536.1157, 676.2520
538.0442, 674.4389
539.9727, 675.1257
541.9011, 672.1204
543.8296, 658.8917
545.7581, 646.1481
547.6865, 639.2801
549.6150, 636.4360
551.5435, 636.6827
553.4719, 638.9609
555.4004, 641.6125
557.3289, 644.1091
559.2573, 638.8550
561.1858, 624.6992
563.1143, 615.2290
565.0427, 613.3852
566.9712, 613.4288
568.8997, 614.6655
570.8281, 616.0320
572.7566, 618.7577
574.6851, 619.6705
576.6135, 616.3103
578.5419, 609.8889
580.4704, 599.3969
582.3989, 587.6320
584.3273, 585.2047
586.2558, 590.7626
588.1843, 593.0799
590.1127, 591.0692
592.0412, 592.1215
593.9697, 599.2659
595.8981, 603.7231
597.8266, 601.0563
599.7551, 598.2606
601.6835, 595.7255
603.6120, 595.9755
605.5405, 604.4525
607.4689, 613.4760
609.3974, 612.1686
611.3259, 605.2201
613.2543, 603.7802
615.1828, 606.3657
617.1113, 606.9228
619.0397, 605.2451
620.9682, 601.5508
622.8967, 593.8265
624.8251, 594.4138
626.7536, 612.8301
628.6821, 625.5938
630.6105, 623.6058
632.5390, 620.4138
634.4675, 620.5072
636.3959, 622.3355
638.3244, 625.8870
640.2529, 629.5969
642.1813, 630.9505
644.1098, 631.2846
646.0383, 632.6489
647.9667, 635.5187
649.8952, 642.3663
651.8237, 653.1564
653.7521, 663.9736
655.6806, 675.1026
657.6091, 683.0304
659.5375, 686.6694
661.4660, 688.1606
663.3945, 684.5648
665.3229, 683.8575
667.2514, 691.4676
669.1799, 698.4883
671.1083, 698.3508
673.0368, 697.4206
674.9653, 701.0557
676.8937, 707.4129
678.8222, 715.9058
680.7507, 724.3608
682.6791, 725.9873
684.6076, 723.5656
686.5361, 731.4991
688.4645, 749.9952
690.3930, 758.5322
692.3215, 752.4532
694.2499, 752.4531
696.1784, 763.7581
698.1069, 774.4031
700.0353, 784.0710
701.9638, 791.6454
703.8923, 790.0224
705.8207, 796.1071
707.7492, 824.2269
709.6777, 852.8222
711.6061, 867.5411
713.5346, 877.1512
715.4631, 885.7466
717.3915, 897.2831
719.3200, 917.7407
721.2485, 944.0358
723.1769, 970.4940
725.1054, 997.3377
727.0339, 1026.178
728.9623, 1056.983
730.8908, 1086.274
732.8193, 1112.675
734.7477, 1144.664
736.6762, 1181.945
738.6047, 1226.375
740.5331, 1276.254
742.4616, 1336.015
744.3901, 1412.243
746.3185, 1488.302
748.2470, 1558.029
750.1755, 1630.305
752.1039, 1702.406
754.0324, 1786.182
755.9609, 1886.446
757.8893, 2002.996
759.8178, 2141.187
761.7463, 2290.596
763.6747, 2433.968
765.6032, 2586.833
767.5317, 2773.596
769.4601, 2985.600
771.3886, 3203.157
773.3171, 3428.133
775.2455, 3668.077
777.1740, 3923.606
779.1025, 4206.509
781.0309, 4520.637
782.9594, 4830.431
784.8879, 5128.662
786.8163, 5446.999
788.7448, 5768.493
790.6733, 6155.757
792.6017, 6613.742
794.5302, 7126.231
796.4587, 7664.787
798.3871, 8319.321
800.3156, 9099.935
802.2441, 10024.25
804.1725, 11113.77
806.1010, 12322.93
808.0295, 13651.56
809.9579, 15060.31
811.8864, 16569.22
813.8149, 18091.79
815.7433, 19715.58
817.6718, 21166.33
819.6003, 22307.13
821.5287, 23096.22
823.4572, 23502.33
825.3857, 23523.28
827.3141, 23123.84
829.2426, 22353.93
831.1711, 21236.95
833.0995, 19847.79
835.0280, 18340.70
836.9565, 16752.74
838.8849, 15218.70
840.8134, 13751.42
842.7419, 12446.57
844.6703, 11305.60
846.5988, 10263.97
848.5273, 9324.276
850.4557, 8487.199
852.3842, 7755.386
854.3127, 7104.152
856.2411, 6535.114
858.1696, 6022.871
860.0981, 5564.508
862.0266, 5176.399
863.9550, 4864.625
865.8835, 4608.800
867.8120, 4413.166
869.7404, 4242.277
871.6689, 4093.413
873.5974, 3952.433
875.5258, 3818.232
877.4543, 3683.555
879.3828, 3546.761
881.3112, 3406.762
883.2397, 3260.445
885.1682, 3115.708
887.0966, 2969.052
889.0251, 2835.394
890.9536, 2736.428
892.8820, 2628.943
894.8105, 2483.511
896.7390, 2341.986
898.6674, 2230.675
900.5959, 2121.424
902.5244, 1990.660
904.4528, 1866.004
906.3813, 1764.214
908.3098, 1677.316
910.2382, 1600.450
912.1667, 1534.552
914.0952, 1480.988
916.0236, 1438.003
917.9521, 1406.071
919.8806, 1381.538
921.8090, 1361.337
923.7375, 1345.724
925.6660, 1342.063
927.5944, 1336.556
929.5229, 1304.548
931.4514, 1266.439
933.3798, 1255.794
935.3083, 1252.617
937.2368, 1225.666
939.1652, 1187.452
941.0937, 1157.857
943.0222, 1130.918
944.9506, 1092.654
946.8791, 1052.318
948.8076, 1027.236
950.7360, 1011.901
952.6645, 995.8041
954.5930, 981.5518
956.5214, 978.5939
958.4499, 979.1235
960.3784, 965.8774
962.3068, 944.1365
964.2353, 924.9276
966.1638, 906.3650
968.0922, 882.7141
970.0207, 857.2242
971.9492, 835.8519
973.8776, 818.8842
975.8061, 810.2324
977.7346, 804.7859
979.6630, 788.9177
981.5915, 767.9811
983.5200, 755.4559
985.4484, 747.1241
987.3769, 731.5554
989.3054, 713.1413
991.2338, 702.3736
993.1623, 696.6653
995.0908, 690.8214
997.0192, 684.8207
998.9477, 678.2950
1000.876, 671.9056
1002.805, 668.5761
1004.733, 665.5824
1006.662, 655.1807
1008.590, 642.1341
1010.518, 636.0645
1012.447, 634.4807
1014.375, 633.8797
1016.304, 633.2095
1018.232, 630.3064
1020.161, 626.2025
1022.089, 622.7637
1024.018, 619.2112
1025.946, 613.3113
1027.875, 607.2378
1029.803, 603.7980
1031.732, 602.6906
1033.660, 605.3728
1035.589, 608.4480
1037.517, 607.3501
1039.446, 604.3486
1041.374, 599.9653
1043.302, 597.2676
1045.231, 603.5950
1047.159, 608.6993
1049.088, 599.1212
1051.016, 587.4948
1052.945, 587.6166
1054.873, 587.7450
1056.802, 574.6691
1058.730, 562.4835
1060.659, 564.5842
1062.587, 567.5223
1064.516, 561.9609
1066.444, 554.2635
1068.373, 546.6314
1070.301, 540.9167
1072.229, 538.8165
1074.158, 537.6895
1076.086, 536.6012
1078.015, 535.5253
1079.943, 535.5533
1081.872, 532.9242
1083.800, 523.6714
1085.729, 517.8661
1087.657, 520.7223
1089.586, 522.3743
1091.514, 520.4202
1093.443, 515.3748
1095.371, 504.9280
1097.299, 500.5413
1099.228, 506.4829
1101.156, 509.4899
1103.085, 506.4821
1105.013, 506.8890
1106.942, 512.7953
1108.870, 514.8021
1110.799, 511.2910
1112.727, 512.2861
1114.656, 518.8013
1116.584, 521.4245
1118.513, 520.0127
1120.441, 518.2217
1122.370, 515.7805
1124.298, 507.3818
1126.226, 495.3776
1128.155, 493.9431
1130.083, 499.5608
1132.012, 499.8909
1133.940, 497.7193
1135.869, 500.4821
1137.797, 504.8655
1139.726, 503.6230
1141.654, 501.4750
1143.583, 505.8702
1145.511, 511.7410
1147.440, 513.2501
1149.368, 514.3401
1151.297, 521.8496
1153.225, 525.1223
1155.153, 509.8478
1157.082, 500.1186
1159.010, 516.0895
1160.939, 523.6214
1162.867, 503.0887
1164.796, 494.0729
1166.724, 513.0161
1168.653, 524.1473
1170.581, 518.4218
1172.510, 512.7093
1174.438, 509.4216
1176.367, 507.7941
1178.295, 507.7049
1180.224, 512.0508
1182.152, 520.2316
1184.080, 519.4221
1186.009, 510.7092
1187.937, 503.6960
1189.866, 499.2958
1191.794, 500.7405
1193.723, 505.6863
1195.651, 510.9266
1197.580, 513.9929
1199.508, 508.6363
1201.437, 501.2513
1203.365, 498.3925
1205.294, 498.4293
1207.222, 502.2926
1209.151, 505.0989
1211.079, 502.8962
1213.007, 500.2568
1214.936, 497.6798
1216.864, 497.4855
1218.793, 504.1653
1220.721, 505.1600
1222.650, 496.8245
1224.578, 489.4800
1226.507, 483.6050
1228.435, 482.8870
1230.364, 487.4506
1232.292, 485.6703
1234.221, 478.4308
1236.149, 472.0122
1238.078, 468.9845
1240.006, 481.7749
1241.934, 499.1195
1243.863, 499.8393
1245.791, 493.2779
1247.720, 486.8809
1249.648, 483.1852
1251.577, 485.4849
1253.505, 489.4490
1255.434, 494.8918
1257.362, 497.3784
1259.291, 491.5388
1261.219, 489.5330
1263.148, 499.8219
1265.076, 501.2278
1267.005, 487.5923
1268.933, 481.4121
1270.861, 483.5581
1272.790, 486.7125
1274.718, 490.6194
1276.647, 494.2511
1278.575, 495.9221
1280.504, 486.2613
1282.432, 475.1241
1284.361, 481.2478
1286.289, 489.6295
1288.218, 485.1803
1290.146, 481.3218
1292.075, 489.4579
1294.003, 492.8432
1295.932, 481.2052
1297.860, 473.5470
1299.788, 476.1052
1301.717, 476.8163
1303.645, 473.7592
1305.574, 471.7867
1307.502, 470.9205
1309.431, 470.6192
1311.359, 470.4104
1313.288, 468.3423
1315.216, 464.7086
1317.145, 457.5054
1319.073, 452.1470
1321.002, 458.0672
1322.930, 462.5672
1324.859, 454.9228
1326.787, 452.8649
1328.715, 466.6598
1330.644, 473.6299
1332.572, 467.1920
1334.501, 460.6993
1336.429, 455.3147
1338.358, 460.7570
1340.286, 473.8841
1342.215, 458.3748
1344.143, 430.7854
1346.072, 441.2564
1348.000, 464.2676
1349.929, 467.4589
1351.857, 461.9566
1353.786, 449.8324
1355.714, 442.9188
1357.642, 448.1281
1359.571, 450.9387
1361.499, 447.8108
1363.428, 443.0298
1365.356, 437.1989
1367.285, 435.4335
1369.213, 437.9196
1371.142, 445.4305
1373.070, 453.8204
1374.999, 452.6028
1376.927, 447.3471
1378.856, 441.2436
1380.784, 439.2018
1382.713, 450.0942
1384.641, 455.2559
1386.569, 447.3093
1388.498, 440.8863
1390.426, 438.2774
1392.355, 436.9927
1394.283, 436.1659
1396.212, 427.4499
1398.140, 416.0871
1400.069, 418.8392
1401.997, 427.5333
1403.926, 434.3914
1405.854, 436.7468
1407.783, 427.2206
1409.711, 422.0954
1411.640, 430.3183
1413.568, 436.9648
1415.496, 440.5137
1417.425, 440.8707
1419.353, 438.3065
1421.282, 434.7012
1423.210, 430.6749
1425.139, 426.8279
1427.067, 424.3207
1428.996, 425.4640
1430.924, 427.1648
1432.853, 427.2625
1434.781, 427.6439
1436.710, 431.0458
1438.638, 429.0284
1440.567, 420.0187
1442.495, 417.9004
1444.423, 421.5683
1446.352, 423.8222
1448.280, 424.2819
1450.209, 422.0227
1452.137, 418.7338
1454.066, 414.6288
1455.994, 412.1080
1457.923, 413.3698
1459.851, 413.8262
1461.780, 410.4898
1463.708, 415.5717
1465.637, 428.4548
1467.565, 435.7455
1469.494, 437.3482
1471.422, 428.2653
1473.350, 419.8164
1475.279, 425.2428
1477.207, 428.5789
1479.136, 419.6971
1481.064, 414.6877
1482.993, 419.1871
1484.921, 418.8053
1486.850, 413.5271
1488.778, 403.8653
1490.707, 394.0005
1492.635, 396.0123
1494.564, 399.8091
1496.492, 395.4793
1498.421, 393.7194
1500.349, 400.1307
1502.277, 405.2205
1504.206, 406.8886
1506.134, 410.9450
1508.063, 416.3407
1509.991, 413.6793
1511.920, 407.6239
1513.848, 405.7291
1515.777, 405.0719
1517.705, 402.9379
1519.634, 404.4521
1521.562, 413.0428
1523.491, 411.7374
1525.419, 398.4842
1527.348, 398.6675
1529.276, 406.0136
1531.204, 399.1479
1533.133, 390.3130
1535.061, 393.0640
1536.990, 399.5428
1538.918, 409.2608
1540.847, 411.2632
1542.775, 403.4292
1544.704, 396.6336
1546.632, 391.9395
1548.561, 389.8180
1550.489, 391.0711
1552.418, 402.1042
1554.346, 408.2226
1556.275, 396.9680
1558.203, 389.6064
1560.131, 389.9223
1562.060, 396.2147
1563.988, 406.2943
1565.917, 408.7153
1567.845, 407.4035
1569.774, 410.5031
1571.702, 410.5044
1573.631, 396.9538
1575.559, 391.2549
1577.488, 399.2614
1579.416, 394.0233
1581.345, 378.0262
1583.273, 381.8044
1585.202, 392.3958
1587.130, 389.0470
1589.058, 382.2878
1590.987, 376.3220
1592.915, 375.2948
1594.844, 380.5200
1596.772, 386.4973
1598.701, 392.3885
1600.629, 394.8268
1602.558, 395.8965
1604.486, 399.1014
1606.415, 401.0566
1608.343, 397.1605
1610.272, 397.9611
1612.200, 406.0899
1614.129, 406.6055
1616.057, 401.3791
1617.985, 397.8686
1619.914, 396.1462
1621.842, 399.0020
1623.771, 398.4977
1625.699, 384.8820
1627.628, 384.2881
1629.556, 399.5133
1631.485, 395.8784
1633.413, 383.7541
1635.342, 391.2237
1637.270, 399.4476
1639.199, 393.7140
1641.127, 388.3764
1643.056, 388.2542
1644.984, 384.1722
1646.912, 378.0925
1648.841, 390.4770
1650.769, 405.5084
1652.698, 402.8347
1654.626, 396.3428
1656.555, 391.2423
1658.483, 386.2772
1660.412, 381.1815
1662.340, 379.2251
1664.269, 380.5685
1666.197, 390.4735
1668.126, 395.5500
1670.054, 384.6733
1671.983, 377.7030
1673.911, 380.2825
1675.839, 377.5194
1677.768, 371.0511
1679.696, 367.1877
1681.625, 367.5445
1683.553, 376.8958
1685.482, 382.8288
1687.410, 381.4519
1689.339, 378.5766
1691.267, 375.1234
1693.196, 373.6668
1695.124, 372.2278
1697.053, 367.1558
1698.981, 363.0188
1700.910, 361.5118
1702.838, 359.9803
1704.766, 358.5249
1706.695, 363.2921
1708.623, 367.7628
1710.552, 359.4320
1712.480, 349.5198
1714.409, 340.6201
1716.337, 344.0530
1718.266, 358.9737
1720.194, 358.5932
1722.123, 352.0039
1724.051, 356.6501
1725.980, 360.0874
1727.908, 355.0870
1729.837, 349.7098
1731.765, 345.1876
1733.693, 347.0167
1735.622, 351.1123
1737.550, 350.2618
1739.479, 349.0333
1741.407, 349.6939
1743.336, 352.2023
1745.264, 355.9312
1747.193, 352.0685
1749.121, 344.9731
1751.050, 340.7375
1752.978, 338.0750
1754.907, 336.1420
1756.835, 336.6321
1758.764, 339.2734
1760.692, 341.1217
1762.620, 341.8926
1764.549, 340.8564
1766.477, 339.6873
1768.406, 339.8544
1770.334, 338.0687
1772.263, 334.4088
1774.191, 327.2992
1776.120, 322.6895
1778.048, 329.3341
1779.977, 334.8390
1781.905, 334.7684
1783.834, 333.6545
1785.762, 331.9651
1787.691, 332.6028
1789.619, 331.8916
1791.547, 324.3870
1793.476, 323.0901
1795.404, 332.3520
1797.333, 330.2738
1799.261, 323.1582
1801.190, 325.5709
1803.118, 328.9379
1805.047, 329.6703
1806.975, 329.2474
1808.904, 327.2273
1810.832, 305.0573
1812.761, 286.1700
1814.689, 305.2344
1816.618, 321.5931
1818.546, 322.2703
1820.474, 317.8544
1822.403, 312.4471
1824.331, 320.0304
1826.260, 327.1729
1828.188, 325.3572
1830.117, 321.1358
1832.045, 315.9795
1833.974, 310.2251
1835.902, 305.9931
1837.831, 308.5110
1839.759, 312.5870
1841.688, 316.9872
1843.616, 309.8287
1845.545, 297.0192
1847.473, 306.8785
1849.401, 315.7728
1851.330, 302.4080
1853.258, 295.9482
1855.187, 300.3047
1857.115, 307.1427
1859.044, 310.9885
1860.972, 299.6042
1862.901, 290.0035
1864.829, 287.8586
1866.758, 289.2412
1868.686, 291.7325
1870.615, 292.9878
1872.543, 294.0190
1874.472, 294.8683
1876.400, 293.0018
1878.328, 289.4546
1880.257, 290.8830
1882.185, 294.0638
1884.114, 295.8994
1886.042, 293.3781
1887.971, 286.9384
1889.899, 284.2097
1891.828, 283.5953
1893.756, 282.0856
1895.685, 282.6804
1897.613, 288.1159
1899.542, 284.5946
1901.470, 276.2134
1903.399, 269.7426
1905.327, 268.6841
1907.255, 282.3974
1909.184, 284.9733
1911.112, 276.6652
1913.041, 278.7992
1914.969, 284.9403
1916.898, 292.6890
1918.826, 294.4419
1920.755, 288.6846
1922.683, 281.7107
1924.612, 274.0614
1926.540, 266.8769
1928.469, 263.8353
1930.397, 265.0158
1932.326, 264.4210
1934.254, 264.6820
1936.182, 267.9577
1938.111, 270.9272
1940.039, 272.4362
1941.968, 268.9504
1943.896, 264.6306
1945.825, 265.2643
1947.753, 265.6949
1949.682, 266.2875
1951.610, 265.3207
1953.539, 262.1964
1955.467, 255.0670
1957.396, 253.8819
1959.324, 265.9487
1961.253, 265.9773
1963.181, 256.7489
1965.109, 255.4029
1967.038, 255.3181
1968.966, 253.6689
1970.895, 254.4650
1972.823, 258.7971
1974.752, 268.2541
1976.680, 268.6213
1978.609, 243.3043
1980.537, 240.2859
1982.466, 258.1201
1984.394, 248.7214
1986.323, 238.9458
1988.251, 245.3992
1990.180, 249.1989
1992.108, 250.2509
1994.036, 252.4222
1995.965, 252.5145
1997.893, 246.4163
1999.822, 241.5903
2001.750, 240.5114
2003.679, 241.4640
2005.607, 242.8356
2007.536, 247.6304
2009.464, 245.5715
2011.393, 238.1647
2013.321, 230.5240
2015.250, 225.7251
2017.178, 230.5295
2019.107, 228.4725
2021.035, 222.3285
2022.964, 226.9011
2024.892, 232.3096
2026.820, 229.6676
2028.749, 225.4215
2030.677, 223.2491
2032.606, 223.7829
2034.534, 224.3636
2036.463, 225.7834
2038.391, 225.8381
2040.320, 224.5722
2042.248, 220.8434
2044.177, 221.0515
2046.105, 231.2954
2048.034, 225.6948
2049.962, 215.0330
2051.891, 219.7440
2053.819, 221.7681
2055.748, 210.5294
2057.676, 213.1129
2059.604, 221.0630
2061.533, 220.3081
2063.461, 220.3380
2065.390, 221.5934
2067.318, 219.1983
2069.247, 218.1318
2071.175, 219.7467
2073.104, 219.1592
2075.032, 214.3151
2076.960, 211.7541
2078.889, 210.5616
2080.817, 209.9689
2082.746, 208.7318
2084.674, 207.0294
2086.603, 210.5710
2088.531, 201.8250
2090.460, 179.8075
2092.388, 182.0129
2094.317, 192.1850
2096.245, 196.6359
2098.174, 201.9087
2100.102, 206.8433
2102.031, 206.2185
2103.959, 203.7833
2105.887, 207.5461
2107.816, 205.8531
2109.744, 197.4358
2111.673, 190.1873
2113.601, 189.0880
2115.530, 199.7248
2117.458, 197.9607
2119.387, 189.3751
2121.315, 194.0321
2123.244, 198.7556
2125.172, 198.1660
2127.101, 198.2168
2129.029, 199.8867
2130.958, 197.7026
2132.886, 189.9350
2134.814, 180.8493
2136.743, 187.2745
2138.671, 191.8122
2140.600, 181.2834
2142.528, 183.0511
2144.457, 188.6613
2146.385, 181.0980
2148.314, 174.0418
2150.242, 171.7917
2152.171, 178.2063
2154.099, 182.6992
2156.028, 178.0202
2157.956, 174.2026
2159.885, 170.2239
2161.813, 175.7552
2163.741, 180.3154
2165.670, 172.4410
2167.598, 171.1376
2169.527, 173.6242
2171.455, 178.8837
2173.384, 178.9173
2175.312, 173.1594
2177.241, 165.4289
2179.169, 163.8030
2181.098, 175.5536
2183.026, 176.6049
2184.955, 173.3134
2186.883, 178.2372
2188.812, 176.1909
2190.740, 168.4867
2192.668, 167.8861
2194.597, 169.1830
2196.525, 170.9724
2198.454, 165.5856
2200.382, 158.2296
2202.311, 161.4038
2204.239, 163.5936
2206.168, 162.8084
2208.096, 161.0581
2210.025, 156.8602
2211.953, 151.0130
2213.882, 159.5863
2215.810, 169.3515
2217.739, 155.4684
2219.667, 151.9457
2221.595, 160.3132
2223.524, 165.4211
2225.452, 164.1746
2227.381, 156.0306
2229.309, 153.5728
2231.238, 155.3759
2233.166, 161.5487
2235.095, 159.2504
2237.023, 150.8716
2238.952, 147.2199
2240.880, 146.5253
2242.809, 146.8462
2244.737, 148.7272
2246.666, 150.5256
2248.594, 150.6813
2250.522, 146.5170
2252.451, 140.6532
2254.379, 140.8096
2256.308, 142.0916
2258.236, 143.3858
2260.165, 141.8603
2262.093, 139.8547
2264.022, 139.2395
2265.950, 141.8586
2267.879, 143.9902
2269.807, 138.0150
2271.736, 137.6806
2273.664, 143.3818
2275.593, 142.5345
2277.521, 139.0473
2279.449, 133.8507
2281.378, 133.7518
2283.306, 137.3490
2285.235, 144.6947
2287.163, 146.7372
2289.092, 143.7192
2291.020, 137.4230
2292.949, 132.1592
2294.877, 129.5789
2296.806, 128.8193
2298.734, 129.6184
2300.663, 132.4411
2302.591, 136.5954
2304.520, 139.1936
2306.448, 137.5133
2308.376, 133.1003
2310.305, 129.7185
2312.233, 135.6879
2314.162, 133.8254
2316.090, 125.7562
2318.019, 127.3728
2319.947, 128.8728
2321.876, 127.7516
2323.804, 130.2214
2325.733, 132.6651
2327.661, 130.0380
2329.590, 125.1906
2331.518, 121.3908
2333.447, 125.5527
2335.375, 131.7854
2337.303, 135.9877
2339.232, 127.8886
2341.160, 121.8255
2343.089, 120.4964
2345.017, 120.8273
2346.946, 121.2295
2348.874, 116.2797
2350.803, 110.5863
2352.731, 107.9365
2354.660, 112.5345
2356.588, 115.5153
2358.517, 114.9960
2360.445, 118.3016
2362.374, 117.5655
2364.302, 113.4559
2366.230, 110.6547
2368.159, 110.4083
2370.087, 114.7299
2372.016, 113.2761
2373.944, 111.5118
2375.873, 114.4164
2377.801, 114.6658
2379.730, 111.9364
2381.658, 106.3292
2383.587, 107.0652
2385.515, 110.3345
2387.444, 110.4053
2389.372, 107.3933
2391.301, 102.7443
2393.229, 107.4846
2395.157, 111.4604
2397.086, 110.3276
2399.014, 97.78384
2400.943, 94.41046
2402.871, 106.8693
2404.800, 111.3564
2406.728, 109.3052
2408.657, 107.4118
2410.585, 104.6253
2412.514, 102.3792
2414.442, 103.9477
2416.371, 106.3273
2418.299, 107.4592
2420.228, 103.3740
2422.156, 98.83812
2424.084, 99.03135
2426.013, 100.5613
2427.941, 98.18276
2429.870, 97.54517
2431.798, 105.7728
2433.727, 99.51644
2435.655, 91.51125
2437.584, 90.81450
2439.512, 93.84910
2441.441, 98.64896
2443.369, 95.45376
2445.298, 93.70631
2447.226, 96.77848
2449.155, 88.81885
2451.083, 82.61831
2453.011, 84.79646
2454.940, 89.85747
2456.868, 92.87476
2458.797, 90.07108
2460.725, 91.24712
2462.654, 91.58907
2464.582, 87.39777
2466.511, 88.42508
2468.439, 89.38681
2470.368, 86.78340
2472.296, 86.70888
2474.225, 87.44019
2476.153, 86.16119
2478.082, 83.67551
2480.010, 85.34331
2481.938, 93.74599
2483.867, 88.95540
2485.795, 81.49104
2487.724, 88.81936
2489.652, 86.82935
2491.581, 81.82738
2493.509, 80.84644
2495.438, 82.70512
2497.366, 90.71236
2499.295, 87.91939
2501.223, 80.76414
2503.152, 81.57185
2505.080, 88.42838
2507.009, 87.31703
2508.937, 83.04536
2510.865, 77.73521
2512.794, 75.07893
2514.722, 73.67277
2516.651, 79.73528
2518.579, 82.94665
2520.508, 79.56909
2522.436, 75.09785
2524.365, 73.73653
2526.293, 71.28188
2528.222, 69.08318
2530.150, 77.33669
2532.079, 84.76756
2534.007, 77.24233
2535.936, 77.06843
2537.864, 76.77887
2539.792, 71.40440
2541.721, 71.42485
2543.649, 72.97687
2545.578, 63.25891
2547.506, 65.23688
2549.435, 77.96778
2551.363, 74.20562
2553.292, 67.90446
2555.220, 70.82223
2557.149, 75.48135
2559.077, 72.93423
2561.006, 67.67662
2562.934, 65.46105
2564.863, 65.87176
2566.791, 68.48648
2568.719, 69.41564
2570.648, 69.80779
2572.576, 70.43555
2574.505, 68.98028
2576.433, 68.84742
2578.362, 67.39199
2580.290, 63.09408
2582.219, 73.17658
2584.147, 73.55492
2586.076, 58.96817
2588.004, 65.98244
2589.933, 72.60510
2591.861, 60.35764
2593.790, 52.15991
2595.718, 57.16230
2597.646, 59.42472
2599.575, 60.18034
2601.503, 59.96214
2603.432, 59.11614
2605.360, 56.76620
2607.289, 56.38585
2609.217, 61.91798
2611.146, 60.07793
2613.074, 57.86747
2615.003, 56.98672
2616.931, 52.68976
2618.860, 55.50110
2620.788, 62.23598
2622.717, 58.96879
2624.645, 61.69769
2626.573, 67.52603
2628.502, 61.69277
2630.430, 59.64701
2632.359, 60.15652
2634.287, 63.40504
2636.216, 60.01410
2638.144, 54.79165
2640.073, 55.54435
2642.001, 54.76289
2643.930, 51.85455
2645.858, 53.47368
2647.787, 52.50846
2649.715, 48.75523
2651.644, 45.40493
2653.572, 51.57456
2655.500, 53.71357
2657.429, 46.11886
2659.357, 48.78693
2661.286, 54.24127
2663.214, 56.57518
2665.143, 58.53091
2667.071, 54.16758
2669.000, 49.82655
2670.928, 55.30941
2672.857, 53.48374
2674.785, 52.15345
2676.714, 53.94409
2678.642, 50.98846
2680.571, 46.49785
2682.499, 44.73088
2684.427, 48.77694
2686.356, 50.39450
2688.284, 47.40734
2690.213, 49.70184
2692.141, 51.80418
2694.070, 53.12068
2695.998, 40.41509
2697.927, 35.54620
2699.855, 42.05123
2701.784, 47.35949
2703.712, 47.29310
2705.641, 44.28130
2707.569, 39.47980
2709.498, 34.76591
2711.426, 33.34412
2713.354, 38.06026
2715.283, 35.98323
2717.211, 35.56334
2719.140, 43.24590
2721.068, 38.73774
2722.997, 37.78700
2724.925, 43.45304
2726.854, 41.43310
2728.782, 41.88966
2730.711, 42.74785
2732.639, 33.07407
2734.568, 34.59355
2736.496, 43.33704
2738.425, 53.05357
2740.353, 42.01945
2742.281, 33.53642
2744.210, 40.07622
2746.138, 39.76367
2748.067, 32.53145
2749.995, 21.68464
2751.924, 26.52471
2753.852, 37.11002
2755.781, 45.00587
2757.709, 36.95901
2759.638, 36.82469
2761.566, 39.25545
2763.495, 39.80384
2765.423, 39.29467
2767.352, 35.43235
2769.280, 29.31648
2771.208, 31.09244
2773.137, 31.48944
2775.065, 28.68775
2776.994, 26.18907
2778.922, 47.59506
2780.851, 61.63067
2782.779, 33.00757
2784.708, 31.08781
2786.636, 33.52850
2788.565, 30.93390
2790.493, 35.17692
2792.422, 34.67178
2794.350, 26.99239
2796.279, 30.22483
2798.207, 34.05951
2800.135, 34.18233
2802.064, 36.37031
2803.992, 31.14941
2805.921, 27.34751
2807.849, 25.54202
2809.778, 21.15103
2811.706, 24.20045
2813.635, 31.95329
2815.563, 29.38837
2817.492, 28.70047
2819.420, 31.23923
2821.349, 29.82087
2823.277, 27.12986
2825.206, 30.28689
2827.134, 32.94259
2829.063, 29.79299
2830.991, 30.21732
2832.919, 32.24029
2834.848, 31.58292
2836.776, 29.34816
2838.705, 29.39348
2840.633, 26.11117
2842.562, 20.24001
2844.490, 17.39160
2846.419, 18.70410
2848.347, 16.24506
2850.276, 19.34549
2852.204, 21.31654
2854.133, 12.98806
2856.061, 15.68713
2857.990, 21.78767
2859.918, 26.26494
2861.846, 18.28728
2863.775, 16.96391
2865.703, 23.86196
2867.632, 20.34215
2869.560, 18.06788
2871.489, 19.55774
2873.417, 15.05145
2875.346, 20.34278
2877.274, 27.81292
2879.203, 24.80932
2881.131, 19.37626
2883.060, 23.38981
2884.988, 30.36559
2886.917, 26.48595
2888.845, 22.17328
2890.773, 22.22876
2892.702, 21.81894
2894.630, 26.47573
2896.559, 27.89065
2898.487, 16.55469
2900.416, 13.51440
2902.344, 18.95417
2904.273, 22.84754
2906.201, 23.74842
2908.130, 22.79119
2910.058, 13.57710
2911.987, 11.74250
2913.915, 26.36332
2915.844, 27.79649
2917.772, 16.88047
2919.700, 16.05455
2921.629, 17.44691
2923.557, 13.49131
2925.486, 12.97527
2927.414, 9.438845
2929.343, 8.250737
2931.271, 10.99342
2933.200, 13.61636
2935.128, 17.40554
2937.057, 16.97510
2938.985, 11.34860
2940.914, 15.07107
2942.842, 20.11896
2944.771, 17.84014
2946.699, 9.832276
2948.627, 13.80113
2950.556, 14.84320
2952.484, 6.256371
2954.413, 11.54691
2956.341, 7.405997
2958.270, 6.199549
2960.198, 15.62673
2962.127, 11.97345
2964.055, 13.24981
2965.984, 10.70579
2967.912, 8.703857
2969.841, 14.70411
2971.769, 21.22301
2973.698, 17.03796
2975.626, 15.52411
2977.554, 11.55962
2979.483, 7.979472
2981.411, 14.19365
2983.340, 12.12404
2985.268, 13.81645
2987.197, 14.02638
2989.125, 17.55480
2991.054, 6.236122
2992.982, 10.86591
2994.911, 18.16998
2996.839, 16.16288
2998.768, 17.69514
3000.696, 12.76920
3002.625, 3.943820
3004.553, 1.666233
3006.481, 9.621581
3008.410, 13.68832
3010.338, 12.44303
3012.267, 17.72711
3014.195, 15.62621
3016.124, 8.938502
3018.052, 4.878292
3019.981, 3.787608
3021.909, 3.764277
3023.838, 12.39694
3025.766, 10.08982
3027.695, 9.244699
3029.623, 6.833361
3031.552, 9.605842
3033.480, 6.823513
3035.408, 5.077602
3037.337, 1.792284
3039.265, 6.315852
3041.194, 10.07258
3043.122, 9.915267
3045.051, 12.64382
3046.979, 12.06805
3048.908, 6.477572
3050.836, 0.6987467
3052.765, -2.620647
3054.693, -6.637832
3056.622, 3.875164
3058.550, 10.86849
3060.479, 9.707130
3062.407, 4.068263
3064.335, 3.372318
3066.264, 4.370802
3068.192, -0.5900319
3070.121, 1.809878
3072.049, 1.944977
3073.978, 7.786091
3075.906, 13.81527
3077.835, -1.017661
3079.763, -3.446760
3081.692, 0.9797519
3083.620, 1.374912
3085.549, 9.288628
3087.477, 8.973967
3089.406, 4.578713
3091.334, 6.459065
3093.262, 7.405829
3095.191, 3.558550
3097.119, 0.3444904
3099.048, 3.926556
3100.976, 0.7846019
3102.905, 1.809544
3104.833, 7.133340
3106.762, 4.552923
3108.690, 11.79155
3110.619, 7.056427
3112.547, -6.098018
3114.476, -5.142417
3116.404, -5.395554
3118.333, -2.965624
3120.261, -1.119914
3122.189, -8.531715
3124.118, -7.280131
3126.046, -9.138986
3127.975, -7.635044
3129.903, 11.40793
3131.832, 1.139142
3133.760, -10.00117
3135.689, -11.10748
3137.617, -5.440340
3139.546, 5.156497
3141.474, 1.781327
3143.403, -9.773432
3145.331, -0.8814726
3147.260, -0.5664302
3149.188, -3.080606
3151.116, -5.031494
3153.045, -3.921455
3154.973, -2.826593
3156.902, -1.149875
3158.830, -1.032189
3160.759, -6.223510
3162.687, 3.963215
3164.616, 5.048762
3166.544, -2.618641
3168.473, -7.053992
3170.401, -1.527706
3172.330, -0.9698769
3174.258, -3.022695
3176.187, 0.8931967
3178.115, 5.634316
3180.043, 7.173361
3181.972, 6.295755
3183.900, 5.028478
3185.829, 0.1116394
3187.757, 3.951025
3189.686, 6.900023
3191.614, -0.5550151
3193.543, -1.011418
3195.471, 0.4716944
3197.400, 2.334047
3199.328, 3.657356
3201.257, 3.353163
3203.185, 0.8427721
3205.114, -3.073980
3207.042, -7.013281
3208.970, -7.662523
3210.899, 4.763051
3212.827, 2.353522
3214.756, -8.972027
3216.684, 0.3420196
3218.613, 2.714767
3220.541, 4.033286
3222.470, 3.611996
3224.398, -4.224409
3226.327, -5.672511
3228.255, 1.804170
3230.184, 2.454732
3232.112, -9.915838
3234.041, -3.789339
3235.969, -2.752530
3237.897, -3.196960
3239.826, -3.724383
3241.754, -6.634227
3243.683, -5.759681
3245.611, -3.680837
3247.540, 1.599475
3249.468, 11.24657
3251.397, 5.511192
3253.325, -1.050614
3255.254, -2.486709
3257.182, 1.419496
3259.111, -13.22915
3261.039, -3.962768
3262.968, 3.122259
3264.896, -5.069991
3266.824, -8.621038
3268.753, -4.432348
3270.681, 2.509637
3272.610, 8.286685
3274.538, 11.20463
3276.467, 0.1718906
3278.395, -4.084441
3280.324, -3.730690
3282.252, -5.654648
3284.181, -2.978122
3286.109, -7.310541
3288.038, -6.503966
3289.966, 0.1285884
3291.895, -10.64080
3293.823, 2.679283
3295.751, 3.330531
3297.680, -4.539401
3299.608, -2.399291
3301.537, -11.70590
3303.465, -9.131520
3305.394, 2.752846
3307.322, 11.58012
3309.251, -3.991964
3311.179, -2.952372
3313.108, -3.483964
3315.036, -4.036996
3316.965, -2.621689
3318.893, -6.195067
3320.822, 4.233511
3322.750, 5.928707
3324.678, -0.8382422
3326.607, -1.351627
3328.535, -9.648786
3330.464, -16.59396
3332.392, -17.02719
3334.321, -7.652330
3336.249, -6.040618
3338.178, -6.348782
3340.106, 0.3540706
3342.035, 9.588687
3343.963, 8.652755
3345.892, -6.638001
3347.820, -6.118873
3349.749, -2.401265
3351.677, -4.280267
3353.605, -3.063299
3355.534, -3.475877
3357.462, -2.806603
3359.391, -5.244663
3361.319, -12.67813
3363.248, -2.422770
3365.176, -3.957667
3367.105, -3.882018
3369.033, -3.228064
3370.962, -7.310860
3372.890, -16.52325
3374.819, -8.637314
3376.747, -1.341050
3378.676, -1.550536
3380.604, 0.6966087
3382.532, -4.070308
3384.461, 2.128904
3386.389, 2.588625
3388.318, -7.175843
3390.246, -7.901145
3392.175, -2.177217
3394.103, 1.008210
3396.032, 5.204929
3397.960, 7.972575
3399.889, -20.88298
3401.817, -15.76202
3403.746, -7.609756
3405.674, -11.89756
3407.603, -26.19459
3409.531, -8.420248
3411.459, 6.011857
3413.388, -3.779422
3415.316, -13.77514
3417.245, 0.5390312
3419.173, 1.812946
3421.102, -9.150507
3423.030, -14.08574
3424.959, -11.96165
3426.887, -10.48910
3428.816, -15.07408
3430.744, -5.896494
3432.673, -12.06982
3434.601, -18.43668
3436.530, 1.358120
3438.458, 4.005423
3440.386, -10.33025
3442.315, -7.311790
3444.243, -2.421590
3446.172, -19.24997
3448.100, -3.128490
3450.029, -6.800692
3451.957, -12.44733
3453.886, -13.69648
3455.814, -13.12220
3457.743, -8.490240
3459.671, -9.357728
3461.600, -9.867160
3463.528, -10.53717
3465.457, -10.47169
3467.385, 4.207408
3469.313, 0.1835469
3471.242, 2.1752570E-02
3473.170, -1.223485
3475.099, -10.07098
3477.027, -18.93405
3478.956, -6.958130
3480.884, 1.457627
3482.813, -4.501167
3484.741, -14.97478
3486.670, -6.660200
3488.598, 5.116093
3490.527, 2.004121
3492.455, -4.773905
3494.384, -8.446995
3496.312, -9.243272
3498.240, 14.72408
3500.169, 10.20641
3502.097, -1.237129
3504.026, -6.871239
3505.954, -4.809383
3507.883, 8.728971
3509.811, -5.259583
3511.740, -9.284142
3513.668, -1.609623
3515.597, 7.223866
3517.525, 7.716728
3519.454, -12.04000
3521.382, -10.79372
3523.311, -7.532132
3525.239, -9.184006
3527.167, -7.426745
3529.096, 2.184022
3531.024, -4.044813
3532.953, -5.080035
3534.881, -1.295779
3536.810, 0.5007769
3538.738, -0.4404594
3540.667, 2.4400460E-02
3542.595, -7.197721
3544.524, -10.24140
3546.452, -7.183632
3548.381, -6.210314
3550.309, -21.37100
3552.238, -1.588298
3554.166, 8.271779
3556.094, -2.484102
3558.023, -13.94521
3559.951, 0.8657880
3561.880, 0.1923990
3563.808, -0.2599832
3565.737, -3.893702
3567.665, -8.471473
3569.594, -8.752348
3571.522, -2.004429
3573.451, 1.422026
3575.379, 2.491988
3577.308, -5.780038
3579.236, -12.20500
3581.165, -2.167241
3583.093, 1.858883
3585.021, 5.118279
3586.950, -7.551896
3588.878, -8.571386
3590.807, 0.6841859
3592.735, -12.07408
3594.664, 3.707722
3596.592, -11.36966
3598.521, -9.861804
3600.449, -3.661170
3602.378, -7.150110
3604.306, -8.353335
3606.235, -7.576890
3608.163, -16.93786
3610.092, -12.89505
3612.020, -12.68537
3613.948, -19.21326
3615.877, -2.415239
3617.805, -1.948978
3619.734, -1.148064
3621.662, 3.244586
3623.591, -0.8379951
3625.519, -9.955292
3627.448, -4.414583
3629.376, -15.42307
3631.305, -17.03796
3633.233, -4.933619
3635.162, -3.221885
3637.090, -15.00084
3639.019, -14.57288
3640.947, -6.159257
3642.875, -9.107819
3644.804, -5.357423
3646.732, -1.868970
3648.661, -4.363857
3650.589, -3.769410
3652.518, 40.30915
3654.446, -2.454898
3656.375, 3.571377
3658.303, 0.8542287
3660.232, -11.81020
3662.160, 3.150058
3664.089, -15.00101
3666.017, -8.113833
3667.946, -6.809433
3669.874, -3.393044
3671.802, -3.788963
3673.731, -9.982608
3675.659, -4.625341
3677.588, -13.26129
3679.516, -12.80901
3681.445, -9.953806
3683.373, -9.007849
3685.302, -8.315931
3687.230, -4.678360
3689.159, 4.9695309E-02
3691.087, -6.818407
3693.016, -4.611297
3694.944, -3.329828
3696.873, -6.186153
3698.801, -8.457466
3700.729, -5.996572
3702.658, 1.355908
3704.586, -9.691071
3706.515, -1.056476
3708.443, -7.706618
3710.372, -20.82330
3712.300, -12.46337
3714.229, -12.24042
3716.157, 3.289585
3718.086, -3.019335
3720.014, -15.73929
3721.943, -12.87012
3723.871, -0.6919472
3725.800, -1.420764
3727.728, -19.94426
3729.656, -19.27120
3731.585, -6.080139
3733.513, -5.481960
3735.442, -4.128041
3737.370, 1.116151
3739.299, -5.914845
3741.227, -9.097036
3743.156, -21.39403
3745.084, -14.48191
3747.013, -6.270187
3748.941, -5.118001
3750.870, -8.879778
3752.798, -13.75561
3754.727, -15.67567
3756.655, -17.90335
3758.583, -5.118043
3760.512, -14.53542
3762.440, -18.54584
3764.369, -5.671227
3766.297, 1.610449
3768.226, 2.239634
3770.154, -2.232036
3772.083, -2.828019
3774.011, 1.822471
3775.940, -0.7229392
3777.868, -11.92408
3779.797, -19.98941
3781.725, -13.91400
3783.654, -0.1757210
3785.582, -5.438066
3787.510, -11.26452
3789.439, -7.252376
3791.367, -12.41909
3793.296, -21.58592
3795.224, -9.216333
3797.153, -14.94668
3799.081, -6.959158
3801.010, -17.86224
3802.938, -19.84553
3804.867, -15.19274
3806.795, -15.24069
3808.724, -18.60231
3810.652, -13.75428
3812.581, -8.233941
3814.509, -9.675850
3816.438, -6.369239
3818.366, 1.420601
3820.294, -12.91180
3822.223, -25.76398
3824.151, -6.738012
3826.080, -4.035126
3828.008, -4.755574
3829.937, 0.3800110
3831.865, -4.188073
3833.794, -13.27800
3835.722, -17.01211
3837.651, -11.41834
3839.579, -4.374142
3841.508, -11.56205
3843.436, -0.1741011
3845.365, -16.81380
3847.293, -13.98094
3849.221, -14.43391
3851.150, -18.28327
3853.078, -21.03602
3855.007, -20.00387
3856.935, -6.189659
3858.864, 4.689284
3860.792, -4.954161
3862.721, -6.387287
3864.649, -11.34892
3866.578, -10.19944
3868.506, -4.725668
3870.435, -3.560016
3872.363, -5.676821
3874.292, -5.102836
3876.220, 5.950978
3878.148, -9.950817
3880.077, -6.541357
3882.005, -11.15996
3883.934, -16.74583
3885.862, -13.11877
3887.791, -6.846906
3889.719, -2.020027
3891.648, -0.3693677
3893.576, -15.04930
3895.505, -11.46431
3897.433, -5.930519
3899.362, -6.501646
3901.290, -2.732020
3903.219, -1.385370
3905.147, -8.064366
3907.075, -4.096924
3909.004, -10.76431
3910.932, -22.26103
3912.861, -15.50249
3914.789, -5.126538
3916.718, -11.54596
3918.646, -16.59204
3920.575, -7.115284
3922.503, 0.7867131
3924.432, -9.102046
3926.360, -9.616102
3928.289, -5.148986
3930.217, -13.46551
3932.146, -12.86910
3934.074, -18.73295
3936.002, -13.96063
3937.931, -6.608343
3939.859, -11.03438
3941.788, -18.10961
3943.716, -12.72280
3945.645, -11.01789
3947.573, -2.4871189E-02
3949.502, -16.52472
3951.430, -5.252086
3953.359, -5.373715
3955.287, -16.77489
3957.216, -20.89320
3959.144, -12.36923
3961.073, -5.308792
3963.001, -21.88208
3964.929, -15.24089
3966.858, -6.387350
3968.786, -10.75963
3970.715, -7.553379
3972.643, -15.68720
3974.572, -15.50044
3976.500, -18.96852
3978.429, -22.07772
3980.357, -13.23094
3982.286, -14.66180
3984.214, 0.3853378
3986.143, -15.51289
3988.071, -7.528615
3990.000, -2.511508
3991.928, -4.317526
3993.856, -4.888155
3995.785, -12.43938
3997.713, -8.873781
3999.642, -4.610654
4001.570, -18.18976
4003.499, -11.39237
4005.427, -11.84629
4007.356, -21.59169
4009.284, -15.60442
4011.213, -8.647491
4013.141, -22.99874
4015.070, -5.102332
4016.998, -13.75748
4018.927, -19.54834
4020.855, 2.086437
4022.783, 7.774729
4024.712, -11.38461
4026.640, -14.16249
4028.569, -6.751777
4030.497, -12.99156
4032.426, -9.605651
4034.354, -7.429186
4036.283, -16.99539
4038.211, -6.558503
4040.140, -11.40933
4042.068, -15.91839
4043.997, -10.06181
4045.925, -10.24841
4047.854, -6.696147
4049.782, -4.821782
4051.710, -21.72200
4053.639, -5.630888
4055.567, -5.058860
4057.496, -14.06551
4059.424, -13.24199
4061.353, -3.802379
4063.281, -17.45499
4065.210, -15.38925
4067.138, -13.24111
4069.067, -14.80071
4070.995, -3.432014
4072.924, -14.62437
4074.852, -23.34995
4076.781, -7.615175
4078.709, -11.42531
4080.637, -6.940988
4082.566, -10.45895
4084.494, -12.38892
4086.423, -11.99966
4088.351, -2.364068
4090.280, -11.94189
4092.208, -12.47367
4094.137, -9.003572
4096.065, -20.26339
4097.994, -24.99439
4099.922, -16.19470
4101.851, -6.533188
4103.779, -19.92784
4105.708, -13.99544
4107.636, 2.637825
4109.564, -14.72510
4111.493, -20.35302
4113.421, -12.28752
4115.350, -20.61600
4117.278, -1.671923
4119.207, -14.67785
4121.135, -14.85939
4123.063, -14.33305
4124.992, -20.49512
4126.920, -4.018341
4128.849, -14.53566
4130.777, -17.21790
4132.706, -4.104113
4134.634, -15.20910
4136.563, -2.076645
4138.491, -21.81454
4140.420, -31.49700
4142.348, -5.960486
4144.277, 4.178021
4146.205, -2.815270
4148.134, -6.839487
4150.062, -13.65047
4151.991, -17.65445
4153.919, -14.03160
4155.848, -20.54617
4157.776, -17.59174
4159.705, 0.3219213
4161.633, -11.45568
4163.562, -16.67817
4165.490, 2.972610
4167.418, -13.22602
4169.347, -10.01067
4171.275, -35.00375
4173.204, -16.61534
4175.132, -3.204801
4177.061, -15.43115
4178.989, -20.21100
4180.917, -11.59804
4182.846, -12.13346
4184.774, -2.880753
4186.703, -2.772232
4188.631, -8.948239
4190.560, -14.88356
4192.488, -12.38062
4194.417, 5.3896271E-02
4196.345, 3.731954
4198.274, -1.466006
4200.202, -4.257752
4202.131, -13.08923
4204.059, -5.303078
4205.988, -12.52405
4207.916, 6.207352
4209.845, 13.66674
4211.773, -5.601744
4213.702, -20.41942
4215.630, -30.29484
4217.559, -19.44235
4219.487, -13.76012
4221.416, -9.821383
4223.344, -14.85582
4225.272, -5.069578
4227.201, -7.132021
4229.129, -6.714830
4231.058, -2.902457
4232.986, -8.605895
4234.915, -12.77707
4236.843, -14.52261
4238.771, -6.579581
4240.700, -8.468183
4242.628, -25.14269
4244.557, -17.81551
4246.485, -14.12347
4248.414, -26.96762
4250.342, -22.40560
4252.271, -19.27836
4254.199, -11.01689
4256.128, 3.258271
4258.056, -9.835109
4259.985, -23.29761
4261.913, -1.129688
4263.842, -4.138565
4265.770, -13.98496
4267.699, -5.069015
4269.627, -14.89158
4271.556, 1.002293
4273.484, -7.632759
4275.413, -22.53531
4277.341, -13.68329
4279.270, -17.33740
4281.198, -4.663111
4283.126, -5.955085
4285.055, -20.07197
4286.983, -9.881020
4288.912, -1.818531
4290.840, 4.348993
4292.769, -12.19707
4294.697, -9.402723
4296.625, -15.92602
4298.554, -7.333618
4300.482, -10.82424
4302.411, -26.55172
4304.339, -16.23484
4306.268, -14.43593
4308.196, -25.67368
4310.125, -13.61727
4312.053, 0.5343186
4313.982, -14.79117
4315.910, -22.46559
4317.839, -26.08632
4319.767, -12.65117
4321.696, -5.814439
4323.624, 3.721831
4325.553, -5.267181
4327.481, -22.34246
4329.410, -23.65476
4331.338, -23.05080
4333.267, -11.37261
4335.195, -25.90398
4337.124, 2.962060
4339.052, 6.223364
4340.980, -15.64776
4342.909, -17.58926
4344.837, -17.34237
4346.766, -1.022340
4348.694, -26.73505
4350.623, -15.25973
4352.551, -8.949492
4354.479, -22.92818
4356.408, -1.478444
4358.336, -9.155733
4360.265, -12.32500
4362.193, -7.826670
4364.122, -11.59972
4366.050, -6.134784
4367.979, -2.154844
4369.907, -8.713888
4371.836, -18.21830
4373.764, -20.13902
4375.693, -14.58504
4377.621, -22.00632
4379.550, -14.64675
##END=



