##NAMES=Vayrynenite
##RRUFFID=R050590
##IDEAL CHEMISTRY=BeMn^2+^(PO_4_)(OH)
##LOCALITY=Shengus, Pakistan
##OWNER=RRUFF
##SOURCE=Wayne Thompson
##DESCRIPTION=Pinkish brown fragment
##STATUS=The identification of this mineral has been confirmed by X-ray diffraction and chemical analysis
##URL=https://www.rruff.net/odr/rruff_sample/R050590
##MEASURED CHEMISTRY=(Mn^2+^_0.91_Fe^2+^_0.04_[box]_0.05_)Be(PO_4_)(OH_0.90_F_0.10_)
##DIFFRACTION SAMPLE DESCRIPTION=Powder
##CELL PARAMETERS=a: 5.416 b: 14.544 c: 4.7179 alpha: 90 beta: 102.74 gamma: 90 volume: 362.49 crystal system: monoclinic
##FILETYPE=Raman Processed
##RAMAN WAVELENGTH=780

114.2727, 81.26611
116.2011, 96.57610
118.1296, 122.5334
120.0581, 144.3775
121.9865, 165.2276
123.9150, 174.1927
125.8435, 162.3866
127.7719, 135.0951
129.7004, 108.5446
131.6289, 81.54539
133.5574, 59.99436
135.4858, 45.89913
137.4143, 36.38320
139.3428, 30.42235
141.2712, 27.50877
143.1997, 26.76090
145.1281, 28.21804
147.0566, 30.40786
148.9851, 33.26134
150.9135, 36.66008
152.8420, 40.95066
154.7705, 45.54995
156.6989, 49.38314
158.6274, 52.47850
160.5559, 55.09327
162.4843, 56.51871
164.4128, 58.86421
166.3413, 61.63294
168.2697, 66.34750
170.1982, 74.99097
172.1267, 87.45974
174.0551, 103.3404
175.9836, 122.8021
177.9121, 145.5247
179.8405, 180.3326
181.7690, 210.6113
183.6975, 222.5047
185.6259, 216.6005
187.5544, 195.3707
189.4829, 153.3074
191.4113, 115.1968
193.3398, 84.98938
195.2683, 61.90894
197.1967, 47.47291
199.1252, 40.01084
201.0537, 34.90423
202.9821, 32.29383
204.9106, 31.01239
206.8391, 31.57645
208.7675, 32.55082
210.6960, 33.60612
212.6245, 34.77955
214.5529, 36.32493
216.4814, 38.15165
218.4099, 39.21741
220.3383, 39.12799
222.2668, 38.62679
224.1953, 37.31665
226.1237, 36.09196
228.0522, 35.96164
229.9807, 36.44200
231.9091, 36.46018
233.8376, 36.07941
235.7661, 34.82196
237.6945, 31.92595
239.6230, 29.12321
241.5515, 27.04303
243.4799, 25.56161
245.4084, 24.45468
247.3369, 23.71345
249.2654, 23.55994
251.1938, 24.05898
253.1223, 25.05692
255.0508, 26.63028
256.9792, 28.62887
258.9077, 31.28904
260.8362, 34.25490
262.7646, 36.57221
264.6931, 38.58445
266.6216, 38.89614
268.5500, 36.68396
270.4785, 34.04591
272.4070, 31.22449
274.3354, 28.74313
276.2639, 27.12286
278.1924, 26.33819
280.1208, 25.85272
282.0493, 25.69409
283.9778, 25.78317
285.9062, 26.36481
287.8347, 26.83921
289.7632, 26.77811
291.6916, 26.48518
293.6201, 26.30310
295.5486, 26.21302
297.4770, 26.46256
299.4055, 26.94563
301.3340, 28.02698
303.2624, 30.12380
305.1909, 32.44802
307.1194, 34.52283
309.0478, 36.50347
310.9763, 38.66284
312.9048, 41.00939
314.8332, 43.61699
316.7617, 46.30489
318.6902, 49.71252
320.6186, 53.49828
322.5471, 58.79728
324.4756, 66.54386
326.4040, 76.20254
328.3325, 87.08134
330.2609, 99.23014
332.1894, 110.7056
334.1179, 122.9182
336.0463, 130.0418
337.9748, 128.9104
339.9033, 123.2830
341.8317, 112.6460
343.7602, 99.64446
345.6887, 90.44608
347.6171, 84.79530
349.5456, 81.57946
351.4741, 81.42331
353.4025, 81.67570
355.3310, 81.55878
357.2595, 81.59876
359.1879, 81.36208
361.1164, 81.80157
363.0449, 84.18930
364.9733, 88.59329
366.9018, 96.78669
368.8303, 109.0462
370.7587, 124.9386
372.6872, 147.4449
374.6157, 169.6629
376.5441, 193.4435
378.4726, 212.0213
380.4011, 215.2080
382.3295, 205.1217
384.2580, 185.8451
386.1865, 154.7535
388.1149, 126.3194
390.0434, 102.0170
391.9719, 81.80784
393.9003, 66.16815
395.8288, 54.26099
397.7573, 46.24421
399.6857, 41.14806
401.6142, 37.33683
403.5427, 34.88118
405.4711, 32.74326
407.3996, 30.85211
409.3281, 29.22228
411.2565, 27.88559
413.1850, 26.78773
415.1135, 25.81923
417.0419, 25.12197
418.9704, 24.80073
420.8989, 24.87487
422.8273, 25.62783
424.7558, 27.27060
426.6843, 29.24987
428.6127, 31.51389
430.5412, 34.15800
432.4697, 37.71729
434.3981, 41.16095
436.3266, 43.53907
438.2551, 45.29416
440.1835, 47.29535
442.1120, 49.40173
444.0405, 52.59306
445.9689, 56.18195
447.8974, 62.13646
449.8259, 70.22538
451.7543, 81.46144
453.6828, 98.49290
455.6113, 117.1802
457.5397, 136.8490
459.4682, 155.1668
461.3967, 162.9183
463.3251, 159.1392
465.2536, 146.4023
467.1821, 120.9819
469.1105, 97.25607
471.0390, 77.28259
472.9675, 61.91743
474.8959, 52.49238
476.8244, 46.86683
478.7529, 43.63382
480.6813, 42.50904
482.6098, 42.50302
484.5383, 43.67518
486.4667, 45.24968
488.3952, 47.10450
490.3237, 49.68551
492.2521, 52.36269
494.1806, 57.12256
496.1091, 64.42467
498.0375, 74.28869
499.9660, 87.51146
501.8945, 103.1868
503.8229, 120.6482
505.7514, 139.3455
507.6799, 150.1816
509.6083, 152.1872
511.5368, 149.4937
513.4653, 141.4247
515.3937, 131.5757
517.3222, 119.5881
519.2507, 108.1446
521.1791, 97.06327
523.1076, 88.79739
525.0361, 87.34779
526.9645, 92.43598
528.8930, 103.5234
530.8215, 120.7698
532.7499, 140.4120
534.6784, 166.9256
536.6069, 183.2006
538.5353, 186.1238
540.4638, 177.8687
542.3923, 152.5874
544.3207, 122.5162
546.2492, 96.82056
548.1777, 76.00224
550.1061, 60.84802
552.0346, 51.01807
553.9631, 44.52600
555.8915, 41.53085
557.8200, 40.44429
559.7485, 41.76971
561.6769, 44.02013
563.6054, 47.40239
565.5339, 51.13281
567.4623, 55.73668
569.3908, 59.75062
571.3193, 61.85471
573.2477, 62.19982
575.1762, 60.23314
577.1047, 56.24168
579.0331, 53.58357
580.9616, 51.90737
582.8901, 53.15794
584.8185, 57.64167
586.7470, 64.48968
588.6755, 74.81326
590.6039, 85.85307
592.5324, 97.17366
594.4609, 107.8853
596.3893, 116.8471
598.3178, 125.1434
600.2463, 133.0938
602.1747, 141.4576
604.1032, 154.9885
606.0317, 172.7908
607.9601, 200.5023
609.8886, 239.3598
611.8171, 285.1054
613.7455, 347.2362
615.6740, 396.5734
617.6025, 430.7318
619.5309, 438.1163
621.4594, 401.7925
623.3879, 344.6145
625.3163, 278.2778
627.2448, 210.3768
629.1733, 156.7691
631.1017, 117.1928
633.0302, 88.82079
634.9587, 72.53211
636.8871, 60.62501
638.8156, 53.51762
640.7441, 48.11032
642.6725, 44.34188
644.6010, 40.74732
646.5295, 36.46345
648.4579, 32.65677
650.3864, 30.10721
652.3149, 28.05969
654.2433, 25.74763
656.1718, 23.54552
658.1003, 22.19001
660.0287, 21.52049
661.9572, 20.81207
663.8857, 20.08475
665.8141, 19.55430
667.7426, 19.24135
669.6711, 19.05861
671.5995, 19.02674
673.5280, 19.01789
675.4565, 18.86415
677.3849, 18.93644
679.3134, 19.50512
681.2419, 20.11661
683.1703, 20.51148
685.0988, 20.86307
687.0273, 21.18041
688.9557, 21.59797
690.8842, 22.49042
692.8127, 23.71693
694.7411, 24.84396
696.6696, 25.90246
698.5981, 27.33210
700.5265, 29.17910
702.4550, 31.32750
704.3834, 33.97975
706.3119, 36.45298
708.2404, 38.39441
710.1688, 40.55159
712.0973, 43.18967
714.0258, 45.96291
715.9542, 48.42096
717.8827, 51.27492
719.8112, 55.03035
721.7396, 59.57145
723.6681, 64.52185
725.5966, 70.32487
727.5250, 77.90227
729.4535, 87.14014
731.3820, 97.67124
733.3104, 109.7771
735.2389, 120.5941
737.1674, 131.4284
739.0958, 137.2379
741.0243, 137.8569
742.9528, 133.8036
744.8812, 123.3325
746.8097, 111.1552
748.7382, 96.92439
750.6666, 83.82079
752.5951, 73.02941
754.5236, 64.31660
756.4520, 57.91666
758.3805, 53.19893
760.3090, 49.87057
762.2374, 47.66193
764.1659, 46.45738
766.0944, 45.95012
768.0228, 45.22104
769.9513, 44.28222
771.8798, 43.31422
773.8082, 42.36727
775.7367, 40.70270
777.6652, 38.08363
779.5936, 36.13166
781.5221, 35.06258
783.4506, 34.16784
785.3790, 33.37707
787.3075, 32.60896
789.2360, 31.86226
791.1644, 31.09409
793.0929, 30.23905
795.0214, 29.43027
796.9498, 28.80642
798.8783, 28.13854
800.8068, 27.15844
802.7352, 26.23930
804.6637, 25.82880
806.5922, 25.56663
808.5206, 24.95382
810.4491, 24.16365
812.3776, 23.46560
814.3060, 22.86453
816.2345, 22.45178
818.1630, 22.21018
820.0914, 22.02851
822.0199, 21.93045
823.9484, 22.11788
825.8768, 22.58824
827.8053, 22.72204
829.7338, 22.41311
831.6622, 22.26024
833.5907, 22.41202
835.5192, 22.42525
837.4476, 22.07820
839.3761, 21.93548
841.3046, 22.28730
843.2330, 22.49870
845.1615, 22.26067
847.0900, 22.08485
849.0184, 22.29340
850.9469, 22.46941
852.8754, 22.31521
854.8038, 22.11983
856.7323, 22.02732
858.6608, 22.03653
860.5892, 22.26040
862.5177, 22.51649
864.4462, 22.49944
866.3746, 22.44658
868.3031, 22.76243
870.2316, 23.24276
872.1600, 23.42126
874.0885, 23.42099
876.0170, 23.64070
877.9454, 24.05617
879.8739, 24.51287
881.8024, 25.02155
883.7308, 25.70971
885.6593, 26.58965
887.5878, 27.34346
889.5162, 27.99516
891.4447, 28.54217
893.3732, 28.92179
895.3016, 29.40952
897.2301, 30.18628
899.1586, 30.46311
901.0870, 29.98821
903.0155, 29.55552
904.9440, 29.26701
906.8724, 29.15303
908.8009, 29.29937
910.7294, 29.27713
912.6578, 28.78492
914.5863, 28.65874
916.5148, 29.25611
918.4432, 30.04557
920.3717, 30.85951
922.3002, 31.78923
924.2286, 32.76176
926.1571, 34.00350
928.0856, 35.74281
930.0140, 37.66153
931.9425, 39.64869
933.8710, 41.65427
935.7994, 43.51076
937.7279, 45.45995
939.6564, 47.60870
941.5848, 50.16746
943.5133, 52.88021
945.4418, 56.51091
947.3702, 61.49638
949.2987, 68.41231
951.2272, 77.72111
953.1556, 89.85561
955.0841, 106.0680
957.0126, 125.1080
958.9410, 145.1427
960.8695, 166.0736
962.7980, 187.3179
964.7264, 209.4427
966.6549, 231.4463
968.5834, 256.4848
970.5118, 290.5717
972.4403, 335.7593
974.3688, 400.7080
976.2972, 481.2311
978.2257, 570.6022
980.1542, 662.1503
982.0826, 738.9908
984.0111, 794.9496
985.9396, 801.1198
987.8680, 763.3759
989.7965, 709.4832
991.7250, 645.9998
993.6534, 608.9775
995.5819, 600.2027
997.5104, 629.1796
999.4388, 694.4828
1001.367, 768.3430
1003.296, 849.6237
1005.224, 880.8153
1007.153, 860.0570
1009.081, 786.6435
1011.010, 655.2561
1012.938, 532.0438
1014.867, 416.4354
1016.795, 323.4466
1018.724, 254.2833
1020.652, 201.0921
1022.580, 164.9797
1024.509, 136.8972
1026.437, 117.5284
1028.366, 102.1437
1030.294, 90.99126
1032.223, 82.07678
1034.151, 75.61646
1036.080, 70.56514
1038.008, 67.09828
1039.937, 63.72906
1041.865, 60.56721
1043.794, 56.80408
1045.722, 52.28435
1047.651, 48.32055
1049.579, 44.98916
1051.507, 41.46216
1053.436, 37.66895
1055.364, 34.55567
1057.293, 32.09649
1059.221, 30.53193
1061.150, 29.91433
1063.078, 29.56776
1065.007, 29.45048
1066.935, 29.72690
1068.864, 30.41608
1070.792, 31.42279
1072.721, 32.64258
1074.649, 32.41977
1076.578, 30.81415
1078.506, 29.05428
1080.434, 27.22092
1082.363, 25.66250
1084.291, 24.32470
1086.220, 22.73939
1088.148, 21.06871
1090.077, 20.25061
1092.005, 20.09244
1093.934, 19.71498
1095.862, 19.22564
1097.791, 19.01475
1099.719, 18.98487
1101.648, 18.84473
1103.576, 18.74852
1105.505, 19.02976
1107.433, 19.68412
1109.361, 20.62680
1111.290, 21.96545
1113.218, 24.04753
1115.147, 26.67601
1117.075, 29.47050
1119.004, 32.49552
1120.932, 36.10516
1122.861, 39.78856
1124.789, 42.69513
1126.718, 45.34083
1128.646, 47.87077
1130.575, 51.08265
1132.503, 55.81699
1134.432, 61.78064
1136.360, 70.54016
1138.288, 78.17333
1140.217, 82.36239
1142.145, 82.28321
1144.074, 75.83282
1146.002, 67.04631
1147.931, 57.37952
1149.859, 48.24289
1151.788, 39.99987
1153.716, 33.43450
1155.645, 29.20603
1157.573, 26.24734
1159.502, 24.36819
1161.430, 23.10545
1163.359, 22.45907
1165.287, 21.94775
1167.215, 21.36037
1169.144, 21.10469
1171.072, 21.33877
1173.001, 21.75559
1174.929, 22.25505
1176.858, 23.02939
1178.786, 24.17790
1180.715, 25.23551
1182.643, 26.23047
1184.572, 26.60492
1186.500, 26.30797
1188.429, 25.47474
1190.357, 24.10519
1192.286, 22.69731
1194.214, 21.24384
1196.142, 19.78677
1198.071, 18.41982
1199.999, 17.44806
1201.928, 16.79611
1203.856, 16.29848
1205.785, 15.88468
1207.713, 15.46885
1209.642, 15.07428
1211.570, 14.62762
1213.499, 14.26951
1215.427, 14.27260
1217.356, 14.25610
1219.284, 13.86568
1221.213, 13.42707
1223.141, 13.10065
1225.069, 12.89824
1226.998, 12.89664
1228.926, 12.79446
1230.855, 12.41170
1232.783, 12.15889
1234.712, 12.20652
1236.640, 12.17099
1238.569, 12.08311
1240.497, 11.75420
1242.426, 11.00944
1244.354, 10.62273
1246.283, 10.67260
1248.211, 10.64455
1250.140, 10.56330
1252.068, 10.33432
1253.996, 9.970377
1255.925, 9.895452
1257.853, 10.03482
1259.782, 10.15137
1261.710, 10.21283
1263.639, 9.982424
1265.567, 9.656989
1267.496, 9.643382
1269.424, 9.744036
1271.353, 9.743720
1273.281, 9.699598
1275.210, 9.653426
1277.138, 9.587490
1279.067, 9.444900
1280.995, 9.362392
1282.923, 9.485559
1284.852, 9.538512
1286.780, 9.360335
1288.709, 9.243713
1290.637, 9.282633
1292.566, 9.228610
1294.494, 9.053130
1296.423, 9.134378
1298.351, 9.429510
1300.280, 9.587295
1302.208, 9.615625
1304.137, 9.567135
1306.065, 9.519833
1307.994, 9.544475
1309.922, 9.583441
1311.850, 9.632294
1313.779, 9.659905
1315.707, 9.557177
1317.636, 9.490696
1319.564, 9.598318
1321.493, 9.691071
1323.421, 9.832735
1325.350, 9.706759
1327.278, 9.070252
1329.207, 8.940074
1331.135, 9.500699
1333.064, 9.703016
1334.992, 9.507532
1336.921, 9.428120
1338.849, 9.421375
1340.777, 9.192342
1342.706, 8.964062
1344.634, 9.252981
1346.563, 9.643235
1348.491, 9.622936
1350.420, 9.523884
1352.348, 9.628311
1354.277, 9.682611
1356.205, 9.450533
1358.134, 9.267909
1360.062, 9.322233
1361.991, 9.365561
1363.919, 9.322803
1365.848, 9.326120
1367.776, 9.389768
1369.704, 9.423711
1371.633, 9.460077
1373.561, 9.579273
1375.490, 9.681536
1377.418, 9.630763
1379.347, 9.515400
1381.275, 9.250527
1383.204, 9.099626
1385.132, 9.307870
1387.061, 9.567194
1388.989, 9.857677
1390.918, 9.990938
1392.846, 9.861481
1394.775, 9.742634
1396.703, 9.608547
1398.631, 9.699962
1400.560, 10.04226
1402.488, 10.08688
1404.417, 9.946397
1406.345, 9.963645
1408.274, 10.00420
1410.202, 9.992505
1412.131, 9.927517
1414.059, 9.647588
1415.988, 9.418972
1417.916, 9.423938
1419.845, 9.362838
1421.773, 9.178696
1423.702, 9.133586
1425.630, 9.237093
1427.558, 9.359832
1429.487, 9.493122
1431.415, 9.257315
1433.344, 8.795498
1435.272, 8.841446
1437.201, 9.107939
1439.129, 9.127563
1441.058, 9.081455
1442.986, 8.887274
1444.915, 8.827140
1446.843, 9.400582
1448.771, 9.634645
1450.700, 9.265525
1452.628, 9.117529
1454.557, 9.225498
1456.485, 9.249113
1458.414, 9.177698
1460.342, 9.245922
1462.271, 9.416894
1464.199, 9.413041
1466.128, 9.324032
1468.056, 9.293694
1469.985, 9.282395
1471.913, 9.233228
1473.842, 9.201120
1475.770, 9.244776
1477.698, 9.247858
1479.627, 9.166419
1481.555, 9.130484
1483.484, 9.212919
1485.412, 9.227389
1487.341, 9.148067
1489.269, 9.251319
1491.198, 9.395360
1493.126, 9.417708
1495.055, 9.398256
1496.983, 9.234773
1498.912, 9.158519
1500.840, 9.402440
1502.769, 9.587635
1504.697, 9.606650
1506.625, 9.683139
1508.554, 9.781838
1510.482, 9.547608
1512.411, 9.296071
1514.339, 9.503906
1516.268, 9.667059
1518.196, 9.519959
1520.125, 9.503558
1522.053, 9.680515
1523.982, 9.770600
1525.910, 9.805154
1527.839, 9.804688
1529.767, 9.747824
1531.696, 9.477448
1533.624, 9.216826
1535.552, 9.261018
1537.481, 9.341146
1539.409, 9.400784
1541.338, 9.520972
1543.266, 9.624131
1545.195, 9.485517
1547.123, 9.237524
1549.052, 9.390386
1550.980, 9.715834
1552.909, 9.799256
1554.837, 9.746911
1556.766, 9.578193
1558.694, 9.450797
1560.623, 9.421047
1562.551, 9.342016
1564.479, 9.281346
1566.408, 9.453861
1568.336, 9.758488
1570.265, 9.627298
1572.193, 9.337249
1574.122, 9.220989
1576.050, 9.125278
1577.979, 9.200551
1579.907, 9.235196
1581.836, 8.954624
1583.764, 8.834847
1585.693, 8.946966
1587.621, 8.934327
1589.550, 8.825379
1591.478, 8.795886
1593.406, 8.792790
1595.335, 8.810096
1597.263, 8.793872
1599.192, 8.559174
1601.120, 8.418405
1603.049, 8.464475
1604.977, 8.497623
1606.906, 8.614408
1608.834, 8.833948
1610.763, 8.977295
1612.691, 8.851546
1614.620, 8.627322
1616.548, 8.387902
1618.477, 8.331009
1620.405, 8.565184
1622.333, 8.639740
1624.262, 8.450993
1626.190, 8.315349
1628.119, 8.267999
1630.047, 8.094768
1631.976, 7.888679
1633.904, 7.898524
1635.833, 8.172323
1637.761, 8.567148
1639.690, 8.608789
1641.618, 8.425562
1643.547, 8.370966
1645.475, 8.335534
1647.404, 8.297618
1649.332, 8.298345
1651.260, 8.356378
1653.189, 8.273265
1655.117, 7.982357
1657.046, 8.022643
1658.974, 8.278782
1660.903, 8.304003
1662.831, 8.186892
1664.760, 7.899179
1666.688, 7.781297
1668.617, 8.158487
1670.545, 8.389930
1672.474, 8.286553
1674.402, 8.265885
1676.331, 8.296796
1678.259, 8.148203
1680.188, 7.997032
1682.116, 8.155982
1684.044, 8.409656
1685.973, 8.397823
1687.901, 8.174694
1689.830, 8.127190
1691.758, 8.055052
1693.687, 7.627023
1695.615, 7.685770
1697.544, 8.402576
1699.472, 8.608692
1701.401, 8.231911
1703.329, 7.936681
1705.258, 7.805235
1707.186, 7.701785
1709.115, 7.824160
1711.043, 8.155189
1712.971, 8.298994
1714.900, 8.272681
1716.828, 8.186315
1718.757, 8.041503
1720.685, 7.905330
1722.614, 7.932366
1724.542, 8.026389
1726.471, 8.041212
1728.399, 7.983610
1730.328, 7.881759
1732.256, 7.753103
1734.185, 7.715432
1736.113, 7.958491
1738.042, 8.131475
1739.970, 7.896979
1741.898, 7.795584
1743.827, 8.093347
1745.755, 8.228588
1747.684, 8.165596
1749.612, 8.139109
1751.541, 8.035140
1753.469, 8.034488
1755.398, 8.223364
1757.326, 8.095395
1759.255, 7.883841
1761.183, 8.107249
1763.112, 8.262843
1765.040, 8.073915
1766.969, 7.947465
1768.897, 7.983269
1770.825, 7.918860
1772.754, 7.838665
1774.682, 7.660474
1776.611, 7.481739
1778.539, 7.608699
1780.468, 7.844180
1782.396, 7.679502
1784.325, 7.407926
1786.253, 7.572788
1788.182, 7.988977
1790.110, 8.009710
1792.039, 7.580810
1793.967, 7.341484
1795.896, 7.437984
1797.824, 7.309131
1799.752, 7.202345
1801.681, 7.357389
1803.609, 7.353579
1805.538, 7.433076
1807.466, 7.558009
1809.395, 7.335665
1811.323, 7.174997
1813.252, 7.280336
1815.180, 7.374377
1817.109, 7.308236
1819.037, 7.134475
1820.966, 7.096249
1822.894, 7.091148
1824.823, 7.024917
1826.751, 7.187937
1828.679, 7.641085
1830.608, 7.572511
1832.536, 6.989096
1834.465, 6.814814
1836.393, 6.901481
1838.322, 6.891442
1840.250, 6.720041
1842.179, 6.622201
1844.107, 6.626085
1846.036, 6.671861
1847.964, 6.727081
1849.893, 6.741553
1851.821, 6.843337
1853.750, 6.772940
1855.678, 6.644123
1857.606, 6.804411
1859.535, 7.018741
1861.463, 6.921320
1863.392, 6.551271
1865.320, 6.336604
1867.249, 6.479714
1869.177, 6.572040
1871.106, 6.634645
1873.034, 6.741782
1874.963, 6.583445
1876.891, 6.363197
1878.820, 6.494842
1880.748, 6.578227
1882.677, 6.651434
1884.605, 6.783212
1886.533, 6.621872
1888.462, 6.484214
1890.390, 6.606082
1892.319, 6.564505
1894.247, 6.419167
1896.176, 6.244664
1898.104, 6.107920
1900.033, 6.199857
1901.961, 6.314106
1903.890, 6.270904
1905.818, 6.087355
1907.747, 6.124562
1909.675, 6.295087
1911.604, 6.248816
1913.532, 6.385214
1915.460, 6.562871
1917.389, 6.307077
1919.317, 5.944846
1921.246, 5.979336
1923.174, 6.144374
1925.103, 6.066255
1927.031, 5.951242
1928.960, 5.947429
1930.888, 6.148718
1932.817, 6.230526
1934.745, 5.867876
1936.674, 5.650802
1938.602, 5.578413
1940.531, 5.746403
1942.459, 6.063098
1944.387, 5.994499
1946.316, 5.900116
1948.244, 6.155483
1950.173, 6.199529
1952.101, 6.012403
1954.030, 5.922566
1955.958, 6.011420
1957.887, 6.203343
1959.815, 6.186903
1961.744, 6.019667
1963.672, 5.850199
1965.601, 5.875562
1967.529, 6.229546
1969.458, 6.138376
1971.386, 5.750246
1973.314, 5.771393
1975.243, 5.791040
1977.171, 5.648402
1979.100, 5.765640
1981.028, 5.779856
1982.957, 5.550408
1984.885, 5.585362
1986.814, 5.631152
1988.742, 5.290181
1990.671, 5.246463
1992.599, 5.650651
1994.528, 6.044205
1996.456, 6.114757
1998.385, 6.039641
2000.313, 6.131630
2002.241, 5.736455
2004.170, 5.247953
2006.098, 5.273431
2008.027, 5.435650
2009.955, 5.422109
2011.884, 5.637192
2013.812, 5.847651
2015.741, 5.536487
2017.669, 5.284873
2019.598, 5.378913
2021.526, 5.545811
2023.455, 5.436426
2025.383, 5.065049
2027.312, 5.018495
2029.240, 5.359806
2031.168, 5.513466
2033.097, 5.412834
2035.025, 5.228438
2036.954, 5.337902
2038.882, 5.356608
2040.811, 5.398043
2042.739, 5.567008
2044.668, 5.423018
2046.596, 5.407037
2048.525, 5.553329
2050.453, 5.467310
2052.382, 5.405058
2054.310, 5.409130
2056.239, 5.263764
2058.167, 4.926991
2060.095, 4.911779
2062.024, 5.170207
2063.952, 5.170028
2065.881, 4.913946
2067.809, 4.806988
2069.738, 4.799228
2071.666, 4.806100
2073.595, 5.075051
2075.523, 5.171591
2077.452, 5.236974
2079.380, 5.281552
2081.309, 5.308293
2083.237, 5.366150
2085.166, 5.219843
2087.094, 4.873608
2089.022, 4.823432
2090.951, 4.986678
2092.879, 4.960011
2094.808, 4.745826
2096.736, 4.758040
2098.665, 4.766267
2100.593, 4.855464
2102.522, 5.166259
2104.450, 5.104613
2106.379, 4.887709
2108.307, 4.828873
2110.236, 4.859620
2112.164, 4.616954
2114.093, 4.549666
2116.021, 4.661636
2117.949, 4.571490
2119.878, 4.472333
2121.806, 4.583106
2123.735, 4.838968
2125.663, 4.786757
2127.592, 4.469710
2129.520, 4.478330
2131.449, 4.490808
2133.377, 4.363150
2135.306, 4.491946
2137.234, 4.746186
2139.163, 4.720316
2141.091, 4.550895
2143.020, 4.441774
2144.948, 4.422976
2146.876, 4.531684
2148.805, 4.551476
2150.733, 4.488614
2152.662, 4.351534
2154.590, 4.197009
2156.519, 4.142067
2158.447, 4.381797
2160.376, 4.482649
2162.304, 4.377822
2164.233, 4.332898
2166.161, 4.300334
2168.090, 4.381021
2170.018, 4.390430
2171.947, 4.078783
2173.875, 3.893270
2175.803, 4.136798
2177.732, 4.420638
2179.660, 4.346257
2181.589, 4.092697
2183.517, 4.366059
2185.446, 4.635999
2187.374, 4.401315
2189.303, 4.077212
2191.231, 3.846489
2193.160, 4.051337
2195.088, 4.245373
2197.017, 4.195909
2198.945, 4.015997
2200.874, 3.927039
2202.802, 4.092615
2204.730, 4.165164
2206.659, 3.849617
2208.587, 3.986033
2210.516, 4.389967
2212.444, 3.992710
2214.373, 3.759519
2216.301, 3.808420
2218.230, 4.047331
2220.158, 4.341031
2222.087, 4.168849
2224.015, 4.144657
2225.944, 4.129579
2227.872, 4.072677
2229.801, 4.118440
2231.729, 4.158783
2233.657, 3.787591
2235.586, 3.414355
2237.514, 3.632177
2239.443, 3.939090
2241.371, 3.951905
2243.300, 4.052481
2245.228, 4.074304
2247.157, 3.779114
2249.085, 3.876470
2251.014, 3.946533
2252.942, 3.853538
2254.871, 3.917289
2256.799, 4.036101
2258.728, 4.019039
2260.656, 3.948027
2262.584, 4.120299
2264.513, 4.057511
2266.441, 3.778739
2268.370, 3.844915
2270.298, 3.913630
2272.227, 3.832923
2274.155, 3.566266
2276.084, 3.408645
2278.012, 3.451974
2279.941, 3.694211
2281.869, 4.056048
2283.798, 4.080454
2285.726, 3.974224
2287.655, 3.902031
2289.583, 3.637769
2291.511, 3.440558
2293.440, 3.705725
2295.368, 3.891121
2297.297, 3.838650
2299.225, 3.571659
2301.154, 3.595421
2303.082, 3.729392
2305.011, 3.814207
2306.939, 3.934618
2308.868, 4.024235
2310.796, 3.808392
2312.725, 3.606155
2314.653, 3.722171
2316.582, 3.668226
2318.510, 3.564888
2320.438, 3.672058
2322.367, 3.620466
2324.295, 3.160305
2326.224, 3.297675
2328.152, 3.700916
2330.081, 3.919395
2332.009, 3.916759
2333.938, 3.594925
2335.866, 3.272029
2337.795, 3.289207
2339.723, 3.598462
2341.652, 3.413721
2343.580, 3.177678
2345.509, 3.363872
2347.437, 3.561526
2349.365, 3.617532
2351.294, 3.574951
2353.222, 3.701338
2355.151, 3.811340
2357.079, 3.194961
2359.008, 2.784235
2360.936, 2.849883
2362.865, 3.135670
2364.793, 3.207294
2366.722, 3.003169
2368.650, 2.949557
2370.579, 2.924068
2372.507, 3.150187
2374.436, 3.268671
2376.364, 3.146896
2378.292, 3.022186
2380.221, 3.060225
2382.149, 3.133041
2384.078, 2.911057
2386.006, 2.850299
2387.935, 3.010964
2389.863, 3.046174
2391.792, 3.210327
2393.720, 3.246207
2395.649, 3.050254
2397.577, 2.868682
2399.506, 3.077032
2401.434, 3.147619
2403.363, 2.820044
2405.291, 2.730676
2407.219, 2.859955
2409.148, 2.997689
2411.076, 3.094298
2413.005, 3.047772
2414.933, 2.850703
2416.862, 2.841584
2418.790, 2.802838
2420.719, 2.569409
2422.647, 2.561513
2424.576, 2.752595
2426.504, 2.797690
2428.433, 2.719982
2430.361, 2.548308
2432.290, 2.295939
2434.218, 2.207532
2436.146, 2.511449
2438.075, 2.508274
2440.003, 2.649242
2441.932, 3.081307
2443.860, 2.945340
2445.789, 2.654334
2447.717, 2.607258
2449.646, 2.333097
2451.574, 1.935182
2453.503, 2.204156
2455.431, 2.635187
2457.360, 2.936599
2459.288, 2.756684
2461.217, 2.614064
2463.145, 2.729075
2465.073, 2.692462
2467.002, 2.634286
2468.930, 2.580468
2470.859, 2.605716
2472.787, 2.738050
2474.716, 2.730746
2476.644, 2.798626
2478.573, 2.863011
2480.501, 2.224408
2482.430, 2.015988
2484.358, 2.190546
2486.287, 2.216990
2488.215, 2.189116
2490.144, 2.213623
2492.072, 2.705955
2494.000, 2.834911
2495.929, 2.566046
2497.857, 2.493501
2499.786, 2.529622
2501.714, 2.662351
2503.643, 2.566778
2505.571, 2.459678
2507.500, 2.571903
2509.428, 2.640204
2511.357, 2.588441
2513.285, 2.277767
2515.214, 2.450349
2517.142, 2.650511
2519.071, 2.435665
2520.999, 2.615158
2522.927, 2.778980
2524.856, 2.297616
2526.784, 2.046447
2528.713, 2.023149
2530.641, 2.005516
2532.570, 2.231202
2534.498, 2.557764
2536.427, 2.450520
2538.355, 2.205082
2540.284, 1.920884
2542.212, 2.053354
2544.141, 2.051511
2546.069, 1.785321
2547.998, 1.945377
2549.926, 2.148413
2551.854, 2.218998
2553.783, 2.916580
2555.711, 3.065554
2557.640, 2.407089
2559.568, 2.208785
2561.497, 2.232142
2563.425, 2.356148
2565.354, 2.195798
2567.282, 2.164282
2569.211, 2.377066
2571.139, 2.302905
2573.068, 2.128174
2574.996, 1.872903
2576.925, 2.025127
2578.853, 2.186688
2580.781, 2.123057
2582.710, 2.053832
2584.638, 1.911181
2586.567, 1.751071
2588.495, 1.800138
2590.424, 1.923295
2592.352, 2.127100
2594.281, 1.837863
2596.209, 1.548663
2598.138, 1.587368
2600.066, 2.173462
2601.995, 2.454592
2603.923, 1.676128
2605.852, 1.715150
2607.780, 2.009642
2609.708, 2.041750
2611.637, 1.836906
2613.565, 1.616362
2615.494, 1.457165
2617.422, 1.577811
2619.351, 1.906673
2621.279, 2.294205
2623.208, 2.164990
2625.136, 2.056583
2627.065, 2.244009
2628.993, 1.950555
2630.922, 1.623542
2632.850, 1.569035
2634.779, 1.579699
2636.707, 1.742676
2638.635, 2.035174
2640.564, 1.906677
2642.492, 1.736137
2644.421, 1.794211
2646.349, 1.998333
2648.278, 2.040375
2650.206, 1.758914
2652.135, 1.456519
2654.063, 1.450896
2655.992, 1.679236
2657.920, 1.358664
2659.849, 1.215727
2661.777, 1.457167
2663.706, 1.747742
2665.634, 1.756904
2667.563, 1.467116
2669.491, 1.569890
2671.419, 1.640433
2673.348, 1.482338
2675.276, 1.305501
2677.205, 1.491610
2679.133, 1.871360
2681.062, 1.587410
2682.990, 1.475582
2684.919, 1.517046
2686.847, 1.236600
2688.776, 1.144412
2690.704, 1.167359
2692.633, 1.210025
2694.561, 1.407117
2696.490, 1.544445
2698.418, 1.520815
2700.346, 1.506815
2702.275, 1.573489
2704.203, 1.722639
2706.132, 2.054951
2708.060, 2.022905
2709.989, 1.191042
2711.917, 1.314531
2713.846, 1.430727
2715.774, 1.094757
2717.703, 1.372833
2719.631, 1.594411
2721.560, 1.549248
2723.488, 1.770523
2725.417, 1.689930
2727.345, 1.363064
2729.273, 1.283519
2731.202, 1.482626
2733.130, 1.767308
2735.059, 1.720283
2736.987, 1.498396
2738.916, 1.302488
2740.844, 1.468166
2742.773, 1.528281
2744.701, 1.558241
2746.630, 1.557871
2748.558, 1.731006
2750.487, 1.728542
2752.415, 1.333751
2754.344, 1.277529
2756.272, 1.191484
2758.200, 1.048125
2760.129, 1.251489
2762.057, 1.194108
2763.986, 0.9512107
2765.914, 1.335941
2767.843, 1.165834
2769.771, 0.7243479
2771.700, 0.8799668
2773.628, 1.230829
2775.557, 1.576364
2777.485, 1.541833
2779.414, 1.533822
2781.342, 1.454606
2783.271, 1.112580
2785.199, 0.9796342
2787.127, 0.9467506
2789.056, 1.163768
2790.984, 1.213764
2792.913, 1.387126
2794.841, 1.636058
2796.770, 1.379446
2798.698, 1.330913
2800.627, 1.383983
2802.555, 1.119998
2804.484, 0.8625501
2806.412, 0.7053927
2808.341, 0.8159854
2810.269, 0.9778441
2812.198, 1.400809
2814.126, 1.987555
2816.054, 1.512323
2817.983, 1.156164
2819.911, 1.287221
2821.840, 1.210359
2823.768, 1.020126
2825.697, 0.9400454
2827.625, 0.8594250
2829.554, 0.9779691
2831.482, 1.082000
2833.411, 1.038218
2835.339, 0.8319797
2837.268, 0.8836232
2839.196, 1.110725
2841.125, 0.8894795
2843.053, 0.8407263
2844.981, 0.8852810
2846.910, 0.9131091
2848.838, 1.053443
2850.767, 1.021105
2852.695, 0.7800971
2854.624, 0.8505644
2856.552, 0.9376392
2858.481, 0.8112895
2860.409, 0.9303936
2862.338, 0.9498438
2864.266, 0.9145870
2866.195, 1.424797
2868.123, 1.113451
2870.052, 0.9435845
2871.980, 1.124515
2873.908, 0.7296420
2875.837, 0.5805387
2877.765, 0.6801074
2879.694, 0.8092878
2881.622, 0.7533123
2883.551, 0.8710400
2885.479, 1.337929
2887.408, 1.071803
2889.336, 0.7823759
2891.265, 0.9571629
2893.193, 1.101182
2895.122, 0.8662601
2897.050, 0.7887425
2898.979, 1.029736
2900.907, 1.207310
2902.835, 1.231298
2904.764, 0.8825997
2906.692, 0.8992852
2908.621, 0.8071020
2910.549, 0.7287893
2912.478, 1.001620
2914.406, 1.039430
2916.335, 1.025177
2918.263, 0.7682980
2920.192, 0.7490195
2922.120, 0.7998107
2924.048, 0.9367829
2925.977, 0.9242861
2927.905, 0.7281891
2929.834, 0.5668874
2931.762, 0.5845376
2933.691, 0.7209450
2935.619, 0.8681684
2937.548, 1.045785
2939.476, 0.5582569
2941.405, 0.6440955
2943.333, 0.9316373
2945.261, 0.5822518
2947.190, 0.4795067
2949.118, 0.5213521
2951.047, 0.4856365
2952.975, 0.3279525
2954.904, 0.5784213
2956.832, 0.9448014
2958.761, 0.8445733
2960.689, 0.8157586
2962.618, 0.5921301
2964.546, 0.2976897
2966.475, 0.5403518
2968.403, 0.7058392
2970.332, 0.8165240
2972.260, 0.8151950
2974.188, 0.5055902
2976.117, 0.6027406
2978.045, 1.004749
2979.974, 0.5617396
2981.902, 0.5078189
2983.831, 0.5735205
2985.759, 0.6578600
2987.688, 0.7062857
2989.616, 0.5843144
2991.545, 0.6006142
2993.473, 0.6850075
2995.402, 0.7415936
2997.330, 0.8720610
2999.259, 0.9955324
3001.187, 0.3362018
3003.115, 0.2911363
3005.044, 0.7301645
3006.972, 0.6007888
3008.901, 0.3189639
3010.829, 0.4572158
3012.758, 0.8795841
3014.686, 0.6359621
3016.615, 0.5604674
3018.543, 0.6824220
3020.472, 0.6387379
3022.400, 0.3978024
3024.329, 0.3404183
3026.257, 0.2504322
3028.186, 0.3910396
3030.114, 0.5677322
3032.042, 0.5804380
3033.971, 0.5963391
3035.899, 0.6129087
3037.828, 0.6148404
3039.756, 0.5902779
3041.685, 0.6295912
3043.613, 0.7848226
3045.542, 0.6710767
3047.470, 0.3210459
3049.399, 1.214047
3051.327, 1.229493
3053.256, 0.9170601
3055.184, 0.9817709
3057.113, 0.8446879
3059.041, 0.4438905
3060.969, 8.0537550E-02
3062.898, 0.4608555
3064.826, 0.7086923
3066.755, 0.7471386
3068.683, 0.8028374
3070.612, 0.9644397
3072.540, 0.3861958
3074.469, 0.1045523
3076.397, 0.2857986
3078.326, 0.2637689
3080.254, 0.3503336
3082.183, 0.4235083
3084.111, 0.5420081
3086.040, 0.2294207
3087.968, 0.1881073
3089.896, 0.5427158
3091.825, 0.6515692
3093.753, 0.5747451
3095.682, 0.7166814
3097.610, 0.9139549
3099.539, 0.8040543
3101.467, 0.2695551
3103.396, 0.2912545
3105.324, 0.9143848
3107.253, 1.067191
3109.181, 0.7966850
3111.110, 0.4387833
3113.038, 0.4440441
3114.967, 0.5128279
3116.895, 0.4875336
3118.823, 0.5876520
3120.752, 1.057768
3122.680, 0.9597557
3124.609, 0.8877916
3126.537, 1.046301
3128.466, 0.6647813
3130.394, 0.1508562
3132.323, 1.5749030E-02
3134.251, 0.3402161
3136.180, 0.8099405
3138.108, 0.8893121
3140.037, 0.7563601
3141.965, 0.3452550
3143.894, 0.1373221
3145.822, 0.6250378
3147.750, 0.5677766
3149.679, 0.2389791
3151.607, 0.6314077
3153.536, 0.5853840
3155.464, 0.4071540
3157.393, 0.6429064
3159.321, 0.9647136
3161.250, 1.028604
3163.178, 0.8979381
3165.107, 0.6412836
3167.035, 0.5711901
3168.964, 0.3951174
3170.892, 0.4912109
3172.821, 0.7832292
3174.749, 0.8715981
3176.677, 0.9341945
3178.606, 0.9750225
3180.534, 0.8284129
3182.463, 0.8054616
3184.391, 0.5748032
3186.320, 0.2537827
3188.248, 0.2558860
3190.177, 1.134558
3192.105, 1.371827
3194.034, 1.245069
3195.962, 1.210513
3197.891, 1.439213
3199.819, 1.935825
3201.748, 2.171192
3203.676, 2.132855
3205.604, 2.130816
3207.533, 2.182972
3209.461, 2.397309
3211.390, 2.760628
3213.318, 2.589542
3215.247, 2.664481
3217.175, 2.751743
3219.104, 2.541753
3221.032, 3.348394
3222.961, 3.092393
3224.889, 2.695757
3226.818, 2.747536
3228.746, 2.280815
3230.675, 2.574523
3232.603, 2.381449
3234.531, 1.405547
3236.460, 0.9845990
3238.388, 0.6507952
3240.317, 0.6316143
3242.245, 0.8646505
3244.174, 1.015276
3246.102, 0.7971039
3248.031, 0.6662749
3249.959, 0.6351902
3251.888, 0.7151865
3253.816, 1.073757
3255.745, 1.138969
3257.673, 0.7721567
3259.602, -0.2638244
3261.530, -0.2903296
3263.458, 9.1326453E-02
3265.387, 0.6924104
3267.315, 1.098629
3269.244, 0.5537721
3271.172, 0.5854637
3273.101, 0.6044788
3275.029, 0.3397869
3276.958, 0.2404007
3278.886, 0.1205145
3280.815, 0.3862593
3282.743, 0.7382092
3284.672, 0.4498453
3286.600, 0.2598783
3288.529, 0.3465289
3290.457, 0.4401374
3292.385, 0.1859873
3294.314, -0.1412455
3296.242, 0.6216146
3298.171, 0.9259573
3300.099, 5.1499400E-02
3302.028, -0.4403462
3303.956, 0.2286863
3305.885, 1.033961
3307.813, 1.228785
3309.742, 0.3001572
3311.670, -0.1523694
3313.599, -0.1222448
3315.527, 9.5046401E-02
3317.456, 0.4312290
3319.384, 0.9174243
3321.313, 0.4893037
3323.241, 0.1200596
3325.169, 0.5814908
3327.098, 0.6517613
3329.026, 0.1326100
3330.955, 4.6416581E-02
3332.883, 0.3024879
3334.812, -0.1621928
3336.740, -0.4281062
3338.669, 0.2775093
3340.597, 0.9180617
3342.526, 0.6184637
3344.454, 7.3805057E-02
3346.383, 0.3310266
3348.311, 0.5199911
3350.240, 0.4690543
3352.168, 0.9346282
3354.096, 0.3168368
3356.025, 0.2122662
3357.953, 0.4042457
3359.882, 0.2369179
3361.810, 0.5232698
3363.739, 0.5658931
3365.667, 0.5664999
3367.596, 0.5956261
3369.524, 0.1985657
3371.453, 0.1526211
3373.381, 0.2912406
3375.310, 0.5802639
3377.238, 0.8575813
3379.167, 0.7894341
3381.095, 0.1998697
3383.023, 0.1288069
3384.952, 0.5383918
3386.880, 0.4701653
3388.809, 0.1796101
3390.737, 0.1753041
3392.666, 0.1288665
3394.594, -9.0688393E-02
3396.523, 0.3958813
3398.451, 0.2122247
3400.380, 2.6794489E-02
3402.308, 0.1886065
3404.237, 0.6962610
3406.165, 0.5636699
3408.094, 0.2023328
3410.022, 0.3580603
3411.950, 0.8983745
3413.879, 0.8404477
3415.807, 0.8301477
3417.736, 0.4713818
3419.664, 0.3328252
3421.593, 0.7554494
3423.521, 1.074309
3425.450, -0.1434198
3427.378, -0.2457636
3429.307, 0.3043805
3431.235, 0.1160047
3433.164, -7.9447851E-03
3435.092, 0.6851921
3437.021, 0.6087773
3438.949, -7.0316501E-02
3440.877, 0.2772599
3442.806, 0.1606933
3444.734, 0.1285285
3446.663, 0.4135333
3448.591, 0.5984398
3450.520, -0.2689545
3452.448, 0.1462835
3454.377, 0.3459679
3456.305, 0.2288173
3458.234, 9.5917441E-02
3460.162, 0.1841743
3462.091, 0.1435565
3464.019, 7.0654303E-02
3465.948, 0.2505942
3467.876, 0.5232454
3469.804, -0.2428541
3471.733, 0.1945353
3473.661, -0.4016097
3475.590, -0.7188604
3477.518, 0.3110835
3479.447, 0.4231152
3481.375, 1.2851330E-02
3483.304, 8.4303297E-02
3485.232, 0.3367569
3487.161, 0.2457545
3489.089, -0.1990948
3491.018, 0.2807811
3492.946, -9.0782523E-02
3494.875, -0.5730506
3496.803, -0.2232524
3498.731, -0.1937566
3500.660, 0.4472498
3502.588, 0.1655717
3504.517, -0.4969808
3506.445, -0.5544823
3508.374, 0.3178743
3510.302, -0.1829513
3512.231, -4.4777099E-02
3514.159, 0.1914799
3516.088, -0.1546254
3518.016, -0.3221041
3519.945, 0.6082869
3521.873, 0.8064604
3523.802, 0.3311143
3525.730, -5.1750749E-02
3527.658, 0.4034378
3529.587, 1.189731
3531.515, 0.9963807
3533.444, 0.6199110
3535.372, 0.4516112
3537.301, 8.5811190E-02
3539.229, 8.9423008E-02
3541.158, -9.5560893E-02
3543.086, 0.1177355
3545.015, 0.3809363
3546.943, -6.5269552E-02
3548.872, -0.2603287
3550.800, 9.3126088E-02
3552.729, 0.3622006
3554.657, 0.2981862
3556.585, -1.1663600E-02
3558.514, -0.2441209
3560.442, -0.4440502
3562.371, -0.5478569
3564.299, -0.3414109
3566.228, 5.3842179E-02
3568.156, 9.6520647E-02
3570.085, 0.2675862
3572.013, 0.5824452
3573.942, 0.3317466
3575.870, -0.1206889
3577.799, 5.9353180E-02
3579.727, 0.1084277
3581.656, 0.4399603
3583.584, 0.3806577
3585.512, 6.0422849E-02
3587.441, -0.1180420
3589.369, 2.6369279E-02
3591.298, 0.3669215
3593.226, 0.1670060
3595.155, -0.1613850
3597.083, -0.1988466
3599.012, 8.5091613E-02
3600.940, -0.5288269
3602.869, 0.2328497
3604.797, -7.3264688E-02
3606.726, -0.4227039
3608.654, 0.1746908
3610.583, 0.2361093
3612.511, -0.3062992
3614.439, 0.2144231
3616.368, 0.4912213
3618.296, 0.3674242
3620.225, 0.5555916
3622.153, 0.6031976
3624.082, -0.1002034
3626.010, -7.1639549E-03
3627.939, 0.2463055
3629.867, 0.4291969
3631.796, 1.158264
3633.724, 1.070927
3635.653, -0.1090261
3637.581, -0.3395382
3639.510, 5.3782851E-02
3641.438, 9.8717891E-02
3643.366, -0.2990203
3645.295, 6.2140688E-02
3647.223, 0.1174376
3649.152, -0.3692135
3651.080, -0.4659608
3653.009, 0.1924306
3654.937, -0.5610083
3656.866, 1.106956
3658.794, 0.6406222
3660.723, 0.3328823
3662.651, 0.6041170
3664.580, 0.1787777
3666.508, -0.7636261
3668.437, -0.6609347
3670.365, -1.1258370E-03
3672.293, 4.0286049E-02
3674.222, -0.4096033
3676.150, -0.3018868
3678.079, 1.221388
3680.007, 0.6419814
3681.936, -0.1102281
3683.864, -0.6184800
3685.793, -0.4982082
3687.721, 0.2779780
3689.650, 0.2630759
3691.578, 1.5720829E-02
3693.507, 0.3559061
3695.435, 9.9908248E-02
3697.364, -0.5569853
3699.292, -0.8366916
3701.220, -0.8029387
3703.149, -0.9607243
3705.077, -0.8846833
3707.006, -0.5041325
3708.934, 3.0019449E-02
3710.863, 0.2584442
3712.791, -0.6033446
3714.720, 0.8542169
3716.648, 0.7721121
3718.577, 0.4231540
3720.505, 8.5114747E-02
3722.434, -0.4933575
3724.362, -1.074578
3726.291, -0.4340435
3728.219, 5.5708598E-02
3730.147, 0.1884760
3732.076, 0.4973910
3734.004, 0.6905653
3735.933, 0.3015917
3737.861, 0.1630282
3739.790, 0.3752237
3741.718, -9.4980434E-02
3743.647, 0.3272017
3745.575, 0.4637353
3747.504, -0.2945327
3749.432, -0.2120541
3751.361, -5.7379860E-02
3753.289, 0.2021228
3755.218, -5.2480429E-02
3757.146, 0.1494985
3759.074, 0.3980713
3761.003, 4.2841621E-02
3762.931, 1.064031
3764.860, 0.7347298
3766.788, 0.5521037
3768.717, 0.2798477
3770.645, -0.3440195
3772.574, -0.8533986
3774.502, -0.6192287
3776.431, -0.7398700
3778.359, 0.5570919
3780.288, 0.1415875
3782.216, 4.8178829E-02
3784.145, 0.2368425
3786.073, -9.0890892E-02
3788.001, -0.3309746
3789.930, 0.3608150
3791.858, 0.5115753
3793.787, 0.4859039
3795.715, -9.0263553E-02
3797.644, -0.3013007
3799.572, 0.1651350
3801.501, -8.6269483E-02
3803.429, -0.6155241
3805.358, -0.7023647
3807.286, -0.2973903
3809.215, 0.3547658
3811.143, 0.5154494
3813.072, -8.1124734E-03
3815.000, -0.4231116
3816.928, 0.2596753
3818.857, 0.1348071
3820.785, 0.2518224
3822.714, -0.1708376
3824.642, -0.2484937
3826.571, 0.3769129
3828.499, 0.5121022
3830.428, -0.1385020
3832.356, 0.2779956
3834.285, 0.6845830
3836.213, 7.8024901E-02
3838.142, -0.1049305
3840.070, -8.9984193E-02
3841.999, -0.9913568
3843.927, -0.3546287
3845.855, 0.2891976
3847.784, 0.1881829
3849.712, -0.6089805
3851.641, -0.6996211
3853.569, -0.2970641
3855.498, -9.9381067E-02
3857.426, 0.3688112
3859.355, 0.2935858
3861.283, 0.3266391
3863.212, -0.3217765
3865.140, -0.5226367
3867.069, -0.2407571
3868.997, -8.8067017E-02
3870.926, -0.3014993
3872.854, -0.3425090
3874.782, 0.6582024
3876.711, 3.0804940E-02
3878.639, -0.2062932
3880.568, -0.1881794
3882.496, -2.5180159E-02
3884.425, 5.8221810E-02
3886.353, -0.1606870
3888.282, 0.1753303
3890.210, 0.3143373
3892.139, -0.2150786
3894.067, -0.6014587
3895.996, 9.7294830E-02
3897.924, 0.3140866
3899.853, -0.1208130
3901.781, 0.3034696
3903.709, 0.1287063
3905.638, 0.5052621
3907.566, -0.1419257
3909.495, -0.3485330
3911.423, -0.1884272
3913.352, -0.1279069
3915.280, -6.9484487E-02
3917.209, 0.2215707
3919.137, 0.2810954
3921.066, -0.1043994
3922.994, -0.7242466
3924.923, -0.2677325
3926.851, 0.4109835
3928.780, 0.4112434
3930.708, 8.3071209E-02
3932.636, -0.2196081
3934.565, -0.8055930
3936.493, -0.5552827
3938.422, -0.3449315
3940.350, -0.1457106
3942.279, 0.1328043
3944.207, 0.2405884
3946.136, -6.4717732E-02
3948.064, -0.3232759
3949.993, -1.0286120E-02
3951.921, 0.4046338
3953.850, -0.1847805
3955.778, 0.2667116
3957.707, 0.3477009
3959.635, 0.3414552
3961.563, -0.3230321
3963.492, -0.3431819
3965.420, -2.6591759E-02
3967.349, -0.4387099
3969.277, 0.1611115
3971.206, 8.6853288E-02
3973.134, -0.1162352
3975.063, -0.3176836
3976.991, -0.4827729
3978.920, -0.5457195
3980.848, -0.5336987
3982.777, 0.1571378
3984.705, 0.4826462
3986.634, 4.2105861E-02
3988.562, -4.2118739E-02
3990.490, -5.0741188E-02
3992.419, 0.1760062
3994.347, 0.7213454
3996.276, 0.3493327
3998.204, -2.0800370E-03
4000.133, 8.7666564E-02
4002.061, 0.6278811
4003.990, -0.3616715
4005.918, -0.9737551
4007.847, -2.4519259E-02
4009.775, 0.3328020
4011.704, -0.1261625
4013.632, -1.608248
4015.561, 0.1022126
4017.489, 0.4978900
4019.417, -0.6554930
4021.346, 0.2277973
4023.274, 0.9941698
4025.203, 0.2732638
4027.131, -2.1160580E-02
4029.060, 0.7238842
4030.988, 0.2039942
4032.917, -0.2536146
4034.845, -0.3243719
4036.774, 0.9473875
4038.702, 0.9946455
4040.631, 0.5742368
4042.559, -0.3281029
4044.488, -0.5897909
4046.416, 0.4511330
4048.344, -0.2296602
4050.273, -0.1533781
4052.201, 0.2754498
4054.130, -0.4975246
4056.058, -5.5735160E-02
4057.987, 0.5925510
4059.915, 0.2034670
4061.844, -0.1690903
4063.772, 0.1787070
4065.701, 0.1355937
4067.629, -0.9002388
4069.558, -0.3898002
4071.486, -0.9152594
4073.415, 0.4409670
4075.343, -0.3587440
4077.271, -0.2079926
4079.200, -4.8172180E-02
4081.128, -0.1294127
4083.057, 3.3538169E-03
4084.985, 0.4934921
4086.914, 0.5988111
4088.842, -0.3366883
4090.771, 0.2170789
4092.699, 0.3136879
4094.628, 0.2531001
4096.556, -0.6461871
4098.484, 0.1963762
4100.413, -0.3623209
4102.341, -8.3101377E-02
4104.270, 0.1235939
4106.198, -0.2800916
4108.127, 4.8542719E-02
4110.055, 3.8302060E-02
4111.984, -0.1263339
4113.912, -5.8145840E-02
4115.841, 6.2907293E-02
4117.769, -0.2195358
4119.698, -0.4511707
4121.626, 0.1156783
4123.555, 5.7838131E-02
4125.483, -0.4990922
4127.412, -0.7217137
4129.340, -0.4454382
4131.269, -0.3280872
4133.197, -0.9042653
4135.125, -0.5108019
4137.054, 7.5566083E-02
4138.982, 0.1586952
4140.911, -8.5710689E-02
4142.839, -0.4421939
4144.768, -8.5980266E-02
4146.696, 0.5032012
4148.625, 0.1420173
4150.553, -0.2307762
4152.481, 7.7626179E-03
4154.410, 0.2992432
4156.338, 0.3865835
4158.267, 0.3377346
4160.195, 0.3222920
4162.124, -0.5293180
4164.052, -5.4229550E-02
4165.981, -0.2607254
4167.909, -0.9587752
4169.838, -0.2573484
4171.766, 0.4546041
4173.695, 0.3963206
4175.623, 0.3224550
4177.552, 0.5967225
4179.480, 0.4732886
4181.409, -0.1866063
4183.337, -0.3415756
4185.266, 7.1855221E-04
4187.194, 0.6743231
4189.123, -0.3557563
4191.051, -0.1078739
4192.979, -0.4633001
4194.908, -0.1269799
4196.836, 7.3122293E-02
4198.765, -0.4482352
4200.693, -0.3509396
4202.622, -0.4103120
4204.550, 4.5522541E-02
4206.479, 2.8971530E-02
4208.407, -0.3290377
4210.335, 0.6046643
4212.264, 0.1942133
4214.192, -1.024434
4216.121, 0.1405400
4218.049, -0.3535307
4219.978, -0.3670618
4221.906, 9.1003060E-02
4223.835, 0.2368901
4225.763, -0.1000990
4227.692, -1.094000
4229.620, -0.8049830
4231.549, -0.4295914
4233.477, -0.2271941
4235.406, -0.3234527
4237.334, 4.3046009E-02
4239.263, 0.3306707
4241.191, -0.5055159
4243.120, -0.5769615
4245.048, -0.3454269
4246.977, -0.5783160
4248.905, -0.6706366
4250.833, -0.8736460
4252.762, 0.2376900
4254.690, -2.0934930E-02
4256.619, 0.4047359
4258.547, 0.1393227
4260.476, -0.4957571
4262.404, 8.6822197E-02
4264.333, 0.1376457
4266.261, -0.1993444
4268.189, 0.1535411
4270.118, 0.5053177
4272.046, 0.2719429
4273.975, -0.1327090
4275.903, 0.2524056
4277.832, 1.073413
4279.760, 0.4113873
4281.689, 0.1618803
4283.617, -0.6184002
4285.546, -0.5983695
4287.474, -0.5976843
4289.403, -0.5590393
4291.331, -0.5418688
4293.260, -0.1934582
4295.188, -0.2282709
4297.117, -3.2439660E-02
4299.045, -0.4771584
4300.974, -0.4142138
4302.902, -7.5611234E-02
4304.831, -9.6190199E-02
4306.759, -0.3819872
4308.688, -0.6330658
4310.616, -0.9255722
4312.544, -0.2911999
4314.473, 0.5562737
4316.401, 4.5861080E-02
4318.330, -0.7826868
4320.258, -0.4437484
4322.187, -0.1722998
4324.115, -1.269221
4326.043, -0.4698407
4327.972, -1.347472
4329.900, -0.4545200
4331.829, -1.085605
4333.757, -0.8763898
4335.686, 0.2289143
4337.614, 0.6168963
4339.543, 0.1281908
4341.471, -0.3309879
4343.400, -0.2299568
4345.328, 0.6005254
4347.257, -9.3343012E-02
4349.185, -1.637602
4351.114, -0.2363639
4353.042, -0.4444731
4354.971, -0.7254407
4356.899, -0.5669648
4358.828, 0.2068969
4360.756, -0.3349550
4362.685, -0.6011616
4364.613, -0.3611358
4366.542, 0.3344122
4368.470, -4.5383029E-02
4370.398, -1.030344
4372.327, -0.2388604
4374.255, 0.1826088
4376.184, -0.1594327
4378.112, -0.7628943
4380.041, -0.8896922
4381.969, 0.6097573
##END=



