##NAMES=Vesuvianite
##RRUFFID=R060902
##IDEAL CHEMISTRY=(Ca,Na)_19_(Al,Mg,Fe)_13_(SiO_4_)_10_(Si_2_O_7_)_4_(OH,F,O)_10_
##LOCALITY=Jeffrey mine, Asbestos, Quebec, Canada
##OWNER=RRUFF
##SOURCE=Michael Scott
##DESCRIPTION=Purple equant, doubly terminated prismatic single crystals.
##STATUS=The identification of this mineral has been confirmed by single-crystal X-ray diffraction
##URL=https://www.rruff.net/odr/rruff_sample/R060902
##DIFFRACTION SAMPLE DESCRIPTION=Single crystal, powder profile is calculated
##CELL PARAMETERS=a: 15.522 b: 15.522 c: 11.814 alpha: 90 beta: 90 gamma: 90 volume: 2846.5 crystal system: tetragonal
##FILETYPE=Raman Processed
##RAMAN WAVELENGTH=785

80.99756, 1713.953
82.92603, 1649.037
84.85449, 1614.265
86.78296, 1651.082
88.71143, 1697.934
90.63989, 1742.973
92.56836, 1778.285
94.49683, 1777.171
96.42529, 1736.502
98.35376, 1734.661
100.2822, 1800.214
102.2107, 1895.250
104.1392, 1965.944
106.0676, 2081.860
107.9961, 2339.068
109.9246, 2729.620
111.8530, 3247.241
113.7815, 3820.622
115.7100, 4653.213
117.6384, 5586.038
119.5669, 6931.143
121.4954, 8888.870
123.4238, 11509.61
125.3523, 15603.57
127.2808, 22207.16
129.2092, 28332.40
131.1377, 33522.93
133.0662, 37843.61
134.9946, 40599.84
136.9231, 42529.26
138.8516, 45646.94
140.7800, 49827.69
142.7085, 56124.33
144.6370, 66725.39
146.5654, 77131.25
148.4939, 85525.19
150.4224, 91800.50
152.3508, 95821.79
154.2793, 97405.77
156.2078, 98995.16
158.1362, 100533.5
160.0647, 102732.2
161.9932, 106181.0
163.9216, 110164.0
165.8501, 114053.2
167.7786, 117783.7
169.7070, 120839.1
171.6355, 123069.3
173.5640, 124761.1
175.4924, 125835.3
177.4209, 126570.2
179.3494, 126966.1
181.2778, 127205.9
183.2063, 127719.3
185.1348, 128584.0
187.0632, 129357.9
188.9917, 129810.7
190.9202, 130360.1
192.8486, 131247.9
194.7771, 132247.2
196.7056, 133088.6
198.6340, 133788.3
200.5625, 134431.2
202.4910, 135060.8
204.4194, 135558.4
206.3479, 135776.1
208.2764, 135997.0
210.2048, 136400.5
212.1333, 136946.2
214.0618, 137574.7
215.9902, 138299.3
217.9187, 138990.9
219.8472, 139769.0
221.7756, 140333.6
223.7041, 140486.7
225.6326, 140485.2
227.5610, 140506.7
229.4895, 140574.1
231.4180, 140783.7
233.3464, 141145.8
235.2749, 141630.8
237.2034, 142415.4
239.1318, 143079.0
241.0603, 143386.6
242.9888, 143514.8
244.9172, 143633.0
246.8457, 143759.2
248.7742, 144033.2
250.7026, 144595.4
252.6311, 145073.4
254.5596, 145378.8
256.4880, 145646.5
258.4165, 145996.9
260.3450, 146316.1
262.2734, 146451.2
264.2019, 146398.8
266.1304, 146272.0
268.0588, 145914.1
269.9873, 145736.8
271.9158, 145894.3
273.8442, 146125.8
275.7727, 146238.9
277.7012, 146351.7
279.6296, 146678.2
281.5581, 147238.3
283.4866, 147639.0
285.4150, 147774.2
287.3435, 147860.5
289.2720, 147969.2
291.2004, 147981.0
293.1289, 147743.9
295.0574, 147406.6
296.9858, 147165.8
298.9143, 147025.1
300.8428, 146956.3
302.7712, 146982.9
304.6997, 147043.5
306.6282, 147218.0
308.5566, 147329.7
310.4851, 147287.1
312.4136, 147122.5
314.3420, 146829.2
316.2705, 146415.8
318.1990, 146140.1
320.1274, 145999.7
322.0559, 146034.9
323.9844, 146355.8
325.9128, 146708.8
327.8413, 147024.8
329.7697, 147273.1
331.6982, 147437.2
333.6267, 147510.1
335.5551, 147461.9
337.4836, 147190.7
339.4121, 147030.9
341.3405, 147027.7
343.2690, 147088.9
345.1975, 147222.0
347.1259, 147403.4
349.0544, 147626.0
350.9829, 147885.6
352.9113, 148179.7
354.8398, 148534.3
356.7683, 148777.1
358.6967, 148841.6
360.6252, 148884.6
362.5537, 148916.4
364.4821, 148917.9
366.4106, 148846.3
368.3391, 148757.5
370.2675, 148772.9
372.1960, 148867.8
374.1245, 148732.9
376.0529, 148350.6
377.9814, 147760.3
379.9099, 146824.9
381.8383, 145915.4
383.7668, 145077.1
385.6953, 144378.0
387.6237, 143866.0
389.5522, 143518.0
391.4807, 143319.6
393.4091, 143284.0
395.3376, 143263.6
397.2661, 143272.7
399.1945, 143264.0
401.1230, 143225.1
403.0515, 143162.0
404.9799, 143041.7
406.9084, 142912.9
408.8369, 142824.9
410.7654, 142749.8
412.6938, 142634.6
414.6223, 142487.5
416.5508, 142282.2
418.4792, 142088.3
420.4077, 141681.7
422.3362, 140874.6
424.2646, 140135.2
426.1931, 139720.7
428.1216, 139417.7
430.0500, 139078.1
431.9785, 138713.7
433.9070, 138346.1
435.8354, 137968.9
437.7639, 137661.0
439.6924, 137426.6
441.6208, 137256.4
443.5493, 137211.7
445.4778, 137121.2
447.4062, 136895.1
449.3347, 136617.6
451.2632, 136285.8
453.1916, 135966.8
455.1201, 135795.1
457.0486, 135759.9
458.9770, 135728.3
460.9055, 135696.8
462.8340, 135642.4
464.7624, 135563.1
466.6909, 135457.6
468.6194, 135311.6
470.5478, 135183.0
472.4763, 135179.5
474.4048, 135166.8
476.3332, 134980.5
478.2617, 134653.9
480.1902, 134286.4
482.1186, 133857.8
484.0471, 133508.0
485.9756, 133245.7
487.9040, 132971.7
489.8325, 132703.9
491.7610, 132328.3
493.6894, 131695.4
495.6179, 131052.7
497.5464, 130558.5
499.4748, 130166.6
501.4033, 129800.5
503.3318, 129474.0
505.2602, 129264.8
507.1887, 129185.3
509.1172, 129025.1
511.0456, 128750.5
512.9741, 128439.0
514.9026, 128059.2
516.8311, 127719.4
518.7595, 127528.1
520.6880, 127319.2
522.6165, 126952.6
524.5449, 126523.0
526.4734, 126177.2
528.4019, 125908.2
530.3303, 125650.7
532.2588, 125408.4
534.1873, 125172.9
536.1157, 124937.7
538.0442, 124738.5
539.9727, 124611.9
541.9011, 124445.4
543.8296, 124154.9
545.7581, 123847.2
547.6865, 123580.3
549.6150, 123325.0
551.5435, 123069.4
553.4719, 122796.2
555.4004, 122430.0
557.3289, 121986.0
559.2573, 121621.2
561.1858, 121351.2
563.1143, 121051.9
565.0427, 120696.8
566.9712, 120341.6
568.8997, 119998.8
570.8281, 119665.3
572.7566, 119310.0
574.6851, 118996.7
576.6135, 118780.4
578.5419, 118630.7
580.4704, 118554.0
582.3989, 118505.1
584.3273, 118317.5
586.2558, 118005.9
588.1843, 117662.4
590.1127, 117279.3
592.0412, 116984.1
593.9697, 116827.7
595.8981, 116643.8
597.8266, 116389.0
599.7551, 116087.0
601.6835, 115718.5
603.6120, 115344.8
605.5405, 114995.5
607.4689, 114683.7
609.3974, 114472.8
611.3259, 114298.4
613.2543, 113955.9
615.1828, 113504.7
617.1113, 113206.0
619.0397, 113062.6
620.9682, 112938.1
622.8967, 112823.6
624.8251, 112671.5
626.7536, 112410.3
628.6821, 112229.3
630.6105, 112283.4
632.5390, 112265.4
634.4675, 111985.3
636.3959, 111660.9
638.3244, 111470.2
640.2529, 111307.1
642.1813, 111021.8
644.1098, 110676.6
646.0383, 110452.3
647.9667, 110291.0
649.8952, 109903.7
651.8237, 109297.2
653.7521, 108860.3
655.6806, 108669.1
657.6091, 108427.3
659.5375, 108080.0
661.4660, 107686.9
663.3945, 107154.4
665.3229, 106717.3
667.2514, 106512.3
669.1799, 106328.1
671.1083, 106003.7
673.0368, 105707.4
674.9653, 105605.0
676.8937, 105615.1
678.8222, 105622.0
680.7507, 105658.8
682.6791, 105820.0
684.6076, 106066.7
686.5361, 106281.5
688.4645, 106452.9
690.3930, 106342.4
692.3215, 105893.8
694.2499, 105354.4
696.1784, 104763.0
698.1069, 104057.5
700.0353, 103053.1
701.9638, 102237.6
703.8923, 101804.6
705.8207, 101450.3
707.7492, 101079.8
709.6777, 100706.8
711.6061, 100328.6
713.5346, 99956.10
715.4631, 99572.06
717.3915, 99218.20
719.3200, 98988.91
721.2485, 98808.53
723.1769, 98490.09
725.1054, 98088.82
727.0339, 97887.13
728.9623, 97886.15
730.8908, 97648.15
732.8193, 97104.88
734.7477, 96638.00
736.6762, 96237.48
738.6047, 95968.11
740.5331, 95894.65
742.4616, 95820.20
744.3901, 95706.06
746.3185, 95610.28
748.2470, 95624.18
750.1755, 95545.65
752.1039, 95224.90
754.0324, 94893.64
755.9609, 94721.23
757.8893, 94553.05
759.8178, 94202.66
761.7463, 93857.97
763.6747, 93731.20
765.6032, 93689.27
767.5317, 93557.93
769.4601, 93352.39
771.3886, 93108.23
773.3171, 92831.07
775.2455, 92538.78
777.1740, 92238.82
779.1025, 91971.98
781.0309, 91744.28
782.9594, 91571.80
784.8879, 91488.37
786.8163, 91342.12
788.7448, 91069.20
790.6733, 90892.45
792.6017, 90877.92
794.5302, 90798.98
796.4587, 90605.91
798.3871, 90387.13
800.3156, 90137.16
802.2441, 89924.62
804.1725, 89795.91
806.1010, 89661.24
808.0295, 89476.20
809.9579, 89265.48
811.8864, 88986.26
813.8149, 88752.69
815.7433, 88690.93
817.6718, 88660.39
819.6003, 88621.59
821.5287, 88505.33
823.4572, 88178.15
825.3857, 87786.25
827.3141, 87537.65
829.2426, 87371.46
831.1711, 87138.75
833.0995, 86891.30
835.0280, 86808.79
836.9565, 86844.87
838.8849, 86803.61
840.8134, 86694.90
842.7419, 86605.54
844.6703, 86537.13
846.5988, 86594.16
848.5273, 86790.10
850.4557, 86901.91
852.3842, 86914.90
854.3127, 86952.21
856.2411, 87023.55
858.1696, 87055.63
860.0981, 87053.13
862.0266, 86934.31
863.9550, 86654.02
865.8835, 86494.66
867.8120, 86537.86
869.7404, 86572.30
871.6689, 86532.70
873.5974, 86590.90
875.5258, 86888.37
877.4543, 86989.46
879.3828, 86726.23
881.3112, 86324.69
883.2397, 85788.39
885.1682, 85258.77
887.0966, 84797.14
889.0251, 84323.83
890.9536, 83803.84
892.8820, 83267.48
894.8105, 82645.13
896.7390, 82138.41
898.6674, 81927.25
900.5959, 81771.09
902.5244, 81518.25
904.4528, 81295.14
906.3813, 81191.48
908.3098, 81140.16
910.2382, 81068.30
912.1667, 81037.39
914.0952, 81160.82
916.0236, 81274.20
917.9521, 81153.85
919.8806, 81008.05
921.8090, 81090.62
923.7375, 81247.45
925.6660, 81363.84
927.5944, 81390.54
929.5229, 81214.19
931.4514, 80958.65
933.3798, 80822.13
935.3083, 80703.08
937.2368, 80444.91
939.1652, 80102.41
941.0937, 79708.76
943.0222, 79328.84
944.9506, 79085.16
946.8791, 78924.16
948.8076, 78755.34
950.7360, 78584.73
952.6645, 78390.01
954.5930, 78225.53
956.5214, 78290.17
958.4499, 78430.79
960.3784, 78338.92
962.3068, 78064.31
964.2353, 77652.61
966.1638, 77180.63
968.0922, 76796.20
970.0207, 76498.35
971.9492, 76300.91
973.8776, 76175.60
975.8061, 76078.85
977.7346, 75985.63
979.6630, 75824.88
981.5915, 75625.26
983.5200, 75477.23
985.4484, 75335.65
987.3769, 75057.93
989.3054, 74721.58
991.2338, 74499.91
993.1623, 74371.22
995.0908, 74309.91
997.0192, 74281.09
998.9477, 74194.15
1000.876, 74081.77
1002.805, 74038.23
1004.733, 74014.81
1006.662, 73891.85
1008.590, 73722.61
1010.518, 73645.18
1012.447, 73592.84
1014.375, 73390.38
1016.304, 73146.37
1018.232, 73087.81
1020.161, 73110.27
1022.089, 73030.04
1024.018, 72894.47
1025.946, 72762.79
1027.875, 72643.52
1029.803, 72552.59
1031.732, 72484.80
1033.660, 72432.53
1035.589, 72407.08
1037.517, 72476.24
1039.446, 72529.66
1041.374, 72387.67
1043.302, 72199.03
1045.231, 72132.50
1047.159, 72086.38
1049.088, 71985.59
1051.016, 71824.14
1052.945, 71571.62
1054.873, 71296.72
1056.802, 71034.59
1058.730, 70817.01
1060.659, 70682.25
1062.587, 70586.84
1064.516, 70520.14
1066.444, 70450.07
1068.373, 70341.28
1070.301, 70239.90
1072.229, 70172.36
1074.158, 70112.71
1076.086, 70047.54
1078.015, 69985.27
1079.943, 69933.52
1081.872, 69876.66
1083.800, 69805.84
1085.729, 69731.30
1087.657, 69634.19
1089.586, 69598.73
1091.514, 69706.20
1093.443, 69692.16
1095.371, 69423.22
1097.299, 69282.34
1099.228, 69382.94
1101.156, 69473.88
1103.085, 69527.62
1105.013, 69536.03
1106.942, 69486.91
1108.870, 69453.60
1110.799, 69425.37
1112.727, 69527.38
1114.656, 69773.83
1116.584, 69961.12
1118.513, 70078.62
1120.441, 70422.52
1122.370, 70956.06
1124.298, 71159.59
1126.226, 71077.58
1128.155, 70950.50
1130.083, 70757.55
1132.012, 70377.59
1133.940, 69875.18
1135.869, 69316.27
1137.797, 68811.68
1139.726, 68637.71
1141.654, 68574.48
1143.583, 68266.05
1145.511, 67944.22
1147.440, 67893.30
1149.368, 67906.51
1151.297, 67819.17
1153.225, 67719.46
1155.153, 67639.42
1157.082, 67606.23
1159.010, 67706.17
1160.939, 67734.93
1162.867, 67584.63
1164.796, 67454.56
1166.724, 67397.97
1168.653, 67374.77
1170.581, 67387.26
1172.510, 67374.07
1174.438, 67319.04
1176.367, 67251.87
1178.295, 67171.78
1180.224, 67172.94
1182.152, 67252.09
1184.080, 67224.98
1186.009, 67105.73
1187.937, 67068.54
1189.866, 67084.33
1191.794, 66995.22
1193.723, 66860.47
1195.651, 66807.42
1197.580, 66826.88
1199.508, 66959.77
1201.437, 67098.65
1203.365, 67073.74
1205.294, 67046.37
1207.222, 67191.34
1209.151, 67339.65
1211.079, 67380.65
1213.007, 67391.77
1214.936, 67375.66
1216.864, 67379.41
1218.793, 67436.22
1220.721, 67468.95
1222.650, 67481.59
1224.578, 67421.83
1226.507, 67281.47
1228.435, 67081.85
1230.364, 66825.37
1232.292, 66610.45
1234.221, 66440.84
1236.149, 66293.83
1238.078, 66182.17
1240.006, 66143.98
1241.934, 66169.17
1243.863, 66277.44
1245.791, 66385.50
1247.720, 66357.59
1249.648, 66320.10
1251.577, 66407.59
1253.505, 66481.63
1255.434, 66407.75
1257.362, 66389.82
1259.291, 66608.45
1261.219, 66710.30
1263.148, 66517.31
1265.076, 66420.66
1267.005, 66479.13
1268.933, 66534.90
1270.861, 66597.70
1272.790, 66496.78
1274.718, 66249.82
1276.647, 66077.61
1278.575, 65960.28
1280.504, 65845.67
1282.432, 65732.11
1284.361, 65604.16
1286.289, 65490.83
1288.218, 65406.47
1290.146, 65360.00
1292.075, 65324.18
1294.003, 65388.40
1295.932, 65667.86
1297.860, 65831.66
1299.788, 65735.91
1301.717, 65726.22
1303.645, 65883.64
1305.574, 65938.54
1307.502, 65889.63
1309.431, 65815.43
1311.359, 65702.61
1313.288, 65477.37
1315.216, 65177.10
1317.145, 64840.68
1319.073, 64521.36
1321.002, 64281.99
1322.930, 64086.38
1324.859, 63925.61
1326.787, 63784.72
1328.715, 63661.02
1330.644, 63541.70
1332.572, 63412.11
1334.501, 63343.01
1336.429, 63346.84
1338.358, 63283.21
1340.286, 63163.13
1342.215, 63159.85
1344.143, 63238.38
1346.072, 63308.75
1348.000, 63387.77
1349.929, 63474.73
1351.857, 63616.11
1353.786, 63868.48
1355.714, 64159.81
1357.642, 64527.22
1359.571, 64722.86
1361.499, 64674.48
1363.428, 64533.67
1365.356, 64322.00
1367.285, 63954.10
1369.213, 63470.86
1371.142, 63192.77
1373.070, 63026.25
1374.999, 62727.74
1376.927, 62408.32
1378.856, 62180.04
1380.784, 62019.96
1382.713, 61949.52
1384.641, 61863.27
1386.569, 61725.36
1388.498, 61584.85
1390.426, 61454.41
1392.355, 61267.30
1394.283, 61037.27
1396.212, 60957.61
1398.140, 60962.03
1400.069, 60821.88
1401.997, 60622.04
1403.926, 60449.27
1405.854, 60321.51
1407.783, 60286.99
1409.711, 60242.89
1411.640, 60114.41
1413.568, 60068.68
1415.496, 60144.95
1417.425, 60158.13
1419.353, 60098.14
1421.282, 59992.94
1423.210, 59856.51
1425.139, 59702.16
1427.067, 59564.68
1428.996, 59506.80
1430.924, 59455.68
1432.853, 59358.33
1434.781, 59265.09
1436.710, 59204.54
1438.638, 59130.52
1440.567, 59040.97
1442.495, 58957.39
1444.423, 58863.43
1446.352, 58591.83
1448.280, 58307.39
1450.209, 58372.73
1452.137, 58480.10
1454.066, 58339.36
1455.994, 58200.37
1457.923, 58195.28
1459.851, 58171.30
1461.780, 58080.87
1463.708, 58048.07
1465.637, 58064.54
1467.565, 57969.73
1469.494, 57820.93
1471.422, 57752.20
1473.350, 57731.93
1475.279, 57735.54
1477.207, 57775.91
1479.136, 57856.29
1481.064, 58002.05
1482.993, 58269.52
1484.921, 58406.05
1486.850, 58421.86
1488.778, 58693.59
1490.707, 59011.02
1492.635, 58842.19
1494.564, 58461.23
1496.492, 58030.39
1498.421, 57645.14
1500.349, 57360.31
1502.277, 57082.13
1504.206, 56795.28
1506.134, 56518.36
1508.063, 56262.34
1509.991, 56105.31
1511.920, 55989.14
1513.848, 55776.55
1515.777, 55603.85
1517.705, 55579.21
1519.634, 55550.47
1521.562, 55459.18
1523.491, 55420.88
1525.419, 55455.32
1527.348, 55694.64
1529.276, 56078.63
1531.204, 56325.80
1533.133, 56716.65
1535.061, 57717.67
1536.990, 58747.41
1538.918, 59668.55
1540.847, 60248.64
1542.775, 60450.88
1544.704, 60150.24
1546.632, 59399.63
1548.561, 58343.64
1550.489, 57218.29
1552.418, 56344.57
1554.346, 55609.67
1556.275, 54913.39
1558.203, 54434.55
1560.131, 54216.23
1562.060, 54114.96
1563.988, 54091.74
1565.917, 54037.45
1567.845, 53925.77
1569.774, 53641.43
1571.702, 53398.84
1573.631, 53498.03
1575.559, 53342.68
1577.488, 52771.03
1579.416, 52386.47
1581.345, 52197.91
1583.273, 51974.04
1585.202, 51718.19
1587.130, 51414.63
1589.058, 51149.12
1590.987, 51030.28
1592.915, 50867.50
1594.844, 50603.73
1596.772, 50575.01
1598.701, 50721.87
1600.629, 50554.46
1602.558, 50292.29
1604.486, 50260.37
1606.415, 50251.55
1608.343, 50134.28
1610.272, 50009.66
1612.200, 49880.18
1614.129, 49868.78
1616.057, 49917.64
1617.985, 49746.67
1619.914, 49525.27
1621.842, 49450.71
1623.771, 49369.59
1625.699, 49195.70
1627.628, 49043.21
1629.556, 48923.86
1631.485, 48766.17
1633.413, 48590.46
1635.342, 48420.33
1637.270, 48299.63
1639.199, 48303.28
1641.127, 48272.46
1643.056, 48142.33
1644.984, 48010.82
1646.912, 47881.51
1648.841, 47803.57
1650.769, 47744.68
1652.698, 47664.05
1654.626, 47589.05
1656.555, 47542.09
1658.483, 47476.62
1660.412, 47388.10
1662.340, 47137.99
1664.269, 46849.71
1666.197, 46898.43
1668.126, 46941.67
1670.054, 46742.46
1671.983, 46568.14
1673.911, 46501.15
1675.839, 46316.62
1677.768, 46053.61
1679.696, 45873.74
1681.625, 45740.95
1683.553, 45615.72
1685.482, 45529.19
1687.410, 45495.16
1689.339, 45435.37
1691.267, 45349.58
1693.196, 45321.91
1695.124, 45296.04
1697.053, 45186.56
1698.981, 45065.70
1700.910, 44959.07
1702.838, 44859.67
1704.766, 44767.53
1706.695, 44709.30
1708.623, 44624.18
1710.552, 44340.30
1712.480, 44122.23
1714.409, 44110.97
1716.337, 44061.28
1718.266, 43941.42
1720.194, 43710.86
1722.123, 43482.59
1724.051, 43475.73
1725.980, 43508.64
1727.908, 43483.40
1729.837, 43485.55
1731.765, 43516.91
1733.693, 43497.41
1735.622, 43451.02
1737.550, 43405.24
1739.479, 43395.15
1741.407, 43485.37
1743.336, 43496.38
1745.264, 43419.55
1747.193, 43292.35
1749.121, 43167.24
1751.050, 43170.43
1752.978, 43114.25
1754.907, 42853.67
1756.835, 42614.04
1758.764, 42398.34
1760.692, 42109.44
1762.620, 41801.30
1764.549, 41531.90
1766.477, 41311.95
1768.406, 41205.25
1770.334, 40990.68
1772.263, 40691.73
1774.191, 40501.02
1776.120, 40366.70
1778.048, 40290.88
1779.977, 40116.44
1781.905, 39693.87
1783.834, 39486.20
1785.762, 39440.45
1787.691, 39367.86
1789.619, 39277.50
1791.547, 39189.66
1793.476, 39040.66
1795.404, 38802.57
1797.333, 38635.96
1799.261, 38496.78
1801.190, 38269.94
1803.118, 38062.08
1805.047, 37950.83
1806.975, 37767.82
1808.904, 37508.61
1810.832, 37357.84
1812.761, 37254.58
1814.689, 37127.46
1816.618, 37000.44
1818.546, 36873.62
1820.474, 36811.10
1822.403, 36777.22
1824.331, 36647.39
1826.260, 36465.49
1828.188, 36228.60
1830.117, 36119.16
1832.045, 36168.80
1833.974, 36067.27
1835.902, 35885.09
1837.831, 35723.52
1839.759, 35555.95
1841.688, 35365.71
1843.616, 35212.27
1845.545, 35101.51
1847.473, 35064.77
1849.401, 35035.13
1851.330, 34980.80
1853.258, 34848.37
1855.187, 34642.29
1857.115, 34481.73
1859.044, 34328.73
1860.972, 34068.64
1862.901, 33910.75
1864.829, 33920.88
1866.758, 33841.48
1868.686, 33701.12
1870.615, 33671.01
1872.543, 33588.96
1874.472, 33282.36
1876.400, 33152.83
1878.328, 33185.29
1880.257, 32994.63
1882.185, 32747.25
1884.114, 32599.47
1886.042, 32516.75
1887.971, 32483.39
1889.899, 32454.37
1891.828, 32409.69
1893.756, 32319.33
1895.685, 32164.17
1897.613, 31913.59
1899.542, 31788.34
1901.470, 31729.28
1903.399, 31615.85
1905.327, 31475.34
1907.255, 31300.05
1909.184, 31100.15
1911.112, 30895.83
1913.041, 30821.94
1914.969, 30786.43
1916.898, 30715.18
1918.826, 30643.16
1920.755, 30569.29
1922.683, 30514.30
1924.612, 30415.84
1926.540, 30131.26
1928.469, 29922.76
1930.397, 29893.30
1932.326, 29746.50
1934.254, 29568.47
1936.182, 29489.53
1938.111, 29425.09
1940.039, 29375.40
1941.968, 29203.71
1943.896, 28982.46
1945.825, 28965.43
1947.753, 28911.46
1949.682, 28700.14
1951.610, 28593.60
1953.539, 28565.95
1955.467, 28459.96
1957.396, 28308.59
1959.324, 28113.27
1961.253, 27941.23
1963.181, 27804.51
1965.109, 27660.02
1967.038, 27506.25
1968.966, 27317.32
1970.895, 27222.56
1972.823, 27224.56
1974.752, 27242.13
1976.680, 27079.03
1978.609, 26551.74
1980.537, 26329.36
1982.466, 26433.00
1984.394, 26693.34
1986.323, 26824.15
1988.251, 26534.16
1990.180, 26301.78
1992.108, 26165.63
1994.036, 26026.78
1995.965, 25875.70
1997.893, 25693.96
1999.822, 25565.62
2001.750, 25491.21
2003.679, 25447.63
2005.607, 25401.76
2007.536, 25313.25
2009.464, 25222.01
2011.393, 25117.60
2013.321, 24954.68
2015.250, 24799.63
2017.178, 24713.72
2019.107, 24714.02
2021.035, 24730.03
2022.964, 24622.37
2024.892, 24481.01
2026.820, 24250.38
2028.749, 24134.03
2030.677, 24186.62
2032.606, 24165.24
2034.534, 24154.00
2036.463, 24270.63
2038.391, 24349.95
2040.320, 24370.96
2042.248, 24277.56
2044.177, 24080.47
2046.105, 23761.22
2048.034, 23445.92
2049.962, 23157.95
2051.891, 22950.69
2053.819, 22782.23
2055.748, 22591.01
2057.676, 22422.97
2059.604, 22290.45
2061.533, 22147.27
2063.461, 22060.52
2065.390, 22065.40
2067.318, 21985.37
2069.247, 21859.83
2071.175, 21760.37
2073.104, 21638.50
2075.032, 21499.04
2076.960, 21405.09
2078.889, 21326.01
2080.817, 21264.52
2082.746, 21170.93
2084.674, 21044.53
2086.603, 21125.04
2088.531, 20736.74
2090.460, 19633.80
2092.388, 19697.98
2094.317, 20266.59
2096.245, 20195.64
2098.174, 20159.67
2100.102, 20334.96
2102.031, 20224.32
2103.959, 19997.76
2105.887, 19936.16
2107.816, 19899.45
2109.744, 19836.54
2111.673, 19763.30
2113.601, 19686.21
2115.530, 19590.31
2117.458, 19426.20
2119.387, 19254.08
2121.315, 19131.77
2123.244, 19036.02
2125.172, 18949.97
2127.101, 18944.09
2129.029, 18932.80
2130.958, 18713.44
2132.886, 18592.20
2134.814, 18570.04
2136.743, 18479.12
2138.671, 18383.89
2140.600, 18250.09
2142.528, 18154.47
2144.457, 18046.98
2146.385, 17829.96
2148.314, 17787.23
2150.242, 17823.78
2152.171, 17751.63
2154.099, 17609.15
2156.028, 17289.93
2157.956, 17314.63
2159.885, 17529.18
2161.813, 17421.46
2163.741, 17284.17
2165.670, 17265.98
2167.598, 17153.45
2169.527, 17076.89
2171.455, 17136.60
2173.384, 17095.19
2175.312, 16959.48
2177.241, 16697.77
2179.169, 16544.53
2181.098, 16585.25
2183.026, 16577.77
2184.955, 16579.94
2186.883, 16607.12
2188.812, 16519.44
2190.740, 16351.29
2192.668, 16342.62
2194.597, 16350.93
2196.525, 16267.02
2198.454, 16220.01
2200.382, 16214.21
2202.311, 16271.61
2204.239, 16329.92
2206.168, 16387.43
2208.096, 16568.20
2210.025, 16877.83
2211.953, 17312.88
2213.882, 17999.21
2215.810, 18776.59
2217.739, 19540.74
2219.667, 19849.89
2221.595, 19612.66
2223.524, 18600.26
2225.452, 17469.38
2227.381, 16509.63
2229.309, 15827.02
2231.238, 15359.67
2233.166, 15069.68
2235.095, 14810.64
2237.023, 14541.06
2238.952, 14252.49
2240.880, 14054.50
2242.809, 13993.44
2244.737, 14002.67
2246.666, 13992.47
2248.594, 13866.63
2250.522, 13798.01
2252.451, 13759.17
2254.379, 13637.74
2256.308, 13461.63
2258.236, 13255.18
2260.165, 13376.06
2262.093, 13471.56
2264.022, 13365.89
2265.950, 13288.67
2267.879, 13216.62
2269.807, 13116.24
2271.736, 13012.30
2273.664, 12957.80
2275.593, 13157.09
2277.521, 13193.04
2279.449, 12904.36
2281.378, 12789.97
2283.306, 12780.06
2285.235, 12805.37
2287.163, 12716.18
2289.092, 12577.67
2291.020, 12553.92
2292.949, 12570.20
2294.877, 12586.13
2296.806, 12561.08
2298.734, 12463.86
2300.663, 12302.50
2302.591, 12260.65
2304.520, 12209.65
2306.448, 12034.28
2308.376, 11965.52
2310.305, 11959.85
2312.233, 11895.87
2314.162, 11852.13
2316.090, 11830.10
2318.019, 11711.37
2319.947, 11668.91
2321.876, 11754.23
2323.804, 11701.13
2325.733, 11574.71
2327.661, 11412.13
2329.590, 11366.79
2331.518, 11368.63
2333.447, 11293.70
2335.375, 11222.69
2337.303, 11171.81
2339.232, 11187.45
2341.160, 11149.78
2343.089, 11033.35
2345.017, 10835.13
2346.946, 10710.42
2348.874, 10783.15
2350.803, 10639.27
2352.731, 10475.46
2354.660, 10557.76
2356.588, 10559.34
2358.517, 10501.37
2360.445, 10458.35
2362.374, 10413.75
2364.302, 10374.75
2366.230, 10410.56
2368.159, 10384.13
2370.087, 10235.79
2372.016, 10275.42
2373.944, 10295.68
2375.873, 10136.45
2377.801, 10006.82
2379.730, 9953.331
2381.658, 10042.81
2383.587, 9988.995
2385.515, 9844.016
2387.444, 9720.120
2389.372, 9729.558
2391.301, 9792.100
2393.229, 9665.085
2395.157, 9590.485
2397.086, 9592.729
2399.014, 9556.162
2400.943, 9472.106
2402.871, 9372.646
2404.800, 9322.497
2406.728, 9223.951
2408.657, 9069.096
2410.585, 9176.743
2412.514, 9314.388
2414.442, 9357.671
2416.371, 9238.501
2418.299, 9106.932
2420.228, 9065.199
2422.156, 9082.858
2424.084, 9070.195
2426.013, 9052.160
2427.941, 8963.353
2429.870, 8769.313
2431.798, 8727.035
2433.727, 8652.723
2435.655, 8548.988
2437.584, 8628.078
2439.512, 8643.374
2441.441, 8514.561
2443.369, 8481.304
2445.298, 8487.280
2447.226, 8388.903
2449.155, 8272.834
2451.083, 8250.464
2453.011, 8338.606
2454.940, 8298.901
2456.868, 8227.737
2458.797, 8229.893
2460.725, 8138.823
2462.654, 8078.061
2464.582, 8023.451
2466.511, 8081.660
2468.439, 8097.383
2470.368, 7941.208
2472.296, 7893.196
2474.225, 7899.342
2476.153, 7795.793
2478.082, 7771.295
2480.010, 7729.430
2481.938, 7771.620
2483.867, 7759.428
2485.795, 7616.963
2487.724, 7573.421
2489.652, 7574.456
2491.581, 7553.227
2493.509, 7534.340
2495.438, 7509.443
2497.366, 7466.788
2499.295, 7397.834
2501.223, 7308.916
2503.152, 7192.938
2505.080, 7269.764
2507.009, 7228.023
2508.937, 7136.127
2510.865, 7113.884
2512.794, 6959.168
2514.722, 6867.455
2516.651, 6966.935
2518.579, 7007.428
2520.508, 6915.244
2522.436, 6908.999
2524.365, 6908.316
2526.293, 6846.557
2528.222, 6859.335
2530.150, 6845.573
2532.079, 6696.274
2534.007, 6664.157
2535.936, 6737.499
2537.864, 6787.800
2539.792, 6669.554
2541.721, 6548.243
2543.649, 6549.789
2545.578, 6359.504
2547.506, 6371.728
2549.435, 6508.695
2551.363, 6413.521
2553.292, 6309.623
2555.220, 6283.767
2557.149, 6251.421
2559.077, 6108.949
2561.006, 6108.038
2562.934, 6135.939
2564.863, 6144.061
2566.791, 6195.878
2568.719, 6324.842
2570.648, 6235.604
2572.576, 5996.396
2574.505, 6019.667
2576.433, 5996.171
2578.362, 5820.727
2580.290, 5778.183
2582.219, 5782.351
2584.147, 5812.327
2586.076, 5828.266
2588.004, 5813.705
2589.933, 5802.883
2591.861, 5708.602
2593.790, 5627.319
2595.718, 5675.369
2597.646, 5728.150
2599.575, 5634.871
2601.503, 5582.604
2603.432, 5582.880
2605.360, 5503.530
2607.289, 5495.871
2609.217, 5443.022
2611.146, 5445.479
2613.074, 5449.840
2615.003, 5367.435
2616.931, 5240.338
2618.860, 5218.063
2620.788, 5330.033
2622.717, 5298.021
2624.645, 5176.783
2626.573, 5149.214
2628.502, 5248.850
2630.430, 5164.081
2632.359, 4968.277
2634.287, 4848.144
2636.216, 4919.924
2638.144, 5014.253
2640.073, 5044.278
2642.001, 4971.890
2643.930, 4800.761
2645.858, 4767.194
2647.787, 4800.140
2649.715, 4876.960
2651.644, 4991.030
2653.572, 4796.391
2655.500, 4703.077
2657.429, 4803.776
2659.357, 4797.714
2661.286, 4791.539
2663.214, 4731.241
2665.143, 4610.759
2667.071, 4602.095
2669.000, 4523.496
2670.928, 4387.142
2672.857, 4455.387
2674.785, 4595.548
2676.714, 4584.269
2678.642, 4521.063
2680.571, 4384.389
2682.499, 4292.726
2684.427, 4347.979
2686.356, 4344.314
2688.284, 4279.483
2690.213, 4200.519
2692.141, 4153.477
2694.070, 4171.222
2695.998, 4284.876
2697.927, 4278.697
2699.855, 4249.805
2701.784, 4193.436
2703.712, 4074.775
2705.641, 4020.223
2707.569, 4119.731
2709.498, 4064.304
2711.426, 3961.378
2713.354, 3911.815
2715.283, 3950.824
2717.211, 3924.352
2719.140, 3859.888
2721.068, 3838.459
2722.997, 3857.406
2724.925, 3903.348
2726.854, 3844.442
2728.782, 3764.700
2730.711, 3763.943
2732.639, 3749.333
2734.568, 3656.833
2736.496, 3546.960
2738.425, 3543.544
2740.353, 3628.788
2742.281, 3645.756
2744.210, 3607.115
2746.138, 3505.656
2748.067, 3396.215
2749.995, 3346.151
2751.924, 3369.220
2753.852, 3417.663
2755.781, 3449.414
2757.709, 3417.005
2759.638, 3458.116
2761.566, 3437.082
2763.495, 3364.869
2765.423, 3381.852
2767.352, 3330.645
2769.280, 3254.166
2771.208, 3183.909
2773.137, 3220.578
2775.065, 3260.348
2776.994, 3111.850
2778.922, 3080.534
2780.851, 3095.520
2782.779, 3052.281
2784.708, 3069.563
2786.636, 3108.055
2788.565, 3138.580
2790.493, 3100.551
2792.422, 3085.924
2794.350, 3052.322
2796.279, 2936.896
2798.207, 2833.397
2800.135, 2766.713
2802.064, 2750.456
2803.992, 2789.475
2805.921, 2788.142
2807.849, 2751.037
2809.778, 2790.939
2811.706, 2693.491
2813.635, 2620.736
2815.563, 2778.407
2817.492, 2676.955
2819.420, 2602.764
2821.349, 2686.913
2823.277, 2658.625
2825.206, 2683.725
2827.134, 2721.612
2829.063, 2548.040
2830.991, 2530.760
2832.919, 2556.807
2834.848, 2525.110
2836.776, 2521.423
2838.705, 2538.204
2840.633, 2553.657
2842.562, 2484.650
2844.490, 2423.854
2846.419, 2367.284
2848.347, 2331.666
2850.276, 2301.665
2852.204, 2281.304
2854.133, 2271.838
2856.061, 2391.716
2857.990, 2390.938
2859.918, 2322.809
2861.846, 2369.794
2863.775, 2363.600
2865.703, 2307.765
2867.632, 2278.516
2869.560, 2245.505
2871.489, 2281.886
2873.417, 2304.076
2875.346, 2331.781
2877.274, 2211.680
2879.203, 2110.445
2881.131, 2269.627
2883.060, 2180.264
2884.988, 2070.001
2886.917, 2007.561
2888.845, 1999.371
2890.773, 2059.112
2892.702, 2070.880
2894.630, 2034.406
2896.559, 1955.820
2898.487, 1949.377
2900.416, 1957.175
2902.344, 1922.796
2904.273, 1936.111
2906.201, 1860.741
2908.130, 1781.697
2910.058, 1927.106
2911.987, 1977.040
2913.915, 1892.312
2915.844, 1815.638
2917.772, 1838.198
2919.700, 1859.875
2921.629, 1783.603
2923.557, 1740.621
2925.486, 1648.335
2927.414, 1638.586
2929.343, 1762.303
2931.271, 1772.227
2933.200, 1637.339
2935.128, 1567.941
2937.057, 1648.845
2938.985, 1687.516
2940.914, 1660.338
2942.842, 1789.395
2944.771, 1730.783
2946.699, 1554.550
2948.627, 1492.467
2950.556, 1663.491
2952.484, 1640.151
2954.413, 1594.551
2956.341, 1567.724
2958.270, 1364.580
2960.198, 1401.532
2962.127, 1537.859
2964.055, 1580.394
2965.984, 1546.992
2967.912, 1442.103
2969.841, 1422.901
2971.769, 1493.618
2973.698, 1385.629
2975.626, 1363.973
2977.554, 1453.812
2979.483, 1411.779
2981.411, 1354.357
2983.340, 1497.130
2985.268, 1493.196
2987.197, 1275.126
2989.125, 1267.163
2991.054, 1305.439
2992.982, 1286.128
2994.911, 1198.356
2996.839, 1198.147
2998.768, 1280.699
3000.696, 1219.624
3002.625, 1197.744
3004.553, 1373.309
3006.481, 1376.703
3008.410, 1258.906
3010.338, 1187.484
3012.267, 1191.041
3014.195, 1256.783
3016.124, 1188.723
3018.052, 1043.029
3019.981, 1130.280
3021.909, 1188.943
3023.838, 1016.698
3025.766, 869.8876
3027.695, 989.8053
3029.623, 1114.405
3031.552, 1138.172
3033.480, 1108.963
3035.408, 1133.315
3037.337, 1100.327
3039.265, 1047.666
3041.194, 1001.802
3043.122, 929.3538
3045.051, 897.4804
3046.979, 903.1597
3048.908, 960.6633
3050.836, 958.7192
3052.765, 1025.896
3054.693, 1053.185
3056.622, 981.3374
3058.550, 881.7156
3060.479, 907.9102
3062.407, 1018.113
3064.335, 893.5312
3066.264, 876.6343
3068.192, 909.0223
3070.121, 894.5876
3072.049, 701.0001
3073.978, 697.3431
3075.906, 840.1502
3077.835, 881.8134
3079.763, 980.9653
3081.692, 905.0067
3083.620, 832.9746
3085.549, 962.7454
3087.477, 797.2972
3089.406, 778.9119
3091.334, 845.7227
3093.262, 745.1266
3095.191, 730.2568
3097.119, 679.3091
3099.048, 683.6225
3100.976, 777.2953
3102.905, 805.6863
3104.833, 713.7999
3106.762, 618.2332
3108.690, 677.2928
3110.619, 731.8694
3112.547, 759.7940
3114.476, 741.0046
3116.404, 833.8066
3118.333, 692.7717
3120.261, 578.7059
3122.189, 625.4199
3124.118, 603.6835
3126.046, 672.1183
3127.975, 708.0621
3129.903, 617.9794
3131.832, 662.0583
3133.760, 581.3273
3135.689, 544.1031
3137.617, 661.7458
3139.546, 583.0399
3141.474, 617.6650
3143.403, 599.3074
3145.331, 466.9930
3147.260, 600.1193
3149.188, 550.7457
3151.116, 465.4717
3153.045, 518.4076
3154.973, 546.4443
3156.902, 645.6121
3158.830, 693.9559
3160.759, 617.9788
3162.687, 413.1826
3164.616, 539.4729
3166.544, 627.1113
3168.473, 543.3207
3170.401, 533.0156
3172.330, 411.6009
3174.258, 384.5166
3176.187, 496.3450
3178.115, 515.5447
3180.043, 629.6793
3181.972, 645.7238
3183.900, 508.4955
3185.829, 365.3899
3187.757, 451.8131
3189.686, 460.5027
3191.614, 380.7018
3193.543, 304.1140
3195.471, 401.3262
3197.400, 478.1365
3199.328, 510.2178
3201.257, 545.9042
3203.185, 389.6891
3205.114, 505.5847
3207.042, 603.7740
3208.970, 446.9452
3210.899, 493.7437
3212.827, 452.9901
3214.756, 364.4886
3216.684, 305.1634
3218.613, 311.2264
3220.541, 480.6297
3222.470, 584.2645
3224.398, 523.2056
3226.327, 310.4753
3228.255, 250.3132
3230.184, 466.9261
3232.112, 658.4130
3234.041, 457.4792
3235.969, 412.7560
3237.897, 419.6912
3239.826, 393.0879
3241.754, 314.0387
3243.683, 374.6781
3245.611, 506.3247
3247.540, 555.3247
3249.468, 492.8173
3251.397, 433.1042
3253.325, 456.9957
3255.254, 411.2350
3257.182, 353.2957
3259.111, 446.7169
3261.039, 492.7608
3262.968, 437.1513
3264.896, 405.2257
3266.824, 472.5616
3268.753, 372.9875
3270.681, 327.2018
3272.610, 356.2508
3274.538, 387.1068
3276.467, 281.0372
3278.395, 291.5746
3280.324, 299.0188
3282.252, 304.1895
3284.181, 359.1545
3286.109, 244.4075
3288.038, 208.3298
3289.966, 213.2671
3291.895, 264.9322
3293.823, 555.4266
3295.751, 503.7069
3297.680, 467.4799
3299.608, 447.0956
3301.537, 320.0638
3303.465, 273.4010
3305.394, 299.2108
3307.322, 361.7462
3309.251, 443.3339
3311.179, 696.6550
3313.108, 401.1239
3315.036, 442.6071
3316.965, 556.2239
3318.893, 68.28934
3320.822, 457.2928
3322.750, 347.4431
3324.678, 188.2391
3326.607, 271.6946
3328.535, 310.8351
3330.464, 411.3509
3332.392, 388.5372
3334.321, 312.7832
3336.249, 279.4676
3338.178, 325.0686
3340.106, 272.7765
3342.035, 306.9021
3343.963, 395.0306
3345.892, 268.2277
3347.820, 304.6211
3349.749, 269.2554
3351.677, 265.5812
3353.605, 305.3677
3355.534, 248.9395
3357.462, 157.0491
3359.391, 292.0141
3361.319, 496.6156
3363.248, 473.5768
3365.176, 173.5411
3367.105, 305.6715
3369.033, 483.2620
3370.962, 459.0979
3372.890, 261.3343
3374.819, 311.5516
3376.747, 415.7027
3378.676, 396.4243
3380.604, 266.5403
3382.532, 274.8636
3384.461, 96.91238
3386.389, 173.4038
3388.318, 379.9784
3390.246, 442.6195
3392.175, 145.3427
3394.103, 311.2272
3396.032, 252.7373
3397.960, 154.6843
3399.889, 322.4631
3401.817, 386.9528
3403.746, 432.1071
3405.674, 450.8433
3407.603, 371.7469
3409.531, 179.0423
3411.459, 217.9509
3413.388, 111.0381
3415.316, 91.27317
3417.245, 151.6769
3419.173, 136.5795
3421.102, 75.84741
3423.030, 46.26793
3424.959, 186.3283
3426.887, 340.4644
3428.816, 245.6244
3430.744, 105.5458
3432.673, 161.5927
3434.601, 312.5888
3436.530, 405.3568
3438.458, 328.8416
3440.386, 103.7026
3442.315, 69.27401
3444.243, 89.53886
3446.172, 119.3268
3448.100, 211.8053
3450.029, 269.3649
3451.957, 270.6505
3453.886, 228.6218
3455.814, 173.9452
3457.743, 163.4396
3459.671, 475.4194
3461.600, 82.73200
3463.528, -50.28370
3465.457, 174.2673
3467.385, 349.5636
3469.313, 226.1519
3471.242, 249.7475
3473.170, 376.9632
3475.099, 435.7594
3477.027, 330.9728
3478.956, 164.1845
3480.884, 238.6196
3482.813, 114.6954
3484.741, 49.99593
3486.670, 156.8666
3488.598, 79.82294
3490.527, 248.8190
3492.455, 230.4329
3494.384, 331.6707
3496.312, 507.0319
3498.240, 367.3191
3500.169, 158.1959
3502.097, 148.2457
3504.026, 212.9311
3505.954, 213.1140
3507.883, 147.0666
3509.811, 391.4405
3511.740, 401.4582
3513.668, 209.0423
3515.597, 136.9386
3517.525, 240.0007
3519.454, 48.15530
3521.382, 42.92077
3523.311, 32.49157
3525.239, 80.72410
3527.167, 162.0160
3529.096, 168.5548
3531.024, 148.2111
3532.953, 177.6503
3534.881, 309.7018
3536.810, 330.5335
3538.738, 161.4919
3540.667, 165.0546
3542.595, 169.6326
3544.524, 200.3067
3546.452, 118.9021
3548.381, 67.88808
3550.309, 287.7350
3552.238, 53.77737
3554.166, 169.2528
3556.094, 243.8537
3558.023, 162.1133
3559.951, 35.36705
3561.880, 13.38976
3563.808, -245.8225
3565.737, 22.28091
3567.665, 400.6363
3569.594, 436.5858
3571.522, 97.91255
3573.451, 60.94611
3575.379, 232.7947
3577.308, 298.0943
3579.236, 230.4146
3581.165, 145.3017
3583.093, 113.6574
3585.021, -201.2380
3586.950, -0.5526581
3588.878, 136.0027
3590.807, 59.60589
3592.735, -38.20207
3594.664, 54.36563
3596.592, -173.7169
3598.521, -6.153271
3600.449, 160.2155
3602.378, 246.9370
3604.306, 248.3655
3606.235, 40.56248
3608.163, -51.35322
3610.092, 188.7250
3612.020, 181.4908
3613.948, 174.6155
3615.877, 301.8346
3617.805, -70.02654
3619.734, 214.1763
3621.662, 342.0654
3623.591, 242.4059
3625.519, 133.7462
3627.448, 129.3613
3629.376, 143.1675
3631.305, 219.1209
3633.233, 174.5172
3635.162, 91.10234
3637.090, -14.22813
3639.019, -12.21940
3640.947, 293.0446
3642.875, -19.88641
3644.804, 68.41539
3646.732, -36.89758
3648.661, -2.152739
3650.589, 182.5210
3652.518, 59.53413
3654.446, 178.6767
3656.375, 60.50924
3658.303, 191.9570
3660.232, 139.0686
3662.160, -8.709795
3664.089, 136.8016
3666.017, 266.1257
3667.946, 199.9722
3669.874, 166.2496
3671.802, 42.80744
3673.731, 5.689609
3675.659, 102.7060
3677.588, -12.84120
3679.516, -51.53500
3681.445, -10.73933
3683.373, -1.743591
3685.302, -25.80863
3687.230, -14.57750
3689.159, 93.47541
3691.087, 397.4352
3693.016, -22.97032
3694.944, 101.8040
3696.873, 95.63178
3698.801, -58.22224
3700.729, -21.88831
3702.658, 119.5676
3704.586, 104.4886
3706.515, 74.90785
3708.443, 64.33257
3710.372, 75.29004
3712.300, 153.7878
3714.229, 260.4064
3716.157, 99.42337
3718.086, 154.4412
3720.014, 167.9737
3721.943, 125.5190
3723.871, 135.2450
3725.800, 186.7488
3727.728, 158.0737
3729.656, 23.00587
3731.585, 293.2085
3733.513, 164.2261
3735.442, 16.31722
3737.370, 143.0393
3739.299, 289.5355
3741.227, 85.75224
3743.156, -127.5713
3745.084, 108.4605
3747.013, 251.4704
3748.941, 9.346280
3750.870, -78.94028
3752.798, 104.1460
3754.727, 132.9669
3756.655, 436.1544
3758.583, -102.9266
3760.512, -9.659994
3762.440, 222.1712
3764.369, 314.3431
3766.297, 330.3598
3768.226, 317.0343
3770.154, 76.35604
3772.083, -20.47637
3774.011, 251.4353
3775.940, 291.3393
3777.868, 90.11263
3779.797, -4.421492
3781.725, 123.6737
3783.654, 146.9744
3785.582, 71.05959
3787.510, -3.643602
3789.439, 80.41528
3791.367, 186.3951
3793.296, 276.5365
3795.224, 276.6204
3797.153, 60.91906
3799.081, -78.56779
3801.010, 60.10520
3802.938, 95.89663
3804.867, 81.57996
3806.795, 97.97440
3808.724, 130.2780
3810.652, 104.6309
3812.581, 18.48947
3814.509, 264.4465
3816.438, 73.67387
3818.366, 310.1088
3820.294, 364.1848
3822.223, 82.41988
3824.151, -50.98427
3826.080, 155.0084
3828.008, 97.10649
3829.937, 80.33282
3831.865, -35.98846
3833.794, 20.18682
3835.722, 130.1845
3837.651, 233.1782
3839.579, 295.1117
3841.508, 278.7162
3843.436, 199.8202
3845.365, 224.0030
3847.293, 100.9838
3849.221, 135.0986
3851.150, 51.30983
3853.078, 30.24237
3855.007, -39.40624
3856.935, -178.9901
3858.864, 118.1807
3860.792, -21.62370
3862.721, 94.39940
3864.649, 191.8539
3866.578, 177.3048
3868.506, 136.7064
3870.435, 135.8985
3872.363, 117.0818
3874.292, 24.37954
3876.220, 37.55847
3878.148, 7.972785
3880.077, -0.1640752
3882.005, 50.30738
3883.934, -18.25716
3885.862, 27.46664
3887.791, 59.47126
3889.719, -49.15590
3891.648, 40.34196
3893.576, 108.4687
3895.505, 184.9340
3897.433, -2.447379
3899.362, 76.93462
3901.290, 42.81239
3903.219, 38.40511
3905.147, 111.5514
3907.075, 56.00647
3909.004, -78.34777
3910.932, 70.20195
3912.861, 157.1411
3914.789, -17.00291
3916.718, -101.8424
3918.646, 39.60974
3920.575, -35.46830
3922.503, -149.6959
3924.432, 23.27654
3926.360, 213.6621
3928.289, 237.5790
3930.217, 76.36245
3932.146, 383.6086
3934.074, 242.3702
3936.002, 39.43950
3937.931, -11.51598
3939.859, 37.86958
3941.788, 130.0070
3943.716, 123.0583
3945.645, -127.6088
3947.573, 1.847228
3949.502, -14.63659
3951.430, 5.250424
3953.359, 186.5992
3955.287, -42.26824
3957.216, -15.12405
3959.144, 73.75091
3961.073, 9.862552
3963.001, 66.57005
3964.929, -25.39615
3966.858, -2.513083
3968.786, 95.61918
3970.715, -25.78330
3972.643, 96.04292
3974.572, -89.90445
3976.500, -203.0688
3978.429, 84.95702
3980.357, 246.1039
3982.286, 16.87173
3984.214, 0.7810640
3986.143, 77.94659
3988.071, -3.962440
3990.000, 115.9135
3991.928, -3.461148
3993.856, 154.1990
3995.785, 27.89218
3997.713, 71.18615
3999.642, -25.80723
4001.570, -148.9746
4003.499, 56.75976
4005.427, -103.2380
4007.356, -27.79008
4009.284, -242.5019
4011.213, 226.8391
4013.141, -81.88840
4015.070, -48.36531
4016.998, 281.5591
4018.927, 309.7677
4020.855, 377.4201
4022.783, 147.5554
4024.712, -242.2662
4026.640, 199.4100
4028.569, 335.7267
4030.497, -22.75618
4032.426, -28.71580
4034.354, -33.71856
4036.283, -161.1135
4038.211, -19.29431
4040.140, 36.40716
4042.068, 96.88980
4043.997, 255.1411
4045.925, 294.0749
4047.854, 132.9809
4049.782, 80.88645
4051.710, 289.0409
4053.639, -124.8468
4055.567, -102.3701
4057.496, 121.8204
4059.424, 75.76218
4061.353, 156.8351
4063.281, 6.277777
4065.210, -88.88034
4067.138, 26.79725
4069.067, 139.6874
4070.995, 77.20623
4072.924, -41.30968
4074.852, 34.62884
4076.781, 227.6275
4078.709, 10.10743
4080.637, -73.77774
4082.566, -17.18067
4084.494, -267.1732
4086.423, -141.7256
4088.351, 7.300510
4090.280, -139.8522
4092.208, -348.7810
4094.137, -158.7043
4096.065, 92.00873
4097.994, 11.00378
4099.922, -70.43293
4101.851, 68.37785
4103.779, 2.386014
4105.708, 77.12507
4107.636, -50.36960
4109.564, 141.2482
4111.493, -92.28577
4113.421, -100.9580
4115.350, 123.7743
4117.278, -4.322897
4119.207, 29.75037
4121.135, 109.5669
4123.063, 270.2560
4124.992, 194.8619
4126.920, 53.33324
4128.849, 192.5666
4130.777, 146.9362
4132.706, -5.582738
4134.634, 35.12915
4136.563, 156.1454
4138.491, 122.8169
4140.420, 123.1881
4142.348, -50.96716
4144.277, 225.6100
4146.205, 79.27241
4148.134, -0.1938086
4150.062, -131.3310
4151.991, 14.86680
4153.919, -2.345134
4155.848, 113.5256
4157.776, 146.6760
4159.705, 3.925909
4161.633, 56.95444
4163.562, 6.605771
4165.490, 9.280940
4167.418, 135.7990
4169.347, 110.8834
4171.275, 89.25615
4173.204, -56.42228
4175.132, 89.63160
4177.061, 40.97629
4178.989, 256.0475
4180.917, -43.72625
4182.846, -51.01382
4184.774, -119.4969
4186.703, -134.7025
4188.631, -64.68614
4190.560, 222.1203
4192.488, 248.8090
4194.417, 76.66789
4196.345, 21.51655
4198.274, 127.5965
4200.202, 215.0431
4202.131, -8.900205
4204.059, 17.28705
4205.988, -13.75189
4207.916, 18.43829
4209.845, -42.40642
4211.773, 116.8837
4213.702, -48.45721
4215.630, 187.1391
4217.559, 251.2306
4219.487, -247.3990
4221.416, -100.9573
4223.344, -153.4417
4225.272, -172.5766
4227.201, 142.9291
4229.129, -48.18489
4231.058, 94.52599
4232.986, 37.37519
4234.915, 65.83067
4236.843, -22.61268
4238.771, -2.749522
4240.700, -26.31601
4242.628, -165.1822
4244.557, 90.37655
4246.485, 209.5379
4248.414, 25.75389
4250.342, 134.0333
4252.271, 172.9247
4254.199, 99.45165
4256.128, -1.923899
4258.056, -119.0693
4259.985, 99.09579
4261.913, -234.6968
4263.842, -157.9655
4265.770, -29.09300
4267.699, -35.83222
4269.627, -186.8375
4271.556, -157.6248
4273.484, 270.3242
4275.413, 31.11823
4277.341, 189.5233
4279.270, 164.8410
4281.198, 200.4333
4283.126, 140.8528
4285.055, 266.0392
4286.983, -115.0646
4288.912, -150.3413
4290.840, 44.90705
4292.769, 19.63197
4294.697, 122.4567
4296.625, 163.4524
4298.554, 199.8193
4300.482, 54.48917
4302.411, -82.26173
4304.339, -31.50109
4306.268, 98.43241
4308.196, 100.7161
4310.125, 18.74445
4312.053, 76.92886
4313.982, 41.96780
4315.910, 186.8566
4317.839, 265.3912
4319.767, -98.26270
4321.696, 180.0598
4323.624, 13.54780
4325.553, 64.89474
4327.481, 218.2474
4329.410, 170.5887
4331.338, 191.4646
4333.267, 56.82151
4335.195, -161.6735
4337.124, -196.3706
4339.052, 137.4296
4340.980, 27.36660
4342.909, -42.89730
4344.837, -130.7860
4346.766, -13.54172
4348.694, -107.1748
4350.623, 351.3521
4352.551, -55.79678
4354.479, -144.2179
4356.408, -88.56554
4358.336, 95.07228
4360.265, 69.71049
4362.193, -36.32689
4364.122, 99.60677
4366.050, 155.9256
4367.979, -56.91143
4369.907, -54.07600
4371.836, 168.1139
4373.764, 23.72254
4375.693, -219.7885
4377.621, 25.85968
4379.550, -8.344357
##END=



