##NAMES=Vishnevite
##RRUFFID=R061139
##IDEAL CHEMISTRY=Na_8_(Al_6_Si_6_)O_24_(SO_4_)·2H_2_O
##LOCALITY=Vishnevyite Mountains, Urals, U.S.S.R.
##OWNER=RRUFF
##SOURCE=Michael Scott
##DESCRIPTION=Light blue irregular granular masses
##STATUS=The identification of this mineral has been confirmed only by single crystal X-ray diffraction
##URL=https://www.rruff.net/odr/rruff_sample/R061139
##DIFFRACTION SAMPLE DESCRIPTION=Single crystal, powder profile is calculated
##CELL PARAMETERS=a: 12.714 b: 12.714 c: 5.1966 alpha: 90 beta: 90 gamma: 120 volume: 727.2 crystal system: hexagonal
##FILETYPE=Raman RAW
##RAMAN WAVELENGTH=532

219.3577, 9984.971
221.2862, 9961.941
223.2146, 9932.846
225.1431, 9899.508
227.0716, 9860.980
229.0000, 9815.560
230.9285, 9758.762
232.8570, 9698.065
234.7854, 9636.321
236.7139, 9570.269
238.6424, 9516.348
240.5708, 9482.027
242.4993, 9458.922
244.4278, 9434.540
246.3562, 9403.921
248.2847, 9376.017
250.2132, 9359.893
252.1416, 9358.939
254.0701, 9343.417
255.9986, 9306.440
257.9271, 9252.672
259.8555, 9186.727
261.7840, 9113.133
263.7125, 9023.137
265.6409, 8895.239
267.5694, 8734.547
269.4979, 8604.504
271.4263, 8532.488
273.3548, 8489.321
275.2833, 8448.231
277.2117, 8401.545
279.1402, 8366.663
281.0687, 8358.351
282.9971, 8372.140
284.9256, 8370.848
286.8541, 8354.937
288.7825, 8322.816
290.7110, 8266.990
292.6395, 8183.683
294.5679, 8097.164
296.4964, 8015.203
298.4249, 7936.295
300.3533, 7850.926
302.2818, 7742.042
304.2103, 7641.187
306.1387, 7568.038
308.0672, 7526.065
309.9957, 7485.210
311.9241, 7433.247
313.8526, 7377.708
315.7811, 7338.544
317.7095, 7315.068
319.6380, 7306.652
321.5665, 7315.681
323.4949, 7345.000
325.4234, 7372.493
327.3519, 7397.927
329.2803, 7419.877
331.2088, 7437.257
333.1373, 7451.349
335.0657, 7457.916
336.9942, 7450.760
338.9227, 7429.757
340.8511, 7423.434
342.7796, 7454.533
344.7081, 7483.213
346.6365, 7479.943
348.5650, 7435.773
350.4935, 7392.186
352.4219, 7355.069
354.3504, 7327.696
356.2789, 7309.684
358.2073, 7303.375
360.1358, 7298.236
362.0643, 7295.442
363.9927, 7298.350
365.9212, 7298.353
367.8497, 7285.331
369.7781, 7266.740
371.7066, 7265.372
373.6351, 7288.234
375.5635, 7313.233
377.4920, 7323.899
379.4205, 7323.454
381.3489, 7338.875
383.2774, 7382.708
385.2059, 7428.804
387.1343, 7468.046
389.0628, 7501.830
390.9913, 7526.942
392.9197, 7530.310
394.8482, 7526.387
396.7767, 7544.170
398.7051, 7591.024
400.6336, 7642.652
402.5621, 7690.007
404.4905, 7736.957
406.4190, 7791.824
408.3475, 7843.000
410.2759, 7903.182
412.2044, 7993.930
414.1329, 8117.693
416.0613, 8240.912
417.9898, 8343.624
419.9183, 8447.484
421.8467, 8576.082
423.7752, 8745.824
425.7037, 8914.529
427.6321, 9084.956
429.5606, 9262.368
431.4891, 9439.192
433.4175, 9608.742
435.3460, 9768.351
437.2745, 9910.788
439.2029, 10027.53
441.1314, 10139.19
443.0599, 10260.70
444.9883, 10388.93
446.9168, 10518.18
448.8453, 10653.96
450.7737, 10783.45
452.7022, 10910.50
454.6307, 11032.32
456.5591, 11124.29
458.4876, 11166.22
460.4161, 11174.11
462.3446, 11169.88
464.2730, 11164.29
466.2015, 11128.54
468.1300, 11043.62
470.0584, 10924.70
471.9869, 10796.03
473.9154, 10657.09
475.8438, 10529.82
477.7723, 10430.45
479.7008, 10347.91
481.6292, 10250.56
483.5577, 10120.00
485.4862, 10025.53
487.4146, 9985.470
489.3431, 9990.603
491.2716, 10015.88
493.2000, 10078.31
495.1285, 10162.89
497.0570, 10249.74
498.9854, 10328.63
500.9139, 10401.29
502.8424, 10475.60
504.7708, 10535.90
506.6993, 10557.03
508.6278, 10509.15
510.5562, 10430.58
512.4847, 10334.93
514.4131, 10218.15
516.3416, 10064.87
518.2701, 9858.543
520.1985, 9639.258
522.1270, 9436.125
524.0555, 9268.737
525.9839, 9109.896
527.9124, 8933.883
529.8409, 8765.304
531.7693, 8628.355
533.6978, 8531.517
535.6263, 8447.162
537.5547, 8355.131
539.4832, 8261.871
541.4117, 8187.104
543.3401, 8134.467
545.2686, 8088.169
547.1971, 8050.042
549.1255, 8022.347
551.0540, 8005.492
552.9825, 7997.183
554.9109, 7983.094
556.8394, 7956.333
558.7679, 7921.796
560.6964, 7898.799
562.6248, 7900.204
564.5533, 7909.748
566.4818, 7915.389
568.4102, 7907.871
570.3387, 7907.286
572.2672, 7910.152
574.1956, 7907.585
576.1241, 7884.728
578.0526, 7867.436
579.9811, 7865.064
581.9095, 7872.667
583.8380, 7878.402
585.7665, 7878.497
587.6949, 7881.563
589.6234, 7895.369
591.5519, 7924.183
593.4803, 7955.814
595.4088, 7979.537
597.3373, 8003.170
599.2657, 8037.282
601.1942, 8083.973
603.1227, 8134.096
605.0511, 8186.381
606.9796, 8246.097
608.9081, 8303.844
610.8365, 8349.313
612.7650, 8383.403
614.6935, 8430.468
616.6219, 8505.249
618.5504, 8585.574
620.4789, 8654.450
622.4073, 8708.058
624.3358, 8750.789
626.2643, 8783.540
628.1927, 8801.438
630.1212, 8801.753
632.0497, 8784.058
633.9781, 8758.714
635.9066, 8728.693
637.8351, 8691.549
639.7635, 8641.661
641.6920, 8579.978
643.6205, 8513.278
645.5490, 8431.664
647.4774, 8342.943
649.4059, 8280.780
651.3344, 8276.787
653.2628, 8277.418
655.1913, 8264.828
657.1198, 8235.783
659.0482, 8213.602
660.9767, 8200.548
662.9052, 8197.528
664.8336, 8203.925
666.7621, 8213.688
668.6906, 8232.578
670.6190, 8262.221
672.5475, 8299.417
674.4760, 8351.604
676.4044, 8412.437
678.3329, 8452.167
680.2614, 8446.403
682.1898, 8434.975
684.1183, 8435.279
686.0468, 8454.195
687.9752, 8470.932
689.9037, 8488.732
691.8322, 8497.158
693.7606, 8491.802
695.6891, 8476.015
697.6176, 8453.954
699.5460, 8411.597
701.4745, 8369.854
703.4030, 8350.046
705.3314, 8364.498
707.2599, 8373.612
709.1884, 8366.643
711.1168, 8355.696
713.0453, 8356.775
714.9738, 8375.069
716.9022, 8390.950
718.8307, 8395.221
720.7592, 8398.135
722.6876, 8414.606
724.6161, 8456.736
726.5446, 8483.202
728.4730, 8466.501
730.4015, 8435.164
732.3300, 8431.136
734.2584, 8473.979
736.1869, 8510.719
738.1154, 8525.069
740.0438, 8526.801
741.9723, 8537.582
743.9008, 8556.704
745.8292, 8583.164
747.7577, 8621.990
749.6862, 8667.573
751.6146, 8709.378
753.5431, 8750.697
755.4716, 8781.831
757.4000, 8795.697
759.3285, 8799.048
761.2570, 8808.995
763.1854, 8833.103
765.1139, 8846.418
767.0424, 8834.939
768.9708, 8808.122
770.8993, 8782.775
772.8278, 8755.687
774.7562, 8731.592
776.6847, 8714.453
778.6132, 8708.974
780.5416, 8706.192
782.4701, 8705.287
784.3986, 8701.385
786.3270, 8687.938
788.2555, 8673.096
790.1840, 8678.244
792.1124, 8730.410
794.0409, 8772.073
795.9694, 8782.881
797.8978, 8768.055
799.8263, 8757.256
801.7548, 8746.328
803.6832, 8738.042
805.6117, 8742.140
807.5402, 8762.647
809.4686, 8776.812
811.3971, 8767.191
813.3256, 8755.203
815.2540, 8763.308
817.1825, 8801.805
819.1110, 8829.344
821.0394, 8836.777
822.9679, 8839.545
824.8964, 8852.434
826.8248, 8872.315
828.7533, 8889.246
830.6818, 8899.003
832.6102, 8909.384
834.5387, 8919.841
836.4672, 8939.800
838.3956, 8968.356
840.3241, 9002.931
842.2526, 9023.882
844.1810, 9028.242
846.1095, 9043.840
848.0380, 9066.822
849.9664, 9091.481
851.8949, 9105.155
853.8234, 9123.438
855.7518, 9162.420
857.6803, 9196.154
859.6088, 9213.766
861.5372, 9220.608
863.4657, 9231.050
865.3942, 9238.324
867.3226, 9242.302
869.2511, 9241.421
871.1796, 9254.654
873.1080, 9293.525
875.0365, 9340.947
876.9650, 9359.338
878.8934, 9333.037
880.8219, 9308.529
882.7504, 9314.834
884.6788, 9343.436
886.6073, 9377.427
888.5358, 9417.098
890.4642, 9443.181
892.3927, 9429.361
894.3212, 9416.481
896.2496, 9433.566
898.1781, 9478.884
900.1066, 9516.529
902.0350, 9537.386
903.9635, 9553.683
905.8920, 9570.761
907.8204, 9596.570
909.7489, 9623.978
911.6774, 9641.717
913.6058, 9638.031
915.5343, 9635.189
917.4628, 9633.112
919.3912, 9642.925
921.3197, 9675.768
923.2482, 9714.950
925.1766, 9725.732
927.1051, 9726.602
929.0336, 9750.824
930.9620, 9811.097
932.8905, 9873.693
934.8190, 9911.265
936.7474, 9947.172
938.6759, 10000.66
940.6044, 10075.32
942.5328, 10145.39
944.4613, 10204.53
946.3898, 10281.74
948.3182, 10379.09
950.2467, 10482.44
952.1752, 10579.09
954.1036, 10694.91
956.0321, 10849.10
957.9606, 11016.69
959.8890, 11181.20
961.8175, 11342.90
963.7460, 11533.43
965.6744, 11777.41
967.6029, 12062.85
969.5314, 12396.09
971.4598, 12769.58
973.3883, 13167.33
975.3168, 13605.54
977.2452, 14171.34
979.1737, 14846.26
981.1022, 15599.91
983.0306, 16401.38
984.9591, 17264.86
986.8876, 18236.08
988.8160, 19224.51
990.7445, 20149.80
992.6730, 20896.77
994.6014, 21421.96
996.5299, 21563.51
998.4584, 21395.20
1000.387, 20948.93
1002.315, 20256.96
1004.244, 19313.68
1006.172, 18343.84
1008.101, 17312.31
1010.029, 16351.01
1011.958, 15530.67
1013.886, 14832.50
1015.815, 14236.86
1017.743, 13853.24
1019.672, 13583.50
1021.600, 13373.48
1023.528, 13216.36
1025.457, 13076.83
1027.385, 12935.33
1029.314, 12791.51
1031.242, 12647.57
1033.171, 12509.96
1035.099, 12376.65
1037.028, 12224.37
1038.956, 12068.05
1040.885, 11926.39
1042.813, 11810.12
1044.742, 11716.25
1046.670, 11637.37
1048.599, 11564.46
1050.527, 11511.75
1052.455, 11476.53
1054.384, 11443.10
1056.312, 11408.16
1058.241, 11391.04
1060.169, 11399.27
1062.098, 11409.39
1064.026, 11404.31
1065.955, 11375.32
1067.883, 11353.13
1069.812, 11349.18
1071.740, 11349.16
1073.669, 11347.42
1075.597, 11351.77
1077.526, 11356.09
1079.454, 11347.17
1081.382, 11330.95
1083.311, 11341.34
1085.239, 11384.51
1087.168, 11413.89
1089.096, 11407.93
1091.025, 11401.12
1092.953, 11420.90
1094.882, 11460.24
1096.810, 11492.86
1098.739, 11507.96
1100.667, 11519.93
1102.596, 11546.08
1104.524, 11581.91
1106.453, 11590.00
1108.381, 11566.24
1110.309, 11552.43
1112.238, 11554.95
1114.166, 11570.58
1116.095, 11608.99
1118.023, 11659.82
1119.952, 11691.44
1121.880, 11686.87
1123.809, 11692.07
1125.737, 11720.07
1127.666, 11764.99
1129.594, 11810.76
1131.523, 11860.31
1133.451, 11904.65
1135.380, 11944.52
1137.308, 11974.90
1139.236, 11997.94
1141.165, 12011.31
1143.093, 12021.17
1145.022, 12027.41
1146.950, 12037.26
1148.879, 12051.86
1150.807, 12064.02
1152.736, 12069.14
1154.664, 12066.87
1156.593, 12068.01
1158.521, 12074.89
1160.450, 12075.60
1162.378, 12073.70
1164.307, 12079.93
1166.235, 12061.73
1168.163, 11993.48
1170.092, 11923.59
1172.020, 11880.39
1173.949, 11860.17
1175.877, 11841.78
1177.806, 11825.81
1179.734, 11811.08
1181.663, 11797.06
1183.591, 11783.79
1185.520, 11770.58
1187.448, 11756.76
1189.377, 11747.77
1191.305, 11742.74
1193.234, 11743.70
1195.162, 11757.84
1197.090, 11786.20
1199.019, 11799.33
1200.947, 11780.98
1202.876, 11768.23
1204.804, 11766.82
1206.733, 11775.59
1208.661, 11803.17
1210.590, 11862.81
1212.518, 11900.12
1214.447, 11879.06
1216.375, 11849.76
1218.304, 11847.54
1220.232, 11873.58
1222.161, 11907.92
1224.089, 11955.05
1226.017, 11990.68
1227.946, 12005.66
1229.874, 12014.67
1231.803, 12030.31
1233.731, 12044.66
1235.660, 12053.80
1237.588, 12048.42
1239.517, 12059.16
1241.445, 12101.65
1243.374, 12165.85
1245.302, 12215.33
1247.231, 12238.80
1249.159, 12252.64
1251.088, 12254.64
1253.016, 12262.29
1254.944, 12287.37
1256.873, 12322.08
1258.801, 12347.30
1260.730, 12359.52
1262.658, 12373.04
1264.587, 12383.03
1266.515, 12385.56
1268.444, 12408.49
1270.372, 12483.94
1272.301, 12534.39
1274.229, 12513.72
1276.158, 12468.96
1278.086, 12461.15
1280.015, 12527.66
1281.943, 12575.73
1283.871, 12590.49
1285.800, 12598.57
1287.728, 12610.02
1289.657, 12609.05
1291.585, 12586.41
1293.514, 12566.80
1295.442, 12580.10
1297.371, 12637.30
1299.299, 12694.24
1301.228, 12742.46
1303.156, 12782.50
1305.085, 12796.94
1307.013, 12779.39
1308.942, 12779.39
1310.870, 12826.00
1312.798, 12884.06
1314.727, 12915.82
1316.655, 12918.30
1318.584, 12938.50
1320.512, 12998.53
1322.441, 13040.89
1324.369, 13032.01
1326.298, 13001.35
1328.226, 13010.62
1330.155, 13071.04
1332.083, 13124.10
1334.012, 13184.40
1335.940, 13241.49
1337.869, 13278.18
1339.797, 13286.24
1341.726, 13305.34
1343.654, 13349.88
1345.583, 13386.81
1347.511, 13400.50
1349.439, 13414.59
1351.368, 13454.65
1353.296, 13511.66
1355.225, 13548.00
1357.153, 13554.65
1359.082, 13564.47
1361.010, 13596.92
1362.939, 13644.04
1364.867, 13690.55
1366.796, 13723.78
1368.724, 13741.25
1370.653, 13740.22
1372.581, 13743.89
1374.510, 13761.57
1376.438, 13792.81
1378.366, 13832.93
1380.295, 13894.25
1382.223, 13953.57
1384.152, 13982.43
1386.080, 13992.76
1388.009, 14016.65
1389.937, 14057.88
1391.866, 14057.19
1393.794, 13967.74
1395.723, 13910.82
1397.651, 13915.33
1399.580, 13940.67
1401.508, 13960.97
1403.437, 13978.89
1405.365, 14003.35
1407.293, 14045.18
1409.222, 14081.74
1411.150, 14076.01
1413.079, 14060.84
1415.007, 14084.16
1416.936, 14149.44
1418.864, 14210.60
1420.793, 14252.65
1422.721, 14277.25
1424.650, 14285.69
1426.578, 14286.56
1428.507, 14286.62
1430.435, 14287.75
1432.364, 14302.84
1434.292, 14340.38
1436.220, 14376.12
1438.149, 14388.31
1440.077, 14386.24
1442.006, 14392.45
1443.934, 14414.00
1445.863, 14449.10
1447.791, 14507.74
1449.720, 14549.32
1451.648, 14556.57
1453.577, 14554.63
1455.505, 14573.03
1457.434, 14616.35
1459.362, 14649.01
1461.291, 14662.20
1463.219, 14675.07
1465.147, 14683.81
1467.076, 14700.91
1469.004, 14754.36
1470.933, 14851.12
1472.861, 14923.27
1474.790, 14963.28
1476.718, 14982.51
1478.647, 14964.61
1480.575, 14938.41
1482.504, 14944.93
1484.432, 14982.64
1486.361, 15010.44
1488.289, 15015.88
1490.218, 15022.63
1492.146, 15053.92
1494.074, 15094.32
1496.003, 15112.28
1497.931, 15108.30
1499.860, 15115.41
1501.788, 15143.74
1503.717, 15171.99
1505.645, 15186.26
1507.574, 15205.48
1509.502, 15243.99
1511.431, 15296.33
1513.359, 15334.03
1515.288, 15354.29
1517.216, 15365.51
1519.145, 15352.70
1521.073, 15348.97
1523.001, 15382.63
1524.930, 15447.87
1526.858, 15491.64
1528.787, 15500.94
1530.715, 15520.14
1532.644, 15573.76
1534.572, 15617.72
1536.501, 15624.44
1538.429, 15611.01
1540.358, 15620.14
1542.286, 15660.27
1544.215, 15696.38
1546.143, 15731.12
1548.072, 15760.05
1550.000, 15772.52
1551.928, 15780.50
1553.857, 15811.51
1555.785, 15882.13
1557.714, 15925.95
1559.642, 15921.61
1561.571, 15917.79
1563.499, 15929.83
1565.428, 15951.74
1567.356, 15970.21
1569.285, 15982.40
1571.213, 16019.80
1573.142, 16122.31
1575.070, 16192.40
1576.999, 16194.46
1578.927, 16175.03
1580.855, 16160.37
1582.784, 16152.74
1584.712, 16177.96
1586.641, 16253.90
1588.569, 16319.73
1590.498, 16366.27
1592.426, 16403.37
1594.355, 16430.64
1596.283, 16454.08
1598.212, 16489.91
1600.140, 16542.05
1602.069, 16580.86
1603.997, 16598.47
1605.926, 16610.45
1607.854, 16609.86
1609.782, 16613.80
1611.711, 16649.47
1613.639, 16713.80
1615.568, 16758.58
1617.496, 16770.26
1619.425, 16790.94
1621.353, 16845.27
1623.282, 16897.33
1625.210, 16916.54
1627.139, 16916.34
1629.067, 16932.34
1630.996, 16966.49
1632.924, 17005.29
1634.853, 17055.30
1636.781, 17096.65
1638.709, 17109.40
1640.638, 17117.31
1642.566, 17154.15
1644.495, 17214.64
1646.423, 17258.32
1648.352, 17279.84
1650.280, 17293.52
1652.209, 17293.75
1654.137, 17296.64
1656.066, 17311.55
1657.994, 17337.35
1659.923, 17382.68
1661.851, 17450.55
1663.780, 17498.55
1665.708, 17509.21
1667.636, 17520.68
1669.565, 17558.70
1671.493, 17595.75
1673.422, 17599.98
1675.350, 17578.99
1677.279, 17562.16
1679.207, 17547.54
1681.136, 17548.99
1683.064, 17568.28
1684.993, 17605.65
1686.921, 17677.99
1688.850, 17759.72
1690.778, 17813.83
1692.707, 17841.65
1694.635, 17861.96
1696.563, 17872.24
1698.492, 17884.49
1700.420, 17901.01
1702.349, 17921.61
1704.277, 17946.88
1706.206, 17975.98
1708.134, 18010.43
1710.063, 18051.79
1711.991, 18075.74
1713.920, 18066.95
1715.848, 18064.18
1717.777, 18079.93
1719.705, 18106.46
1721.634, 18148.38
1723.562, 18195.72
1725.490, 18204.36
1727.419, 18156.55
1729.347, 18169.99
1731.276, 18325.71
1733.204, 18448.99
1735.133, 18456.13
1737.061, 18424.74
1738.990, 18427.76
1740.918, 18458.13
1742.847, 18474.91
1744.775, 18467.44
1746.704, 18483.59
1748.632, 18559.55
1750.561, 18619.60
1752.489, 18618.01
1754.417, 18601.96
1756.346, 18627.19
1758.274, 18686.53
1760.203, 18723.43
1762.131, 18723.29
1764.060, 18736.46
1765.988, 18778.09
1767.917, 18817.23
1769.845, 18828.87
1771.774, 18843.45
1773.702, 18907.29
1775.631, 19009.95
1777.559, 19068.68
1779.488, 19041.44
1781.416, 19050.96
1783.344, 19139.13
1785.273, 19208.33
1787.201, 19210.83
1789.130, 19193.87
1791.058, 19197.57
1792.987, 19221.45
1794.915, 19266.18
1796.844, 19348.87
1798.772, 19404.79
1800.701, 19404.47
1802.629, 19412.92
1804.558, 19453.90
1806.486, 19502.23
1808.415, 19544.41
1810.343, 19576.99
1812.271, 19581.39
1814.200, 19549.64
1816.128, 19544.28
1818.057, 19578.47
1819.985, 19622.94
1821.914, 19670.77
1823.842, 19725.02
1825.771, 19798.52
1827.699, 19875.47
1829.628, 19922.68
1831.556, 19940.88
1833.485, 19954.09
1835.413, 19963.12
1837.342, 19970.23
1839.270, 19966.35
1841.198, 19974.12
1843.127, 20012.80
1845.055, 20065.66
1846.984, 20121.98
1848.912, 20176.24
1850.841, 20195.39
1852.769, 20167.66
1854.698, 20162.80
1856.626, 20196.60
1858.555, 20248.74
1860.483, 20340.53
1862.412, 20421.19
1864.340, 20430.50
1866.269, 20397.16
1868.197, 20401.88
1870.125, 20451.34
1872.054, 20493.82
1873.982, 20526.53
1875.911, 20555.26
1877.839, 20577.00
1879.768, 20599.22
1881.696, 20623.45
1883.625, 20651.85
1885.553, 20688.44
1887.482, 20732.69
1889.410, 20778.70
1891.339, 20829.39
1893.267, 20874.76
1895.196, 20913.79
1897.124, 20948.27
1899.052, 20964.48
1900.981, 20990.85
1902.909, 21073.34
1904.838, 21170.00
1906.766, 21177.19
1908.695, 21099.16
1910.623, 21069.44
1912.552, 21102.19
1914.480, 21156.51
1916.409, 21242.58
1918.337, 21316.91
1920.266, 21356.79
1922.194, 21379.35
1924.123, 21391.98
1926.051, 21400.80
1927.979, 21422.70
1929.908, 21457.80
1931.836, 21478.27
1933.765, 21466.83
1935.693, 21482.20
1937.622, 21571.83
1939.550, 21645.73
1941.479, 21655.88
1943.407, 21639.97
1945.336, 21624.06
1947.264, 21614.27
1949.193, 21632.80
1951.121, 21684.95
1953.050, 21738.41
1954.978, 21806.88
1956.906, 21853.14
1958.835, 21847.56
1960.763, 21853.29
1962.692, 21903.37
1964.620, 21968.21
1966.549, 22020.36
1968.477, 22064.79
1970.406, 22120.98
1972.334, 22188.89
1974.263, 22229.06
1976.191, 22230.73
1978.120, 22235.96
1980.048, 22250.90
1981.977, 22276.58
1983.905, 22311.50
1985.833, 22359.29
1987.762, 22441.83
1989.690, 22532.26
1991.619, 22569.84
1993.547, 22555.40
1995.476, 22552.32
1997.404, 22566.36
1999.333, 22577.57
2001.261, 22562.48
2003.190, 22576.26
2005.118, 22657.16
2007.047, 22744.50
2008.975, 22805.72
2010.904, 22845.13
2012.832, 22859.45
2014.760, 22854.38
2016.689, 22875.09
2018.617, 22924.21
2020.546, 22981.42
2022.474, 23054.98
2024.403, 23107.36
2026.331, 23117.76
2028.260, 23123.21
2030.188, 23147.72
2032.117, 23170.56
2034.045, 23156.80
2035.974, 23133.53
2037.902, 23167.58
2039.831, 23255.68
2041.759, 23317.68
2043.688, 23347.30
2045.616, 23365.42
2047.544, 23338.00
2049.473, 23352.22
2051.401, 23480.96
2053.330, 23590.97
2055.258, 23590.17
2057.187, 23548.38
2059.115, 23533.91
2061.044, 23545.35
2062.972, 23580.71
2064.901, 23639.86
2066.829, 23714.83
2068.758, 23814.47
2070.686, 23878.89
2072.615, 23881.25
2074.543, 23882.52
2076.471, 23903.48
2078.400, 23931.90
2080.328, 23979.14
2082.257, 24015.38
2084.185, 23977.29
2086.114, 23903.90
2088.042, 23927.90
2089.971, 24060.71
2091.899, 24152.63
2093.828, 24192.28
2095.756, 24215.73
2097.685, 24199.71
2099.613, 24208.34
2101.542, 24276.74
2103.470, 24347.39
2105.398, 24391.97
2107.327, 24427.63
2109.255, 24474.58
2111.184, 24522.62
2113.112, 24553.25
2115.041, 24566.43
2116.969, 24556.08
2118.898, 24512.74
2120.826, 24502.34
2122.755, 24541.59
2124.683, 24595.47
2126.612, 24675.38
2128.540, 24746.30
2130.469, 24797.03
2132.397, 24831.67
2134.325, 24838.71
2136.254, 24841.15
2138.182, 24880.00
2140.111, 24942.89
2142.039, 24978.64
2143.968, 24987.97
2145.896, 24995.39
2147.825, 24999.76
2149.753, 25020.40
2151.682, 25065.06
2153.610, 25116.74
2155.539, 25197.43
2157.467, 25248.66
2159.396, 25210.74
2161.324, 25164.60
2163.252, 25177.19
2165.181, 25229.43
2167.109, 25308.58
2169.038, 25402.07
2170.966, 25423.44
2172.895, 25370.30
2174.823, 25402.38
2176.752, 25553.91
2178.680, 25628.37
2180.609, 25550.73
2182.537, 25506.91
2184.466, 25581.47
2186.394, 25665.60
2188.323, 25713.33
2190.251, 25749.68
2192.179, 25795.88
2194.108, 25841.52
2196.036, 25870.36
2197.965, 25886.43
2199.893, 25900.81
2201.822, 25913.54
2203.750, 25945.20
2205.679, 26002.91
2207.607, 26009.53
2209.536, 25927.32
2211.464, 25904.92
2213.393, 26023.69
2215.321, 26120.96
2217.250, 26112.33
2219.178, 26093.98
2221.106, 26114.21
2223.035, 26156.57
2224.963, 26219.71
2226.892, 26285.66
2228.820, 26313.95
2230.749, 26315.45
2232.677, 26355.63
2234.606, 26432.01
2236.534, 26455.79
2238.463, 26413.93
2240.391, 26404.68
2242.320, 26453.06
2244.248, 26498.04
2246.177, 26513.88
2248.105, 26540.24
2250.033, 26606.34
2251.962, 26664.19
2253.890, 26666.72
2255.819, 26670.54
2257.747, 26751.24
2259.676, 26848.04
2261.604, 26849.17
2263.533, 26795.24
2265.461, 26810.73
2267.390, 26886.77
2269.318, 26960.70
2271.247, 27032.27
2273.175, 27061.32
2275.104, 27020.54
2277.032, 27001.11
2278.960, 27003.06
2280.889, 27041.65
2282.817, 27164.86
2284.746, 27261.45
2286.674, 27275.79
2288.603, 27272.75
2290.531, 27293.39
2292.460, 27309.21
2294.388, 27271.57
2296.317, 27228.43
2298.245, 27274.93
2300.174, 27370.56
2302.102, 27373.54
2304.031, 27291.45
2305.959, 27298.54
2307.887, 27422.85
2309.816, 27507.10
2311.744, 27544.02
2313.673, 27567.07
2315.601, 27573.76
2317.530, 27585.59
2319.458, 27606.19
2321.387, 27635.88
2323.315, 27677.12
2325.244, 27724.34
2327.172, 27790.57
2329.101, 27843.59
2331.029, 27848.87
2332.958, 27836.79
2334.886, 27838.25
2336.814, 27849.29
2338.743, 27862.84
2340.671, 27879.70
2342.600, 27903.23
2344.528, 27932.67
2346.457, 27965.00
2348.385, 28001.57
2350.314, 28021.03
2352.242, 28004.55
2354.171, 28014.40
2356.099, 28059.76
2358.028, 28115.50
2359.956, 28197.76
2361.885, 28251.26
2363.813, 28244.33
2365.741, 28238.73
2367.670, 28262.73
2369.598, 28294.77
2371.527, 28327.08
2373.455, 28356.90
2375.384, 28389.95
2377.312, 28412.30
2379.241, 28387.78
2381.169, 28351.04
2383.098, 28366.37
2385.026, 28425.86
2386.955, 28520.31
2388.883, 28637.23
2390.812, 28704.60
2392.740, 28720.05
2394.668, 28745.75
2396.597, 28792.76
2398.525, 28817.23
2400.454, 28796.00
2402.382, 28807.52
2404.311, 28871.90
2406.239, 28927.28
2408.168, 28961.21
2410.096, 28988.22
2412.025, 29010.12
2413.953, 29031.04
2415.882, 29052.36
2417.810, 29073.80
2419.739, 29102.99
2421.667, 29123.25
2423.595, 29099.60
2425.524, 29082.39
2427.452, 29149.04
2429.381, 29234.42
2431.309, 29225.28
2433.238, 29180.90
2435.166, 29231.96
2437.095, 29339.71
2439.023, 29362.83
2440.952, 29314.08
2442.880, 29326.31
2444.809, 29405.15
2446.737, 29457.43
2448.666, 29482.82
2450.594, 29480.94
2452.522, 29446.46
2454.451, 29430.84
2456.379, 29438.08
2458.308, 29473.37
2460.236, 29579.46
2462.165, 29641.70
2464.093, 29602.83
2466.022, 29590.45
2467.950, 29643.23
2469.879, 29698.32
2471.807, 29733.67
2473.736, 29765.69
2475.664, 29813.46
2477.593, 29846.52
2479.521, 29830.85
2481.449, 29810.82
2483.378, 29807.16
2485.306, 29830.99
2487.235, 29926.14
2489.163, 30027.40
2491.092, 30034.09
2493.020, 30006.26
2494.949, 30051.56
2496.877, 30124.45
2498.806, 30090.75
2500.734, 30000.60
2502.663, 30067.38
2504.591, 30260.66
2506.520, 30332.01
2508.448, 30296.72
2510.376, 30277.79
2512.305, 30279.68
2514.233, 30292.69
2516.162, 30312.92
2518.090, 30374.80
2520.019, 30532.65
2521.947, 30554.25
2523.876, 30383.39
2525.804, 30317.51
2527.733, 30413.99
2529.661, 30492.61
2531.590, 30512.21
2533.518, 30533.31
2535.447, 30558.56
2537.375, 30604.91
2539.303, 30716.02
2541.232, 30780.55
2543.160, 30731.67
2545.089, 30715.73
2547.017, 30819.21
2548.946, 30905.22
2550.874, 30903.73
2552.803, 30873.84
2554.731, 30785.59
2556.660, 30757.58
2558.588, 30930.74
2560.517, 31108.65
2562.445, 31158.18
2564.374, 31151.19
2566.302, 31102.48
2568.230, 31067.51
2570.159, 31125.12
2572.087, 31203.26
2574.016, 31216.26
2575.944, 31197.62
2577.873, 31175.39
2579.801, 31166.67
2581.730, 31213.69
2583.658, 31283.93
2585.587, 31316.45
2587.515, 31331.70
2589.444, 31381.94
2591.372, 31452.29
2593.301, 31501.52
2595.229, 31530.38
2597.157, 31525.33
2599.086, 31504.25
2601.014, 31554.45
2602.943, 31657.32
2604.871, 31673.66
2606.800, 31612.45
2608.728, 31625.21
2610.657, 31710.00
2612.585, 31738.42
2614.514, 31713.88
2616.442, 31691.35
2618.371, 31673.54
2620.299, 31730.50
2622.228, 31884.66
2624.156, 31963.19
2626.084, 31953.92
2628.013, 31942.20
2629.941, 31927.55
2631.870, 31959.79
2633.798, 32050.76
2635.727, 32114.00
2637.655, 32127.08
2639.584, 32157.62
2641.512, 32225.36
2643.441, 32235.90
2645.369, 32160.91
2647.298, 32179.50
2649.226, 32345.36
2651.155, 32440.20
2653.083, 32380.67
2655.011, 32371.09
2656.940, 32473.79
2658.868, 32497.99
2660.797, 32382.00
2662.725, 32381.69
2664.654, 32589.26
2666.582, 32728.71
2668.511, 32709.48
2670.439, 32681.48
2672.368, 32625.77
2674.296, 32646.80
2676.225, 32800.50
2678.153, 32884.81
2680.082, 32822.23
2682.010, 32799.12
2683.938, 32922.18
2685.867, 32984.15
2687.795, 32884.35
2689.724, 32846.68
2691.652, 32919.62
2693.581, 33003.10
2695.509, 33092.62
2697.438, 33138.26
2699.366, 33053.99
2701.295, 33050.80
2703.223, 33294.91
2705.152, 33373.48
2707.080, 33124.98
2709.009, 32991.13
2710.937, 33142.34
2712.865, 33271.02
2714.794, 33280.99
2716.722, 33278.91
2718.651, 33271.73
2720.579, 33277.70
2722.508, 33299.31
2724.436, 33336.78
2726.365, 33398.44
2728.293, 33456.05
2730.222, 33511.32
2732.150, 33544.43
2734.079, 33536.02
2736.007, 33548.30
2737.936, 33599.54
2739.864, 33647.37
2741.792, 33676.58
2743.721, 33712.29
2745.649, 33783.37
2747.578, 33811.35
2749.506, 33761.92
2751.435, 33754.78
2753.363, 33818.87
2755.292, 33895.48
2757.220, 34005.50
2759.149, 34045.55
2761.077, 33945.07
2763.006, 33928.46
2764.934, 34038.00
2766.863, 34118.20
2768.791, 34139.55
2770.719, 34157.90
2772.648, 34181.21
2774.576, 34201.84
2776.505, 34213.31
2778.433, 34257.26
2780.362, 34346.67
2782.290, 34372.68
2784.219, 34299.35
2786.147, 34288.63
2788.076, 34378.45
2790.004, 34424.90
2791.933, 34423.99
2793.861, 34431.70
2795.790, 34451.89
2797.718, 34460.94
2799.646, 34451.58
2801.575, 34494.56
2803.504, 34593.96
2805.432, 34695.93
2807.361, 34794.23
2809.289, 34805.68
2811.218, 34734.69
2813.146, 34693.20
2815.074, 34681.91
2817.003, 34722.36
2818.931, 34800.15
2820.860, 34818.09
2822.788, 34797.29
2824.717, 34808.39
2826.645, 34855.17
2828.574, 34974.96
2830.502, 35129.70
2832.431, 35202.81
2834.359, 35226.86
2836.288, 35269.25
2838.216, 35312.64
2840.145, 35319.08
2842.073, 35311.23
2844.001, 35319.20
2845.930, 35341.95
2847.858, 35389.23
2849.787, 35437.97
2851.715, 35442.91
2853.644, 35460.20
2855.572, 35567.72
2857.501, 35685.77
2859.429, 35772.29
2861.358, 35812.80
2863.286, 35774.07
2865.215, 35718.45
2867.143, 35638.41
2869.072, 35622.85
2871.000, 35757.90
2872.928, 35881.93
2874.857, 35930.93
2876.785, 35952.88
2878.714, 35936.78
2880.642, 35947.26
2882.571, 36010.81
2884.499, 36068.53
2886.428, 36106.12
2888.356, 36145.68
2890.285, 36191.30
2892.213, 36245.80
2894.142, 36327.66
2896.070, 36332.04
2897.999, 36239.14
2899.927, 36219.75
2901.855, 36305.11
2903.784, 36360.26
2905.712, 36378.40
2907.641, 36414.52
2909.569, 36466.26
2911.498, 36514.17
2913.426, 36556.08
2915.355, 36585.57
2917.283, 36603.54
2919.212, 36600.37
2921.140, 36595.38
2923.069, 36658.91
2924.997, 36742.69
2926.926, 36742.25
2928.854, 36731.38
2930.782, 36855.78
2932.711, 36985.09
2934.639, 36931.71
2936.568, 36885.07
2938.496, 37046.43
2940.425, 37209.87
2942.353, 37232.23
2944.282, 37216.61
2946.210, 37191.02
2948.139, 37176.76
2950.067, 37195.52
2951.996, 37204.97
2953.924, 37167.61
2955.853, 37181.63
2957.781, 37286.48
2959.709, 37327.42
2961.638, 37231.27
2963.566, 37244.04
2965.495, 37425.59
2967.423, 37488.13
2969.352, 37426.70
2971.280, 37353.26
2973.209, 37280.95
2975.137, 37322.18
2977.066, 37452.35
2978.994, 37511.21
2980.923, 37524.73
2982.851, 37560.56
2984.780, 37611.06
2986.708, 37683.44
2988.636, 37740.50
2990.565, 37707.14
2992.493, 37657.67
2994.422, 37641.63
2996.350, 37662.95
2998.279, 37757.78
3000.207, 37840.75
3002.136, 37870.48
3004.064, 37875.16
3005.993, 37832.39
3007.921, 37837.26
3009.850, 37966.54
3011.778, 38047.73
3013.707, 38061.17
3015.635, 38044.68
3017.563, 37993.83
3019.492, 38001.27
3021.420, 38078.54
3023.349, 38105.41
3025.277, 38095.81
3027.206, 38187.00
3029.134, 38325.23
3031.063, 38282.19
3032.991, 38166.47
3034.920, 38229.27
3036.848, 38367.03
3038.777, 38479.89
3040.705, 38547.27
3042.634, 38503.25
3044.562, 38470.85
3046.490, 38569.15
3048.419, 38634.51
3050.347, 38545.76
3052.276, 38510.71
3054.204, 38643.95
3056.133, 38746.00
3058.061, 38796.77
3059.990, 38804.36
3061.918, 38757.82
3063.847, 38761.51
3065.775, 38821.99
3067.704, 38898.70
3069.632, 38980.03
3071.561, 38972.67
3073.489, 38931.93
3075.417, 39030.91
3077.346, 39180.16
3079.274, 39228.35
3081.203, 39237.97
3083.131, 39253.51
3085.060, 39281.48
3086.988, 39347.35
3088.917, 39389.77
3090.845, 39349.01
3092.774, 39370.56
3094.702, 39559.16
3096.631, 39708.35
3098.559, 39807.78
3100.488, 39810.23
3102.416, 39709.03
3104.344, 39645.09
3106.273, 39626.10
3108.201, 39668.25
3110.130, 39755.86
3112.058, 39826.39
3113.987, 39893.22
3115.915, 40011.53
3117.844, 40104.87
3119.772, 40021.57
3121.701, 39957.57
3123.629, 40086.50
3125.558, 40205.38
3127.486, 40184.42
3129.415, 40204.21
3131.343, 40317.42
3133.271, 40407.69
3135.200, 40456.95
3137.128, 40455.12
3139.057, 40394.08
3140.985, 40403.18
3142.914, 40471.49
3144.842, 40556.37
3146.771, 40635.79
3148.699, 40624.09
3150.628, 40607.29
3152.556, 40728.96
3154.485, 40867.16
3156.413, 40932.92
3158.342, 40971.33
3160.270, 40987.76
3162.198, 41017.91
3164.127, 41071.41
3166.055, 41142.23
3167.984, 41256.16
3169.912, 41274.40
3171.841, 41202.63
3173.769, 41240.42
3175.698, 41369.43
3177.626, 41471.82
3179.555, 41556.57
3181.483, 41655.80
3183.412, 41732.89
3185.340, 41719.04
3187.269, 41709.14
3189.197, 41778.39
3191.125, 41857.44
3193.054, 41928.03
3194.982, 41994.87
3196.911, 42078.98
3198.839, 42097.46
3200.768, 42046.77
3202.696, 42046.79
3204.625, 42099.88
3206.553, 42182.14
3208.482, 42278.71
3210.410, 42350.45
3212.339, 42413.50
3214.267, 42493.48
3216.196, 42563.55
3218.124, 42563.61
3220.052, 42626.22
3221.981, 42860.22
3223.909, 42982.25
3225.838, 42852.54
3227.766, 42805.67
3229.695, 42848.64
3231.623, 42926.65
3233.552, 43024.87
3235.480, 43063.97
3237.409, 43093.68
3239.337, 43257.41
3241.266, 43427.00
3243.194, 43487.92
3245.123, 43490.73
3247.051, 43423.71
3248.979, 43394.35
3250.908, 43430.94
3252.836, 43525.66
3254.765, 43702.74
3256.693, 43769.71
3258.622, 43742.57
3260.550, 43790.50
3262.479, 43883.59
3264.407, 43920.64
3266.336, 43959.62
3268.264, 44105.58
3270.193, 44230.30
3272.121, 44228.49
3274.050, 44209.68
3275.978, 44193.76
3277.906, 44212.69
3279.835, 44285.55
3281.763, 44333.02
3283.692, 44357.68
3285.620, 44457.33
3287.549, 44582.78
3289.477, 44583.78
3291.406, 44548.71
3293.334, 44597.02
3295.263, 44657.59
3297.191, 44681.48
3299.120, 44719.12
3301.048, 44798.00
3302.977, 44845.91
3304.905, 44848.87
3306.833, 44911.66
3308.762, 45030.07
3310.690, 45136.48
3312.619, 45208.78
3314.547, 45181.64
3316.476, 45130.17
3318.404, 45114.09
3320.333, 45139.76
3322.261, 45243.39
3324.190, 45299.08
3326.118, 45195.28
3328.047, 45276.86
3329.975, 45542.49
3331.904, 45591.74
3333.832, 45491.73
3335.760, 45547.66
3337.689, 45651.62
3339.617, 45617.11
3341.546, 45605.39
3343.474, 45784.05
3345.403, 45916.29
3347.331, 45933.56
3349.260, 45925.79
3351.188, 45902.32
3353.117, 45873.58
3355.045, 45851.32
3356.974, 45921.83
3358.902, 46042.73
3360.831, 46172.93
3362.759, 46276.45
3364.688, 46329.13
3366.616, 46342.55
3368.544, 46249.36
3370.473, 46295.54
3372.401, 46515.17
3374.330, 46637.81
3376.258, 46664.35
3378.187, 46721.67
3380.115, 46792.13
3382.044, 46826.08
3383.972, 46875.70
3385.901, 47004.08
3387.829, 47127.89
3389.758, 47236.34
3391.686, 47267.03
3393.615, 47174.78
3395.543, 47206.35
3397.471, 47334.23
3399.400, 47368.55
3401.328, 47391.06
3403.257, 47584.95
3405.185, 47747.54
3407.114, 47707.22
3409.042, 47683.18
3410.971, 47763.74
3412.899, 47866.64
3414.828, 47987.05
3416.756, 48036.04
3418.685, 48043.26
3420.613, 48116.44
3422.542, 48231.22
3424.470, 48377.54
3426.398, 48514.50
3428.327, 48638.75
3430.255, 48692.96
3432.184, 48652.93
3434.112, 48686.48
3436.041, 48800.32
3437.969, 48869.66
3439.898, 48924.81
3441.826, 49033.37
3443.755, 49151.25
3445.683, 49250.96
3447.612, 49323.57
3449.540, 49359.78
3451.469, 49382.82
3453.397, 49382.95
3455.325, 49535.80
3457.254, 49778.55
3459.182, 49922.98
3461.111, 49992.97
3463.039, 49938.80
3464.968, 49952.42
3466.896, 50214.31
3468.825, 50364.20
3470.753, 50344.11
3472.682, 50360.65
3474.610, 50429.69
3476.539, 50588.91
3478.467, 50766.50
3480.396, 50811.90
3482.324, 50881.21
3484.252, 51116.48
3486.181, 51306.55
3488.109, 51408.67
3490.038, 51516.24
3491.966, 51635.55
3493.895, 51716.84
3495.823, 51816.52
3497.752, 52048.52
3499.680, 52310.54
3501.609, 52566.04
3503.537, 52747.51
3505.466, 52821.50
3507.394, 52919.67
3509.323, 53049.28
3511.251, 53125.59
3513.179, 53231.81
3515.108, 53547.98
3517.036, 53912.90
3518.965, 54231.17
3520.893, 54524.93
3522.822, 54773.08
3524.750, 55107.57
3526.679, 55502.95
3528.607, 55705.14
3530.536, 55816.96
3532.464, 55984.75
3534.393, 56201.70
3536.321, 56505.83
3538.250, 56759.35
3540.178, 56948.98
3542.106, 56974.46
3544.035, 56854.95
3545.963, 56767.50
3547.892, 56669.13
3549.820, 56512.25
3551.749, 56278.84
3553.677, 55915.83
3555.606, 55552.98
3557.534, 55205.16
3559.463, 54886.03
3561.391, 54587.72
3563.320, 54294.67
3565.248, 53980.31
3567.177, 53602.25
3569.105, 53221.11
3571.033, 52861.08
3572.962, 52487.47
3574.890, 52095.26
3576.819, 51848.02
3578.747, 51704.35
3580.676, 51595.54
3582.604, 51467.48
3584.533, 51253.61
3586.461, 51051.61
3588.390, 50884.89
3590.318, 50731.99
3592.247, 50586.54
3594.175, 50408.00
3596.104, 50207.38
3598.032, 49984.56
3599.960, 49769.13
3601.889, 49555.10
3603.817, 49428.08
3605.746, 49420.95
3607.674, 49366.73
3609.603, 49254.33
3611.531, 48996.41
3613.460, 48771.52
3615.388, 48791.18
3617.317, 48779.77
3619.245, 48649.40
3621.174, 48563.31
3623.102, 48511.09
3625.031, 48335.86
3626.959, 48147.48
3628.887, 48115.32
3630.816, 48086.27
3632.744, 48005.15
3634.673, 47883.77
3636.601, 47725.83
3638.530, 47540.66
3640.458, 47374.21
3642.387, 47371.87
3644.315, 47331.16
3646.244, 47108.86
3648.172, 46898.99
3650.101, 46741.93
3652.029, 46635.38
3653.958, 46555.75
3655.886, 46419.65
3657.814, 46289.90
3659.743, 46249.66
3661.671, 46161.63
3663.600, 45912.08
3665.528, 45845.45
3667.457, 45899.75
3669.385, 45760.73
3671.314, 45583.34
3673.242, 45554.21
3675.171, 45556.54
3677.099, 45595.50
3679.028, 45496.50
3680.956, 45287.73
3682.885, 45204.82
3684.813, 45189.98
3686.741, 45194.65
3688.670, 45170.33
3690.598, 45090.29
3692.527, 44979.30
3694.455, 44846.71
3696.384, 44781.43
3698.312, 44756.32
3700.241, 44767.31
3702.169, 44732.05
3704.098, 44561.78
3706.026, 44505.95
3707.955, 44572.95
3709.883, 44546.69
3711.812, 44471.20
3713.740, 44402.25
3715.668, 44360.45
3717.597, 44383.54
3719.525, 44328.76
3721.454, 44191.09
3723.382, 44179.68
3725.311, 44215.75
3727.239, 44165.86
3729.168, 44096.57
3731.096, 44026.39
3733.025, 44000.82
3734.953, 44018.13
3736.882, 43948.16
3738.810, 43861.54
3740.739, 43882.83
3742.667, 43914.50
3744.595, 43915.34
3746.524, 43916.09
3748.452, 43918.22
3750.381, 43888.03
3752.309, 43847.69
3754.238, 43815.48
3756.166, 43814.03
3758.095, 43872.35
3760.023, 43856.48
3761.952, 43770.23
3763.880, 43668.58
3765.809, 43621.98
3767.737, 43814.13
3769.666, 43877.96
3771.594, 43651.84
3773.522, 43661.98
3775.451, 43850.59
3777.379, 43811.86
3779.308, 43714.69
3781.236, 43691.89
3783.165, 43707.97
3785.093, 43765.77
3787.022, 43761.11
3788.950, 43723.93
3790.879, 43747.86
3792.807, 43781.99
3794.736, 43799.05
3796.664, 43792.54
3798.593, 43759.51
3800.521, 43775.98
3802.449, 43821.84
3804.378, 43902.14
3806.306, 43907.97
3808.235, 43765.50
3810.163, 43684.05
3812.092, 43675.70
3814.020, 43641.21
3815.949, 43635.34
3817.877, 43753.92
3819.806, 43830.39
3821.734, 43826.91
3823.663, 43760.90
3825.591, 43682.33
3827.520, 43780.91
3829.448, 43872.79
3831.376, 43783.84
3833.305, 43790.09
3835.233, 43906.32
3837.162, 43869.70
3839.090, 43754.88
3841.019, 43636.92
3842.947, 43600.71
3844.876, 43741.10
3846.804, 43832.79
3848.733, 43874.03
3850.661, 43874.10
3852.590, 43864.57
3854.518, 43891.25
3856.447, 43843.71
3858.375, 43656.59
3860.303, 43598.76
3862.232, 43624.78
3864.160, 43655.01
3866.089, 43671.75
3868.017, 43655.50
3869.946, 43713.23
3871.874, 43809.72
3873.803, 43559.88
3875.731, 43287.75
3877.660, 43339.79
3879.588, 43372.21
3881.517, 43326.59
3883.445, 43395.02
3885.374, 43451.34
3887.302, 43286.24
3889.230, 43135.05
3891.159, 43060.98
3893.087, 43069.06
3895.016, 43126.25
3896.944, 43185.70
3898.873, 43210.71
3900.801, 43131.48
3902.730, 43015.10
3904.658, 42899.19
3906.587, 42915.93
3908.515, 42971.89
3910.444, 43011.32
3912.372, 42983.18
3914.301, 42837.05
3916.229, 42823.30
3918.157, 42858.78
3920.086, 42785.00
3922.014, 42716.97
3923.943, 42676.82
3925.871, 42655.08
3927.800, 42665.66
3929.728, 42692.82
3931.657, 42659.65
3933.585, 42536.96
3935.514, 42480.30
3937.442, 42476.13
3939.371, 42418.61
3941.299, 42363.53
3943.228, 42359.20
3945.156, 42331.44
3947.084, 42269.10
3949.013, 42254.32
3950.941, 42254.38
3952.870, 42158.39
3954.798, 42076.39
3956.727, 42115.43
3958.655, 42062.32
3960.584, 41958.70
3962.512, 41988.59
3964.441, 42008.47
3966.369, 41926.39
3968.298, 41844.83
3970.226, 41785.35
3972.155, 41837.18
3974.083, 41876.70
3976.011, 41728.97
3977.940, 41653.55
3979.868, 41717.99
3981.797, 41689.53
3983.725, 41622.54
3985.654, 41569.50
3987.582, 41567.84
3989.511, 41629.55
3991.439, 41628.06
3993.368, 41579.11
3995.296, 41497.96
3997.225, 41428.59
3999.153, 41396.46
4001.082, 41377.40
4003.010, 41357.42
4004.938, 41301.26
4006.867, 41249.92
4008.795, 41263.57
4010.724, 41190.41
4012.652, 41095.75
4014.581, 41229.18
4016.509, 41303.51
4018.438, 41112.43
4020.366, 41033.09
4022.295, 41093.17
4024.223, 41077.79
4026.152, 41031.37
4028.080, 40958.25
4030.009, 40947.48
4031.937, 41043.76
4033.865, 41044.89
4035.794, 40948.83
4037.722, 40835.16
4039.651, 40774.92
4041.579, 40733.31
4043.508, 40631.34
4045.436, 40591.89
4047.365, 40637.48
4049.293, 40672.51
4051.222, 40660.05
4053.150, 40646.36
4055.079, 40674.54
4057.007, 40611.22
4058.936, 40487.30
4060.864, 40422.53
4062.792, 40395.80
4064.721, 40338.08
4066.649, 40322.68
4068.578, 40411.77
4070.506, 40382.98
4072.435, 40251.52
4074.363, 40205.09
4076.292, 40239.13
4078.220, 40240.55
4080.149, 40193.63
4082.077, 40186.67
4084.006, 40123.74
4085.934, 39997.61
4087.863, 39991.02
4089.791, 39983.39
4091.719, 39960.20
4093.648, 39926.44
4095.576, 39855.48
4097.505, 39912.51
4099.434, 39932.14
4101.362, 39808.13
4103.291, 39729.75
4105.219, 39753.77
4107.147, 39746.07
4109.076, 39743.01
4111.004, 39769.73
4112.933, 39718.81
4114.861, 39624.70
4116.790, 39625.82
4118.718, 39608.13
4120.646, 39488.93
4122.575, 39371.67
4124.503, 39333.63
4126.432, 39484.33
4128.360, 39547.37
4130.289, 39499.10
4132.217, 39441.95
4134.146, 39320.59
4136.074, 39190.77
4138.003, 39174.79
4139.931, 39227.49
4141.860, 39319.37
4143.788, 39355.55
4145.717, 39198.59
4147.645, 39094.98
4149.574, 39094.20
4151.502, 39107.13
4153.431, 39125.75
4155.359, 39152.66
4157.288, 39097.86
4159.216, 38980.03
4161.145, 38941.27
4163.073, 38948.33
4165.001, 38999.40
4166.930, 39003.25
4168.858, 38928.37
4170.787, 38832.93
4172.715, 38760.34
4174.644, 38730.86
4176.572, 38710.68
4178.500, 38698.22
4180.429, 38648.80
4182.357, 38593.23
4184.286, 38581.32
4186.214, 38591.89
4188.143, 38624.75
4190.071, 38552.52
4192.000, 38461.41
4193.928, 38485.85
4195.857, 38513.02
4197.785, 38520.97
4199.714, 38439.47
4201.642, 38373.17
4203.571, 38523.89
4205.499, 38520.79
4207.428, 38296.11
4209.356, 38318.25
4211.285, 38395.22
4213.213, 38318.96
4215.142, 38189.91
4217.070, 38041.06
4218.999, 38131.08
4220.927, 38256.06
4222.855, 38197.14
4224.784, 38177.59
4226.712, 38206.53
4228.641, 38138.27
4230.569, 38051.77
4232.498, 37998.51
4234.426, 37956.96
4236.354, 37942.95
4238.283, 38051.16
4240.211, 38097.47
4242.140, 37899.73
4244.068, 37834.51
4245.997, 37887.27
4247.925, 37931.48
4249.854, 37950.96
4251.782, 37935.83
4253.711, 37912.05
4255.639, 37895.46
4257.568, 37961.65
4259.496, 37995.48
4261.425, 37955.23
4263.353, 37887.00
4265.282, 37831.77
4267.210, 37848.00
4269.139, 37898.14
4271.067, 37969.55
4272.996, 37959.71
4274.924, 37920.68
4276.853, 37923.32
4278.781, 37880.73
4280.709, 37798.41
4282.638, 37828.22
4284.566, 37894.63
4286.495, 37936.28
4288.423, 38011.85
4290.352, 38081.87
4292.280, 37914.45
4294.208, 37820.22
4296.137, 38043.10
4298.065, 38058.33
4299.994, 37969.28
4301.922, 38067.82
4303.851, 38144.04
4305.779, 38121.40
4307.708, 38036.08
4309.636, 37971.11
4311.565, 38082.96
4313.493, 38144.07
4315.422, 38115.72
4317.350, 38075.75
4319.279, 38058.29
4321.207, 38128.63
4323.136, 38105.84
4325.064, 38025.83
4326.993, 38132.22
4328.921, 38210.74
4330.850, 38139.86
4332.778, 38067.20
4334.707, 38057.23
4336.635, 38328.93
4338.563, 38418.83
4340.492, 38195.95
4342.420, 38258.31
4344.349, 38362.23
4346.277, 38248.73
4348.206, 38238.69
4350.134, 38328.43
4352.063, 38222.13
4353.991, 38158.05
4355.919, 38268.00
4357.848, 38257.15
4359.776, 38183.18
4361.705, 38209.11
4363.633, 38192.58
4365.562, 38112.33
4367.490, 38174.26
4369.419, 38267.54
4371.347, 38305.52
4373.276, 38231.78
4375.204, 38110.63
4377.133, 38218.34
4379.061, 38333.32
4380.990, 38347.81
4382.918, 38311.08
4384.847, 38256.11
4386.775, 38213.76
4388.704, 38231.83
4390.632, 38314.98
4392.561, 38361.09
4394.489, 38385.23
4396.417, 38394.79
4398.346, 38404.42
4400.274, 38400.87
4402.203, 38326.00
4404.131, 38272.30
4406.060, 38267.64
4407.988, 38175.51
4409.917, 38157.74
4411.845, 38432.35
4413.773, 38576.62
4415.702, 38561.35
4417.630, 38398.78
4419.559, 38349.64
4421.487, 38526.28
4423.416, 38538.30
4425.344, 38487.65
4427.273, 38543.63
4429.201, 38567.58
4431.130, 38539.20
4433.058, 38432.82
4434.987, 38396.32
4436.915, 38582.46
4438.844, 38472.61
4440.772, 38298.02
4442.701, 38505.29
4444.629, 38600.07
4446.558, 38512.83
4448.486, 38458.73
4450.415, 38482.87
4452.343, 38628.57
4454.271, 38574.89
4456.200, 38446.23
4458.128, 38485.36
4460.057, 38538.07
4461.985, 38569.27
4463.914, 38565.41
4465.842, 38532.98
4467.771, 38447.41
4469.699, 38457.84
4471.627, 38500.32
4473.556, 38455.36
4475.484, 38403.02
4477.413, 38360.38
4479.341, 38368.98
4481.270, 38367.18
4483.198, 38315.20
4485.127, 38431.60
4487.055, 38579.65
4488.984, 38512.54
4490.912, 38544.54
4492.841, 38657.14
4494.769, 38528.43
4496.698, 38367.61
4498.626, 38253.41
4500.555, 38344.94
4502.483, 38508.25
4504.412, 38602.20
4506.340, 38634.98
4508.269, 38611.61
4510.197, 38505.25
4512.125, 38441.45
4514.054, 38456.39
4515.982, 38496.15
4517.911, 38540.05
4519.839, 38594.25
4521.768, 38512.59
4523.696, 38410.19
4525.625, 38618.56
4527.553, 38732.08
4529.481, 38671.47
4531.410, 38784.37
4533.338, 38823.44
4535.267, 38631.00
4537.195, 38548.54
4539.124, 38563.16
4541.052, 38696.09
4542.981, 38651.91
4544.909, 38493.45
4546.838, 38619.21
4548.766, 38676.44
4550.695, 38518.22
4552.623, 38465.69
4554.552, 38489.22
4556.480, 38598.65
4558.409, 38550.39
4560.337, 38449.23
4562.266, 38514.79
4564.194, 38646.69
4566.123, 38781.12
4568.051, 38694.52
4569.979, 38600.31
4571.908, 38601.91
4573.836, 38606.32
4575.765, 38626.29
4577.693, 38696.90
4579.622, 38659.52
4581.550, 38571.89
4583.479, 38589.96
4585.407, 38575.78
4587.335, 38531.39
4589.264, 38643.36
4591.192, 38716.00
4593.121, 38645.33
4595.049, 38534.26
4596.978, 38470.18
4598.906, 38557.08
4600.835, 38599.34
4602.763, 38607.48
4604.692, 38638.24
4606.620, 38647.11
4608.549, 38618.41
4610.477, 38480.37
4612.406, 38402.77
4614.334, 38462.43
4616.263, 38487.19
4618.191, 38518.52
4620.120, 38602.79
4622.048, 38520.93
4623.977, 38407.61
4625.905, 38479.04
4627.833, 38575.08
4629.762, 38654.56
4631.690, 38670.25
4633.619, 38646.74
4635.547, 38594.49
4637.476, 38582.32
4639.404, 38561.57
4641.333, 38509.18
4643.261, 38544.51
4645.189, 38595.89
4647.118, 38589.94
4649.046, 38586.38
4650.975, 38574.38
4652.903, 38510.39
4654.832, 38487.15
4656.760, 38503.88
4658.689, 38520.49
4660.617, 38503.88
4662.546, 38460.37
4664.474, 38533.80
4666.403, 38566.05
4668.331, 38434.88
4670.260, 38464.23
4672.188, 38493.22
4674.117, 38367.50
4676.045, 38433.34
4677.974, 38554.18
4679.902, 38482.89
4681.831, 38406.96
4683.759, 38364.88
4685.688, 38434.29
4687.616, 38418.10
4689.544, 38302.77
4691.473, 38280.57
4693.401, 38313.70
4695.330, 38386.22
4697.258, 38552.92
4699.187, 38605.10
4701.115, 38365.82
4703.043, 38241.20
4704.972, 38205.15
4706.900, 38234.09
4708.829, 38303.29
4710.757, 38365.08
4712.686, 38347.04
4714.614, 38340.26
4716.543, 38328.86
4718.471, 38201.63
4720.400, 38193.09
4722.328, 38302.97
4724.257, 38372.21
4726.185, 38359.19
4728.114, 38260.70
4730.042, 38218.05
4731.971, 38245.88
4733.899, 38350.01
4735.828, 38337.42
4737.756, 38265.82
4739.685, 38160.05
4741.613, 38232.90
4743.542, 38345.00
4745.470, 38350.84
4747.398, 38304.98
4749.327, 38240.09
4751.255, 38207.70
4753.184, 38081.44
4755.112, 37937.73
4757.041, 37984.91
4758.969, 38035.97
4760.897, 38055.14
4762.826, 37988.27
4764.754, 38024.15
4766.683, 38155.12
4768.611, 38170.43
4770.540, 38099.10
4772.468, 37964.30
4774.397, 38047.27
4776.325, 38067.70
4778.254, 37934.24
4780.182, 38000.37
4782.111, 38086.41
4784.039, 38072.89
4785.968, 38051.42
4787.896, 38013.20
4789.825, 37949.79
4791.753, 37890.83
4793.682, 37851.60
4795.610, 37854.43
4797.539, 37845.51
4799.467, 37837.73
4801.396, 37856.22
4803.324, 37813.55
4805.252, 37761.19
4807.181, 37816.70
4809.109, 37773.82
4811.038, 37701.68
4812.966, 37810.64
4814.895, 37778.66
4816.823, 37667.77
4818.751, 37736.71
4820.680, 37864.47
4822.608, 37943.98
4824.537, 37585.91
4826.465, 37484.37
4828.394, 37651.65
4830.322, 37619.19
4832.251, 37589.59
4834.179, 37611.70
4836.108, 37702.17
4838.036, 37635.93
4839.965, 37413.30
4841.893, 37357.83
4843.822, 37361.98
4845.750, 37388.95
4847.679, 37539.86
4849.607, 37575.09
4851.536, 37432.80
4853.464, 37281.23
4855.393, 37254.76
4857.321, 37400.41
4859.250, 37381.82
4861.178, 37305.50
4863.106, 37224.20
4865.035, 37209.82
4866.963, 37179.36
4868.892, 37093.55
4870.820, 37054.67
4872.749, 37076.16
4874.677, 37165.71
4876.605, 37186.22
4878.534, 37161.60
4880.462, 37106.30
4882.391, 37021.00
4884.319, 36961.27
4886.248, 36961.92
4888.176, 37003.98
4890.105, 37037.97
4892.033, 37037.71
4893.962, 37090.54
4895.890, 37092.40
4897.819, 36956.50
4899.747, 36900.86
4901.676, 36872.60
4903.604, 36843.93
4905.533, 36856.85
4907.461, 36892.92
4909.390, 36947.90
4911.318, 36821.82
4913.247, 36749.84
4915.175, 36849.73
4917.104, 36747.42
4919.032, 36658.06
4920.960, 36698.22
4922.889, 36699.60
4924.817, 36636.87
4926.746, 36495.75
4928.674, 36616.87
4930.603, 36671.38
4932.531, 36532.05
4934.459, 36424.18
4936.388, 36491.25
4938.316, 36779.99
4940.245, 36676.75
4942.173, 36519.70
4944.102, 36436.13
4946.030, 36425.49
4947.959, 36423.52
4949.887, 36398.05
4951.816, 36190.03
4953.744, 36186.42
4955.673, 36406.07
4957.601, 36192.68
4959.530, 36087.31
4961.458, 36172.46
4963.387, 36224.09
4965.315, 36221.58
4967.244, 36183.04
4969.172, 36178.63
4971.101, 36215.04
4973.029, 36241.91
4974.958, 36084.03
4976.886, 36076.53
4978.814, 36170.15
4980.743, 36175.97
4982.671, 36061.77
4984.600, 35918.29
4986.528, 35900.29
4988.457, 35920.68
4990.385, 35904.89
4992.313, 35729.32
4994.242, 35673.81
4996.170, 35719.89
4998.099, 35849.11
5000.027, 35768.56
5001.956, 35651.95
5003.884, 35658.37
5005.813, 35752.05
5007.741, 35749.28
5009.670, 35528.28
5011.598, 35360.55
5013.527, 35360.69
5015.455, 35538.98
5017.384, 35482.91
5019.312, 35385.10
5021.241, 35333.23
5023.169, 35405.34
5025.098, 35462.67
5027.026, 35446.59
5028.955, 35191.05
5030.883, 35222.76
5032.812, 35440.93
5034.740, 35313.39
5036.668, 35185.57
5038.597, 35124.50
5040.525, 35167.81
5042.454, 35184.38
5044.382, 35132.34
5046.311, 34944.86
5048.239, 35000.28
5050.167, 35124.56
5052.096, 35163.57
5054.024, 35092.76
5055.953, 35054.13
5057.881, 35107.55
5059.810, 34910.61
5061.738, 34801.55
5063.667, 34890.58
5065.595, 34783.12
5067.524, 34766.05
5069.452, 34845.11
5071.381, 34691.98
5073.309, 34680.45
5075.238, 34745.35
5077.166, 34561.13
5079.095, 34605.93
5081.023, 34679.23
5082.952, 34379.21
5084.880, 34450.46
5086.809, 34610.09
5088.737, 34591.72
5090.666, 34513.90
5092.594, 34405.14
5094.522, 34279.49
5096.451, 34323.90
5098.379, 34287.44
5100.308, 34139.75
5102.236, 34229.54
5104.165, 34161.55
5106.093, 33986.15
5108.021, 34003.28
5109.950, 34090.40
5111.878, 34116.52
5113.807, 33863.64
5115.735, 33894.40
5117.664, 33972.76
5119.592, 33887.39
5121.521, 33726.61
5123.449, 33676.89
5125.378, 33807.05
5127.306, 33824.31
5129.235, 33793.45
5131.163, 33725.20
5133.092, 33539.91
5135.020, 33520.21
5136.949, 33580.99
5138.877, 33487.45
5140.806, 33419.86
5142.734, 33372.75
5144.663, 33323.37
5146.591, 33300.91
5148.520, 33331.06
5150.448, 33408.83
5152.376, 33381.50
5154.305, 33313.15
5156.233, 33237.54
5158.162, 33177.97
5160.090, 33211.42
5162.019, 33257.13
5163.947, 33149.26
5165.875, 33128.61
5167.804, 33139.23
5169.732, 33116.13
5171.661, 33182.30
5173.589, 33129.03
5175.518, 32897.43
5177.446, 32943.44
5179.375, 32940.76
5181.303, 32883.66
5183.232, 33009.26
5185.160, 32894.91
5187.089, 32709.26
5189.017, 32719.06
5190.946, 32721.72
5192.874, 32680.54
5194.803, 32583.44
5196.731, 32626.12
5198.660, 32631.89
5200.588, 32567.67
5202.517, 32484.33
5204.445, 32456.76
5206.374, 32478.29
5208.302, 32569.53
5210.230, 32444.40
5212.159, 32326.90
5214.087, 32364.61
5216.016, 32442.79
5217.944, 32404.30
5219.873, 32251.77
5221.801, 32121.90
5223.729, 32113.29
5225.658, 32182.72
5227.586, 32279.40
5229.515, 32274.01
5231.443, 32204.29
5233.372, 32098.45
5235.300, 31912.15
5237.229, 31856.91
5239.157, 31934.73
5241.086, 31998.23
5243.014, 31942.21
5244.943, 31844.88
5246.871, 31824.91
5248.800, 31742.99
5250.728, 31664.95
5252.657, 31630.99
5254.585, 31678.60
5256.514, 31690.33
5258.442, 31644.96
5260.371, 31542.26
5262.299, 31471.91
5264.228, 31453.22
5266.156, 31504.84
5268.084, 31438.01
5270.013, 31316.53
5271.941, 31212.23
5273.870, 31355.43
5275.798, 31328.33
5277.727, 31212.50
5279.655, 31219.15
5281.583, 31200.26
5283.512, 31119.72
5285.440, 30979.03
5287.369, 31036.89
5289.297, 31049.66
5291.226, 30977.99
5293.154, 30839.85
5295.083, 30857.16
5297.011, 30890.40
5298.940, 30810.38
5300.868, 30862.54
5302.797, 30893.39
5304.725, 30838.31
5306.654, 30616.29
5308.582, 30662.46
5310.511, 30766.36
5312.439, 30669.89
5314.368, 30625.09
5316.296, 30592.57
5318.225, 30544.08
5320.153, 30420.74
5322.082, 30452.29
5324.010, 30524.14
5325.938, 30462.20
5327.867, 30285.71
5329.795, 30210.46
5331.724, 30281.79
5333.652, 30305.74
5335.581, 30187.71
5337.509, 30058.53
5339.438, 30143.21
5341.366, 30140.39
5343.294, 30065.02
5345.223, 29945.13
5347.151, 29872.32
5349.080, 29791.77
5351.008, 29721.29
5352.937, 29692.65
5354.865, 29796.86
5356.794, 29870.89
5358.722, 29837.24
5360.651, 29708.41
5362.579, 29596.24
5364.508, 29543.88
5366.436, 29581.88
5368.365, 29473.27
5370.293, 29410.94
5372.222, 29443.30
5374.150, 29397.78
5376.079, 29359.69
5378.007, 29280.87
5379.936, 29048.55
5381.864, 29117.81
5383.792, 29182.42
5385.721, 29182.16
5387.649, 29360.87
5389.578, 29244.77
5391.506, 29042.18
5393.435, 28982.46
5395.363, 28840.32
5397.292, 28855.64
5399.220, 28965.31
5401.148, 28782.57
5403.077, 28822.30
5405.005, 28863.22
5406.934, 28748.05
5408.862, 28807.71
5410.791, 28770.96
5412.719, 28646.45
5414.648, 28537.82
5416.576, 28457.01
5418.505, 28428.89
5420.433, 28450.01
5422.362, 28462.91
5424.290, 28407.28
5426.219, 28297.44
5428.147, 28149.98
5430.076, 28256.27
5432.004, 28257.94
5433.933, 28150.77
5435.861, 28203.84
5437.790, 28102.64
5439.718, 27976.66
5441.646, 27921.89
5443.575, 27848.69
5445.503, 27820.19
5447.432, 27788.71
5449.360, 27650.30
5451.289, 27746.01
5453.217, 27760.68
5455.146, 27656.44
5457.074, 27682.88
5459.002, 27645.60
5460.931, 27596.70
5462.859, 27580.41
5464.788, 27490.81
5466.716, 27446.25
5468.645, 27404.86
5470.573, 27241.22
5472.502, 27195.77
5474.430, 27242.45
5476.359, 27294.00
5478.287, 27118.08
5480.216, 27183.28
5482.144, 27208.38
5484.073, 27038.44
5486.001, 27197.03
5487.930, 27026.85
5489.858, 26779.53
5491.787, 26897.65
5493.715, 26883.74
5495.644, 26818.64
5497.572, 26753.49
5499.500, 26728.53
5501.429, 26701.38
5503.357, 26735.63
5505.286, 26788.79
5507.214, 26483.44
5509.143, 26469.72
5511.071, 26528.12
5513.000, 26425.23
5514.928, 26520.84
5516.856, 26459.97
5518.785, 26287.02
5520.713, 26167.20
5522.642, 26169.97
5524.570, 26180.03
5526.499, 26164.02
5528.427, 26143.45
5530.356, 26063.07
5532.284, 26047.87
5534.213, 26097.18
5536.141, 25924.31
5538.070, 25869.90
5539.998, 25862.05
5541.927, 25821.23
5543.855, 25822.79
5545.784, 25725.12
5547.712, 25666.25
5549.641, 25842.43
5551.569, 25660.81
5553.498, 25593.92
5555.426, 25629.50
5557.354, 25549.02
5559.283, 25457.78
5561.211, 25471.53
5563.140, 25514.13
5565.068, 25308.04
5566.997, 25388.96
5568.925, 25371.77
5570.854, 25153.86
5572.782, 25146.22
5574.710, 25170.41
5576.639, 25135.56
5578.567, 25018.79
5580.496, 24897.80
5582.424, 24930.08
5584.353, 24967.93
5586.281, 24883.04
5588.210, 24700.01
5590.138, 24643.10
5592.067, 24652.99
5593.995, 24635.27
5595.924, 24609.02
5597.852, 24663.87
5599.781, 24725.44
5601.709, 24685.80
5603.638, 24496.55
5605.566, 24357.73
5607.495, 24309.87
5609.423, 24331.68
5611.352, 24226.72
5613.280, 24241.82
5615.208, 24322.14
5617.137, 24247.82
5619.065, 24179.36
5620.994, 24202.87
5622.922, 24214.02
5624.851, 23954.28
5626.779, 23821.88
5628.708, 23805.74
5630.636, 23841.42
5632.564, 23820.01
5634.493, 23815.21
5636.421, 23743.86
5638.350, 23626.54
5640.278, 23609.14
5642.207, 23610.70
5644.135, 23617.59
5646.064, 23589.40
5647.992, 23420.04
5649.921, 23454.38
5651.849, 23444.53
5653.778, 23308.95
5655.706, 23165.25
5657.635, 23235.61
5659.563, 23310.72
5661.492, 23280.06
5663.420, 23105.47
5665.349, 23124.28
5667.277, 23062.63
5669.206, 22908.40
5671.134, 23046.92
5673.063, 23057.89
5674.991, 22997.86
5676.919, 22907.81
5678.848, 22779.73
5680.776, 22712.95
5682.705, 22694.04
5684.633, 22703.69
5686.562, 22730.48
5688.490, 22639.27
5690.418, 22509.37
5692.347, 22457.57
5694.275, 22663.51
5696.204, 22516.76
5698.132, 22368.22
5700.061, 22314.91
5701.989, 22278.41
5703.918, 22257.68
5705.846, 22265.21
5707.775, 22274.52
5709.703, 22242.39
5711.632, 22202.52
5713.560, 22199.61
5715.489, 22170.84
5717.417, 22042.90
5719.346, 21997.13
5721.274, 21983.54
5723.203, 21908.24
5725.131, 21734.48
5727.060, 21781.55
5728.988, 21775.99
5730.917, 21734.21
5732.845, 21703.40
5734.773, 21634.55
5736.702, 21660.86
5738.630, 21637.96
5740.559, 21505.44
5742.487, 21427.93
5744.416, 21272.43
5746.344, 21255.77
5748.272, 21378.41
5750.201, 21367.63
5752.129, 21316.01
5754.058, 21276.39
5755.986, 21246.36
5757.915, 21193.95
5759.843, 21080.96
5761.772, 21035.91
5763.700, 21048.67
5765.629, 21055.78
5767.558, 20924.88
5769.486, 20870.84
5771.415, 20868.40
5773.343, 20862.81
5775.271, 20894.71
5777.200, 20858.56
5779.128, 20794.00
5781.057, 20735.51
5782.985, 20692.90
5784.914, 20633.28
5786.842, 20611.16
5788.771, 20587.90
5790.699, 20419.38
5792.627, 20373.37
5794.556, 20386.99
5796.484, 20374.42
5798.413, 20272.47
5800.341, 20301.07
5802.270, 20203.50
5804.198, 20120.83
5806.127, 20160.57
5808.055, 20143.39
5809.984, 20207.01
5811.912, 20122.51
5813.841, 19932.00
5815.769, 19971.73
5817.698, 20023.93
5819.626, 19997.26
5821.555, 19896.74
5823.483, 19762.81
5825.412, 19635.45
5827.340, 19632.13
5829.269, 19668.84
5831.197, 19671.86
5833.125, 19670.98
5835.054, 19565.29
5836.982, 19502.49
5838.911, 19498.96
5840.839, 19430.74
5842.768, 19458.72
5844.696, 19434.29
5846.625, 19348.82
5848.553, 19246.04
5850.481, 19199.09
5852.410, 19277.82
5854.338, 19268.42
5856.267, 19155.20
5858.195, 19237.63
5860.124, 19009.60
5862.052, 18968.66
5863.981, 19064.62
5865.909, 19024.67
5867.838, 18877.06
5869.766, 18880.36
5871.695, 18880.64
5873.623, 18768.75
5875.552, 18611.77
5877.480, 18641.58
5879.409, 18706.24
5881.337, 18701.94
5883.266, 18594.51
5885.194, 18434.18
5887.123, 18541.15
5889.051, 18614.09
5890.979, 18488.47
5892.908, 18444.84
5894.836, 18287.13
5896.765, 18214.27
5898.693, 18212.73
5900.622, 18163.60
5902.550, 18151.28
5904.479, 18207.23
5906.407, 18206.40
5908.335, 18120.70
5910.264, 18100.67
5912.192, 18026.45
5914.121, 17975.88
5916.049, 17928.88
5917.978, 17848.12
5919.906, 17918.12
5921.835, 17842.04
5923.763, 17795.93
5925.692, 17771.74
5927.620, 17545.46
5929.549, 17589.60
5931.477, 17608.39
5933.406, 17585.54
5935.334, 17561.73
5937.263, 17488.82
5939.191, 17522.18
5941.120, 17484.80
5943.048, 17399.92
5944.977, 17375.42
5946.905, 17304.48
5948.833, 17254.26
5950.762, 17203.56
5952.690, 17187.13
5954.619, 17299.25
5956.547, 17230.97
5958.476, 17169.97
5960.404, 17105.95
5962.333, 17025.52
5964.261, 17073.68
5966.189, 17032.64
5968.118, 16979.18
5970.046, 16920.99
5971.975, 16841.29
5973.903, 16872.57
5975.832, 16741.90
5977.760, 16599.61
5979.689, 16593.84
5981.617, 16795.56
5983.546, 16734.24
5985.474, 16644.34
5987.403, 16531.04
5989.331, 16433.07
5991.260, 16544.23
5993.188, 16402.36
5995.117, 16391.94
5997.045, 16436.12
5998.974, 16408.09
6000.902, 16332.68
6002.831, 16298.39
6004.759, 16254.42
6006.688, 16220.30
6008.616, 16214.74
6010.544, 16149.85
6012.473, 16081.28
6014.401, 16069.05
6016.330, 16076.12
6018.258, 16039.50
6020.187, 15956.40
6022.115, 15884.61
6024.043, 15881.07
6025.972, 15861.83
6027.900, 15706.72
6029.829, 15690.09
6031.757, 15778.95
6033.686, 15777.88
6035.614, 15690.70
6037.543, 15645.48
6039.471, 15576.96
6041.400, 15601.99
6043.328, 15582.36
6045.257, 15520.42
6047.185, 15530.40
6049.114, 15378.51
6051.042, 15342.94
6052.971, 15303.72
6054.899, 15255.25
6056.828, 15314.99
6058.756, 15357.22
6060.685, 15236.89
6062.613, 15126.53
6064.542, 15104.10
6066.470, 15136.73
6068.398, 15104.58
6070.327, 15009.96
6072.255, 14982.93
6074.184, 14997.99
6076.112, 14939.25
6078.041, 14931.04
6079.969, 14872.42
6081.897, 14816.11
6083.826, 14761.09
6085.754, 14683.19
6087.683, 14770.15
6089.611, 14801.56
6091.540, 14690.23
6093.468, 14588.81
6095.397, 14636.30
6097.325, 14379.77
6099.254, 14412.88
6101.182, 14401.22
6103.111, 14368.39
6105.039, 14425.83
6106.968, 14359.84
6108.896, 14319.93
6110.825, 14287.48
6112.753, 14248.79
6114.682, 14207.39
6116.610, 14185.10
6118.539, 14134.62
6120.467, 14100.58
6122.396, 14096.96
6124.324, 14095.68
6126.252, 14038.50
6128.181, 14020.52
6130.109, 14000.52
6132.038, 13936.00
6133.966, 13847.27
6135.895, 13792.64
6137.823, 13879.86
6139.751, 13821.69
6141.680, 13664.05
6143.608, 13581.30
6145.537, 13672.30
6147.465, 13739.36
6149.394, 13665.39
6151.322, 13596.62
6153.251, 13556.72
6155.179, 13532.68
6157.108, 13540.74
6159.036, 13509.05
6160.965, 13448.97
6162.893, 13346.27
6164.822, 13278.79
6166.750, 13355.20
6168.679, 13251.51
6170.607, 13249.46
6172.536, 13255.38
6174.464, 13189.02
6176.393, 13066.58
6178.321, 13048.47
6180.250, 13052.45
6182.178, 13042.43
6184.106, 13037.68
6186.035, 13010.46
6187.963, 12897.42
6189.892, 12871.86
6191.820, 12781.77
6193.749, 12811.05
6195.677, 12818.82
6197.605, 12674.85
6199.534, 12645.64
6201.462, 12686.39
6203.391, 12689.76
6205.319, 12705.88
6207.248, 12721.57
6209.176, 12667.58
6211.105, 12673.03
6213.033, 12563.40
6214.962, 12512.64
6216.890, 12505.06
6218.819, 12445.45
6220.747, 12291.41
6222.676, 12336.98
6224.604, 12273.18
6226.533, 12288.70
6228.461, 12285.37
6230.390, 12100.32
6232.318, 12182.71
6234.247, 12193.72
6236.175, 12202.67
6238.104, 12124.85
6240.032, 12045.01
6241.960, 12175.58
6243.889, 12034.91
6245.817, 11957.93
6247.746, 11884.17
6249.674, 11831.81
6251.603, 11811.66
6253.531, 11738.15
6255.459, 11784.03
6257.388, 11833.03
6259.316, 11754.47
6261.245, 11677.65
6263.173, 11724.21
6265.102, 11676.15
6267.030, 11748.47
6268.959, 11707.92
6270.887, 11600.28
6272.816, 11505.88
6274.744, 11458.39
6276.673, 11457.38
6278.601, 11399.31
6280.530, 11359.78
6282.458, 11358.84
6284.387, 11387.02
6286.315, 11411.03
6288.244, 11304.00
6290.172, 11200.64
6292.101, 11222.01
6294.029, 11284.23
6295.958, 11315.60
6297.886, 11292.38
6299.814, 11126.08
6301.743, 11138.78
6303.671, 11114.08
6305.600, 11030.96
6307.528, 10985.20
6309.457, 11031.33
6311.385, 10985.99
6313.313, 10943.78
6315.242, 10923.39
6317.170, 10918.71
6319.099, 10935.91
6321.027, 10969.25
6322.956, 10905.50
6324.884, 10877.16
6326.813, 10769.57
6328.741, 10718.48
6330.670, 10724.79
6332.598, 10699.64
6334.527, 10685.09
6336.455, 10668.64
6338.384, 10577.76
6340.312, 10573.40
6342.241, 10606.51
6344.169, 10568.73
6346.098, 10509.13
6348.026, 10510.78
6349.955, 10480.33
6351.883, 10485.32
6353.812, 10464.96
6355.740, 10404.98
6357.668, 10407.45
6359.597, 10348.17
6361.525, 10334.14
6363.454, 10292.78
6365.382, 10250.09
6367.311, 10216.59
6369.239, 10170.43
6371.167, 10169.65
6373.096, 10078.96
6375.024, 10111.00
6376.953, 10077.76
6378.881, 10012.73
6380.810, 10026.42
6382.738, 9978.136
6384.667, 10044.23
6386.595, 9977.175
6388.524, 9873.410
6390.452, 9857.275
6392.381, 9902.746
6394.309, 9884.805
6396.238, 9852.175
6398.166, 9788.857
6400.095, 9748.435
6402.023, 9712.190
6403.952, 9653.785
6405.880, 9589.906
6407.809, 9579.472
6409.737, 9519.265
6411.666, 9612.436
6413.594, 9566.087
6415.522, 9558.593
6417.451, 9608.167
6419.379, 9511.023
6421.308, 9454.477
6423.236, 9473.389
6425.165, 9485.278
6427.093, 9416.796
6429.021, 9307.329
6430.950, 9263.484
6432.878, 9352.793
6434.807, 9170.197
6436.735, 9263.428
6438.664, 9180.999
6440.592, 9180.752
6442.521, 9177.975
6444.449, 9067.686
6446.378, 9138.003
6448.306, 9123.760
6450.235, 8976.666
6452.163, 9039.458
6454.092, 8976.152
6456.020, 8832.812
6457.949, 8846.444
6459.877, 8895.701
6461.806, 8879.973
6463.734, 8945.262
6465.663, 8817.522
6467.591, 8770.546
6469.520, 8835.509
6471.448, 8821.160
6473.376, 8700.219
6475.305, 8721.188
6477.233, 8688.471
6479.162, 8657.555
6481.090, 8713.212
6483.019, 8727.777
6484.947, 8615.228
6486.875, 8573.086
6488.804, 8608.493
6490.732, 8617.750
6492.661, 8591.959
6494.589, 8515.301
6496.518, 8487.922
6498.446, 8547.758
6500.375, 8574.045
6502.303, 8529.260
6504.232, 8491.682
6506.160, 8408.551
6508.089, 8375.926
6510.017, 8343.808
6511.946, 8267.709
6513.874, 8228.709
6515.803, 8342.458
6517.731, 8279.026
6519.660, 8256.718
6521.588, 8245.047
6523.517, 8262.843
6525.445, 8311.703
6527.374, 8317.658
6529.302, 8104.568
6531.230, 8195.035
6533.159, 8161.303
6535.087, 8143.326
6537.016, 8123.743
6538.944, 8073.429
6540.873, 8066.897
6542.801, 8132.294
6544.729, 7938.229
6546.658, 7909.430
6548.586, 7981.072
6550.515, 7886.151
6552.443, 7873.766
6554.372, 7917.666
6556.300, 7863.631
6558.229, 7885.085
6560.157, 7824.693
6562.086, 7872.768
6564.014, 7819.872
6565.943, 7796.055
6567.871, 7795.417
6569.800, 7717.189
6571.728, 7587.054
6573.657, 7611.803
6575.585, 7660.905
6577.514, 7685.292
6579.442, 7606.377
6581.371, 7585.849
6583.299, 7585.036
6585.228, 7567.344
6587.156, 7570.056
6589.084, 7518.959
6591.013, 7443.138
6592.941, 7476.642
6594.870, 7477.917
6596.798, 7451.583
6598.727, 7437.046
6600.655, 7444.752
6602.583, 7445.755
6604.512, 7390.334
6606.440, 7355.174
6608.369, 7353.290
6610.297, 7253.260
6612.226, 7237.343
6614.154, 7286.744
6616.083, 7304.019
6618.011, 7271.337
6619.940, 7227.570
6621.868, 7185.607
6623.797, 7122.608
6625.725, 7195.885
6627.654, 7180.462
6629.582, 7146.417
##END=



