##NAMES=Vivianite
##RRUFFID=R070331
##IDEAL CHEMISTRY=Fe^2+^_3_(PO_4_)_2_·8H_2_O
##LOCALITY=Big Fish River, Yukon Territory, Canada
##OWNER=RRUFF
##SOURCE=Mark Mauthner
##DESCRIPTION=Platy, indigo-blue massive, associated with maricite
##STATUS=The identification of this mineral is confirmed by single-crystal X-ray diffraction and chemical analysis
##URL=https://www.rruff.net/odr/rruff_sample/R070331
##MEASURED CHEMISTRY=(Fe^2+^_1.77_Mg_1.21_Mn_0.02_)(P_1.00_O_4_)_2_·8H_2_O ; (dark phase, H_2_O is estimated by difference) : Na_1.00_Fe^2+^_1.00_P_1.00_O_4_ (light phase = maricite, with trace amounts of Mn)
##DIFFRACTION SAMPLE DESCRIPTION=Powder
##CELL PARAMETERS=a: 10.0993 b: 13.444 c: 4.6765 alpha: 90 beta: 104.916 gamma: 90 volume: 613.56 crystal system: monoclinic
##FILETYPE=Raman RAW
##RAMAN WAVELENGTH=532

177.7788, 3087.840
179.7072, 3274.410
181.6357, 3461.614
183.5642, 3675.408
185.4926, 3933.916
187.4211, 4219.238
189.3496, 4500.891
191.2780, 4763.154
193.2065, 5036.461
195.1350, 5342.851
197.0634, 5683.025
198.9919, 6003.481
200.9204, 6309.732
202.8488, 6587.576
204.7773, 6801.561
206.7058, 6939.156
208.6342, 7029.278
210.5627, 7079.470
212.4912, 7095.389
214.4196, 7065.882
216.3481, 6982.532
218.2766, 6862.181
220.2050, 6723.162
222.1335, 6555.957
224.0620, 6386.910
225.9904, 6226.181
227.9189, 6075.869
229.8474, 5925.658
231.7758, 5763.121
233.7043, 5605.817
235.6328, 5473.083
237.5612, 5373.393
239.4897, 5290.024
241.4182, 5214.525
243.3466, 5146.374
245.2751, 5095.756
247.2036, 5072.190
249.1320, 5062.060
251.0605, 5053.168
252.9890, 5048.071
254.9174, 5039.622
256.8459, 5025.893
258.7744, 5007.840
260.7029, 4987.634
262.6313, 4969.573
264.5598, 4946.294
266.4883, 4911.693
268.4167, 4857.807
270.3452, 4802.356
272.2737, 4746.632
274.2021, 4691.037
276.1306, 4634.925
278.0591, 4593.063
279.9875, 4540.875
281.9160, 4460.713
283.8445, 4347.929
285.7729, 4223.041
287.7014, 4082.836
289.6299, 3931.528
291.5583, 3781.923
293.4868, 3636.609
295.4153, 3490.748
297.3437, 3339.734
299.2722, 3182.282
301.2007, 3030.405
303.1291, 2882.813
305.0576, 2742.563
306.9861, 2619.164
308.9145, 2518.053
310.8430, 2426.678
312.7715, 2343.249
314.6999, 2267.476
316.6284, 2194.429
318.5569, 2123.638
320.4853, 2054.794
322.4138, 1987.008
324.3423, 1918.015
326.2707, 1854.078
328.1992, 1798.879
330.1277, 1751.507
332.0561, 1702.999
333.9846, 1649.416
335.9131, 1597.555
337.8415, 1553.618
339.7700, 1519.173
341.6985, 1484.445
343.6269, 1444.272
345.5554, 1400.862
347.4839, 1364.712
349.4123, 1338.996
351.3408, 1317.066
353.2693, 1295.684
355.1977, 1274.565
357.1262, 1254.937
359.0547, 1234.673
360.9831, 1216.068
362.9116, 1205.150
364.8401, 1203.623
366.7685, 1205.502
368.6970, 1207.192
370.6255, 1208.475
372.5539, 1214.838
374.4824, 1228.461
376.4109, 1245.100
378.3393, 1263.901
380.2678, 1285.555
382.1963, 1309.237
384.1247, 1335.828
386.0532, 1363.375
387.9817, 1388.435
389.9101, 1410.371
391.8386, 1430.555
393.7671, 1446.989
395.6955, 1461.452
397.6240, 1480.937
399.5525, 1516.639
401.4809, 1548.907
403.4094, 1564.696
405.3379, 1559.451
407.2663, 1560.826
409.1948, 1577.869
411.1233, 1602.772
413.0517, 1626.484
414.9802, 1648.091
416.9087, 1670.632
418.8371, 1692.781
420.7656, 1715.865
422.6941, 1742.322
424.6225, 1779.229
426.5510, 1811.911
428.4795, 1833.294
430.4079, 1834.598
432.3364, 1839.528
434.2649, 1847.632
436.1933, 1856.970
438.1218, 1864.719
440.0503, 1873.026
441.9787, 1873.348
443.9072, 1864.930
445.8357, 1848.350
447.7641, 1837.287
449.6926, 1835.167
451.6211, 1832.368
453.5495, 1828.229
455.4780, 1822.268
457.4065, 1824.983
459.3349, 1836.009
461.2634, 1845.733
463.1919, 1845.843
465.1203, 1833.724
467.0488, 1829.672
468.9773, 1834.000
470.9057, 1843.556
472.8342, 1848.919
474.7627, 1854.971
476.6911, 1861.786
478.6196, 1864.468
480.5481, 1862.045
482.4765, 1869.098
484.4050, 1891.599
486.3335, 1923.646
488.2619, 1963.417
490.1904, 2011.591
492.1189, 2071.253
494.0473, 2142.297
495.9758, 2219.638
497.9043, 2297.416
499.8327, 2371.990
501.7612, 2459.693
503.6897, 2563.813
505.6181, 2684.402
507.5466, 2806.872
509.4751, 2925.894
511.4035, 3057.384
513.3320, 3209.063
515.2604, 3389.343
517.1889, 3565.234
519.1174, 3731.188
521.0458, 3893.646
522.9743, 4061.380
524.9028, 4237.460
526.8312, 4411.637
528.7597, 4576.379
530.6882, 4731.183
532.6166, 4878.296
534.5451, 5024.982
536.4736, 5157.174
538.4020, 5266.768
540.3305, 5352.163
542.2590, 5409.541
544.1874, 5446.675
546.1159, 5461.020
548.0444, 5444.116
549.9728, 5376.952
551.9013, 5280.571
553.8298, 5162.444
555.7582, 5027.188
557.6867, 4878.918
559.6152, 4718.768
561.5436, 4551.113
563.4721, 4381.796
565.4006, 4213.943
567.3290, 4045.634
569.2575, 3881.604
571.1860, 3725.243
573.1144, 3573.637
575.0429, 3427.928
576.9714, 3304.031
578.8998, 3205.421
580.8283, 3107.322
582.7568, 2998.421
584.6852, 2876.949
586.6137, 2763.135
588.5422, 2659.174
590.4706, 2554.187
592.3991, 2442.661
594.3276, 2332.228
596.2560, 2228.582
598.1845, 2134.998
600.1130, 2053.439
602.0414, 1982.859
603.9699, 1915.650
605.8984, 1861.527
607.8268, 1825.231
609.7553, 1799.314
611.6838, 1774.775
613.6122, 1751.207
615.5407, 1730.464
617.4692, 1710.904
619.3976, 1692.639
621.3261, 1679.341
623.2546, 1678.142
625.1830, 1681.928
627.1115, 1688.905
629.0400, 1692.457
630.9684, 1689.730
632.8969, 1684.620
634.8254, 1678.347
636.7538, 1670.266
638.6823, 1657.636
640.6108, 1644.809
642.5392, 1636.815
644.4677, 1626.533
646.3962, 1608.344
648.3246, 1582.137
650.2531, 1557.006
652.1816, 1531.979
654.1100, 1506.394
656.0385, 1479.366
657.9670, 1457.519
659.8954, 1439.919
661.8239, 1426.414
663.7524, 1412.379
665.6808, 1394.998
667.6093, 1376.969
669.5378, 1360.819
671.4662, 1347.746
673.3947, 1334.574
675.3232, 1321.431
677.2516, 1308.440
679.1801, 1299.161
681.1086, 1295.857
683.0370, 1294.245
684.9655, 1289.258
686.8940, 1281.876
688.8224, 1277.079
690.7509, 1279.924
692.6794, 1281.000
694.6078, 1274.981
696.5363, 1261.621
698.4648, 1249.664
700.3932, 1239.894
702.3217, 1231.830
704.2502, 1227.057
706.1786, 1228.383
708.1071, 1227.638
710.0356, 1221.452
711.9641, 1212.291
713.8925, 1204.073
715.8210, 1194.726
717.7495, 1184.669
719.6779, 1174.629
721.6064, 1166.164
723.5349, 1156.631
725.4633, 1144.947
727.3918, 1133.503
729.3203, 1123.230
731.2487, 1110.092
733.1772, 1098.295
735.1057, 1091.139
737.0341, 1084.571
738.9626, 1075.032
740.8911, 1062.668
742.8195, 1052.180
744.7480, 1045.918
746.6765, 1040.313
748.6049, 1033.766
750.5334, 1026.495
752.4619, 1019.676
754.3903, 1012.223
756.3188, 1006.218
758.2473, 1004.100
760.1757, 1005.190
762.1042, 1003.710
764.0327, 996.6359
765.9611, 988.9720
767.8896, 982.3028
769.8181, 976.9173
771.7465, 972.2623
773.6750, 968.9569
775.6035, 965.8748
777.5319, 962.2405
779.4604, 957.9116
781.3889, 954.2221
783.3173, 952.5900
785.2458, 951.1710
787.1743, 948.5679
789.1027, 942.9882
791.0312, 937.6611
792.9597, 933.2886
794.8881, 929.2214
796.8166, 924.0700
798.7451, 917.7766
800.6735, 911.4893
802.6020, 904.1979
804.5305, 897.5619
806.4589, 893.6367
808.3874, 895.5137
810.3159, 894.7246
812.2443, 888.6387
814.1728, 881.8384
816.1013, 878.1934
818.0297, 877.0175
819.9582, 876.3588
821.8867, 877.9619
823.8151, 879.6731
825.7436, 877.8456
827.6721, 869.5210
829.6005, 863.4266
831.5290, 862.3763
833.4575, 862.4504
835.3859, 858.1987
837.3144, 848.8342
839.2429, 843.6158
841.1713, 849.1943
843.0998, 856.1382
845.0283, 856.4443
846.9567, 849.7054
848.8852, 846.4011
850.8137, 848.6390
852.7421, 851.7178
854.6706, 854.1221
856.5991, 858.1597
858.5275, 861.1071
860.4560, 859.7795
862.3845, 858.0218
864.3129, 859.6687
866.2414, 867.1632
868.1699, 878.6680
870.0983, 894.8185
872.0268, 907.3646
873.9553, 913.9490
875.8837, 925.2108
877.8122, 936.1910
879.7407, 940.9801
881.6691, 948.4044
883.5976, 971.7093
885.5261, 1005.779
887.4545, 1039.677
889.3830, 1069.227
891.3115, 1103.664
893.2399, 1144.695
895.1684, 1195.624
897.0969, 1260.610
899.0253, 1341.484
900.9538, 1431.127
902.8823, 1520.493
904.8107, 1620.127
906.7392, 1734.596
908.6677, 1864.692
910.5961, 2009.143
912.5246, 2160.179
914.4531, 2323.171
916.3815, 2518.695
918.3100, 2749.837
920.2385, 3011.806
922.1669, 3298.270
924.0954, 3620.302
926.0239, 3984.048
927.9523, 4384.071
929.8808, 4813.694
931.8093, 5265.229
933.7377, 5760.801
935.6662, 6312.050
937.5947, 6908.648
939.5231, 7543.578
941.4516, 8222.903
943.3801, 8932.245
945.3085, 9678.562
947.2370, 10438.06
949.1655, 11174.41
951.0939, 11917.32
953.0224, 12592.61
954.9509, 13112.10
956.8793, 13473.23
958.8078, 13599.00
960.7363, 13488.93
962.6647, 13194.94
964.5932, 12705.21
966.5217, 11983.74
968.4501, 11173.76
970.3786, 10265.83
972.3071, 9271.743
974.2355, 8297.260
976.1640, 7375.553
978.0925, 6545.046
980.0209, 5839.139
981.9494, 5246.471
983.8779, 4726.846
985.8063, 4301.138
987.7348, 3952.441
989.6633, 3679.844
991.5917, 3463.285
993.5202, 3280.122
995.4487, 3125.620
997.3771, 2994.030
999.3056, 2889.690
1001.234, 2815.259
1003.163, 2767.191
1005.091, 2729.071
1007.019, 2696.443
1008.948, 2673.670
1010.876, 2662.022
1012.805, 2660.343
1014.733, 2668.145
1016.662, 2682.011
1018.590, 2693.965
1020.519, 2714.880
1022.447, 2749.734
1024.376, 2799.558
1026.304, 2856.732
1028.233, 2908.344
1030.161, 2946.849
1032.090, 2991.634
1034.018, 3056.822
1035.947, 3140.806
1037.875, 3228.124
1039.803, 3321.014
1041.732, 3433.247
1043.660, 3564.930
1045.589, 3705.820
1047.517, 3849.831
1049.446, 4001.903
1051.374, 4149.379
1053.303, 4290.214
1055.231, 4411.420
1057.160, 4509.712
1059.088, 4551.793
1061.017, 4548.462
1062.945, 4500.148
1064.874, 4405.661
1066.802, 4265.937
1068.730, 4076.460
1070.659, 3822.559
1072.587, 3539.307
1074.516, 3251.211
1076.444, 2964.793
1078.373, 2708.933
1080.301, 2483.464
1082.230, 2285.261
1084.158, 2123.073
1086.087, 1988.753
1088.015, 1868.753
1089.944, 1762.087
1091.872, 1663.300
1093.801, 1580.448
1095.729, 1514.467
1097.657, 1450.516
1099.586, 1385.616
1101.514, 1327.945
1103.443, 1287.986
1105.371, 1253.293
1107.300, 1213.433
1109.228, 1170.027
1111.157, 1130.091
1113.085, 1094.006
1115.014, 1056.127
1116.942, 1016.941
1118.871, 981.2812
1120.799, 951.8307
1122.728, 927.6219
1124.656, 905.9581
1126.584, 889.9343
1128.513, 876.0907
1130.441, 859.7119
1132.370, 840.4365
1134.298, 825.7437
1136.227, 819.2326
1138.155, 815.9936
1140.084, 812.3922
1142.012, 808.2903
1143.941, 804.1774
1145.869, 798.6470
1147.798, 794.0818
1149.726, 795.3942
1151.655, 801.3661
1153.583, 800.2522
1155.511, 788.7476
1157.440, 780.4025
1159.368, 782.5443
1161.297, 785.5669
1163.225, 782.4327
1165.154, 774.0551
1167.082, 769.1347
1169.011, 770.9863
1170.939, 773.7858
1172.868, 775.8174
1174.796, 775.7115
1176.725, 771.6739
1178.653, 759.6765
1180.582, 750.0749
1182.510, 746.4419
1184.438, 745.4494
1186.367, 739.7865
1188.295, 727.1037
1190.224, 719.2784
1192.152, 722.0057
1194.081, 723.9441
1196.009, 719.1448
1197.938, 710.3494
1199.866, 703.2715
1201.795, 698.9238
1203.723, 694.8551
1205.652, 688.4231
1207.580, 682.3588
1209.509, 682.1182
1211.437, 690.1708
1213.365, 693.3236
1215.294, 686.7083
1217.222, 679.0772
1219.151, 673.8348
1221.079, 670.4028
1223.008, 666.9418
1224.936, 662.5634
1226.865, 659.5262
1228.793, 659.1970
1230.722, 660.0344
1232.650, 661.1091
1234.579, 661.9962
1236.507, 658.3145
1238.436, 645.0490
1240.364, 634.5028
1242.292, 634.3058
1244.221, 639.8436
1246.149, 642.3923
1248.078, 641.4889
1250.006, 639.7404
1251.935, 635.5480
1253.863, 631.0228
1255.792, 629.5763
1257.720, 632.1678
1259.649, 632.0112
1261.577, 625.8892
1263.506, 621.0087
1265.434, 620.6942
1267.363, 623.7123
1269.291, 624.4020
1271.219, 620.0396
1273.148, 617.9469
1275.076, 623.2525
1277.005, 629.3610
1278.933, 630.1514
1280.862, 625.7181
1282.790, 624.1168
1284.719, 628.8799
1286.647, 633.0344
1288.576, 631.1207
1290.504, 626.3027
1292.433, 626.1833
1294.361, 634.1475
1296.290, 639.5443
1298.218, 637.1091
1300.146, 634.2965
1302.075, 635.8771
1304.003, 641.5378
1305.932, 643.7535
1307.860, 638.1083
1309.789, 632.5045
1311.717, 625.3066
1313.646, 621.9968
1315.574, 628.2789
1317.503, 640.0027
1319.431, 646.1109
1321.360, 645.9658
1323.288, 644.9064
1325.217, 643.5457
1327.145, 641.0890
1329.073, 638.0475
1331.002, 637.4986
1332.930, 636.5818
1334.859, 631.7639
1336.787, 625.6159
1338.716, 618.4333
1340.644, 615.0534
1342.573, 619.8644
1344.501, 630.1277
1346.430, 634.5544
1348.358, 630.8257
1350.287, 625.8074
1352.215, 622.2340
1354.144, 621.1270
1356.072, 620.1720
1358.000, 613.6365
1359.929, 610.6136
1361.857, 616.6276
1363.786, 625.2526
1365.714, 629.5568
1367.643, 626.6987
1369.571, 625.6337
1371.500, 629.9178
1373.428, 632.1770
1375.357, 629.2319
1377.285, 624.3423
1379.214, 620.3751
1381.142, 617.3999
1383.071, 615.0538
1384.999, 614.1932
1386.927, 614.6436
1388.856, 615.2228
1390.784, 614.8053
1392.713, 614.4980
1394.641, 616.2202
1396.570, 616.2389
1398.498, 610.6473
1400.427, 606.7133
1402.355, 609.7833
1404.284, 614.9450
1406.212, 611.8334
1408.141, 597.7354
1410.069, 591.9668
1411.998, 597.7099
1413.926, 603.2458
1415.854, 605.1163
1417.783, 605.4841
1419.711, 606.1313
1421.640, 605.8897
1423.568, 606.5646
1425.497, 607.9119
1427.425, 610.9789
1429.354, 616.8500
1431.282, 623.2039
1433.211, 624.8406
1435.139, 621.5146
1437.068, 618.4711
1438.996, 617.7755
1440.925, 618.2068
1442.853, 617.6010
1444.781, 616.3236
1446.710, 617.8282
1448.638, 623.9896
1450.567, 628.7125
1452.495, 626.3235
1454.424, 623.7060
1456.352, 628.3043
1458.281, 637.9496
1460.209, 644.5228
1462.138, 646.7144
1464.066, 645.5872
1465.995, 640.6251
1467.923, 637.6880
1469.852, 637.6389
1471.780, 638.6538
1473.708, 638.5724
1475.637, 638.0916
1477.565, 638.0330
1479.494, 639.4648
1481.422, 641.4832
1483.351, 643.2216
1485.279, 645.5359
1487.208, 650.5040
1489.136, 659.8638
1491.065, 665.6637
1492.993, 665.3848
1494.922, 663.1875
1496.850, 660.9126
1498.779, 661.1771
1500.707, 668.4473
1502.635, 689.6231
1504.564, 700.5539
1506.492, 694.2320
1508.421, 687.8417
1510.349, 688.4385
1512.278, 692.3635
1514.206, 694.0054
1516.135, 693.1127
1518.063, 692.0199
1519.992, 688.8953
1521.920, 688.2004
1523.849, 693.2057
1525.777, 699.7130
1527.706, 700.9855
1529.634, 696.5048
1531.563, 698.3932
1533.491, 713.1179
1535.419, 725.5077
1537.348, 728.4071
1539.276, 726.3315
1541.205, 723.7692
1543.133, 721.6479
1545.062, 726.4258
1546.990, 743.2477
1548.919, 754.8000
1550.847, 748.9935
1552.776, 740.7719
1554.704, 743.3538
1556.633, 752.8399
1558.561, 758.9847
1560.490, 760.7465
1562.418, 763.4739
1564.346, 769.8076
1566.275, 775.4523
1568.203, 776.4162
1570.132, 774.4187
1572.060, 773.7150
1573.989, 774.5603
1575.917, 775.5915
1577.846, 776.2776
1579.774, 777.7509
1581.703, 780.9468
1583.631, 783.9871
1585.560, 785.6608
1587.488, 786.3183
1589.417, 787.5383
1591.345, 789.9603
1593.273, 791.3519
1595.202, 787.3701
1597.130, 785.5289
1599.059, 795.0050
1600.987, 812.0584
1602.916, 817.4160
1604.844, 806.7858
1606.773, 799.0410
1608.701, 799.2965
1610.630, 801.2205
1612.558, 800.8734
1614.487, 800.7842
1616.415, 808.0572
1618.344, 824.6386
1620.272, 828.3110
1622.200, 806.5844
1624.129, 790.1472
1626.057, 791.9781
1627.986, 798.9452
1629.914, 801.0906
1631.843, 798.5509
1633.771, 792.3997
1635.700, 780.7418
1637.628, 770.6755
1639.557, 764.1271
1641.485, 758.7172
1643.414, 754.0073
1645.342, 749.5983
1647.271, 744.1659
1649.199, 736.8943
1651.127, 734.9273
1653.056, 743.4542
1654.984, 749.2031
1656.913, 749.5651
1658.841, 745.6898
1660.770, 735.7385
1662.698, 721.6492
1664.627, 714.1143
1666.555, 714.6256
1668.484, 717.0755
1670.412, 726.0751
1672.341, 730.3066
1674.269, 721.8745
1676.198, 709.0421
1678.126, 702.4990
1680.054, 702.5629
1681.983, 700.4556
1683.911, 693.7643
1685.840, 689.9700
1687.768, 693.5235
1689.697, 696.9340
1691.625, 696.3485
1693.554, 692.8588
1695.482, 687.5379
1697.411, 679.3647
1699.339, 677.6929
1701.268, 689.7856
1703.196, 696.3708
1705.125, 688.7842
1707.053, 677.8221
1708.981, 670.1915
1710.910, 665.3772
1712.838, 661.2408
1714.767, 657.4066
1716.695, 656.3838
1718.624, 660.4008
1720.552, 664.1115
1722.481, 664.1722
1724.409, 664.5253
1726.338, 670.3342
1728.266, 679.8889
1730.195, 683.8845
1732.123, 681.6795
1734.052, 676.1277
1735.980, 663.1429
1737.908, 654.0419
1739.837, 654.4737
1741.765, 660.0570
1743.694, 669.0247
1745.622, 679.9563
1747.551, 685.2418
1749.479, 684.1184
1751.408, 679.2485
1753.336, 665.7439
1755.265, 657.1698
1757.193, 664.8469
1759.122, 676.8421
1761.050, 680.0252
1762.979, 676.6066
1764.907, 677.5654
1766.835, 684.5511
1768.764, 689.4664
1770.692, 690.0717
1772.621, 689.3126
1774.549, 689.7859
1776.478, 688.6300
1778.406, 679.4050
1780.335, 665.7314
1782.263, 664.2516
1784.192, 678.6526
1786.120, 686.4657
1788.049, 678.3465
1789.977, 671.7429
1791.906, 674.6935
1793.834, 681.8189
1795.762, 689.0971
1797.691, 696.1949
1799.619, 702.2852
1801.548, 707.8414
1803.476, 709.6523
1805.405, 703.3635
1807.333, 699.1396
1809.262, 701.6519
1811.190, 705.7973
1813.119, 708.2524
1815.047, 708.9465
1816.976, 706.8232
1818.904, 700.1089
1820.833, 698.4940
1822.761, 708.9039
1824.689, 714.1409
1826.618, 705.8002
1828.546, 697.4391
1830.475, 697.8737
1832.403, 703.7710
1834.332, 710.0540
1836.260, 717.0004
1838.189, 720.2833
1840.117, 717.7729
1842.046, 715.5116
1843.974, 714.0486
1845.903, 712.9166
1847.831, 711.6586
1849.760, 710.8383
1851.688, 710.7210
1853.616, 711.4864
1855.545, 715.2771
1857.473, 723.4165
1859.402, 727.6419
1861.330, 725.7543
1863.259, 722.2439
1865.187, 717.1748
1867.116, 712.4915
1869.044, 707.9524
1870.973, 705.3175
1872.901, 709.2314
1874.830, 719.2336
1876.758, 727.6891
1878.687, 734.8994
1880.615, 736.8297
1882.543, 727.5566
1884.472, 720.0767
1886.400, 723.4280
1888.329, 729.7480
1890.257, 729.8467
1892.186, 725.8295
1894.114, 726.8026
1896.043, 734.3729
1897.971, 736.3093
1899.900, 725.3600
1901.828, 718.9534
1903.757, 727.1752
1905.685, 733.4509
1907.614, 722.0231
1909.542, 706.3098
1911.470, 709.2424
1913.399, 729.0847
1915.327, 738.3677
1917.256, 732.2308
1919.184, 727.1719
1921.113, 721.2830
1923.041, 720.0603
1924.970, 728.1844
1926.898, 737.6991
1928.827, 744.0048
1930.755, 747.9453
1932.684, 752.2717
1934.612, 756.3622
1936.541, 750.7685
1938.469, 731.5327
1940.397, 723.1312
1942.326, 735.5940
1944.254, 747.4588
1946.183, 750.4305
1948.111, 749.6912
1950.040, 747.2303
1951.968, 744.3881
1953.897, 743.3468
1955.825, 744.0226
1957.754, 745.9473
1959.682, 749.6752
1961.611, 752.5737
1963.539, 753.0070
1965.468, 754.4667
1967.396, 758.8166
1969.324, 763.4871
1971.253, 768.1469
1973.181, 771.2162
1975.110, 768.3103
1977.038, 760.0815
1978.967, 758.7150
1980.895, 767.6511
1982.824, 771.0822
1984.752, 762.1791
1986.681, 758.7409
1988.609, 770.2532
1990.538, 782.2885
1992.466, 787.0645
1994.395, 788.5511
1996.323, 791.3292
1998.251, 794.6696
2000.180, 795.2653
2002.108, 792.9025
2004.037, 795.1237
2005.965, 804.4764
2007.894, 813.1651
2009.822, 817.6500
2011.751, 823.3083
2013.679, 835.3727
2015.608, 846.7126
2017.536, 850.2887
2019.465, 848.6497
2021.393, 846.7012
2023.322, 844.4120
2025.250, 843.9662
2027.178, 846.3500
2029.107, 848.0001
2031.035, 848.4833
2032.964, 848.6219
2034.892, 847.4888
2036.821, 847.3969
2038.749, 852.2262
2040.678, 856.5764
2042.606, 850.6923
2044.535, 840.2394
2046.463, 842.1257
2048.392, 856.2543
2050.320, 869.8774
2052.249, 884.2090
2054.177, 889.6479
2056.105, 873.3028
2058.034, 863.9015
2059.962, 878.6165
2061.891, 893.4467
2063.819, 887.9708
2065.748, 876.3020
2067.676, 880.3926
2069.605, 895.7975
2071.533, 899.7884
2073.462, 890.2635
2075.390, 885.9025
2077.319, 889.0880
2079.247, 890.7999
2081.176, 885.4105
2083.104, 886.6514
2085.032, 905.9575
2086.961, 925.7112
2088.889, 935.7512
2090.818, 938.7294
2092.746, 935.1964
2094.675, 927.5561
2096.603, 923.5836
2098.532, 923.5262
2100.460, 924.1586
2102.389, 926.3593
2104.317, 927.5153
2106.246, 925.6965
2108.174, 925.6189
2110.103, 931.6673
2112.031, 935.5129
2113.959, 929.4236
2115.888, 922.3528
2117.816, 923.1202
2119.745, 929.2921
2121.673, 937.0940
2123.602, 945.8138
2125.530, 950.7602
2127.459, 951.3322
2129.387, 952.5477
2131.316, 954.6743
2133.244, 958.2655
2135.173, 965.2759
2137.101, 971.1928
2139.030, 974.9158
2140.958, 976.4440
2142.886, 976.8280
2144.815, 974.2198
2146.743, 960.4968
2148.672, 942.3982
2150.600, 946.9102
2152.529, 972.5297
2154.457, 988.7434
2156.386, 993.7865
2158.314, 990.3066
2160.243, 971.8547
2162.171, 964.6126
2164.100, 989.7558
2166.028, 1008.045
2167.957, 994.6571
2169.885, 978.8693
2171.813, 986.5357
2173.742, 1001.194
2175.670, 997.2910
2177.599, 982.6264
2179.527, 984.1526
2181.456, 1001.705
2183.384, 1014.593
2185.313, 1022.647
2187.241, 1023.606
2189.170, 1014.505
2191.098, 1007.842
2193.027, 1006.936
2194.955, 1008.484
2196.884, 1013.853
2198.812, 1018.088
2200.740, 1016.031
2202.669, 1013.239
2204.597, 1016.966
2206.526, 1023.610
2208.454, 1025.394
2210.383, 1022.959
2212.311, 1020.680
2214.240, 1018.392
2216.168, 1022.684
2218.097, 1035.850
2220.025, 1043.576
2221.954, 1040.495
2223.882, 1039.997
2225.811, 1052.123
2227.739, 1059.114
2229.667, 1049.795
2231.596, 1037.776
2233.524, 1028.181
2235.453, 1024.536
2237.381, 1036.030
2239.310, 1054.393
2241.238, 1059.375
2243.167, 1053.978
2245.095, 1058.191
2247.024, 1071.851
2248.952, 1075.335
2250.881, 1064.896
2252.809, 1059.212
2254.738, 1062.942
2256.666, 1067.409
2258.594, 1075.436
2260.523, 1077.127
2262.451, 1062.630
2264.380, 1049.185
2266.308, 1044.955
2268.237, 1047.640
2270.165, 1061.714
2272.094, 1076.933
2274.022, 1075.611
2275.951, 1063.849
2277.879, 1057.754
2279.808, 1056.680
2281.736, 1051.858
2283.665, 1040.678
2285.593, 1040.085
2287.521, 1059.867
2289.450, 1072.495
2291.378, 1076.074
2293.307, 1075.345
2295.235, 1065.343
2297.164, 1061.135
2299.092, 1074.870
2301.021, 1085.987
2302.949, 1078.692
2304.878, 1067.775
2306.806, 1063.835
2308.735, 1065.274
2310.663, 1074.627
2312.592, 1085.928
2314.520, 1080.618
2316.448, 1061.848
2318.377, 1054.965
2320.305, 1060.038
2322.234, 1076.005
2324.162, 1104.981
2326.091, 1119.576
2328.019, 1113.210
2329.948, 1105.855
2331.876, 1102.789
2333.805, 1096.833
2335.733, 1078.996
2337.662, 1068.486
2339.590, 1079.438
2341.519, 1090.602
2343.447, 1090.422
2345.375, 1085.180
2347.304, 1078.013
2349.232, 1070.260
2351.161, 1061.594
2353.089, 1054.516
2355.018, 1055.920
2356.946, 1062.918
2358.875, 1064.220
2360.803, 1059.855
2362.732, 1051.140
2364.660, 1035.484
2366.589, 1033.756
2368.517, 1049.157
2370.446, 1062.806
2372.374, 1073.677
2374.302, 1077.764
2376.231, 1070.771
2378.159, 1064.409
2380.088, 1060.002
2382.016, 1059.843
2383.945, 1068.037
2385.873, 1076.415
2387.802, 1085.051
2389.730, 1087.222
2391.659, 1071.417
2393.587, 1052.923
2395.516, 1046.781
2397.444, 1047.508
2399.373, 1047.875
2401.301, 1048.727
2403.229, 1052.409
2405.158, 1058.459
2407.086, 1066.635
2409.015, 1077.016
2410.943, 1070.008
2412.872, 1044.831
2414.800, 1034.778
2416.729, 1043.516
2418.657, 1051.343
2420.586, 1055.793
2422.514, 1059.267
2424.443, 1062.012
2426.371, 1064.024
2428.300, 1069.460
2430.228, 1067.171
2432.156, 1043.186
2434.085, 1030.588
2436.013, 1051.147
2437.942, 1071.693
2439.870, 1072.659
2441.799, 1067.973
2443.727, 1065.864
2445.656, 1064.580
2447.584, 1061.490
2449.513, 1059.022
2451.441, 1062.537
2453.370, 1067.523
2455.298, 1065.018
2457.227, 1057.903
2459.155, 1051.139
2461.083, 1045.944
2463.012, 1046.961
2464.940, 1053.986
2466.869, 1065.411
2468.797, 1082.397
2470.726, 1090.610
2472.654, 1089.358
2474.583, 1086.070
2476.511, 1081.048
2478.440, 1074.651
2480.368, 1064.811
2482.297, 1062.073
2484.225, 1074.605
2486.154, 1083.024
2488.082, 1079.253
2490.010, 1081.544
2491.939, 1099.023
2493.867, 1110.365
2495.796, 1105.281
2497.724, 1099.924
2499.653, 1101.680
2501.581, 1104.953
2503.510, 1108.051
2505.438, 1110.234
2507.367, 1112.312
2509.295, 1111.806
2511.224, 1102.441
2513.152, 1094.060
2515.081, 1098.714
2517.009, 1106.382
2518.938, 1102.177
2520.866, 1096.378
2522.794, 1109.004
2524.723, 1129.003
2526.651, 1132.193
2528.580, 1124.795
2530.508, 1122.745
2532.437, 1125.720
2534.365, 1135.547
2536.294, 1149.701
2538.222, 1153.686
2540.151, 1148.394
2542.079, 1151.575
2544.008, 1164.338
2545.936, 1166.235
2547.865, 1156.835
2549.793, 1150.864
2551.721, 1149.131
2553.650, 1149.318
2555.578, 1151.139
2557.507, 1155.265
2559.435, 1162.615
2561.364, 1170.814
2563.292, 1181.557
2565.221, 1187.779
2567.149, 1188.279
2569.078, 1185.595
2571.006, 1177.914
2572.935, 1173.749
2574.863, 1177.788
2576.792, 1181.136
2578.720, 1177.921
2580.648, 1181.325
2582.577, 1201.203
2584.505, 1212.678
2586.434, 1198.799
2588.362, 1192.277
2590.291, 1212.923
2592.219, 1235.156
2594.148, 1256.845
2596.076, 1264.930
2598.005, 1239.150
2599.933, 1217.152
2601.862, 1220.920
2603.790, 1228.906
2605.719, 1226.688
2607.647, 1225.007
2609.575, 1231.755
2611.504, 1241.607
2613.432, 1253.892
2615.361, 1263.444
2617.289, 1260.694
2619.218, 1258.797
2621.146, 1273.096
2623.075, 1289.714
2625.003, 1294.483
2626.932, 1293.725
2628.860, 1293.322
2630.789, 1293.098
2632.717, 1290.606
2634.646, 1290.127
2636.574, 1301.642
2638.502, 1314.799
2640.431, 1312.979
2642.359, 1304.390
2644.288, 1298.258
2646.216, 1298.007
2648.145, 1317.620
2650.073, 1342.981
2652.002, 1340.307
2653.930, 1327.270
2655.859, 1341.906
2657.787, 1369.996
2659.716, 1377.594
2661.644, 1372.732
2663.573, 1375.577
2665.501, 1383.541
2667.429, 1391.698
2669.358, 1398.638
2671.286, 1399.812
2673.215, 1397.172
2675.143, 1394.255
2677.072, 1393.358
2679.000, 1407.383
2680.929, 1429.414
2682.857, 1433.327
2684.786, 1426.187
2686.714, 1433.271
2688.643, 1450.940
2690.571, 1465.733
2692.500, 1477.869
2694.428, 1489.628
2696.356, 1499.280
2698.285, 1496.856
2700.213, 1486.835
2702.142, 1487.246
2704.070, 1495.919
2705.999, 1502.204
2707.927, 1507.667
2709.856, 1523.843
2711.784, 1545.871
2713.713, 1553.026
2715.641, 1550.111
2717.570, 1558.935
2719.498, 1575.672
2721.427, 1581.260
2723.355, 1579.099
2725.283, 1585.288
2727.212, 1597.967
2729.140, 1613.596
2731.069, 1629.589
2732.997, 1634.888
2734.926, 1633.441
2736.854, 1640.551
2738.783, 1654.142
2740.711, 1667.263
2742.640, 1680.202
2744.568, 1695.948
2746.497, 1711.392
2748.425, 1714.241
2750.354, 1710.526
2752.282, 1717.679
2754.210, 1732.709
2756.139, 1749.348
2758.067, 1767.298
2759.996, 1788.338
2761.924, 1808.864
2763.853, 1818.081
2765.781, 1822.706
2767.710, 1838.957
2769.638, 1859.255
2771.567, 1870.952
2773.495, 1877.522
2775.424, 1881.184
2777.352, 1886.239
2779.281, 1900.948
2781.209, 1920.307
2783.137, 1940.935
2785.066, 1958.069
2786.994, 1957.842
2788.923, 1958.999
2790.851, 1991.807
2792.780, 2030.307
2794.708, 2046.459
2796.637, 2053.039
2798.565, 2054.230
2800.494, 2060.680
2802.422, 2090.824
2804.351, 2119.331
2806.279, 2112.902
2808.208, 2112.684
2810.136, 2159.942
2812.064, 2202.252
2813.993, 2193.360
2815.921, 2185.542
2817.850, 2210.635
2819.778, 2245.099
2821.707, 2287.276
2823.635, 2319.180
2825.564, 2329.124
2827.492, 2333.316
2829.421, 2329.255
2831.349, 2336.007
2833.278, 2364.098
2835.206, 2395.002
2837.135, 2427.739
2839.063, 2453.058
2840.991, 2458.504
2842.920, 2474.188
2844.848, 2512.723
2846.777, 2544.511
2848.705, 2565.860
2850.634, 2582.454
2852.562, 2593.488
2854.491, 2606.576
2856.419, 2615.999
2858.348, 2650.274
2860.276, 2715.160
2862.205, 2751.158
2864.133, 2752.437
2866.062, 2765.577
2867.990, 2794.760
2869.918, 2818.321
2871.847, 2836.338
2873.775, 2864.295
2875.704, 2899.722
2877.632, 2920.180
2879.561, 2932.443
2881.489, 2981.114
2883.418, 3050.803
2885.346, 3074.868
2887.275, 3076.584
2889.203, 3116.706
2891.132, 3171.885
2893.060, 3199.293
2894.989, 3214.113
2896.917, 3239.392
2898.845, 3266.289
2900.774, 3275.215
2902.702, 3292.184
2904.631, 3357.433
2906.559, 3421.313
2908.488, 3437.404
2910.416, 3446.464
2912.345, 3469.003
2914.273, 3495.830
2916.202, 3518.986
2918.130, 3550.385
2920.059, 3600.627
2921.987, 3650.232
2923.916, 3697.158
2925.844, 3735.167
2927.772, 3752.274
2929.701, 3785.465
2931.629, 3851.567
2933.558, 3900.187
2935.486, 3924.989
2937.415, 3959.031
2939.343, 4006.693
2941.272, 4060.026
2943.200, 4120.191
2945.129, 4163.791
2947.057, 4194.267
2948.986, 4249.284
2950.914, 4319.470
2952.843, 4342.591
2954.771, 4344.474
2956.699, 4426.258
2958.628, 4537.979
2960.556, 4562.286
2962.485, 4561.863
2964.413, 4625.539
2966.342, 4705.920
2968.270, 4744.065
2970.199, 4782.675
2972.127, 4861.287
2974.056, 4939.539
2975.984, 4979.820
2977.913, 5033.087
2979.841, 5144.860
2981.770, 5228.677
2983.698, 5242.754
2985.626, 5279.446
2987.555, 5389.914
2989.483, 5475.199
2991.412, 5525.420
2993.340, 5556.193
2995.269, 5564.289
2997.197, 5636.899
2999.126, 5786.898
3001.054, 5885.604
3002.983, 5937.332
3004.911, 5993.526
3006.840, 6057.262
3008.768, 6134.527
3010.697, 6226.625
3012.625, 6350.416
3014.553, 6479.322
3016.482, 6567.875
3018.410, 6643.514
3020.339, 6733.970
3022.267, 6821.128
3024.196, 6872.182
3026.124, 6944.737
3028.053, 7070.625
3029.981, 7209.978
3031.910, 7373.218
3033.838, 7493.069
3035.767, 7531.860
3037.695, 7612.709
3039.624, 7759.014
3041.552, 7886.529
3043.480, 7976.427
3045.409, 8108.665
3047.337, 8280.301
3049.266, 8397.725
3051.194, 8475.898
3053.123, 8588.991
3055.051, 8721.429
3056.980, 8831.157
3058.908, 8935.323
3060.837, 9054.127
3062.765, 9189.274
3064.694, 9358.289
3066.622, 9523.313
3068.551, 9655.311
3070.479, 9779.615
3072.407, 9895.365
3074.336, 10028.82
3076.264, 10203.70
3078.193, 10369.06
3080.121, 10522.90
3082.050, 10639.56
3083.978, 10708.49
3085.907, 10848.53
3087.835, 11062.94
3089.764, 11193.61
3091.692, 11268.64
3093.621, 11411.11
3095.549, 11585.93
3097.478, 11718.43
3099.406, 11837.98
3101.334, 11983.18
3103.263, 12136.98
3105.191, 12297.26
3107.120, 12444.84
3109.048, 12564.89
3110.977, 12675.63
3112.905, 12778.66
3114.834, 12882.79
3116.762, 12980.88
3118.691, 13110.54
3120.619, 13279.27
3122.548, 13419.73
3124.476, 13530.40
3126.405, 13620.70
3128.333, 13700.20
3130.261, 13801.89
3132.190, 13922.83
3134.118, 14076.00
3136.047, 14220.70
3137.975, 14305.26
3139.904, 14371.95
3141.832, 14441.20
3143.761, 14518.68
3145.689, 14606.50
3147.618, 14705.31
3149.546, 14826.77
3151.475, 14929.96
3153.403, 15012.11
3155.332, 15065.02
3157.260, 15088.78
3159.188, 15189.57
3161.117, 15345.31
3163.045, 15448.08
3164.974, 15519.68
3166.902, 15584.63
3168.831, 15659.50
3170.759, 15785.21
3172.688, 15897.03
3174.616, 15940.93
3176.545, 15988.56
3178.473, 16077.52
3180.402, 16154.73
3182.330, 16209.11
3184.259, 16277.63
3186.187, 16367.27
3188.115, 16458.84
3190.044, 16549.38
3191.972, 16593.96
3193.901, 16615.87
3195.829, 16662.14
3197.758, 16731.98
3199.686, 16840.67
3201.615, 16950.42
3203.543, 17031.79
3205.472, 17110.22
3207.400, 17210.43
3209.329, 17282.10
3211.257, 17317.71
3213.186, 17314.84
3215.114, 17256.52
3217.042, 17315.55
3218.971, 17474.44
3220.899, 17507.44
3222.828, 17475.20
3224.756, 17521.80
3226.685, 17590.93
3228.613, 17611.01
3230.542, 17618.92
3232.470, 17624.59
3234.399, 17649.35
3236.327, 17713.53
3238.256, 17782.75
3240.184, 17863.39
3242.113, 17853.25
3244.041, 17735.17
3245.969, 17685.71
3247.898, 17692.87
3249.826, 17708.25
3251.755, 17731.92
3253.683, 17780.17
3255.612, 17816.61
3257.540, 17793.79
3259.469, 17772.84
3261.397, 17804.24
3263.326, 17797.45
3265.254, 17718.71
3267.183, 17675.27
3269.111, 17677.18
3271.040, 17634.86
3272.968, 17558.86
3274.896, 17551.94
3276.825, 17561.08
3278.753, 17473.88
3280.682, 17370.95
3282.610, 17318.68
3284.539, 17304.14
3286.467, 17346.71
3288.396, 17355.02
3290.324, 17288.43
3292.253, 17209.35
3294.181, 17119.32
3296.110, 17014.50
3298.038, 16904.39
3299.967, 16840.97
3301.895, 16795.26
3303.823, 16706.26
3305.752, 16618.52
3307.680, 16585.57
3309.609, 16533.67
3311.537, 16424.12
3313.466, 16328.24
3315.394, 16267.48
3317.323, 16189.13
3319.251, 16091.26
3321.180, 15995.00
3323.108, 15903.79
3325.037, 15826.30
3326.965, 15756.32
3328.894, 15670.67
3330.822, 15612.39
3332.750, 15659.74
3334.679, 15634.49
3336.607, 15458.34
3338.536, 15323.03
3340.464, 15247.41
3342.393, 15184.94
3344.321, 15128.17
3346.250, 15038.45
3348.178, 14947.33
3350.107, 14927.53
3352.035, 14890.93
3353.964, 14730.32
3355.892, 14597.36
3357.821, 14549.53
3359.749, 14497.95
3361.677, 14431.17
3363.606, 14346.08
3365.534, 14242.55
3367.463, 14104.99
3369.391, 13967.29
3371.320, 13909.27
3373.248, 13859.48
3375.177, 13750.96
3377.105, 13653.13
3379.034, 13610.87
3380.962, 13531.75
3382.891, 13402.98
3384.819, 13301.41
3386.748, 13225.23
3388.676, 13153.32
3390.604, 13059.99
3392.533, 12870.13
3394.461, 12696.15
3396.390, 12673.72
3398.318, 12612.03
3400.247, 12432.26
3402.175, 12298.46
3404.104, 12241.99
3406.032, 12131.57
3407.961, 11983.12
3409.889, 11864.71
3411.818, 11757.25
3413.746, 11629.26
3415.675, 11503.72
3417.603, 11403.67
3419.531, 11290.34
3421.460, 11154.72
3423.388, 11002.70
3425.317, 10838.17
3427.245, 10722.11
3429.174, 10636.32
3431.102, 10536.34
3433.031, 10422.00
3434.959, 10287.21
3436.888, 10143.57
3438.816, 9978.313
3440.745, 9876.116
3442.673, 9877.249
3444.602, 9757.569
3446.530, 9540.683
3448.458, 9374.638
3450.387, 9256.357
3452.315, 9219.043
3454.244, 9169.409
3456.172, 9043.836
3458.101, 8921.620
3460.029, 8836.309
3461.958, 8731.659
3463.886, 8610.554
3465.815, 8513.010
3467.743, 8424.505
3469.672, 8311.805
3471.600, 8193.742
3473.529, 8070.908
3475.457, 7975.982
3477.385, 7945.857
3479.314, 7849.607
3481.242, 7680.105
3483.171, 7537.997
3485.099, 7426.035
3487.028, 7368.560
3488.956, 7310.863
3490.885, 7192.013
3492.813, 7074.828
3494.742, 6986.086
3496.670, 6885.200
3498.599, 6766.034
3500.527, 6615.568
3502.456, 6445.310
3504.384, 6296.300
3506.313, 6151.247
3508.241, 5980.119
3510.169, 5831.044
3512.098, 5727.881
3514.026, 5619.064
3515.955, 5498.112
3517.883, 5346.464
3519.812, 5182.118
3521.740, 5057.591
3523.669, 4947.226
3525.597, 4817.291
3527.526, 4703.293
3529.454, 4627.716
3531.383, 4550.688
3533.311, 4468.961
3535.240, 4371.157
3537.168, 4267.392
3539.096, 4172.321
3541.025, 4104.765
3542.953, 4107.729
3544.882, 4079.144
3546.810, 3952.961
3548.739, 3889.735
3550.667, 3891.075
3552.596, 3857.709
3554.524, 3798.678
3556.453, 3731.153
3558.381, 3660.059
3560.310, 3581.499
3562.238, 3514.836
3564.167, 3463.325
3566.095, 3429.743
3568.023, 3407.992
3569.952, 3344.108
3571.880, 3270.221
3573.809, 3235.399
3575.737, 3201.315
3577.666, 3139.871
3579.594, 3097.977
3581.523, 3084.625
3583.451, 3055.233
3585.380, 3012.933
3587.308, 2967.848
3589.237, 2927.510
3591.165, 2905.789
3593.094, 2879.457
3595.022, 2842.730
3596.950, 2790.390
3598.879, 2724.781
3600.807, 2713.853
3602.736, 2723.504
3604.664, 2702.367
3606.593, 2665.744
3608.521, 2616.690
3610.450, 2575.614
3612.378, 2549.711
3614.307, 2511.770
3616.235, 2472.443
3618.164, 2478.334
3620.092, 2482.870
3622.021, 2430.646
3623.949, 2377.231
3625.877, 2332.497
3627.806, 2318.362
3629.734, 2330.066
3631.663, 2328.607
3633.591, 2313.317
3635.520, 2270.265
3637.448, 2235.390
3639.377, 2230.281
3641.305, 2213.893
3643.234, 2180.707
3645.162, 2182.367
3647.091, 2195.255
3649.019, 2160.664
3650.948, 2125.535
3652.876, 2124.531
3654.804, 2111.194
3656.733, 2070.123
3658.661, 2048.275
3660.590, 2041.720
3662.518, 2042.329
3664.447, 2035.767
3666.375, 2006.086
3668.304, 1975.450
3670.232, 1947.913
3672.161, 1932.976
3674.089, 1927.436
3676.018, 1915.261
3677.946, 1904.162
3679.875, 1910.130
3681.803, 1904.555
3683.731, 1861.626
3685.660, 1849.666
3687.588, 1861.243
3689.517, 1845.678
3691.445, 1815.033
3693.374, 1772.355
3695.302, 1746.842
3697.231, 1768.349
3699.159, 1757.717
3701.088, 1719.128
3703.016, 1708.125
3704.945, 1712.880
3706.873, 1730.283
3708.802, 1729.247
3710.730, 1675.730
3712.658, 1665.571
3714.587, 1695.779
3716.515, 1695.926
3718.444, 1676.246
3720.372, 1641.068
3722.301, 1612.442
3724.229, 1597.352
3726.158, 1605.523
3728.086, 1630.979
3730.015, 1610.662
3731.943, 1577.431
3733.872, 1583.780
3735.800, 1585.810
3737.729, 1560.390
3739.657, 1548.662
3741.585, 1550.291
3743.514, 1546.038
3745.442, 1538.568
3747.371, 1529.664
3749.299, 1523.017
3751.228, 1525.378
3753.156, 1502.501
3755.085, 1461.560
3757.013, 1446.275
3758.942, 1447.600
3760.870, 1469.248
3762.799, 1477.160
3764.727, 1455.402
3766.656, 1448.253
3768.584, 1450.843
3770.512, 1437.020
3772.441, 1423.670
3774.369, 1428.875
3776.298, 1430.899
3778.226, 1423.654
3780.155, 1419.440
3782.083, 1415.621
3784.012, 1403.544
3785.940, 1392.099
3787.869, 1385.720
3789.797, 1387.266
3791.726, 1397.935
3793.654, 1390.425
3795.583, 1381.641
3797.511, 1410.481
3799.439, 1423.708
3801.368, 1393.081
3803.296, 1383.040
3805.225, 1396.351
3807.153, 1393.276
3809.082, 1381.920
3811.010, 1367.941
3812.939, 1356.668
3814.867, 1348.979
3816.796, 1350.609
3818.724, 1357.345
3820.653, 1351.944
3822.581, 1348.461
3824.510, 1359.883
3826.438, 1372.250
3828.366, 1382.795
3830.295, 1367.643
3832.223, 1345.192
3834.152, 1353.853
3836.080, 1358.411
3838.009, 1337.855
3839.937, 1323.471
3841.866, 1318.652
3843.794, 1335.739
3845.723, 1353.264
3847.651, 1353.100
3849.580, 1341.568
3851.508, 1318.670
3853.437, 1315.355
3855.365, 1324.943
3857.293, 1337.666
3859.222, 1346.126
3861.150, 1345.903
3863.079, 1341.297
3865.007, 1333.808
3866.936, 1324.236
3868.864, 1317.728
3870.793, 1320.896
3872.721, 1327.157
3874.650, 1336.706
3876.578, 1341.853
3878.507, 1343.220
3880.435, 1343.451
3882.364, 1339.177
3884.292, 1326.019
3886.220, 1327.217
3888.149, 1341.926
3890.077, 1354.265
3892.006, 1359.113
3893.934, 1345.604
3895.863, 1336.945
3897.791, 1336.843
3899.720, 1345.680
3901.648, 1354.003
3903.577, 1337.908
3905.505, 1327.732
3907.434, 1337.370
3909.362, 1351.891
3911.291, 1363.754
3913.219, 1346.148
3915.147, 1326.606
3917.076, 1321.682
3919.004, 1331.471
3920.933, 1351.216
3922.861, 1343.873
3924.790, 1331.067
3926.718, 1345.042
3928.647, 1359.958
3930.575, 1367.938
3932.504, 1349.501
3934.432, 1325.495
3936.361, 1335.498
3938.289, 1344.758
3940.218, 1342.382
3942.146, 1348.042
3944.074, 1355.844
3946.003, 1353.036
3947.931, 1353.802
3949.860, 1360.690
3951.788, 1367.233
3953.717, 1373.172
3955.645, 1358.353
3957.574, 1346.752
3959.502, 1375.678
3961.431, 1386.895
3963.359, 1376.759
3965.288, 1369.008
3967.216, 1359.828
3969.145, 1366.089
3971.073, 1382.442
3973.001, 1400.803
3974.930, 1388.165
3976.858, 1361.802
3978.787, 1366.816
3980.715, 1383.410
3982.644, 1384.353
3984.572, 1382.825
3986.501, 1388.614
3988.429, 1387.253
3990.358, 1391.549
3992.286, 1404.170
3994.215, 1402.365
3996.143, 1387.318
3998.072, 1385.578
4000.000, 1391.882
4001.928, 1391.964
4003.857, 1392.809
4005.785, 1389.519
4007.714, 1395.547
4009.642, 1409.483
4011.571, 1404.239
4013.499, 1385.363
4015.428, 1371.641
4017.356, 1360.747
4019.285, 1366.690
4021.213, 1391.537
4023.142, 1398.252
4025.070, 1388.728
4026.999, 1383.062
4028.927, 1381.142
4030.855, 1386.410
4032.784, 1379.626
4034.712, 1377.473
4036.641, 1380.054
4038.569, 1368.559
4040.498, 1376.919
4042.426, 1392.908
4044.355, 1382.862
4046.283, 1363.537
4048.212, 1366.577
4050.140, 1378.098
4052.069, 1374.238
4053.997, 1356.590
4055.926, 1342.194
4057.854, 1341.608
4059.782, 1341.417
4061.711, 1328.600
4063.639, 1316.901
4065.568, 1317.445
4067.496, 1320.430
4069.425, 1319.062
4071.353, 1321.547
4073.282, 1320.809
4075.210, 1331.370
4077.139, 1337.735
4079.067, 1305.738
4080.996, 1293.626
4082.924, 1304.241
4084.853, 1299.016
4086.781, 1293.221
4088.709, 1302.044
4090.638, 1299.292
4092.566, 1289.811
4094.495, 1285.528
4096.423, 1281.747
4098.352, 1282.734
4100.280, 1279.241
4102.208, 1270.192
4104.137, 1270.353
4106.065, 1271.419
4107.994, 1273.231
4109.922, 1265.862
4111.851, 1248.495
4113.779, 1245.715
4115.708, 1245.312
4117.636, 1234.387
4119.565, 1227.277
4121.493, 1225.870
4123.422, 1232.722
4125.350, 1240.018
4127.279, 1240.115
4129.207, 1234.691
4131.136, 1223.716
4133.064, 1232.943
4134.993, 1244.723
4136.921, 1233.983
4138.850, 1232.073
4140.778, 1241.079
4142.707, 1219.888
4144.635, 1202.043
4146.563, 1229.511
4148.492, 1241.748
4150.420, 1230.463
4152.349, 1226.041
4154.277, 1224.184
4156.206, 1223.957
4158.134, 1216.473
4160.063, 1200.542
4161.991, 1190.082
4163.919, 1189.060
4165.848, 1212.339
4167.776, 1223.497
4169.705, 1215.669
4171.633, 1206.450
4173.562, 1195.836
4175.490, 1196.230
4177.419, 1213.942
4179.347, 1235.472
4181.276, 1224.463
4183.204, 1206.813
4185.133, 1209.057
4187.061, 1208.937
4188.990, 1200.708
4190.918, 1211.085
4192.847, 1226.710
4194.775, 1231.429
4196.704, 1224.199
4198.632, 1196.475
4200.561, 1206.206
4202.489, 1228.567
4204.417, 1226.563
4206.346, 1214.824
4208.274, 1193.968
4210.203, 1201.940
4212.131, 1212.242
4214.060, 1183.495
4215.988, 1182.316
4217.917, 1215.238
4219.845, 1215.587
4221.773, 1207.516
4223.702, 1213.505
4225.630, 1221.130
4227.559, 1227.920
4229.487, 1216.444
4231.416, 1203.715
4233.344, 1210.140
4235.273, 1206.499
4237.201, 1195.346
4239.130, 1206.401
4241.058, 1217.142
4242.987, 1210.383
4244.915, 1208.618
4246.844, 1209.084
4248.772, 1196.564
4250.701, 1191.421
4252.629, 1210.143
4254.558, 1213.322
4256.486, 1205.477
4258.415, 1187.258
4260.343, 1185.583
4262.271, 1214.234
4264.200, 1228.920
4266.128, 1231.611
4268.057, 1219.617
4269.985, 1211.233
4271.914, 1210.301
4273.842, 1213.271
4275.771, 1216.374
4277.699, 1215.330
4279.627, 1213.519
4281.556, 1212.382
4283.484, 1224.070
4285.413, 1229.228
4287.341, 1203.710
4289.270, 1202.183
4291.198, 1216.774
4293.127, 1214.900
4295.055, 1211.862
4296.984, 1214.417
4298.912, 1219.427
4300.841, 1222.664
4302.769, 1209.762
4304.698, 1209.179
4306.626, 1229.255
4308.555, 1242.253
4310.483, 1245.413
4312.412, 1229.548
4314.340, 1224.831
4316.269, 1230.771
4318.197, 1202.347
4320.125, 1186.639
4322.054, 1218.354
4323.982, 1223.676
4325.911, 1211.517
4327.839, 1219.907
4329.768, 1224.335
4331.696, 1216.759
4333.625, 1214.066
4335.553, 1214.596
4337.481, 1218.848
4339.410, 1210.779
4341.338, 1192.830
4343.267, 1206.559
4345.195, 1222.625
4347.124, 1220.848
4349.052, 1217.946
4350.981, 1218.220
4352.909, 1234.231
4354.838, 1238.907
4356.766, 1222.875
4358.695, 1235.600
4360.623, 1250.834
4362.552, 1228.130
4364.480, 1211.833
4366.409, 1207.880
4368.337, 1201.112
4370.266, 1201.152
4372.194, 1220.369
4374.123, 1230.824
4376.051, 1232.746
4377.979, 1225.269
4379.908, 1220.818
4381.836, 1223.433
4383.765, 1226.707
4385.693, 1232.030
4387.622, 1245.573
4389.550, 1239.656
4391.479, 1218.784
4393.407, 1215.609
4395.335, 1219.969
4397.264, 1228.386
4399.192, 1226.710
4401.121, 1223.935
4403.049, 1238.118
4404.978, 1241.760
4406.906, 1232.934
4408.835, 1225.023
4410.763, 1219.060
4412.692, 1214.036
4414.620, 1222.803
4416.549, 1236.056
4418.477, 1236.404
4420.406, 1229.725
4422.334, 1217.685
4424.263, 1204.811
4426.191, 1202.660
4428.120, 1228.858
4430.048, 1236.423
4431.977, 1229.016
4433.905, 1213.958
4435.833, 1219.961
4437.762, 1253.549
4439.690, 1248.258
4441.619, 1238.687
4443.547, 1258.364
4445.476, 1248.499
4447.404, 1219.943
4449.333, 1213.736
4451.261, 1216.711
4453.189, 1224.033
4455.118, 1214.167
4457.046, 1202.942
4458.975, 1207.289
4460.903, 1210.984
4462.832, 1211.380
4464.760, 1197.819
4466.689, 1197.005
4468.617, 1217.572
4470.546, 1229.077
4472.474, 1236.124
4474.403, 1242.557
4476.331, 1243.403
4478.260, 1238.442
4480.188, 1221.174
4482.117, 1218.414
4484.045, 1233.751
4485.974, 1233.174
4487.902, 1228.345
4489.831, 1229.265
4491.759, 1224.839
4493.688, 1221.368
4495.616, 1236.101
4497.544, 1247.994
4499.473, 1252.456
4501.401, 1241.118
4503.330, 1225.836
4505.258, 1211.343
4507.187, 1225.573
4509.115, 1241.330
4511.043, 1210.047
4512.972, 1200.143
4514.900, 1215.267
4516.829, 1234.625
4518.757, 1241.637
4520.686, 1225.170
4522.614, 1234.654
4524.543, 1243.129
4526.471, 1221.021
4528.400, 1211.904
4530.328, 1215.820
4532.257, 1228.867
4534.185, 1231.880
4536.114, 1224.092
4538.042, 1234.715
4539.971, 1245.151
4541.899, 1241.711
4543.828, 1241.702
4545.756, 1241.400
4547.685, 1231.870
4549.613, 1232.377
4551.542, 1240.182
4553.470, 1235.778
4555.398, 1224.037
4557.327, 1208.456
4559.255, 1220.119
4561.184, 1233.198
4563.112, 1224.652
4565.041, 1224.427
4566.969, 1227.914
4568.897, 1223.077
4570.826, 1221.575
4572.754, 1225.792
4574.683, 1243.390
4576.611, 1255.761
4578.540, 1256.965
4580.468, 1258.997
4582.397, 1251.801
4584.325, 1219.321
4586.254, 1211.161
4588.182, 1221.779
4590.111, 1248.360
4592.039, 1251.143
4593.968, 1233.636
4595.896, 1240.844
4597.825, 1244.160
4599.753, 1235.557
4601.682, 1232.940
4603.610, 1227.222
4605.539, 1206.362
4607.467, 1206.724
4609.396, 1217.265
4611.324, 1222.852
4613.252, 1225.476
4615.181, 1224.074
4617.109, 1208.904
4619.038, 1203.720
4620.966, 1211.963
4622.895, 1216.990
4624.823, 1224.863
4626.751, 1244.065
4628.680, 1230.140
4630.608, 1214.595
4632.537, 1231.935
4634.465, 1219.536
4636.394, 1198.873
4638.322, 1226.689
4640.251, 1230.260
4642.179, 1210.184
4644.108, 1214.763
4646.036, 1222.247
4647.965, 1225.722
4649.893, 1238.921
4651.822, 1237.638
4653.750, 1208.606
4655.679, 1210.949
4657.607, 1219.714
4659.536, 1198.337
4661.464, 1210.378
4663.393, 1237.475
4665.321, 1244.719
4667.250, 1224.016
4669.178, 1193.362
4671.106, 1229.897
4673.035, 1251.953
4674.963, 1242.608
4676.892, 1245.518
4678.820, 1252.679
4680.749, 1261.658
4682.677, 1248.894
4684.605, 1235.422
4686.534, 1236.148
4688.462, 1239.533
4690.391, 1243.446
4692.319, 1250.560
4694.248, 1238.794
4696.176, 1221.151
4698.105, 1232.557
4700.033, 1236.046
4701.962, 1229.830
4703.890, 1231.834
4705.819, 1234.380
4707.747, 1234.510
4709.676, 1224.227
4711.604, 1215.507
4713.533, 1213.505
4715.461, 1243.182
4717.390, 1257.375
4719.318, 1222.806
4721.247, 1229.934
4723.175, 1248.856
4725.104, 1245.387
4727.032, 1220.583
4728.960, 1200.825
4730.889, 1230.764
4732.817, 1252.975
4734.746, 1260.169
4736.674, 1254.267
4738.603, 1238.374
4740.531, 1219.483
4742.459, 1224.170
4744.388, 1234.809
4746.316, 1244.340
4748.245, 1239.910
4750.173, 1231.939
4752.102, 1224.660
4754.030, 1223.187
4755.959, 1233.909
4757.887, 1259.395
4759.816, 1233.283
4761.744, 1205.795
4763.673, 1220.140
4765.601, 1237.543
4767.530, 1251.023
4769.458, 1254.749
4771.387, 1253.189
4773.315, 1243.404
4775.244, 1207.741
4777.172, 1220.929
4779.101, 1254.903
4781.029, 1246.534
4782.958, 1235.007
4784.886, 1229.189
4786.814, 1240.736
4788.743, 1240.675
4790.671, 1233.052
4792.600, 1258.388
4794.528, 1268.399
4796.457, 1257.431
4798.385, 1248.192
4800.313, 1239.673
4802.242, 1233.168
4804.170, 1242.515
4806.099, 1257.275
4808.027, 1272.321
4809.956, 1274.546
4811.884, 1264.180
4813.813, 1241.446
4815.741, 1237.052
4817.670, 1237.492
4819.598, 1235.716
4821.527, 1235.963
4823.455, 1237.071
4825.384, 1237.127
4827.312, 1258.914
4829.241, 1264.529
4831.169, 1223.835
4833.098, 1222.329
4835.026, 1233.276
4836.955, 1228.257
4838.883, 1235.915
4840.812, 1241.264
4842.740, 1229.024
4844.668, 1206.650
4846.597, 1196.421
4848.525, 1232.363
4850.454, 1233.627
4852.382, 1229.336
4854.311, 1261.879
4856.239, 1275.320
4858.167, 1264.793
4860.096, 1216.760
4862.024, 1210.119
4863.953, 1226.984
4865.881, 1237.611
4867.810, 1239.733
4869.738, 1237.257
4871.667, 1235.427
4873.595, 1236.834
4875.524, 1234.179
4877.452, 1210.056
4879.381, 1209.624
4881.309, 1226.432
4883.238, 1248.254
4885.166, 1248.159
4887.095, 1237.999
4889.023, 1242.111
4890.952, 1241.026
4892.880, 1238.434
4894.809, 1248.776
4896.737, 1233.045
4898.666, 1213.563
4900.594, 1241.318
4902.522, 1245.628
4904.451, 1235.624
4906.379, 1238.832
4908.308, 1230.514
4910.236, 1221.069
4912.165, 1239.435
4914.093, 1217.638
4916.021, 1189.325
4917.950, 1214.032
4919.878, 1241.497
4921.807, 1255.109
4923.735, 1230.988
4925.664, 1229.224
4927.592, 1235.182
4929.521, 1225.776
4931.449, 1212.303
4933.378, 1207.935
4935.306, 1229.467
4937.235, 1243.887
4939.163, 1246.377
4941.092, 1228.754
4943.020, 1227.583
4944.949, 1242.397
4946.877, 1274.192
4948.806, 1248.398
4950.734, 1212.193
4952.663, 1208.099
4954.591, 1225.682
4956.520, 1235.187
4958.448, 1217.645
4960.376, 1211.832
4962.305, 1226.026
4964.233, 1264.104
4966.162, 1247.077
4968.090, 1222.347
4970.019, 1214.874
4971.947, 1224.738
4973.875, 1236.758
4975.804, 1243.324
4977.732, 1229.283
4979.661, 1227.709
4981.589, 1244.172
4983.518, 1216.853
4985.446, 1214.870
4987.375, 1238.266
4989.303, 1192.484
4991.232, 1190.678
4993.160, 1231.633
4995.089, 1233.118
4997.017, 1228.195
4998.946, 1226.297
5000.874, 1237.738
5002.803, 1226.569
5004.731, 1212.192
5006.660, 1244.182
5008.588, 1242.035
5010.517, 1228.057
5012.445, 1239.347
5014.374, 1238.504
5016.302, 1230.785
5018.230, 1223.262
5020.159, 1224.454
5022.087, 1217.738
5024.016, 1181.518
5025.944, 1229.342
5027.873, 1265.021
5029.801, 1246.783
5031.729, 1218.190
5033.658, 1216.279
5035.586, 1243.992
5037.515, 1218.886
5039.443, 1219.684
5041.372, 1252.665
5043.300, 1260.170
5045.229, 1257.221
5047.157, 1250.636
5049.086, 1248.066
5051.014, 1243.319
5052.943, 1237.871
5054.871, 1236.609
5056.800, 1225.728
5058.728, 1215.083
5060.657, 1214.915
5062.585, 1221.001
5064.514, 1227.715
5066.442, 1231.638
5068.371, 1231.878
5070.299, 1230.906
5072.228, 1230.578
5074.156, 1243.422
5076.084, 1242.929
5078.013, 1229.002
5079.941, 1229.629
5081.870, 1226.889
5083.798, 1218.884
5085.727, 1204.341
5087.655, 1214.469
5089.583, 1228.473
5091.512, 1212.955
5093.440, 1224.739
5095.369, 1241.932
5097.297, 1243.026
5099.226, 1232.632
5101.154, 1223.276
5103.083, 1220.458
5105.011, 1214.814
5106.940, 1220.839
5108.868, 1234.682
5110.797, 1227.968
5112.725, 1203.820
5114.654, 1179.536
5116.582, 1192.461
5118.511, 1202.388
5120.439, 1203.875
5122.368, 1195.546
5124.296, 1190.942
5126.225, 1194.575
5128.153, 1209.205
5130.082, 1215.965
5132.010, 1224.949
5133.938, 1236.673
5135.867, 1225.116
5137.795, 1217.955
5139.724, 1218.328
5141.652, 1219.797
5143.581, 1221.316
5145.509, 1220.974
5147.438, 1213.410
5149.366, 1224.635
5151.294, 1232.531
5153.223, 1222.782
5155.151, 1211.910
5157.080, 1215.083
5159.008, 1232.568
5160.937, 1237.140
5162.865, 1236.734
5164.794, 1235.461
5166.722, 1241.270
5168.651, 1221.090
5170.579, 1195.743
5172.508, 1189.654
5174.436, 1210.466
5176.365, 1226.119
5178.293, 1219.006
5180.222, 1193.582
5182.150, 1191.033
5184.079, 1212.509
5186.007, 1227.892
5187.936, 1222.432
5189.864, 1209.938
5191.792, 1213.004
5193.721, 1206.783
5195.649, 1203.130
5197.578, 1211.139
5199.506, 1214.479
5201.435, 1232.837
5203.363, 1255.024
5205.292, 1199.559
5207.220, 1177.800
5209.148, 1189.875
5211.077, 1218.290
5213.005, 1213.999
5214.934, 1201.238
5216.862, 1198.635
5218.791, 1204.129
5220.719, 1200.038
5222.648, 1190.769
5224.576, 1222.090
5226.505, 1227.346
5228.433, 1216.477
5230.362, 1228.128
5232.290, 1188.745
5234.219, 1162.853
5236.147, 1190.573
5238.076, 1217.642
5240.004, 1220.268
5241.933, 1202.657
5243.861, 1192.257
5245.790, 1198.371
5247.718, 1206.923
5249.646, 1197.608
5251.575, 1199.124
5253.503, 1194.800
5255.432, 1181.500
5257.360, 1210.089
5259.289, 1216.362
5261.217, 1203.995
5263.146, 1213.774
5265.074, 1219.672
5267.002, 1219.261
5268.931, 1211.558
5270.859, 1219.111
5272.788, 1219.323
5274.716, 1209.884
5276.645, 1212.854
5278.573, 1214.220
5280.502, 1211.628
5282.430, 1203.078
5284.359, 1203.732
5286.287, 1203.416
5288.216, 1198.654
5290.144, 1209.936
5292.073, 1212.670
5294.001, 1209.516
5295.930, 1214.299
5297.858, 1225.059
5299.787, 1227.102
5301.715, 1211.246
5303.644, 1207.237
5305.572, 1195.954
5307.500, 1187.204
5309.429, 1224.758
5311.357, 1224.760
5313.286, 1213.293
5315.214, 1218.371
5317.143, 1195.296
5319.071, 1189.115
5321.000, 1205.807
5322.928, 1218.660
5324.856, 1205.405
5326.785, 1185.607
5328.713, 1179.906
5330.642, 1198.268
5332.570, 1204.320
5334.499, 1189.193
5336.427, 1157.229
5338.356, 1168.068
5340.284, 1190.646
5342.213, 1182.101
5344.141, 1212.595
5346.070, 1229.041
5347.998, 1218.084
5349.927, 1201.881
5351.855, 1205.006
5353.784, 1208.539
5355.712, 1191.536
5357.641, 1201.567
5359.569, 1206.086
5361.498, 1197.618
5363.426, 1194.834
5365.354, 1198.347
5367.283, 1205.895
5369.211, 1215.044
5371.140, 1191.549
5373.068, 1192.192
5374.997, 1215.982
5376.925, 1214.577
5378.854, 1201.405
5380.782, 1193.031
5382.710, 1200.930
5384.639, 1202.590
5386.567, 1191.271
5388.496, 1172.966
5390.424, 1160.690
5392.353, 1175.069
5394.281, 1188.514
5396.210, 1186.562
5398.138, 1196.708
5400.067, 1196.890
5401.995, 1191.390
5403.924, 1194.273
5405.852, 1197.220
5407.781, 1188.701
5409.709, 1170.816
5411.638, 1176.274
5413.566, 1186.295
5415.495, 1184.401
5417.423, 1160.334
5419.352, 1162.989
5421.280, 1176.406
5423.208, 1187.022
5425.137, 1169.124
5427.065, 1195.130
5428.994, 1217.460
5430.922, 1204.095
5432.851, 1165.560
5434.779, 1149.437
5436.708, 1161.101
5438.636, 1193.743
5440.564, 1197.260
5442.493, 1190.435
5444.421, 1183.966
5446.350, 1180.721
5448.278, 1178.992
5450.207, 1169.600
5452.135, 1147.101
5454.064, 1187.263
5455.992, 1193.394
5457.921, 1172.655
5459.849, 1171.556
5461.778, 1173.555
5463.706, 1169.157
5465.635, 1159.324
5467.563, 1155.833
5469.492, 1170.499
5471.420, 1182.407
5473.349, 1175.560
5475.277, 1169.176
5477.206, 1176.413
5479.134, 1187.130
5481.063, 1183.309
5482.991, 1170.616
5484.919, 1160.276
5486.848, 1162.598
5488.776, 1200.380
5490.705, 1185.514
5492.633, 1170.197
5494.562, 1186.418
5496.490, 1173.321
5498.418, 1163.329
5500.347, 1159.569
5502.275, 1158.587
5504.204, 1160.978
5506.132, 1151.728
5508.061, 1141.373
5509.989, 1156.150
5511.918, 1165.562
5513.846, 1168.386
5515.775, 1165.089
5517.703, 1150.781
5519.632, 1147.451
5521.560, 1154.285
5523.489, 1167.171
5525.417, 1162.657
5527.346, 1163.290
5529.274, 1168.509
5531.203, 1172.952
5533.131, 1156.099
5535.060, 1153.027
5536.988, 1164.814
5538.917, 1179.126
5540.845, 1162.607
5542.773, 1152.080
5544.702, 1157.161
5546.630, 1167.776
5548.559, 1148.380
5550.487, 1137.411
5552.416, 1149.596
5554.344, 1154.266
5556.272, 1152.425
5558.201, 1151.151
5560.129, 1154.126
5562.058, 1151.509
5563.986, 1142.969
5565.915, 1136.002
5567.843, 1137.059
5569.772, 1139.732
5571.700, 1144.868
5573.629, 1155.865
5575.557, 1178.669
5577.486, 1156.572
5579.414, 1140.010
5581.343, 1140.037
5583.271, 1148.495
5585.200, 1150.846
5587.128, 1142.017
5589.057, 1129.052
5590.985, 1129.024
5592.914, 1152.261
5594.842, 1170.042
5596.771, 1168.134
5598.699, 1143.484
5600.627, 1122.298
5602.556, 1121.714
5604.484, 1137.407
5606.413, 1111.820
5608.341, 1130.212
5610.270, 1144.043
5612.198, 1128.316
5614.126, 1147.120
5616.055, 1122.870
5617.983, 1105.031
5619.912, 1127.424
5621.840, 1133.636
5623.769, 1131.903
5625.697, 1129.918
5627.626, 1132.411
5629.554, 1143.279
5631.483, 1133.622
5633.411, 1121.370
5635.340, 1124.509
5637.268, 1144.999
5639.197, 1140.827
5641.125, 1129.810
5643.054, 1133.238
5644.982, 1124.695
5646.911, 1123.439
5648.839, 1130.720
5650.768, 1141.953
5652.696, 1131.248
5654.625, 1127.182
5656.553, 1132.488
5658.481, 1140.342
5660.410, 1111.987
5662.338, 1116.429
5664.267, 1138.451
5666.195, 1151.282
5668.124, 1139.470
5670.052, 1120.379
5671.980, 1115.784
5673.909, 1137.883
5675.837, 1149.512
5677.766, 1136.415
5679.694, 1121.687
5681.623, 1123.584
5683.551, 1114.880
5685.480, 1122.992
5687.408, 1126.273
5689.337, 1109.313
5691.265, 1094.306
5693.194, 1100.125
5695.122, 1108.261
5697.051, 1107.474
5698.979, 1115.669
5700.908, 1100.134
5702.836, 1095.664
5704.765, 1114.242
5706.693, 1112.182
5708.622, 1110.572
5710.550, 1112.115
5712.479, 1117.704
5714.407, 1133.202
5716.335, 1128.620
5718.264, 1123.577
5720.192, 1121.716
5722.121, 1110.230
5724.049, 1090.785
5725.978, 1104.475
5727.906, 1130.638
5729.834, 1115.958
5731.763, 1091.553
5733.691, 1102.474
5735.620, 1118.617
5737.548, 1095.061
5739.477, 1112.894
5741.405, 1118.372
5743.334, 1117.959
5745.262, 1126.241
5747.191, 1091.773
5749.119, 1079.455
5751.048, 1102.757
5752.976, 1145.638
5754.905, 1101.149
5756.833, 1098.128
5758.762, 1100.425
5760.690, 1092.426
5762.619, 1117.322
5764.547, 1106.630
5766.476, 1092.782
5768.404, 1087.816
5770.333, 1084.855
5772.261, 1119.060
5774.189, 1119.554
5776.118, 1098.026
5778.046, 1092.106
5779.975, 1095.981
5781.903, 1094.442
5783.832, 1093.427
5785.760, 1098.754
5787.688, 1101.712
5789.617, 1117.206
5791.545, 1114.908
5793.474, 1092.059
5795.402, 1096.878
5797.331, 1098.452
5799.259, 1087.765
5801.188, 1077.544
5803.116, 1097.932
5805.045, 1085.545
5806.973, 1071.312
5808.902, 1067.502
5810.830, 1076.693
5812.759, 1086.370
5814.687, 1113.101
5816.616, 1123.137
5818.544, 1102.088
5820.473, 1072.276
5822.401, 1071.860
5824.330, 1056.916
5826.258, 1049.560
5828.187, 1103.905
5830.115, 1112.757
5832.043, 1102.342
5833.972, 1090.590
5835.900, 1084.364
5837.829, 1071.945
5839.757, 1083.441
5841.686, 1097.714
5843.614, 1101.121
5845.542, 1092.417
5847.471, 1087.020
5849.399, 1075.502
5851.328, 1076.560
5853.256, 1113.886
5855.185, 1132.803
5857.113, 1091.491
5859.042, 1057.894
5860.970, 1067.497
5862.899, 1084.675
5864.827, 1083.875
5866.756, 1074.480
5868.684, 1073.772
5870.613, 1098.197
5872.541, 1089.869
5874.470, 1089.892
5876.398, 1090.179
5878.327, 1079.301
5880.255, 1058.604
5882.184, 1072.226
5884.112, 1090.327
5886.041, 1084.774
5887.969, 1043.206
5889.897, 1056.634
5891.826, 1088.903
5893.754, 1103.344
5895.683, 1088.958
5897.611, 1070.159
5899.540, 1101.786
5901.468, 1115.992
5903.396, 1104.239
5905.325, 1089.513
5907.253, 1051.258
5909.182, 1069.697
5911.110, 1092.802
5913.039, 1092.474
5914.967, 1104.713
5916.896, 1093.519
5918.824, 1074.469
5920.753, 1067.284
5922.681, 1080.425
5924.610, 1064.781
5926.538, 1065.751
5928.467, 1065.770
5930.395, 1058.203
5932.324, 1049.776
5934.252, 1060.191
5936.181, 1074.419
5938.109, 1080.873
5940.038, 1077.183
5941.966, 1073.133
5943.895, 1071.658
5945.823, 1069.017
5947.751, 1068.414
5949.680, 1074.312
5951.608, 1077.920
5953.537, 1063.089
5955.465, 1051.181
5957.394, 1048.531
5959.322, 1046.054
5961.250, 1064.497
5963.179, 1055.604
5965.107, 1050.917
5967.036, 1070.203
5968.964, 1085.538
5970.893, 1066.599
5972.821, 1047.702
5974.750, 1057.581
5976.678, 1091.459
5978.607, 1049.981
5980.535, 1045.729
5982.464, 1041.615
5984.392, 1035.907
5986.321, 1049.160
5988.249, 1062.130
5990.178, 1087.032
5992.106, 1088.774
5994.035, 1066.531
5995.963, 1050.336
5997.892, 1050.150
5999.820, 1062.391
6001.749, 1078.991
6003.677, 1082.254
6005.605, 1048.448
6007.534, 1050.208
6009.462, 1054.276
6011.391, 1059.030
6013.319, 1061.228
6015.248, 1036.865
6017.176, 1040.672
6019.104, 1030.058
6021.033, 1034.023
6022.961, 1065.148
6024.890, 1047.997
6026.818, 1035.146
6028.747, 1050.515
6030.675, 1062.187
6032.604, 1047.924
6034.532, 1061.924
6036.461, 1039.572
6038.389, 1043.040
6040.318, 1055.514
6042.246, 1043.727
6044.175, 1029.919
6046.103, 1036.189
6048.032, 1050.037
6049.960, 1069.208
6051.889, 1087.837
6053.817, 1048.413
6055.746, 1052.539
6057.674, 1061.698
6059.603, 1059.460
6061.531, 1048.769
6063.459, 1027.139
6065.388, 1061.692
6067.316, 1071.802
6069.245, 1064.555
6071.173, 1068.871
6073.102, 1040.531
6075.030, 1041.080
6076.958, 1053.156
6078.887, 1045.718
6080.815, 1014.688
6082.744, 1029.401
6084.672, 1048.761
6086.601, 1043.068
6088.529, 1036.416
6090.458, 1047.632
6092.386, 1052.479
6094.315, 1080.258
6096.243, 1037.705
6098.172, 1016.232
6100.100, 1061.032
6102.029, 1080.800
6103.957, 1049.094
6105.886, 1045.273
6107.814, 1055.615
6109.743, 1055.968
6111.671, 1038.150
6113.600, 1020.472
6115.528, 1033.211
6117.457, 1038.210
6119.385, 1028.448
6121.313, 1024.319
6123.242, 1020.710
6125.170, 1022.005
6127.099, 1034.583
6129.027, 1037.598
6130.956, 1020.050
6132.884, 1049.594
6134.813, 1010.714
6136.741, 1015.666
6138.669, 1028.604
6140.598, 1004.215
6142.526, 978.2627
6144.455, 1007.546
6146.383, 1022.761
6148.312, 1017.674
6150.240, 1015.449
6152.169, 1036.905
6154.097, 1014.610
6156.026, 1019.702
6157.954, 1029.637
6159.883, 1030.769
6161.811, 1027.219
6163.740, 1031.124
6165.668, 1009.295
6167.597, 1006.352
6169.525, 1010.879
6171.454, 1009.466
6173.382, 1014.768
6175.311, 1002.233
6177.239, 1022.635
6179.167, 1028.411
6181.096, 1012.997
6183.024, 1007.453
6184.953, 1017.519
6186.881, 1006.333
6188.810, 1012.524
6190.738, 1013.573
6192.667, 993.2856
6194.595, 988.0899
6196.523, 1006.017
6198.452, 1016.417
6200.380, 1017.147
6202.309, 1001.192
6204.237, 966.2154
6206.166, 989.8229
6208.094, 1011.685
6210.023, 1026.206
6211.951, 1022.805
6213.880, 1005.424
6215.808, 1000.113
6217.737, 988.0859
6219.665, 970.3401
6221.594, 982.2609
6223.522, 1005.255
6225.451, 1005.414
6227.379, 993.7979
6229.308, 1006.839
6231.236, 982.3957
6233.165, 968.2378
6235.093, 977.3984
6237.021, 972.9514
6238.950, 981.6614
6240.878, 969.3875
6242.807, 992.3506
6244.735, 1008.175
6246.664, 991.0078
6248.592, 987.8087
6250.521, 986.0529
6252.449, 988.6903
6254.377, 982.2092
6256.306, 976.5668
6258.234, 985.6221
6260.163, 1006.024
6262.091, 988.7513
6264.020, 989.6758
6265.948, 1011.933
6267.877, 1013.586
6269.805, 979.0413
6271.734, 998.4033
6273.662, 997.4141
6275.591, 1005.987
6277.519, 987.2863
6279.448, 967.3050
6281.376, 988.8134
6283.305, 947.6304
6285.233, 1008.215
6287.162, 985.5565
6289.090, 961.2578
6291.019, 978.6587
6292.947, 989.7626
6294.875, 952.1266
6296.804, 955.3511
6298.732, 954.8065
6300.661, 963.9045
6302.589, 976.2880
6304.518, 965.7866
6306.446, 973.9529
6308.375, 985.5366
6310.303, 976.9028
6312.231, 962.8455
6314.160, 958.4780
6316.088, 966.2891
6318.017, 986.8072
6319.945, 951.0844
6321.874, 942.4174
6323.802, 970.8384
6325.731, 989.9371
6327.659, 965.3485
6329.588, 945.7766
6331.516, 936.1198
6333.445, 948.4139
6335.373, 961.3055
6337.302, 977.0082
6339.230, 992.2162
6341.159, 956.4756
6343.087, 972.4843
6345.016, 962.2740
6346.944, 942.1179
6348.873, 931.9843
6350.801, 936.6896
6352.729, 955.1072
6354.658, 952.3182
6356.586, 939.2399
6358.515, 957.0406
6360.443, 963.7574
6362.372, 944.5817
6364.300, 938.2313
6366.229, 949.8675
6368.157, 944.1737
6370.085, 957.0083
6372.014, 961.6426
6373.942, 951.4581
6375.871, 939.9787
6377.799, 922.6606
6379.728, 936.7618
6381.656, 959.2155
6383.585, 956.0377
6385.513, 949.2200
6387.442, 957.1932
6389.370, 959.6064
6391.299, 934.7701
6393.227, 943.6340
6395.156, 944.1123
6397.084, 947.8241
6399.013, 956.1458
6400.941, 956.6078
6402.870, 966.2434
6404.798, 933.4851
6406.727, 936.8952
6408.655, 945.1942
6410.583, 934.4977
6412.512, 916.8325
6414.440, 918.1498
6416.369, 921.1328
6418.297, 928.9636
6420.226, 922.2146
6422.154, 930.1653
6424.083, 950.2246
6426.011, 950.1241
6427.939, 907.7659
6429.868, 907.0684
6431.796, 960.7073
6433.725, 949.9437
6435.653, 925.8135
6437.582, 922.7293
6439.510, 923.6895
6441.439, 944.6830
6443.367, 940.2272
6445.296, 921.6603
6447.224, 921.5287
6449.153, 919.4104
6451.081, 922.7676
6453.010, 948.1572
6454.938, 928.5041
6456.867, 933.8779
6458.795, 934.5165
6460.724, 938.6530
6462.652, 932.5534
6464.581, 917.6104
6466.509, 915.3645
6468.438, 926.0726
6470.366, 915.5959
6472.294, 924.6551
6474.223, 908.0634
6476.151, 904.3737
6478.080, 922.3928
6480.008, 922.6693
6481.937, 920.9257
6483.865, 927.4487
6485.793, 916.3058
6487.722, 911.6497
6489.650, 908.8984
6491.579, 903.3530
6493.507, 900.2799
6495.436, 899.6407
6497.364, 914.2316
6499.293, 936.2795
6501.221, 915.2234
6503.150, 888.5909
6505.078, 889.3516
6507.007, 899.4048
6508.935, 859.6287
6510.864, 885.2220
6512.792, 898.4140
6514.721, 907.2558
6516.649, 894.1966
6518.578, 873.5910
6520.506, 876.7526
6522.435, 908.6712
6524.363, 924.0092
6526.292, 888.9298
6528.220, 878.9373
6530.148, 893.1472
6532.077, 917.6550
6534.005, 926.9246
6535.934, 910.5646
6537.862, 918.8580
6539.791, 899.2557
6541.719, 905.7740
6543.647, 894.2615
6545.576, 878.4753
6547.504, 870.5724
6549.433, 881.4018
6551.361, 912.4472
6553.290, 914.1021
6555.218, 857.0391
6557.147, 869.0159
6559.075, 854.4643
6561.004, 833.2203
6562.932, 836.9847
6564.861, 850.7946
6566.789, 866.4885
6568.718, 875.4305
6570.646, 842.0425
6572.575, 846.0892
6574.503, 836.2344
6576.432, 833.1017
6578.360, 828.6357
6580.289, 824.4037
6582.217, 820.7130
6584.146, 817.7334
6586.074, 816.6594
6588.002, 823.4731
6589.931, 824.3890
6591.859, 808.3835
6593.788, 796.1717
6595.716, 801.0076
6597.645, 784.0192
6599.573, 783.2531
6601.501, 779.7941
6603.430, 783.3566
6605.358, 790.2827
6607.287, 783.0405
6609.215, 764.9061
6611.144, 742.1028
6613.072, 774.6843
6615.001, 764.0992
6616.929, 748.7078
6618.858, 754.2264
6620.786, 768.1930
6622.715, 761.8208
##END=



