##NAMES=Vlasovite
##RRUFFID=R060913
##IDEAL CHEMISTRY=Na_2_ZrSi_4_O_11_
##LOCALITY=Kipawa complex, Quebec, Canada
##OWNER=RRUFF
##SOURCE=Royal Ontario Museum
##DESCRIPTION=Honey yellow single crystal fragment
##STATUS=The identification of this mineral has been made only by X-ray diffraction
##URL=https://www.rruff.net/odr/rruff_sample/R060913
##DIFFRACTION SAMPLE DESCRIPTION=Powder
##CELL PARAMETERS=a: 11.0389 b: 10.1003 c: 8.568 alpha: 90 beta: 100.325 gamma: 90 volume: 939.84 crystal system: monoclinic
##FILETYPE=Raman RAW
##RAMAN WAVELENGTH=785

183.2063, 19366.68
185.1348, 19438.42
187.0632, 19503.31
188.9917, 19558.29
190.9202, 19628.98
192.8486, 19726.28
194.7771, 19821.51
196.7056, 19912.43
198.6340, 19988.22
200.5625, 20042.38
202.4910, 20072.69
204.4194, 20055.71
206.3479, 19979.06
208.2764, 19913.61
210.2048, 19857.53
212.1333, 19845.80
214.0618, 19907.19
215.9902, 20018.35
217.9187, 20146.65
219.8472, 20293.80
221.7756, 20409.59
223.7041, 20485.17
225.6326, 20545.73
227.5610, 20582.94
229.4895, 20623.96
231.4180, 20675.22
233.3464, 20744.01
235.2749, 20869.15
237.2034, 21052.14
239.1318, 21229.11
241.0603, 21397.07
242.9888, 21545.64
244.9172, 21647.23
246.8457, 21751.00
248.7742, 21892.32
250.7026, 22076.65
252.6311, 22330.68
254.5596, 22662.87
256.4880, 22989.91
258.4165, 23308.99
260.3449, 23593.33
262.2734, 23856.02
264.2019, 24064.27
266.1303, 24179.71
268.0588, 24200.33
269.9873, 24138.25
271.9157, 23972.76
273.8442, 23850.18
275.7727, 23794.74
277.7011, 23809.93
279.6296, 23890.31
281.5581, 24043.21
283.4865, 24262.17
285.4150, 24562.70
287.3435, 25001.31
289.2719, 25582.94
291.2004, 26290.66
293.1289, 27317.30
295.0573, 28188.23
296.9858, 28861.25
298.9143, 29196.47
300.8427, 28918.49
302.7712, 28119.13
304.6997, 27293.38
306.6281, 26423.68
308.5566, 25697.66
310.4851, 25173.37
312.4135, 24783.55
314.3420, 24524.80
316.2705, 24369.43
318.1989, 24305.70
320.1274, 24327.89
322.0559, 24422.94
323.9843, 24596.07
325.9128, 24708.37
327.8413, 24734.14
329.7697, 24693.73
331.6982, 24575.93
333.6267, 24416.14
335.5551, 24204.70
337.4836, 23980.68
339.4121, 23819.43
341.3405, 23719.90
343.2690, 23688.46
345.1975, 23734.20
347.1259, 23832.73
349.0544, 24008.12
350.9829, 24198.44
352.9113, 24434.83
354.8398, 24632.14
356.7683, 24669.19
358.6967, 24566.33
360.6252, 24365.00
362.5537, 24045.56
364.4821, 23770.93
366.4106, 23567.76
368.3391, 23421.24
370.2675, 23343.33
372.1960, 23306.21
374.1245, 23306.56
376.0529, 23327.43
377.9814, 23342.81
379.9099, 23350.67
381.8383, 23321.66
383.7668, 23231.02
385.6953, 23168.54
387.6237, 23149.13
389.5522, 23160.88
391.4807, 23195.45
393.4091, 23264.53
395.3376, 23386.30
397.2661, 23551.15
399.1945, 23735.35
401.1230, 23937.54
403.0515, 24172.27
404.9799, 24446.34
406.9084, 24739.65
408.8369, 25018.71
410.7654, 25350.41
412.6938, 25869.21
414.6223, 26377.12
416.5508, 26734.84
418.4792, 26890.50
420.4077, 26637.15
422.3362, 25948.04
424.2646, 25226.16
426.1931, 24428.50
428.1216, 23757.27
430.0500, 23235.41
431.9785, 22841.16
433.9070, 22606.38
435.8354, 22461.51
437.7639, 22347.90
439.6924, 22267.22
441.6208, 22214.56
443.5493, 22188.47
445.4778, 22268.45
447.4062, 22533.67
449.3347, 22762.05
451.2631, 23003.62
453.1916, 23110.32
455.1201, 22995.42
457.0485, 22753.56
458.9770, 22394.32
460.9055, 21993.78
462.8339, 21667.05
464.7624, 21413.04
466.6909, 21208.59
468.6193, 21063.68
470.5478, 20945.70
472.4763, 20892.89
474.4047, 20807.88
476.3332, 20612.80
478.2617, 20449.59
480.1901, 20423.45
482.1186, 20453.78
484.0471, 20455.32
485.9755, 20438.69
487.9040, 20446.90
489.8325, 20487.84
491.7609, 20486.42
493.6894, 20442.04
495.6179, 20350.86
497.5463, 20171.22
499.4748, 20008.34
501.4033, 19904.21
503.3317, 19820.66
505.2602, 19728.94
507.1887, 19645.78
509.1171, 19595.15
511.0456, 19570.34
512.9741, 19535.49
514.9025, 19476.40
516.8310, 19469.77
518.7595, 19549.75
520.6879, 19614.49
522.6164, 19592.44
524.5449, 19659.50
526.4733, 19880.53
528.4018, 20201.69
530.3303, 20649.90
532.2587, 21133.68
534.1872, 21642.32
536.1157, 22094.96
538.0441, 22191.97
539.9726, 21909.72
541.9011, 21470.97
543.8295, 20756.90
545.7580, 20174.45
547.6865, 19757.12
549.6149, 19430.84
551.5434, 19209.47
553.4719, 19026.15
555.4003, 18843.27
557.3288, 18686.58
559.2573, 18587.49
561.1857, 18523.42
563.1142, 18457.60
565.0427, 18389.80
566.9711, 18314.05
568.8996, 18222.30
570.8281, 18164.55
572.7565, 18144.67
574.6850, 18147.44
576.6135, 18189.30
578.5419, 18212.66
580.4704, 18180.11
582.3989, 18150.38
584.3273, 18155.87
586.2558, 18181.54
588.1843, 18210.02
590.1127, 18251.88
592.0412, 18323.05
593.9697, 18424.19
595.8981, 18578.59
597.8266, 18801.85
599.7551, 18957.83
601.6835, 19050.79
603.6120, 19060.18
605.5405, 18972.90
607.4689, 18831.20
609.3974, 18605.59
611.3259, 18405.38
613.2543, 18296.82
615.1828, 18221.95
617.1113, 18137.44
619.0397, 18068.90
620.9682, 18066.22
622.8967, 18100.81
624.8251, 18088.79
626.7536, 18033.48
628.6821, 17997.71
630.6105, 17980.93
632.5390, 17984.11
634.4675, 18011.38
636.3959, 18036.73
638.3244, 18057.62
640.2529, 18068.01
642.1813, 18062.97
644.1098, 18051.94
646.0383, 18034.99
647.9667, 18020.71
649.8952, 18011.91
651.8237, 18013.06
653.7521, 18034.21
655.6806, 18067.01
657.6091, 18093.99
659.5375, 18115.13
661.4660, 18130.53
663.3945, 18139.68
665.3229, 18156.40
667.2514, 18181.98
669.1799, 18195.31
671.1083, 18186.34
673.0368, 18205.24
674.9653, 18292.47
676.8937, 18345.15
678.8222, 18297.00
680.7507, 18251.80
682.6791, 18247.62
684.6076, 18261.96
686.5361, 18274.68
688.4645, 18301.42
690.3930, 18382.94
692.3215, 18476.87
694.2499, 18493.74
696.1784, 18460.59
698.1069, 18468.27
700.0353, 18511.36
701.9638, 18559.69
703.8923, 18612.17
705.8207, 18662.10
707.7492, 18709.43
709.6777, 18742.27
711.6061, 18752.87
713.5346, 18765.39
715.4631, 18784.93
717.3915, 18805.93
719.3200, 18817.65
721.2485, 18843.61
723.1769, 18902.94
725.1054, 18967.75
727.0339, 19028.77
728.9623, 19080.95
730.8908, 19113.97
732.8193, 19140.89
734.7477, 19182.90
736.6762, 19229.52
738.6047, 19250.41
740.5331, 19258.95
742.4616, 19299.88
744.3901, 19365.98
746.3185, 19420.69
748.2470, 19461.90
750.1755, 19481.53
752.1039, 19476.51
754.0324, 19478.60
755.9609, 19491.57
757.8893, 19514.50
759.8178, 19541.12
761.7463, 19589.66
763.6747, 19686.75
765.6032, 19763.47
767.5317, 19775.38
769.4601, 19800.59
771.3886, 19898.21
773.3171, 19981.57
775.2455, 19990.26
777.1740, 19979.36
779.1025, 19981.79
781.0309, 19999.91
782.9594, 20036.64
784.8879, 20090.27
786.8163, 20168.29
788.7448, 20253.96
790.6733, 20319.74
792.6017, 20368.36
794.5302, 20407.04
796.4587, 20436.77
798.3871, 20462.69
800.3156, 20485.07
802.2441, 20496.07
804.1725, 20491.90
806.1010, 20531.60
808.0295, 20632.05
809.9579, 20703.16
811.8864, 20724.16
813.8149, 20752.97
815.7433, 20776.11
817.6718, 20838.46
819.6003, 20984.29
821.5287, 21102.23
823.4572, 21171.40
825.3856, 21226.93
827.3141, 21296.79
829.2426, 21326.26
831.1710, 21256.44
833.0995, 21198.33
835.0280, 21205.36
836.9564, 21230.03
838.8849, 21241.48
840.8134, 21265.43
842.7418, 21334.07
844.6703, 21406.50
846.5988, 21448.99
848.5272, 21478.56
850.4557, 21502.05
852.3842, 21528.77
854.3126, 21570.75
856.2411, 21621.19
858.1696, 21666.37
860.0980, 21716.08
862.0265, 21802.63
863.9550, 21905.61
865.8834, 21969.26
867.8119, 22001.96
869.7404, 22027.48
871.6688, 22047.76
873.5973, 22061.43
875.5258, 22072.57
877.4542, 22143.30
879.3827, 22272.64
881.3112, 22354.11
883.2396, 22381.71
885.1681, 22430.32
887.0966, 22499.24
889.0250, 22588.04
890.9535, 22708.69
892.8820, 22780.90
894.8104, 22792.99
896.7389, 22814.92
898.6674, 22844.29
900.5958, 22922.01
902.5243, 23070.38
904.4528, 23184.59
906.3812, 23247.76
908.3097, 23303.34
910.2382, 23349.85
912.1666, 23407.86
914.0951, 23475.11
916.0236, 23570.19
917.9520, 23707.24
919.8805, 23825.88
921.8090, 23901.12
923.7374, 23998.68
925.6659, 24140.07
927.5944, 24291.84
929.5228, 24443.69
931.4513, 24614.19
933.3798, 24806.31
935.3082, 25026.25
937.2367, 25248.93
939.1652, 25570.91
941.0936, 26004.14
943.0221, 26595.87
944.9506, 27399.83
946.8790, 28291.07
948.8075, 29345.53
950.7360, 30231.99
952.6644, 30968.71
954.5929, 31228.82
956.5214, 30737.61
958.4498, 30003.83
960.3783, 29049.02
962.3068, 28181.67
964.2352, 27488.63
966.1637, 26962.76
968.0922, 26642.95
970.0206, 26432.59
971.9491, 26289.85
973.8776, 26259.74
975.8060, 26373.12
977.7345, 26582.74
979.6630, 26912.49
981.5914, 27268.87
983.5199, 27715.49
985.4484, 28026.86
987.3768, 28104.89
989.3053, 28038.11
991.2338, 27795.23
993.1622, 27517.94
995.0907, 27217.20
997.0192, 26964.76
998.9476, 26786.36
1000.876, 26664.73
1002.805, 26608.58
1004.733, 26581.57
1006.661, 26575.66
1008.590, 26587.22
1010.518, 26650.18
1012.447, 26677.36
1014.375, 26596.22
1016.304, 26548.45
1018.232, 26599.99
1020.161, 26659.58
1022.089, 26688.75
1024.018, 26737.19
1025.946, 26839.54
1027.875, 26922.43
1029.803, 26980.97
1031.732, 26993.75
1033.660, 26871.09
1035.589, 26854.75
1037.517, 27086.46
1039.445, 27262.34
1041.374, 27291.02
1043.302, 27337.31
1045.231, 27436.84
1047.159, 27518.79
1049.088, 27555.44
1051.016, 27614.18
1052.945, 27725.93
1054.873, 27800.94
1056.802, 27799.03
1058.730, 27866.64
1060.659, 28047.63
1062.587, 28190.77
1064.516, 28253.26
1066.444, 28418.52
1068.372, 28716.84
1070.301, 29014.30
1072.229, 29310.35
1074.158, 29571.01
1076.086, 29800.19
1078.015, 29929.16
1079.943, 29955.59
1081.872, 29862.40
1083.800, 29653.53
1085.729, 29473.28
1087.657, 29327.53
1089.586, 29270.50
1091.514, 29289.87
1093.443, 29322.63
1095.371, 29359.68
1097.299, 29357.40
1099.228, 29333.00
1101.156, 29340.99
1103.085, 29363.24
1105.013, 29336.46
1106.942, 29312.66
1108.870, 29396.43
1110.799, 29520.92
1112.727, 29602.42
1114.656, 29664.31
1116.584, 29731.59
1118.513, 29787.80
1120.441, 29816.63
1122.370, 29831.90
1124.298, 29829.79
1126.226, 29844.45
1128.155, 29905.16
1130.083, 29982.33
1132.012, 30081.77
1133.940, 30155.85
1135.869, 30169.87
1137.797, 30191.27
1139.726, 30238.54
1141.654, 30299.18
1143.583, 30367.03
1145.511, 30451.03
1147.440, 30561.96
1149.368, 30639.07
1151.297, 30664.63
1153.225, 30712.15
1155.153, 30791.02
1157.082, 30872.25
1159.010, 30956.54
1160.939, 31045.19
1162.867, 31136.14
1164.796, 31150.37
1166.724, 31111.55
1168.653, 31151.74
1170.581, 31249.42
1172.510, 31343.83
1174.438, 31437.42
1176.367, 31547.98
1178.295, 31648.85
1180.224, 31695.47
1182.152, 31718.35
1184.080, 31709.39
1186.009, 31745.37
1187.937, 31954.18
1189.866, 32126.45
1191.794, 32098.22
1193.723, 32103.86
1195.651, 32276.21
1197.580, 32368.51
1199.508, 32274.79
1201.437, 32237.35
1203.365, 32318.09
1205.294, 32402.66
1207.222, 32474.52
1209.151, 32553.42
1211.079, 32640.02
1213.007, 32699.61
1214.936, 32737.87
1216.864, 32858.15
1218.793, 33027.36
1220.721, 33088.20
1222.650, 33079.68
1224.578, 33071.76
1226.507, 33085.05
1228.435, 33163.01
1230.364, 33269.24
1232.292, 33389.95
1234.221, 33486.48
1236.149, 33500.12
1238.078, 33528.52
1240.006, 33651.45
1241.934, 33750.18
1243.863, 33764.44
1245.791, 33801.32
1247.720, 33875.56
1249.648, 33979.46
1251.577, 34117.58
1253.505, 34206.90
1255.434, 34244.51
1257.362, 34321.62
1259.291, 34428.49
1261.219, 34471.09
1263.148, 34488.66
1265.076, 34616.80
1267.005, 34771.18
1268.933, 34794.88
1270.861, 34801.94
1272.790, 34929.64
1274.718, 35063.89
1276.647, 35120.79
1278.575, 35169.21
1280.504, 35256.79
1282.432, 35317.16
1284.361, 35301.00
1286.289, 35332.43
1288.218, 35433.98
1290.146, 35535.87
1292.075, 35634.61
1294.003, 35701.06
1295.932, 35742.89
1297.860, 35836.28
1299.788, 35961.80
1301.717, 36091.05
1303.645, 36195.18
1305.574, 36199.47
1307.502, 36212.59
1309.431, 36358.69
1311.359, 36492.79
1313.288, 36525.20
1315.216, 36549.79
1317.145, 36595.38
1319.073, 36643.41
1321.002, 36688.25
1322.930, 36752.36
1324.859, 36835.34
1326.787, 36989.20
1328.715, 37194.39
1330.644, 37270.09
1332.572, 37274.68
1334.501, 37340.32
1336.429, 37438.16
1338.358, 37542.94
1340.286, 37649.39
1342.215, 37770.92
1344.143, 37855.30
1346.072, 37858.37
1348.000, 37895.57
1349.929, 38011.49
1351.857, 38093.13
1353.786, 38117.29
1355.714, 38200.70
1357.642, 38330.13
1359.571, 38360.75
1361.499, 38348.40
1363.428, 38472.68
1365.356, 38616.26
1367.285, 38593.24
1369.213, 38583.97
1371.142, 38723.73
1373.070, 38862.40
1374.999, 38950.96
1376.927, 39007.52
1378.856, 39025.17
1380.784, 39084.91
1382.713, 39191.25
1384.641, 39285.06
1386.569, 39367.14
1388.498, 39475.21
1390.426, 39562.52
1392.355, 39495.01
1394.283, 39435.09
1396.212, 39570.52
1398.140, 39697.49
1400.069, 39720.69
1401.997, 39766.06
1403.926, 39865.35
1405.854, 39950.54
1407.783, 40014.75
1409.711, 40089.70
1411.640, 40173.82
1413.568, 40252.18
1415.496, 40327.79
1417.425, 40395.38
1419.353, 40476.67
1421.282, 40624.96
1423.210, 40728.43
1425.139, 40687.93
1427.067, 40732.04
1428.996, 40914.95
1430.924, 41015.91
1432.853, 41024.80
1434.781, 41047.43
1436.710, 41086.82
1438.638, 41118.44
1440.567, 41177.28
1442.495, 41373.11
1444.423, 41515.96
1446.352, 41415.84
1448.280, 41344.98
1450.209, 41379.48
1452.137, 41463.81
1454.066, 41598.64
1455.994, 41653.73
1457.923, 41653.23
1459.851, 41729.29
1461.780, 41831.48
1463.708, 41860.43
1465.637, 41893.92
1467.565, 42021.04
1469.494, 42119.79
1471.422, 42112.57
1473.350, 42138.19
1475.279, 42218.02
1477.207, 42264.27
1479.136, 42286.08
1481.064, 42333.79
1482.993, 42403.71
1484.921, 42504.02
1486.850, 42595.96
1488.778, 42634.34
1490.707, 42678.80
1492.635, 42749.16
1494.564, 42821.05
1496.492, 42888.64
1498.421, 42967.22
1500.349, 43050.48
1502.277, 43102.17
1504.206, 43140.19
1506.134, 43194.07
1508.063, 43243.11
1509.991, 43264.43
1511.920, 43299.62
1513.848, 43366.63
1515.777, 43416.31
1517.705, 43443.73
1519.634, 43489.25
1521.562, 43555.07
1523.491, 43662.46
1525.419, 43777.93
1527.348, 43888.20
1529.276, 43953.20
1531.204, 43933.00
1533.133, 43948.59
1535.061, 44030.90
1536.990, 44064.61
1538.918, 44063.98
1540.847, 44128.36
1542.775, 44214.30
1544.704, 44260.23
1546.632, 44291.00
1548.561, 44308.07
1550.489, 44355.31
1552.418, 44446.21
1554.346, 44541.71
1556.275, 44633.74
1558.203, 44676.10
1560.131, 44699.77
1562.060, 44760.59
1563.988, 44834.63
1565.917, 44918.30
1567.845, 44971.19
1569.774, 44973.42
1571.702, 45082.35
1573.631, 45295.59
1575.559, 45404.14
1577.488, 45441.07
1579.416, 45426.86
1581.344, 45439.28
1583.273, 45568.05
1585.201, 45666.25
1587.130, 45699.66
1589.058, 45709.19
1590.987, 45709.85
1592.915, 45775.28
1594.844, 45862.45
1596.772, 45882.34
1598.701, 45902.39
1600.629, 45979.11
1602.558, 46044.56
1604.486, 46079.99
1606.415, 46115.68
1608.343, 46156.90
1610.271, 46253.28
1612.200, 46351.59
1614.128, 46367.33
1616.057, 46374.41
1617.985, 46400.82
1619.914, 46470.58
1621.842, 46589.11
1623.771, 46746.78
1625.699, 46888.63
1627.628, 46813.18
1629.556, 46681.54
1631.485, 46632.84
1633.413, 46635.03
1635.342, 46678.43
1637.270, 46787.40
1639.198, 46957.15
1641.127, 47077.40
1643.055, 47146.52
1644.984, 47135.23
1646.912, 47132.55
1648.841, 47220.46
1650.769, 47285.43
1652.698, 47298.43
1654.626, 47342.79
1656.555, 47408.76
1658.483, 47429.13
1660.412, 47462.70
1662.340, 47603.30
1664.269, 47686.36
1666.197, 47589.41
1668.125, 47616.49
1670.054, 47767.97
1671.982, 47806.79
1673.911, 47773.10
1675.839, 47679.01
1677.768, 47649.29
1679.696, 47773.95
1681.625, 47891.52
1683.553, 47974.77
1685.482, 48096.61
1687.410, 48214.52
1689.339, 48190.21
1691.267, 48166.32
1693.196, 48232.03
1695.124, 48314.70
1697.052, 48403.82
1698.981, 48413.21
1700.909, 48386.46
1702.838, 48482.25
1704.766, 48602.79
1706.695, 48671.02
1708.623, 48731.27
1710.552, 48793.76
1712.480, 48829.79
1714.409, 48844.85
1716.337, 48881.59
1718.266, 48903.50
1720.194, 48863.98
1722.123, 48833.80
1724.051, 48830.91
1725.979, 48876.40
1727.908, 48962.56
1729.836, 49059.97
1731.765, 49151.04
1733.693, 49196.94
1735.622, 49263.21
1737.550, 49367.71
1739.479, 49408.46
1741.407, 49405.86
1743.336, 49487.23
1745.264, 49576.20
1747.193, 49586.40
1749.121, 49602.70
1751.050, 49642.12
1752.978, 49724.43
1754.906, 49830.06
1756.835, 49900.67
1758.763, 49951.15
1760.692, 49980.93
1762.620, 50025.31
1764.549, 50092.93
1766.477, 50136.33
1768.406, 50169.73
1770.334, 50228.83
1772.263, 50287.38
1774.191, 50316.38
1776.120, 50359.37
1778.048, 50418.06
1779.977, 50512.98
1781.905, 50603.62
1783.833, 50604.15
1785.762, 50607.05
1787.690, 50660.59
1789.619, 50757.97
1791.547, 50886.98
1793.476, 50866.98
1795.404, 50823.98
1797.333, 50946.29
1799.261, 51028.95
1801.190, 50956.05
1803.118, 50948.34
1805.047, 50985.63
1806.975, 50951.48
1808.904, 50930.31
1810.832, 51009.18
1812.760, 51076.91
1814.689, 51111.71
1816.617, 51160.25
1818.546, 51214.06
1820.474, 51236.54
1822.403, 51285.11
1824.331, 51400.53
1826.260, 51456.43
1828.188, 51457.56
1830.117, 51614.14
1832.045, 51721.18
1833.974, 51518.33
1835.902, 51403.65
1837.831, 51511.97
1839.759, 51567.34
1841.688, 51594.18
1843.616, 51684.05
1845.544, 51800.19
1847.473, 51943.37
1849.401, 51971.36
1851.330, 51893.05
1853.258, 51918.28
1855.187, 51971.70
1857.115, 51967.69
1859.044, 51956.94
1860.972, 51950.68
1862.901, 52016.04
1864.829, 52102.05
1866.758, 52079.23
1868.686, 52063.68
1870.615, 52091.33
1872.543, 52165.61
1874.471, 52260.04
1876.400, 52205.48
1878.328, 52138.87
1880.257, 52204.45
1882.185, 52258.60
1884.114, 52278.32
1886.042, 52300.58
1887.971, 52343.14
1889.899, 52449.79
1891.828, 52502.63
1893.756, 52458.23
1895.685, 52459.09
1897.613, 52517.96
1899.542, 52634.43
1901.470, 52677.45
1903.398, 52584.65
1905.327, 52587.66
1907.255, 52654.07
1909.184, 52574.55
1911.112, 52492.81
1913.041, 52555.45
1914.969, 52534.32
1916.898, 52436.60
1918.826, 52471.51
1920.755, 52562.71
1922.683, 52687.99
1924.612, 52756.57
1926.540, 52756.61
1928.469, 52687.06
1930.397, 52635.90
1932.325, 52773.60
1934.254, 52867.38
1936.182, 52826.58
1938.111, 52842.43
1940.039, 52886.98
1941.968, 52902.24
1943.896, 52893.02
1945.825, 52869.78
1947.753, 52834.21
1949.682, 52795.42
1951.610, 52761.22
1953.539, 52780.79
1955.467, 52927.58
1957.396, 52914.09
1959.324, 52784.75
1961.252, 52790.51
1963.181, 52785.87
1965.109, 52664.80
1967.038, 52669.27
1968.966, 52764.98
1970.895, 52791.37
1972.823, 52770.22
1974.752, 52691.06
1976.680, 52678.87
1978.609, 52725.86
1980.537, 52780.67
1982.466, 52763.17
1984.394, 52624.39
1986.323, 52574.63
1988.251, 52611.29
1990.179, 52628.82
1992.108, 52644.22
1994.036, 52633.75
1995.965, 52636.01
1997.893, 52652.69
1999.822, 52683.02
2001.750, 52655.54
2003.679, 52462.40
2005.607, 52399.38
2007.536, 52459.80
2009.464, 52577.38
2011.393, 52661.20
2013.321, 52555.53
2015.250, 52407.27
2017.178, 52307.84
2019.106, 52345.00
2021.035, 52404.11
2022.963, 52465.85
2024.892, 52357.86
2026.820, 52149.05
2028.749, 52155.52
2030.677, 52191.12
2032.606, 52133.82
2034.534, 52001.66
2036.463, 51869.32
2038.391, 51878.07
2040.320, 51990.87
2042.248, 52205.92
2044.177, 52339.35
2046.105, 52342.33
2048.033, 52157.00
2049.962, 51968.00
2051.890, 51827.80
2053.819, 51872.09
2055.747, 51951.71
2057.676, 51830.96
2059.604, 51765.94
2061.533, 51780.09
2063.461, 51708.41
2065.390, 51618.02
2067.318, 51514.70
2069.247, 51475.27
2071.175, 51507.57
2073.104, 51486.63
2075.032, 51464.64
2076.960, 51492.14
2078.889, 51551.12
2080.817, 51624.80
2082.746, 51645.68
2084.674, 51604.78
2086.603, 51499.42
2088.531, 51490.16
2090.460, 51536.37
2092.388, 51493.72
2094.317, 51424.98
2096.245, 51396.30
2098.174, 51371.43
2100.102, 51311.61
2102.031, 51173.04
2103.959, 51131.12
2105.887, 51212.05
2107.816, 51297.45
2109.744, 51288.16
2111.673, 51152.09
2113.601, 51090.66
2115.530, 51097.58
2117.458, 51091.93
2119.387, 51037.89
2121.315, 50963.54
2123.244, 50835.88
2125.172, 50695.89
2127.101, 50619.50
2129.029, 50483.68
2130.958, 50327.50
2132.886, 50264.43
2134.814, 50272.16
2136.743, 50352.14
2138.671, 50371.20
2140.600, 50329.32
2142.528, 50167.98
2144.457, 50071.90
2146.385, 50140.10
2148.314, 50155.30
2150.242, 50130.98
2152.171, 50173.32
2154.099, 50227.42
2156.028, 50271.48
2157.956, 50308.64
2159.885, 50262.80
2161.813, 50045.50
2163.741, 49890.42
2165.670, 49814.21
2167.598, 49682.50
2169.527, 49628.58
2171.455, 49706.77
2173.384, 49607.25
2175.312, 49552.08
2177.241, 49725.63
2179.169, 49675.36
2181.098, 49547.36
2183.026, 49538.72
2184.955, 49490.32
2186.883, 49373.16
2188.812, 49300.21
2190.740, 49289.91
2192.668, 49315.01
2194.597, 49275.33
2196.525, 49189.44
2198.454, 49038.32
2200.382, 48987.77
2202.311, 49127.48
2204.239, 48996.54
2206.168, 48820.42
2208.096, 48769.38
2210.025, 48769.17
2211.953, 48785.42
2213.882, 48727.66
2215.810, 48634.75
2217.739, 48563.55
2219.667, 48505.18
2221.595, 48393.13
2223.524, 48222.76
2225.452, 48149.66
2227.381, 48122.04
2229.309, 48033.40
2231.238, 47891.91
2233.166, 47739.01
2235.095, 47624.25
2237.023, 47573.20
2238.952, 47635.93
2240.880, 47657.50
2242.809, 47649.07
2244.737, 47676.53
2246.666, 47592.55
2248.594, 47422.52
2250.522, 47451.04
2252.451, 47473.50
2254.379, 47394.48
2256.308, 47178.45
2258.236, 46966.07
2260.165, 46924.14
2262.093, 46818.10
2264.022, 46701.48
2265.950, 46704.21
2267.879, 46723.21
2269.807, 46727.50
2271.736, 46696.70
2273.664, 46646.27
2275.593, 46586.73
2277.521, 46522.09
2279.449, 46467.70
2281.378, 46523.07
2283.306, 46484.34
2285.235, 46347.18
2287.163, 46246.55
2289.092, 46204.04
2291.020, 46264.25
2292.949, 46147.78
2294.877, 46006.46
2296.806, 45990.81
2298.734, 45926.40
2300.663, 45823.34
2302.591, 45728.42
2304.520, 45703.34
2306.448, 45730.70
2308.376, 45612.75
2310.305, 45510.18
2312.233, 45488.69
2314.162, 45493.87
2316.090, 45450.73
2318.019, 45298.04
2319.947, 45192.71
2321.876, 45138.36
2323.804, 45136.00
2325.733, 45091.34
2327.661, 45006.99
2329.590, 44934.98
2331.518, 44889.95
2333.447, 44852.29
2335.375, 44766.54
2337.303, 44636.05
2339.232, 44446.57
2341.160, 44383.07
2343.089, 44358.16
2345.017, 44209.82
2346.946, 44190.93
2348.874, 44242.50
2350.803, 44088.51
2352.731, 43966.43
2354.660, 43902.23
2356.588, 43824.50
2358.517, 43789.55
2360.445, 43794.68
2362.374, 43796.79
2364.302, 43752.10
2366.230, 43604.34
2368.159, 43574.33
2370.087, 43577.35
2372.016, 43500.85
2373.944, 43413.48
2375.873, 43330.66
2377.801, 43149.05
2379.730, 43084.89
2381.658, 43136.36
2383.587, 43093.12
2385.515, 43035.79
2387.444, 42965.06
2389.372, 42871.49
2391.301, 42800.91
2393.229, 42796.85
2395.157, 42766.59
2397.086, 42700.23
2399.014, 42619.73
2400.943, 42472.02
2402.871, 42355.47
2404.800, 42302.98
2406.728, 42160.96
2408.657, 42001.95
2410.585, 41964.69
2412.514, 41960.29
2414.442, 41946.75
2416.371, 41935.23
2418.299, 41922.86
2420.228, 41928.67
2422.156, 41865.02
2424.084, 41786.68
2426.013, 41780.57
2427.941, 41670.47
2429.870, 41547.56
2431.798, 41464.78
2433.727, 41426.00
2435.655, 41441.08
2437.584, 41421.40
2439.512, 41496.76
2441.441, 41614.85
2443.369, 41628.49
2445.298, 41668.78
2447.226, 41762.19
2449.155, 41931.70
2451.083, 42059.54
2453.011, 42156.71
2454.940, 42177.74
2456.868, 42270.45
2458.797, 42383.30
2460.725, 42437.16
2462.654, 42431.91
2464.582, 42393.55
2466.511, 42278.82
2468.439, 42019.27
2470.368, 41664.14
2472.296, 41373.43
2474.225, 41092.20
2476.153, 40815.70
2478.082, 40655.09
2480.010, 40521.75
2481.938, 40336.38
2483.867, 40175.50
2485.795, 40018.75
2487.724, 39922.63
2489.652, 39746.88
2491.581, 39558.84
2493.509, 39511.36
2495.438, 39395.53
2497.366, 39243.19
2499.295, 39126.82
2501.223, 38960.98
2503.152, 38770.48
2505.080, 38597.68
2507.009, 38364.57
2508.937, 38234.80
2510.865, 38160.45
2512.794, 37985.19
2514.722, 37928.29
2516.651, 37853.45
2518.579, 37736.42
2520.508, 37667.65
2522.436, 37518.41
2524.365, 37412.06
2526.293, 37305.27
2528.222, 37178.26
2530.150, 37142.06
2532.079, 37113.10
2534.007, 37041.57
2535.936, 36889.68
2537.864, 36774.32
2539.792, 36766.38
2541.721, 36617.99
2543.649, 36452.55
2545.578, 36348.91
2547.506, 36268.10
2549.435, 36211.72
2551.363, 36132.77
2553.292, 36068.49
2555.220, 35961.16
2557.149, 35789.86
2559.077, 35602.72
2561.006, 35558.67
2562.934, 35581.59
2564.863, 35482.39
2566.791, 35301.93
2568.719, 35232.47
2570.648, 35231.04
2572.576, 35093.08
2574.505, 35022.21
2576.433, 34910.05
2578.362, 34712.27
2580.290, 34478.20
2582.219, 34359.87
2584.147, 34355.14
2586.076, 34249.84
2588.004, 34134.57
2589.933, 34060.73
2591.861, 33993.98
2593.790, 33939.09
2595.718, 33776.05
2597.646, 33690.89
2599.575, 33518.51
2601.503, 33376.11
2603.432, 33331.28
2605.360, 33180.12
2607.289, 33054.93
2609.217, 32970.02
2611.146, 32870.57
2613.074, 32697.78
2615.003, 32476.69
2616.931, 32361.61
2618.860, 32223.52
2620.788, 32156.54
2622.717, 32158.28
2624.645, 32025.26
2626.573, 31966.81
2628.502, 31882.14
2630.430, 31725.31
2632.359, 31593.78
2634.287, 31519.71
2636.216, 31540.04
2638.144, 31448.38
2640.073, 31277.31
2642.001, 31157.82
2643.930, 31094.62
2645.858, 31042.35
2647.787, 31005.59
2649.715, 30951.47
2651.644, 30850.84
2653.572, 30746.70
2655.500, 30614.02
2657.429, 30496.93
2659.357, 30376.87
2661.286, 30280.82
2663.214, 30132.45
2665.143, 29985.10
2667.071, 29903.95
2669.000, 29871.07
2670.928, 29809.24
2672.857, 29666.41
2674.785, 29568.52
2676.714, 29520.41
2678.642, 29391.72
2680.571, 29202.94
2682.499, 29127.35
2684.427, 29070.70
2686.356, 28899.79
2688.284, 28737.28
2690.213, 28666.19
2692.141, 28659.44
2694.070, 28538.79
2695.998, 28327.26
2697.927, 28317.84
2699.855, 28262.63
2701.784, 28067.23
2703.712, 27911.80
2705.641, 27799.05
2707.569, 27676.62
2709.498, 27574.03
2711.426, 27509.41
2713.354, 27426.14
2715.283, 27339.03
2717.211, 27191.13
2719.140, 26992.63
2721.068, 26880.67
2722.997, 26830.19
2724.925, 26705.91
2726.854, 26487.51
2728.782, 26423.14
2730.711, 26409.64
2732.639, 26366.94
2734.568, 26216.35
2736.496, 26183.75
2738.425, 26165.87
2740.353, 26015.07
2742.281, 25899.83
2744.210, 25787.79
2746.138, 25663.33
2748.067, 25515.75
2749.995, 25386.30
2751.924, 25265.84
2753.852, 25092.85
2755.781, 24930.02
2757.709, 24803.81
2759.638, 24787.29
2761.566, 24726.10
2763.495, 24610.94
2765.423, 24526.83
2767.352, 24350.95
2769.280, 24205.66
2771.208, 24160.95
2773.137, 23998.06
2775.065, 23886.65
2776.994, 23839.02
2778.922, 23677.86
2780.851, 23558.66
2782.779, 23455.11
2784.708, 23332.58
2786.636, 23194.13
2788.565, 23057.67
2790.493, 22925.96
2792.422, 22891.24
2794.350, 22839.73
2796.279, 22735.08
2798.207, 22619.44
2800.135, 22508.46
2802.064, 22391.30
2803.992, 22226.35
2805.921, 22102.64
2807.849, 22017.69
2809.778, 21959.09
2811.706, 21926.50
2813.635, 21815.61
2815.563, 21626.09
2817.492, 21564.28
2819.420, 21491.66
2821.349, 21386.60
2823.277, 21262.61
2825.206, 21165.12
2827.134, 21050.23
2829.063, 20892.86
2830.991, 20751.10
2832.919, 20695.65
2834.848, 20704.39
2836.776, 20643.88
2838.705, 20544.43
2840.633, 20440.54
2842.562, 20328.47
2844.490, 20252.04
2846.419, 20159.94
2848.347, 20037.63
2850.276, 19909.63
2852.204, 19819.12
2854.133, 19719.55
2856.061, 19538.40
2857.990, 19501.02
2859.918, 19425.17
2861.846, 19216.26
2863.775, 19013.82
2865.703, 18846.69
2867.632, 18700.96
2869.560, 18569.37
2871.489, 18484.82
2873.417, 18388.90
2875.346, 18273.41
2877.274, 18168.87
2879.203, 18031.90
2881.131, 17894.54
2883.060, 17816.82
2884.988, 17800.54
2886.917, 17764.53
2888.845, 17625.63
2890.773, 17490.73
2892.702, 17420.33
2894.630, 17349.01
2896.559, 17215.85
2898.487, 17099.18
2900.416, 17003.61
2902.344, 16861.64
2904.273, 16746.54
2906.201, 16651.28
2908.130, 16573.14
2910.058, 16501.27
2911.987, 16436.39
2913.915, 16344.35
2915.844, 16173.82
2917.772, 16127.33
2919.700, 16023.25
2921.629, 15850.85
2923.557, 15715.37
2925.486, 15589.94
2927.414, 15492.41
2929.343, 15436.31
2931.271, 15313.96
2933.200, 15242.83
2935.128, 15173.85
2937.057, 15022.65
2938.985, 14875.98
2940.914, 14733.15
2942.842, 14639.21
2944.771, 14573.63
2946.699, 14501.22
2948.627, 14424.79
2950.556, 14340.57
2952.484, 14198.84
2954.413, 14094.02
2956.341, 14005.09
2958.270, 13890.91
2960.198, 13852.69
2962.127, 13779.66
2964.055, 13650.92
2965.984, 13569.61
2967.912, 13513.61
2969.841, 13446.68
2971.769, 13357.33
2973.698, 13282.95
2975.626, 13181.42
2977.554, 13004.98
2979.483, 12859.39
2981.411, 12779.40
2983.340, 12640.14
2985.268, 12524.27
2987.197, 12446.22
2989.125, 12345.19
2991.054, 12292.31
2992.982, 12283.83
2994.911, 12177.89
2996.839, 12062.81
2998.768, 12019.35
3000.696, 11914.47
3002.625, 11799.84
3004.553, 11706.25
3006.481, 11643.70
3008.410, 11563.59
3010.338, 11473.00
3012.267, 11348.17
3014.195, 11252.85
3016.124, 11170.11
3018.052, 11102.24
3019.981, 11012.43
3021.909, 10896.29
3023.838, 10779.60
3025.766, 10700.60
3027.695, 10661.11
3029.623, 10543.95
3031.552, 10457.28
3033.480, 10370.77
3035.408, 10294.83
3037.337, 10233.66
3039.265, 10162.09
3041.194, 10039.03
3043.122, 9919.084
3045.051, 9881.745
3046.979, 9795.448
3048.907, 9667.854
3050.836, 9581.937
3052.764, 9474.229
3054.693, 9373.180
3056.621, 9307.480
3058.550, 9185.521
3060.478, 9111.647
3062.407, 9074.785
3064.335, 9018.764
3066.264, 8923.108
3068.192, 8797.272
3070.121, 8705.223
3072.049, 8696.958
3073.978, 8575.021
3075.906, 8496.386
3077.834, 8484.854
3079.763, 8438.066
3081.691, 8393.724
3083.620, 8335.876
3085.548, 8222.508
3087.477, 8088.469
3089.405, 8030.162
3091.334, 7971.569
3093.262, 7864.729
3095.191, 7803.614
3097.119, 7744.107
3099.048, 7654.975
3100.976, 7571.919
3102.905, 7454.750
3104.833, 7368.664
3106.761, 7294.683
3108.690, 7187.092
3110.618, 7087.507
3112.547, 7028.229
3114.475, 6953.208
3116.404, 6850.911
3118.332, 6807.229
3120.261, 6742.544
3122.189, 6678.040
3124.118, 6652.592
3126.046, 6586.905
3127.975, 6533.867
3129.903, 6484.116
3131.832, 6385.537
3133.760, 6352.719
3135.688, 6251.110
3137.617, 6140.261
3139.545, 6096.527
3141.474, 6043.918
3143.402, 5959.896
3145.331, 5869.130
3147.259, 5843.051
3149.188, 5714.929
3151.116, 5658.348
3153.045, 5635.692
3154.973, 5558.258
3156.902, 5436.940
3158.830, 5384.689
3160.759, 5338.841
3162.687, 5275.255
3164.615, 5252.941
3166.544, 5243.230
3168.472, 5215.773
3170.401, 5153.394
3172.329, 5114.464
3174.258, 5070.083
3176.186, 5035.696
3178.115, 5020.667
3180.043, 4969.880
3181.972, 4909.148
3183.900, 4871.311
3185.829, 4871.202
3187.757, 4848.446
3189.686, 4774.056
3191.614, 4734.379
3193.542, 4722.650
3195.471, 4679.667
3197.399, 4632.147
3199.328, 4601.256
3201.256, 4584.278
3203.185, 4547.708
3205.113, 4506.454
3207.042, 4469.076
3208.970, 4449.137
3210.899, 4429.515
3212.827, 4370.899
3214.756, 4366.082
3216.684, 4386.810
3218.613, 4377.686
3220.541, 4298.576
3222.469, 4284.746
3224.398, 4283.489
3226.326, 4245.757
3228.255, 4203.662
3230.183, 4169.191
3232.112, 4124.841
3234.040, 4071.914
3235.969, 4021.843
3237.897, 3975.634
3239.826, 3943.823
3241.754, 3927.415
3243.683, 3922.209
3245.611, 3922.765
3247.540, 3893.788
3249.468, 3855.219
3251.396, 3830.827
3253.325, 3822.929
3255.253, 3815.608
3257.182, 3788.156
3259.110, 3751.209
3261.039, 3764.883
3262.967, 3745.409
3264.896, 3723.001
3266.824, 3697.427
3268.753, 3656.449
3270.681, 3648.557
3272.610, 3599.669
3274.538, 3542.281
3276.467, 3503.795
3278.395, 3442.554
3280.323, 3436.683
3282.252, 3418.425
3284.180, 3370.459
3286.109, 3322.284
3288.037, 3279.556
3289.966, 3263.676
3291.894, 3277.307
3293.823, 3305.946
3295.751, 3297.645
3297.680, 3292.044
3299.608, 3271.631
3301.537, 3234.824
3303.465, 3196.652
3305.394, 3190.714
3307.322, 3179.910
3309.250, 3165.346
3311.179, 3150.458
3313.107, 3107.741
3315.036, 3129.546
3316.964, 3136.525
3318.893, 3106.398
3320.821, 3069.036
3322.750, 2994.497
3324.678, 2961.738
3326.607, 2934.735
3328.535, 2886.678
3330.464, 2897.316
3332.392, 2887.383
3334.321, 2882.397
3336.249, 2879.603
3338.177, 2855.942
3340.106, 2799.061
3342.034, 2778.056
3343.963, 2744.131
3345.891, 2694.204
3347.820, 2740.358
3349.748, 2705.469
3351.677, 2691.135
3353.605, 2695.802
3355.534, 2687.436
3357.462, 2655.474
3359.391, 2601.894
3361.319, 2581.555
3363.248, 2584.078
3365.176, 2561.643
3367.104, 2558.664
3369.033, 2522.387
3370.961, 2493.839
3372.890, 2493.811
3374.818, 2499.970
3376.747, 2501.521
3378.675, 2459.813
3380.604, 2418.117
3382.532, 2404.952
3384.461, 2385.849
3386.389, 2368.039
3388.318, 2366.638
3390.246, 2368.930
3392.175, 2355.302
3394.103, 2305.115
3396.031, 2301.403
3397.960, 2271.818
3399.888, 2241.311
3401.817, 2272.075
3403.745, 2221.361
3405.674, 2222.227
3407.602, 2197.996
3409.531, 2148.097
3411.459, 2145.607
3413.388, 2140.271
3415.316, 2137.837
3417.245, 2115.096
3419.173, 2084.303
3421.102, 2085.820
3423.030, 2087.348
3424.958, 2072.509
3426.887, 2040.239
3428.815, 2005.162
3430.744, 1990.243
3432.672, 1956.508
3434.601, 1979.315
3436.529, 1964.098
3438.458, 1910.065
3440.386, 1918.588
3442.315, 1918.107
3444.243, 1903.384
3446.172, 1877.500
3448.100, 1848.947
3450.029, 1828.947
3451.957, 1860.732
3453.885, 1840.187
3455.814, 1800.676
3457.742, 1780.693
3459.671, 1790.347
3461.599, 1742.458
3463.528, 1724.064
3465.456, 1708.536
3467.385, 1688.706
3469.313, 1679.831
3471.242, 1719.016
3473.170, 1702.519
3475.099, 1679.292
3477.027, 1655.101
3478.956, 1621.562
3480.884, 1656.914
3482.813, 1643.486
3484.741, 1624.541
3486.669, 1605.721
3488.598, 1582.126
3490.526, 1574.863
3492.455, 1596.490
3494.383, 1584.228
3496.312, 1575.631
3498.240, 1578.670
3500.169, 1541.265
3502.097, 1545.905
3504.026, 1509.287
3505.954, 1504.816
3507.883, 1516.258
3509.811, 1474.080
3511.740, 1466.190
3513.668, 1468.817
3515.596, 1450.634
3517.525, 1440.740
3519.453, 1453.737
3521.382, 1422.989
3523.310, 1400.265
3525.239, 1377.921
3527.167, 1364.408
3529.096, 1365.798
3531.024, 1377.020
3532.953, 1354.112
3534.881, 1349.901
3536.810, 1325.351
3538.738, 1317.808
3540.667, 1351.750
3542.595, 1314.740
3544.523, 1300.400
3546.452, 1299.443
3548.380, 1306.289
3550.309, 1305.097
3552.237, 1276.118
3554.166, 1232.392
3556.094, 1221.177
3558.023, 1221.695
3559.951, 1225.762
3561.880, 1228.682
3563.808, 1209.031
3565.737, 1207.799
3567.665, 1200.529
3569.594, 1189.697
3571.522, 1179.672
3573.450, 1168.606
3575.379, 1138.200
3577.307, 1123.274
3579.236, 1120.679
3581.164, 1141.034
3583.093, 1146.175
3585.021, 1074.068
3586.950, 1069.109
3588.878, 1062.620
3590.807, 1039.446
3592.735, 1037.046
3594.664, 1049.797
3596.592, 1017.778
3598.521, 1034.053
3600.449, 1027.988
3602.377, 1025.680
3604.306, 1017.140
3606.234, 1008.675
3608.163, 1051.857
3610.091, 1038.386
3612.020, 1017.159
3613.948, 1014.383
3615.877, 1009.904
3617.805, 994.0452
3619.734, 998.8535
3621.662, 1002.870
3623.591, 971.5231
3625.519, 949.2678
3627.448, 935.2007
3629.376, 922.8738
3631.304, 933.5002
3633.233, 951.6205
3635.161, 947.0543
3637.090, 931.4557
3639.018, 924.9437
3640.947, 944.6663
3642.875, 1001.492
3644.804, 1212.118
3646.732, 1008.095
3648.661, 893.2884
3650.589, 885.9564
3652.518, 867.2540
3654.446, 839.7793
3656.375, 838.2697
3658.303, 832.5877
3660.231, 828.2697
3662.160, 819.0541
3664.088, 803.3599
3666.017, 792.6072
3667.945, 817.8860
3669.874, 775.0857
3671.802, 755.9263
3673.731, 752.0546
3675.659, 755.1645
3677.588, 763.9975
3679.516, 766.1099
3681.445, 742.3034
3683.373, 756.5602
3685.302, 734.5887
3687.230, 723.9111
3689.158, 727.5457
3691.087, 692.6378
3693.015, 674.9189
3694.944, 697.4781
3696.872, 693.3602
3698.801, 700.9616
3700.729, 710.0566
3702.658, 701.6476
3704.586, 704.8913
3706.515, 672.1345
3708.443, 661.3370
3710.372, 666.2697
3712.300, 664.2711
3714.229, 653.1852
3716.157, 644.4891
3718.085, 643.0105
3720.014, 626.4547
3721.942, 621.3301
3723.871, 623.0010
3725.799, 611.8833
3727.728, 592.6972
3729.656, 587.7500
3731.585, 603.2062
3733.513, 597.6396
3735.442, 586.3326
3737.370, 579.4817
3739.299, 553.9110
3741.227, 521.6395
3743.156, 523.6904
3745.084, 530.4102
3747.012, 504.9695
3748.941, 504.1084
3750.869, 518.7319
3752.798, 530.0251
3754.726, 523.0490
3756.655, 495.9220
3758.583, 494.1269
3760.512, 493.7433
3762.440, 494.7517
3764.369, 487.5648
3766.297, 495.4664
3768.226, 496.2729
3770.154, 462.4542
3772.083, 465.9192
3774.011, 464.2958
3775.939, 463.6122
3777.868, 468.5424
3779.796, 457.3714
3781.725, 441.6175
3783.653, 436.7628
3785.582, 425.4596
3787.510, 421.5768
3789.439, 406.1378
3791.367, 406.6304
3793.296, 397.7789
3795.224, 394.2496
3797.153, 400.3757
3799.081, 394.4576
3801.010, 405.4362
3802.938, 404.1330
3804.866, 409.8651
3806.795, 411.4999
3808.723, 399.3855
3810.652, 385.3156
3812.580, 379.5060
3814.509, 374.8973
3816.437, 391.5006
3818.366, 381.2790
3820.294, 370.4494
3822.223, 368.8282
3824.151, 361.0722
3826.080, 354.6218
3828.008, 358.8258
3829.937, 349.3146
3831.865, 337.4972
3833.793, 342.1191
3835.722, 333.2190
3837.650, 327.8340
3839.579, 321.8222
3841.507, 328.8243
3843.436, 347.8778
3845.364, 329.2454
3847.293, 353.5036
3849.221, 351.7939
3851.150, 329.0211
3853.078, 324.3138
3855.007, 318.7065
3856.935, 312.6005
3858.864, 317.1309
3860.792, 317.6810
3862.720, 305.6435
3864.649, 296.4257
3866.577, 302.1360
3868.506, 302.5291
3870.434, 287.7701
3872.363, 283.1306
3874.291, 291.2143
3876.220, 288.2944
3878.148, 286.7574
3880.077, 280.6286
3882.005, 276.0119
3883.934, 280.9768
3885.862, 279.9327
3887.791, 277.8242
3889.719, 271.9152
3891.647, 263.0229
3893.576, 265.4418
3895.504, 265.3998
3897.433, 252.9658
3899.361, 262.2839
3901.290, 266.0506
3903.218, 272.7244
3905.147, 260.9173
3907.075, 245.0304
3909.004, 244.3032
3910.932, 239.2273
3912.861, 236.8443
3914.789, 236.8043
3916.718, 226.4382
3918.646, 231.2435
3920.574, 232.2191
3922.503, 230.5775
3924.431, 224.0341
3926.360, 224.7014
3928.288, 241.8918
3930.217, 223.1504
3932.145, 221.5797
3934.074, 226.1046
3936.002, 220.3263
3937.931, 221.6261
3939.859, 223.7558
3941.788, 214.8614
3943.716, 208.7884
3945.645, 216.2303
3947.573, 216.5540
3949.501, 204.8808
3951.430, 202.6801
3953.358, 206.1108
3955.287, 197.5024
3957.215, 205.7715
3959.144, 203.7719
3961.072, 204.7920
3963.001, 204.7290
3964.929, 193.7400
3966.858, 203.8065
3968.786, 193.4645
3970.715, 200.4240
3972.643, 170.7774
3974.572, 179.5359
3976.500, 176.6469
3978.428, 180.2349
3980.357, 180.2359
3982.285, 174.2489
3984.214, 174.4569
3986.142, 176.2108
3988.071, 174.3663
3989.999, 163.7037
3991.928, 168.1043
3993.856, 164.4987
3995.785, 158.6959
3997.713, 153.6130
3999.642, 150.2813
4001.570, 152.3852
4003.499, 158.1403
4005.427, 159.7294
4007.355, 153.7843
4009.284, 148.8077
4011.212, 162.8290
4013.141, 158.8818
4015.069, 141.2242
4016.998, 147.7691
4018.926, 159.9612
4020.855, 151.7449
4022.783, 136.9611
4024.712, 139.3682
4026.640, 144.1330
4028.569, 132.6736
4030.497, 132.0887
4032.426, 131.5833
4034.354, 125.8491
4036.282, 129.2439
4038.211, 129.4545
4040.139, 126.7340
4042.068, 128.8635
4043.996, 133.3387
4045.925, 131.5517
4047.853, 123.1493
4049.782, 118.3738
4051.710, 122.7152
4053.639, 125.6373
4055.567, 117.9491
4057.496, 119.7145
4059.424, 113.9448
4061.353, 112.4613
4063.281, 111.0453
4065.209, 103.3677
4067.138, 101.2747
4069.066, 102.3010
4070.995, 99.23223
4072.923, 94.74392
4074.852, 95.67341
4076.780, 100.1317
4078.709, 100.8238
4080.637, 104.6656
4082.566, 99.86219
4084.494, 85.35183
4086.423, 90.66582
4088.351, 97.26894
4090.280, 98.75922
4092.208, 90.28473
4094.136, 81.35278
4096.065, 82.96629
4097.993, 82.60134
4099.922, 81.75621
4101.850, 82.03917
4103.779, 78.79668
4105.707, 85.89355
4107.636, 86.01009
4109.564, 87.14359
4111.493, 88.94905
4113.421, 81.04081
4115.350, 79.26378
4117.278, 83.44567
4119.207, 79.37553
4121.135, 93.19481
4123.063, 81.11052
4124.992, 78.17503
4126.920, 79.67318
4128.849, 78.43802
4130.777, 84.08533
4132.706, 86.59502
4134.634, 87.34628
4136.563, 84.41802
4138.491, 80.18427
4140.419, 77.23653
4142.348, 87.87439
4144.276, 91.22517
4146.205, 82.97720
4148.133, 88.39394
4150.062, 84.06370
4151.990, 84.17133
4153.919, 78.42530
4155.847, 73.18359
4157.776, 81.74442
4159.704, 84.54192
4161.633, 81.88235
4163.561, 83.15479
4165.490, 80.15195
4167.418, 78.37876
4169.347, 80.87135
4171.275, 82.14153
4173.204, 83.48609
4175.132, 83.75809
4177.061, 78.41668
4178.989, 75.20495
4180.917, 71.73196
4182.846, 73.03490
4184.774, 79.35490
4186.703, 75.30313
4188.631, 70.21979
4190.560, 82.79724
4192.488, 81.86952
4194.417, 75.37957
4196.345, 76.00331
4198.273, 79.83806
4200.202, 78.74302
4202.130, 73.55099
4204.059, 70.94656
4205.987, 71.22477
4207.916, 81.96062
4209.844, 82.56267
4211.773, 67.03033
4213.701, 70.85664
4215.630, 63.18565
4217.558, 81.39796
4219.487, 76.78586
4221.415, 71.64751
4223.344, 70.99360
4225.272, 85.00824
4227.201, 71.46912
4229.129, 65.56437
4231.058, 83.23122
4232.986, 75.55693
4234.915, 69.12126
4236.843, 76.55924
4238.771, 74.80817
4240.700, 78.66089
4242.628, 80.12024
4244.557, 72.04108
4246.485, 69.86330
4248.414, 72.20564
4250.342, 63.92087
4252.271, 73.44084
4254.199, 79.21288
4256.127, 81.43861
4258.056, 69.49817
4259.984, 75.85059
4261.913, 74.87247
4263.841, 73.59300
4265.770, 82.52086
4267.698, 72.64041
4269.627, 81.40614
4271.555, 82.72850
4273.484, 80.34209
4275.412, 72.61949
4277.341, 72.48533
4279.269, 75.55206
4281.198, 74.81638
4283.126, 76.89513
4285.055, 71.47510
4286.983, 66.98506
4288.912, 66.96086
4290.840, 68.75996
4292.769, 75.62766
4294.697, 76.95610
4296.625, 78.11745
4298.554, 75.51762
4300.482, 75.93014
4302.411, 68.17113
4304.339, 73.29926
4306.268, 73.19004
4308.196, 63.29262
4310.125, 66.88371
4312.053, 70.84747
4313.981, 71.61538
4315.910, 73.95326
4317.838, 61.62601
4319.767, 57.71889
4321.695, 67.44508
4323.624, 64.83517
4325.552, 68.92388
4327.481, 69.32903
4329.409, 66.52079
4331.338, 65.79343
4333.266, 66.46091
4335.195, 66.91106
4337.123, 72.68233
4339.052, 66.62582
4340.980, 62.99937
4342.909, 62.91203
4344.837, 60.21804
4346.766, 73.12894
4348.694, 59.86129
4350.623, 60.41710
##END=



