##NAMES=Volborthite
##RRUFFID=R120063
##IDEAL CHEMISTRY=Cu_3_V_2_O_7_(OH)_2_·2H_2_O
##LOCALITY=Milpillas mine, Municipio de Santa Cruz, Sonora, Mexico
##OWNER=RRUFF
##SOURCE=Evan Jones
##DESCRIPTION=Parallel aggregate of dark green tabular crystals associated with malachite
##STATUS=The identification of this mineral has been confirmed only by single crystal X-ray diffraction
##URL=https://www.rruff.net/odr/rruff_sample/R120063
##DIFFRACTION SAMPLE DESCRIPTION=Single crystal, powder profile is calculated
##CELL PARAMETERS=a: 10.589 b: 5.8547 c: 7.188 alpha: 90 beta: 95.01 gamma: 90 volume: 443.9 crystal system: monoclinic
##FILETYPE=Raman Processed
##RAMAN WAVELENGTH=780

114.0310, 383.0634
115.9595, 374.1541
117.8879, 368.0994
119.8164, 363.0103
121.7449, 358.3155
123.6733, 353.7447
125.6018, 349.0550
127.5303, 344.1450
129.4587, 339.0079
131.3872, 332.8731
133.3157, 328.5576
135.2441, 328.3060
137.1726, 329.1382
139.1011, 329.2483
141.0295, 328.5445
142.9580, 326.7832
144.8865, 323.8585
146.8149, 320.3483
148.7434, 315.0885
150.6719, 310.5621
152.6003, 308.5822
154.5288, 308.7608
156.4573, 309.3554
158.3857, 310.4852
160.3142, 311.2998
162.2427, 311.2874
164.1711, 311.2155
166.0996, 311.8656
168.0281, 312.6080
169.9565, 312.1473
171.8850, 310.5303
173.8135, 307.7119
175.7419, 302.8214
177.6704, 297.6392
179.5989, 292.6004
181.5273, 287.6191
183.4558, 282.5146
185.3843, 277.3102
187.3127, 272.3548
189.2412, 267.5847
191.1697, 263.3172
193.0981, 259.3788
195.0266, 256.1366
196.9551, 254.1935
198.8835, 253.2644
200.8120, 252.7155
202.7405, 252.8710
204.6689, 252.5060
206.5974, 250.9241
208.5259, 249.3595
210.4543, 248.9065
212.3828, 248.8275
214.3113, 247.7380
216.2397, 245.3103
218.1682, 243.3096
220.0967, 241.5811
222.0251, 240.6397
223.9536, 241.4164
225.8821, 242.5310
227.8105, 242.5788
229.7390, 241.6176
231.6675, 240.7889
233.5959, 240.0234
235.5244, 239.5770
237.4529, 239.9432
239.3813, 240.1536
241.3098, 239.4674
243.2383, 238.2391
245.1667, 237.1234
247.0952, 235.8718
249.0237, 235.6050
250.9521, 237.6955
252.8806, 238.6512
254.8091, 235.9126
256.7375, 232.7018
258.6660, 232.1507
260.5945, 234.0078
262.5229, 234.8062
264.4514, 234.1792
266.3799, 233.3945
268.3083, 232.2159
270.2368, 231.4198
272.1653, 232.0505
274.0938, 232.9601
276.0222, 232.3681
277.9507, 230.1084
279.8792, 227.9443
281.8076, 225.7147
283.7361, 224.0654
285.6646, 223.9640
287.5930, 223.5466
289.5215, 221.1663
291.4500, 217.7572
293.3784, 215.7799
295.3069, 215.4223
297.2354, 214.5638
299.1638, 212.9530
301.0923, 211.1898
303.0208, 208.9993
304.9492, 207.2349
306.8777, 206.5999
308.8062, 206.8861
310.7346, 207.4824
312.6631, 208.3836
314.5916, 209.2553
316.5200, 209.8654
318.4485, 210.8316
320.3770, 212.7865
322.3054, 214.7515
324.2339, 215.7917
326.1624, 216.1911
328.0908, 217.1015
330.0193, 218.5719
331.9477, 219.2606
333.8762, 218.4991
335.8047, 217.7340
337.7331, 217.4109
339.6616, 217.2505
341.5901, 217.3472
343.5185, 217.3458
345.4470, 216.3465
347.3755, 214.3214
349.3039, 211.9067
351.2324, 208.0918
353.1609, 205.8411
355.0893, 207.2341
357.0178, 208.9923
358.9463, 208.4207
360.8747, 206.5856
362.8032, 205.4121
364.7317, 204.9170
366.6601, 205.2555
368.5886, 206.7430
370.5171, 208.6199
372.4455, 211.3141
374.3740, 213.7410
376.3025, 215.3481
378.2309, 216.1899
380.1594, 216.4285
382.0879, 216.0568
384.0163, 215.0612
385.9448, 213.6412
387.8733, 211.0971
389.8017, 206.7267
391.7302, 202.1205
393.6587, 197.5014
395.5871, 193.3150
397.5156, 190.2101
399.4441, 187.8637
401.3725, 184.7960
403.3010, 180.1118
405.2295, 177.2231
407.1579, 177.5985
409.0864, 177.4141
411.0149, 175.5206
412.9433, 173.1170
414.8718, 170.6361
416.8003, 168.3584
418.7287, 166.9172
420.6572, 166.3838
422.5857, 165.3874
424.5141, 163.4597
426.4426, 162.3165
428.3711, 162.4722
430.2995, 162.8652
432.2280, 163.4532
434.1565, 163.6495
436.0849, 162.4673
438.0134, 160.5680
439.9419, 160.2667
441.8703, 162.0142
443.7988, 162.2462
445.7273, 160.4557
447.6557, 158.7840
449.5842, 157.6179
451.5127, 156.9102
453.4411, 157.0297
455.3696, 157.2188
457.2981, 156.6840
459.2265, 155.5442
461.1550, 154.2350
463.0835, 152.7421
465.0119, 151.3953
466.9404, 150.2368
468.8689, 149.1758
470.7973, 148.2856
472.7258, 147.3599
474.6543, 146.4678
476.5827, 145.3708
478.5112, 143.4003
480.4397, 141.0307
482.3681, 140.1808
484.2966, 140.7439
486.2251, 140.5208
488.1535, 138.8278
490.0820, 138.0213
492.0105, 139.4332
493.9389, 141.0026
495.8674, 142.4671
497.7959, 143.3770
499.7243, 142.8451
501.6528, 141.5986
503.5813, 141.3366
505.5097, 141.9340
507.4382, 142.4908
509.3667, 142.8939
511.2951, 143.4685
513.2236, 144.4224
515.1521, 145.3581
517.0806, 146.2429
519.0090, 146.9989
520.9375, 147.6661
522.8660, 148.0953
524.7944, 147.9403
526.7229, 147.4016
528.6514, 147.2480
530.5798, 147.6353
532.5083, 147.3139
534.4368, 146.0127
536.3652, 144.2299
538.2937, 141.0784
540.2222, 138.7233
542.1506, 138.8664
544.0791, 139.3799
546.0076, 138.4003
547.9360, 136.5842
549.8645, 134.8664
551.7930, 133.2274
553.7214, 131.3069
555.6499, 128.5986
557.5784, 127.0725
559.5068, 127.4346
561.4353, 127.7480
563.3638, 127.8212
565.2922, 127.6950
567.2207, 127.4647
569.1492, 126.9439
571.0776, 125.8686
573.0061, 124.4935
574.9345, 123.3103
576.8630, 122.2892
578.7914, 120.8868
580.7199, 118.7074
582.6484, 117.8436
584.5768, 119.0887
586.5053, 119.3808
588.4338, 117.5301
590.3622, 115.7771
592.2907, 115.1561
594.2192, 114.9700
596.1476, 114.9907
598.0761, 114.9958
600.0046, 114.7258
601.9330, 114.1809
603.8615, 113.2695
605.7900, 111.9553
607.7184, 110.9071
609.6469, 110.0975
611.5754, 109.7983
613.5038, 110.2261
615.4323, 110.6743
617.3608, 111.1861
619.2892, 111.2266
621.2177, 110.2197
623.1462, 109.0243
625.0746, 108.1134
627.0031, 107.6192
628.9316, 108.1012
630.8600, 109.2101
632.7885, 109.3386
634.7170, 108.5743
636.6454, 108.0173
638.5739, 107.7785
640.5024, 107.5191
642.4308, 107.1692
644.3593, 106.8170
646.2878, 106.3836
648.2162, 106.0934
650.1447, 106.3331
652.0732, 106.4104
654.0016, 105.1679
655.9301, 103.9210
657.8586, 104.9720
659.7870, 107.2293
661.7155, 107.9808
663.6440, 107.5226
665.5724, 107.7245
667.5009, 108.7507
669.4294, 109.8049
671.3578, 110.9634
673.2863, 111.7285
675.2148, 111.7765
677.1432, 111.8433
679.0717, 112.2402
681.0002, 112.4965
682.9286, 111.6414
684.8571, 111.3248
686.7856, 113.8154
688.7141, 116.9479
690.6425, 118.2151
692.5710, 118.0323
694.4995, 116.9330
696.4279, 115.0974
698.3564, 114.8404
700.2849, 116.7709
702.2133, 117.7293
704.1418, 116.6350
706.0703, 116.4784
707.9987, 117.7802
709.9272, 119.0919
711.8557, 119.9884
713.7841, 121.0937
715.7126, 122.4099
717.6411, 124.3492
719.5695, 127.3655
721.4980, 130.9558
723.4265, 134.6400
725.3549, 138.6511
727.2834, 143.7227
729.2119, 149.3638
731.1403, 153.7160
733.0688, 156.8836
734.9973, 161.0390
736.9257, 166.3443
738.8542, 172.0764
740.7827, 178.8255
742.7111, 182.7713
744.6396, 183.0002
746.5681, 182.0229
748.4965, 180.0107
750.4250, 177.8908
752.3535, 175.9599
754.2819, 174.0997
756.2104, 172.4458
758.1389, 170.6329
760.0673, 167.6647
761.9958, 165.1741
763.9243, 165.4074
765.8527, 166.8834
767.7812, 167.0279
769.7097, 166.4257
771.6381, 166.5766
773.5666, 167.5203
775.4951, 169.8198
777.4235, 173.2826
779.3520, 175.2059
781.2805, 175.3212
783.2089, 177.2542
785.1374, 181.9275
787.0659, 185.7338
788.9943, 187.4577
790.9228, 189.7814
792.8513, 194.1392
794.7797, 197.9017
796.7082, 200.4881
798.6367, 202.3109
800.5651, 203.4541
802.4936, 203.9946
804.4221, 204.1736
806.3505, 203.5600
808.2790, 201.4398
810.2075, 198.6050
812.1359, 195.5072
814.0644, 192.6733
815.9929, 191.1044
817.9213, 190.3339
819.8498, 189.4128
821.7783, 188.3237
823.7067, 186.9658
825.6352, 185.3734
827.5637, 184.1148
829.4921, 183.0796
831.4206, 183.6506
833.3491, 186.9116
835.2775, 188.6028
837.2060, 187.3579
839.1345, 186.8772
841.0629, 187.5510
842.9914, 188.4001
844.9199, 189.4432
846.8483, 190.4302
848.7768, 191.4289
850.7053, 192.1196
852.6337, 192.4695
854.5622, 192.2964
856.4907, 191.1673
858.4191, 189.9584
860.3476, 189.0251
862.2761, 188.4611
864.2045, 188.6864
866.1330, 188.9293
868.0615, 187.7170
869.9899, 186.8171
871.9184, 188.1776
873.8469, 191.5319
875.7753, 196.5960
877.7038, 203.2324
879.6323, 210.8174
881.5607, 219.7216
883.4892, 231.1188
885.4177, 245.0134
887.3461, 261.7493
889.2746, 281.1604
891.2031, 301.1479
893.1315, 321.6835
895.0600, 343.3461
896.9885, 366.1216
898.9169, 382.6420
900.8454, 392.5405
902.7739, 391.7338
904.7023, 379.4334
906.6308, 359.2721
908.5593, 330.4130
910.4877, 302.2612
912.4162, 276.2010
914.3447, 251.8852
916.2731, 229.1267
918.2016, 208.5534
920.1301, 189.8450
922.0585, 174.3460
923.9870, 163.7072
925.9155, 154.1583
927.8439, 144.1697
929.7724, 136.1509
931.7009, 131.7785
933.6293, 128.0812
935.5578, 123.7410
937.4863, 120.0934
939.4147, 118.5183
941.3432, 116.7818
943.2717, 113.2672
945.2001, 109.7303
947.1286, 107.1644
949.0571, 105.1414
950.9855, 103.8924
952.9140, 102.4242
954.8425, 99.65188
956.7709, 96.59873
958.6994, 94.09560
960.6279, 91.83792
962.5563, 89.42027
964.4848, 87.19838
966.4133, 85.61866
968.3417, 84.37979
970.2702, 83.06863
972.1987, 81.96484
974.1271, 81.85288
976.0556, 81.83318
977.9841, 80.38500
979.9125, 78.30020
981.8410, 76.70442
983.7695, 75.53020
985.6979, 74.63053
987.6264, 74.07423
989.5549, 74.19028
991.4833, 74.65675
993.4118, 74.91483
995.3403, 74.84072
997.2687, 73.71413
999.1972, 72.16662
1001.126, 72.22237
1003.054, 73.24413
1004.983, 73.44815
1006.911, 72.91736
1008.840, 71.49625
1010.768, 69.67828
1012.696, 69.47814
1014.625, 70.31808
1016.553, 69.94894
1018.482, 68.78147
1020.410, 68.55862
1022.339, 68.89900
1024.267, 68.05708
1026.196, 66.51398
1028.124, 66.44448
1030.053, 67.30059
1031.981, 66.69680
1033.910, 65.17335
1035.838, 64.69277
1037.767, 65.11210
1039.695, 66.18646
1041.624, 67.63471
1043.552, 68.75014
1045.480, 69.30091
1047.409, 68.04050
1049.337, 65.71186
1051.266, 64.67188
1053.194, 64.50147
1055.123, 63.81063
1057.051, 62.98409
1058.980, 63.41210
1060.908, 64.46066
1062.837, 64.43528
1064.765, 63.69783
1066.694, 63.00615
1068.622, 62.42294
1070.550, 62.35885
1072.479, 62.33262
1074.407, 60.90770
1076.336, 58.99126
1078.264, 58.30421
1080.193, 58.56843
1082.121, 59.83767
1084.050, 61.22396
1085.978, 60.92245
1087.907, 59.89437
1089.835, 59.82506
1091.764, 59.94146
1093.692, 58.74775
1095.620, 57.34334
1097.549, 57.55990
1099.477, 58.09523
1101.406, 57.14342
1103.334, 55.88001
1105.263, 55.19390
1107.191, 55.28554
1109.120, 56.99598
1111.048, 58.82611
1112.977, 59.49502
1114.905, 59.70906
1116.834, 60.10552
1118.762, 60.12459
1120.691, 58.87880
1122.619, 57.86303
1124.547, 58.60730
1126.476, 58.84715
1128.404, 56.47902
1130.333, 54.82122
1132.261, 56.14989
1134.190, 57.19295
1136.118, 56.24968
1138.047, 55.48342
1139.975, 55.73690
1141.904, 56.19569
1143.832, 56.81713
1145.761, 56.99515
1147.689, 56.43394
1149.618, 55.85693
1151.546, 55.44942
1153.474, 54.90828
1155.403, 54.10175
1157.331, 53.59147
1159.260, 53.49568
1161.188, 53.49017
1163.117, 53.54181
1165.045, 53.64902
1166.974, 53.81176
1168.902, 53.38373
1170.831, 52.39248
1172.759, 52.52954
1174.688, 53.64817
1176.616, 53.55971
1178.545, 52.55037
1180.473, 52.80722
1182.401, 53.77943
1184.330, 53.08640
1186.258, 51.49841
1188.187, 50.89248
1190.115, 51.02559
1192.044, 51.80651
1193.972, 52.61710
1195.901, 52.35980
1197.829, 51.85275
1199.758, 52.16552
1201.686, 52.52373
1203.615, 51.94098
1205.543, 51.49000
1207.472, 52.39478
1209.400, 53.03913
1211.328, 52.38936
1213.257, 51.42243
1215.185, 49.97663
1217.114, 49.48756
1219.042, 51.07637
1220.971, 52.15968
1222.899, 51.89423
1224.828, 51.72447
1226.756, 51.98146
1228.685, 51.96944
1230.613, 51.57795
1232.542, 51.06694
1234.470, 50.37337
1236.399, 50.20232
1238.327, 50.55030
1240.255, 50.68871
1242.184, 50.67892
1244.112, 51.10096
1246.041, 51.66819
1247.969, 51.40412
1249.898, 50.59809
1251.826, 49.31533
1253.755, 48.39447
1255.683, 49.58791
1257.612, 51.04271
1259.540, 50.83889
1261.469, 50.29384
1263.397, 50.22764
1265.326, 50.21844
1267.254, 50.10817
1269.182, 49.93978
1271.111, 49.55200
1273.039, 49.64493
1274.968, 50.59715
1276.896, 50.97886
1278.825, 50.49275
1280.753, 50.20949
1282.682, 50.23568
1284.610, 50.76171
1286.539, 51.61300
1288.467, 51.25922
1290.396, 50.06248
1292.324, 49.44746
1294.253, 49.26195
1296.181, 49.15208
1298.109, 49.16609
1300.038, 49.72829
1301.966, 49.99693
1303.895, 48.45898
1305.823, 47.33321
1307.752, 48.84415
1309.680, 49.92876
1311.609, 48.47057
1313.537, 47.77674
1315.466, 49.65367
1317.394, 50.41540
1319.323, 49.30073
1321.251, 47.89085
1323.180, 45.88521
1325.108, 45.62269
1327.036, 47.02691
1328.965, 48.39034
1330.893, 49.55306
1332.822, 49.69392
1334.750, 49.33857
1336.679, 49.60786
1338.607, 49.79856
1340.536, 48.72766
1342.464, 47.87243
1344.393, 48.18991
1346.321, 48.95605
1348.250, 50.21893
1350.178, 50.75452
1352.107, 50.01216
1354.035, 49.58497
1355.964, 49.88084
1357.892, 48.85290
1359.820, 46.32896
1361.749, 46.05223
1363.677, 47.53508
1365.606, 48.26801
1367.534, 48.35218
1369.463, 47.73872
1371.391, 46.93932
1373.320, 46.43821
1375.248, 46.29604
1377.177, 46.47050
1379.105, 47.21289
1381.034, 49.34827
1382.962, 50.26887
1384.891, 49.25169
1386.819, 47.53968
1388.747, 45.22554
1390.676, 45.28711
1392.604, 47.44325
1394.533, 47.92447
1396.461, 47.19266
1398.390, 46.72497
1400.318, 46.63631
1402.247, 47.43169
1404.175, 48.22764
1406.104, 48.03032
1408.032, 47.85963
1409.961, 48.67431
1411.889, 48.84127
1413.818, 47.49503
1415.746, 46.31325
1417.674, 45.17981
1419.603, 45.93485
1421.531, 48.37844
1423.460, 48.80696
1425.388, 47.74551
1427.317, 46.23066
1429.245, 45.10616
1431.174, 45.58102
1433.102, 46.68669
1435.031, 48.41829
1436.959, 49.19849
1438.888, 47.92588
1440.816, 46.74851
1442.745, 46.21017
1444.673, 45.28521
1446.601, 43.83424
1448.530, 43.95328
1450.458, 45.10945
1452.387, 44.42922
1454.315, 43.20296
1456.244, 43.91832
1458.172, 44.96033
1460.101, 44.88966
1462.029, 44.96210
1463.958, 45.88442
1465.886, 46.31379
1467.815, 45.91309
1469.743, 45.08834
1471.672, 43.91092
1473.600, 43.45873
1475.528, 43.64637
1477.457, 44.35449
1479.385, 45.17339
1481.314, 45.66976
1483.242, 45.65263
1485.171, 44.65971
1487.099, 43.61332
1489.028, 42.55107
1490.956, 42.53655
1492.885, 43.85659
1494.813, 43.57692
1496.742, 41.90626
1498.670, 41.73908
1500.599, 42.62252
1502.527, 43.98624
1504.455, 44.89009
1506.384, 43.65836
1508.312, 42.69289
1510.241, 43.56512
1512.169, 44.42971
1514.098, 44.91304
1516.026, 45.78823
1517.955, 47.00683
1519.883, 45.27659
1521.812, 42.07232
1523.740, 42.32102
1525.669, 43.52102
1527.597, 42.79161
1529.526, 41.89598
1531.454, 41.54433
1533.382, 41.94934
1535.311, 44.01803
1537.239, 44.39263
1539.168, 42.88855
1541.096, 42.04504
1543.025, 41.79538
1544.953, 42.38386
1546.882, 42.86310
1548.810, 41.82850
1550.739, 40.97407
1552.667, 41.17742
1554.596, 41.62470
1556.524, 42.23235
1558.453, 42.23715
1560.381, 41.65807
1562.309, 41.59622
1564.238, 41.91814
1566.166, 42.82040
1568.095, 43.24702
1570.023, 41.36320
1571.952, 40.36637
1573.880, 41.73304
1575.809, 41.87234
1577.737, 40.18703
1579.666, 39.62431
1581.594, 40.13287
1583.523, 41.20391
1585.451, 42.05909
1587.380, 41.10473
1589.308, 40.18656
1591.236, 40.70713
1593.165, 40.97380
1595.093, 40.68882
1597.022, 40.06416
1598.950, 39.29612
1600.879, 39.75927
1602.807, 40.74802
1604.736, 41.22435
1606.664, 41.13691
1608.593, 39.79973
1610.521, 39.17248
1612.450, 40.27367
1614.378, 40.56830
1616.307, 39.95874
1618.235, 39.28185
1620.163, 38.73431
1622.092, 38.70579
1624.020, 38.97307
1625.949, 39.85475
1627.877, 40.01977
1629.806, 37.98110
1631.734, 37.90324
1633.663, 40.18862
1635.591, 38.39271
1637.520, 34.88531
1639.448, 36.28676
1641.377, 39.11471
1643.305, 41.53171
1645.234, 42.17517
1647.162, 39.82803
1649.090, 38.80602
1651.019, 39.47016
1652.947, 39.80568
1654.876, 39.91213
1656.804, 40.10825
1658.733, 40.04320
1660.661, 39.37516
1662.590, 38.64669
1664.518, 37.90463
1666.447, 38.30447
1668.375, 39.70102
1670.304, 39.73333
1672.232, 39.12579
1674.161, 38.63447
1676.089, 38.93801
1678.017, 41.24574
1679.946, 41.35111
1681.874, 38.42160
1683.803, 37.93232
1685.731, 39.32573
1687.660, 39.02639
1689.588, 38.24685
1691.517, 38.15135
1693.445, 38.54735
1695.374, 39.63561
1697.302, 39.94655
1699.231, 39.45559
1701.159, 39.76038
1703.088, 40.20197
1705.016, 39.25504
1706.944, 38.10719
1708.873, 37.58906
1710.801, 37.09885
1712.730, 36.44682
1714.658, 36.55820
1716.587, 37.23728
1718.515, 37.71893
1720.444, 38.05097
1722.372, 38.35967
1724.301, 38.39492
1726.229, 37.75039
1728.158, 37.76297
1730.086, 38.37683
1732.015, 37.44248
1733.943, 36.29254
1735.871, 37.55445
1737.800, 38.16504
1739.728, 35.94122
1741.657, 35.43536
1743.585, 37.46370
1745.514, 37.30742
1747.442, 36.14862
1749.371, 36.86200
1751.299, 37.60580
1753.228, 37.14061
1755.156, 37.27144
1757.085, 38.45396
1759.013, 37.93372
1760.942, 36.36822
1762.870, 35.37307
1764.798, 35.21468
1766.727, 36.49947
1768.655, 37.60597
1770.584, 38.22501
1772.512, 37.63727
1774.441, 36.33636
1776.369, 35.63148
1778.298, 35.66137
1780.226, 37.54779
1782.155, 37.78450
1784.083, 35.51556
1786.012, 35.70245
1787.940, 37.50676
1789.869, 37.10486
1791.797, 36.00654
1793.725, 34.95607
1795.654, 35.29286
1797.582, 37.61106
1799.511, 36.45377
1801.439, 33.50470
1803.368, 34.82319
1805.296, 37.17761
1807.225, 38.81546
1809.153, 38.45183
1811.082, 35.31958
1813.010, 34.78255
1814.939, 35.87535
1816.867, 35.67105
1818.796, 35.38840
1820.724, 35.84835
1822.652, 36.50695
1824.581, 37.34468
1826.509, 37.35670
1828.438, 36.97533
1830.366, 37.22440
1832.295, 37.46399
1834.223, 37.57285
1836.152, 36.57146
1838.080, 34.42509
1840.009, 33.97672
1841.937, 34.42970
1843.866, 34.75267
1845.794, 35.05451
1847.723, 35.34383
1849.651, 35.88235
1851.579, 36.61943
1853.508, 37.41824
1855.436, 37.75799
1857.365, 36.75026
1859.293, 35.82108
1861.222, 35.25767
1863.150, 35.47253
1865.079, 35.89820
1867.007, 34.67243
1868.936, 33.63563
1870.864, 34.03898
1872.793, 34.86241
1874.721, 35.88638
1876.650, 36.54596
1878.578, 36.23849
1880.506, 32.34490
1882.435, 31.05197
1884.363, 35.42905
1886.292, 35.37969
1888.220, 32.28979
1890.149, 33.07107
1892.077, 34.64116
1894.006, 34.36003
1895.934, 34.71045
1897.863, 36.02062
1899.791, 35.17593
1901.720, 33.55510
1903.648, 33.22812
1905.577, 33.14256
1907.505, 32.73854
1909.433, 32.93804
1911.362, 33.63408
1913.290, 34.19321
1915.219, 35.23317
1917.147, 37.90049
1919.076, 38.47883
1921.004, 36.41968
1922.933, 34.89089
1924.861, 34.15820
1926.790, 35.07914
1928.718, 35.50037
1930.647, 34.67199
1932.575, 34.14140
1934.504, 34.00313
1936.432, 34.50130
1938.360, 35.08230
1940.289, 35.53849
1942.217, 35.78667
1944.146, 35.60900
1946.074, 33.03880
1948.003, 31.08149
1949.931, 33.75816
1951.860, 33.89351
1953.788, 30.80488
1955.717, 32.27077
1957.645, 34.92088
1959.574, 33.43271
1961.502, 31.60966
1963.431, 30.40128
1965.359, 30.70346
1967.287, 31.87436
1969.216, 32.50699
1971.144, 33.23148
1973.073, 34.78437
1975.001, 33.95190
1976.930, 31.83845
1978.858, 33.26162
1980.787, 34.85586
1982.715, 33.79195
1984.644, 33.78029
1986.572, 34.76440
1988.501, 33.89032
1990.429, 32.49339
1992.358, 31.39447
1994.286, 31.07239
1996.214, 31.55284
1998.143, 32.10656
2000.071, 32.12728
2002.000, 30.29438
2003.928, 30.33669
2005.857, 33.46047
2007.785, 32.55372
2009.714, 30.96314
2011.642, 34.47724
2013.571, 35.93044
2015.499, 33.05888
2017.428, 33.13148
2019.356, 34.27428
2021.285, 32.08023
2023.213, 31.25062
2025.141, 33.23951
2027.070, 31.64374
2028.998, 29.07102
2030.927, 32.53142
2032.855, 34.43066
2034.784, 32.27287
2036.712, 31.31225
2038.641, 31.38607
2040.569, 31.64721
2042.498, 31.80949
2044.426, 31.83094
2046.355, 30.53056
2048.283, 29.11961
2050.212, 30.79412
2052.140, 32.18483
2054.068, 31.96791
2055.997, 31.61976
2057.925, 31.28507
2059.854, 30.84150
2061.782, 31.02258
2063.711, 32.44022
2065.639, 32.20790
2067.568, 31.22181
2069.496, 31.62876
2071.425, 31.50624
2073.353, 29.55735
2075.281, 30.00916
2077.210, 31.36756
2079.138, 30.67572
2081.067, 30.67299
2082.995, 32.73647
2084.924, 31.63384
2086.852, 29.72514
2088.781, 30.63834
2090.709, 31.88242
2092.638, 32.79393
2094.566, 33.88823
2096.495, 33.48433
2098.423, 28.08620
2100.352, 26.00598
2102.280, 28.91226
2104.208, 30.63002
2106.137, 31.57622
2108.065, 32.09666
2109.994, 32.19517
2111.922, 32.00150
2113.851, 32.28521
2115.779, 33.11708
2117.708, 35.20246
2119.636, 33.47783
2121.565, 29.25684
2123.493, 29.36131
2125.422, 30.59285
2127.350, 31.42054
2129.279, 32.01268
2131.207, 32.20137
2133.135, 31.50577
2135.064, 30.53258
2136.992, 29.41788
2138.921, 29.88332
2140.849, 30.86929
2142.778, 30.32631
2144.706, 31.27218
2146.635, 34.03021
2148.563, 31.02500
2150.492, 27.65004
2152.420, 29.53603
2154.349, 31.40949
2156.277, 32.55572
2158.206, 31.69576
2160.134, 30.53373
2162.063, 29.54760
2163.991, 31.76983
2165.919, 35.12267
2167.848, 34.32896
2169.776, 32.38600
2171.705, 30.06484
2173.633, 30.29312
2175.562, 31.24831
2177.490, 30.59526
2179.419, 30.32690
2181.347, 30.98526
2183.276, 33.34329
2185.204, 37.57076
2187.133, 44.78279
2189.061, 41.80483
2190.990, 32.80007
2192.918, 29.19829
2194.846, 29.86485
2196.775, 34.04473
2198.703, 30.89888
2200.632, 26.44715
2202.560, 29.50436
2204.489, 30.36667
2206.417, 28.71426
2208.346, 28.57008
2210.274, 28.98115
2212.203, 29.41500
2214.131, 30.49661
2216.060, 31.19067
2217.988, 28.74931
2219.917, 27.79273
2221.845, 29.14301
2223.773, 32.60375
2225.702, 34.26720
2227.630, 28.48090
2229.559, 28.11287
2231.487, 31.49871
2233.416, 32.51986
2235.344, 31.61019
2237.273, 28.42071
2239.201, 30.02629
2241.130, 32.51163
2243.058, 32.09622
2244.987, 31.51199
2246.915, 31.24305
2248.844, 32.10490
2250.772, 32.29670
2252.700, 31.06144
2254.629, 31.28966
2256.557, 31.79963
2258.486, 31.23748
2260.414, 29.76854
2262.343, 28.14108
2264.271, 29.65040
2266.200, 31.13776
2268.128, 31.39520
2270.057, 31.50428
2271.985, 32.00380
2273.914, 34.72265
2275.842, 32.79657
2277.771, 27.79052
2279.699, 28.50398
2281.627, 30.44814
2283.556, 31.92399
2285.484, 30.25182
2287.413, 27.91115
2289.341, 27.02403
2291.270, 29.20960
2293.198, 32.45451
2295.127, 30.50744
2297.055, 28.02279
2298.984, 26.47636
2300.912, 29.02626
2302.841, 31.73033
2304.769, 30.19678
2306.698, 31.84528
2308.626, 34.68803
2310.554, 33.02481
2312.483, 33.36966
2314.411, 36.64184
2316.340, 33.56104
2318.268, 30.18103
2320.197, 29.88940
2322.125, 31.01624
2324.054, 32.45449
2325.982, 33.15998
2327.911, 32.42151
2329.839, 30.63783
2331.768, 29.35455
2333.696, 28.80239
2335.625, 29.07431
2337.553, 30.16381
2339.481, 31.58048
2341.410, 33.12941
2343.338, 33.06749
2345.267, 32.11372
2347.195, 31.80180
2349.124, 31.22240
2351.052, 30.11516
2352.981, 27.31839
2354.909, 26.23187
2356.838, 27.98558
2358.766, 28.50999
2360.695, 29.34764
2362.623, 33.12113
2364.552, 33.55526
2366.480, 31.92496
2368.408, 30.72582
2370.337, 30.77038
2372.265, 31.39583
2374.194, 27.99034
2376.122, 26.03907
2378.051, 27.93359
2379.979, 29.40386
2381.908, 30.47560
2383.836, 31.10969
2385.765, 31.95801
2387.693, 32.04144
2389.622, 29.28915
2391.550, 28.79415
2393.479, 30.53495
2395.407, 33.03109
2397.335, 34.14833
2399.264, 33.26824
2401.192, 31.27244
2403.121, 28.03447
2405.049, 23.51999
2406.978, 27.41868
2408.906, 32.52641
2410.835, 32.09691
2412.763, 30.41932
2414.692, 28.73884
2416.620, 27.92392
2418.549, 29.82441
2420.477, 32.81120
2422.406, 29.84063
2424.334, 28.17151
2426.262, 29.25906
2428.191, 29.75188
2430.119, 29.74517
2432.048, 29.32236
2433.976, 30.76029
2435.905, 31.94619
2437.833, 30.74228
2439.762, 29.48402
2441.690, 28.81214
2443.619, 30.05558
2445.547, 29.27121
2447.476, 28.05349
2449.404, 31.37681
2451.333, 33.68142
2453.261, 33.76113
2455.189, 28.79298
2457.118, 26.89338
2459.046, 30.12266
2460.975, 30.22265
2462.903, 31.05657
2464.832, 34.61333
2466.760, 34.25635
2468.689, 32.44001
2470.617, 30.74095
2472.546, 33.31133
2474.474, 34.68734
2476.403, 28.36415
2478.331, 32.45566
2480.260, 38.82104
2482.188, 31.41842
2484.116, 27.35339
2486.045, 27.26574
2487.973, 27.34167
2489.902, 30.97040
2491.830, 36.16106
2493.759, 34.59532
2495.687, 31.02783
2497.616, 27.54440
2499.544, 27.58614
2501.473, 28.80321
2503.401, 30.22694
2505.330, 31.37422
2507.258, 31.87564
2509.187, 31.57800
2511.115, 27.91457
2513.043, 26.68856
2514.972, 33.14149
2516.900, 33.49676
2518.829, 31.30602
2520.757, 29.27209
2522.686, 26.15741
2524.614, 24.73286
2526.543, 28.04094
2528.471, 30.61339
2530.400, 32.04631
2532.328, 32.38441
2534.257, 31.82062
2536.185, 31.68079
2538.114, 34.22514
2540.042, 34.70095
2541.970, 32.91181
2543.899, 27.94365
2545.827, 29.41964
2547.756, 34.61712
2549.684, 34.92557
2551.613, 31.60565
2553.541, 27.47675
2555.470, 29.77205
2557.398, 33.63245
2559.327, 36.88160
2561.255, 35.40871
2563.184, 34.29009
2565.112, 34.80515
2567.041, 38.14843
2568.969, 40.36350
2570.897, 40.00094
2572.826, 33.45969
2574.754, 30.20874
2576.683, 31.39465
2578.611, 33.96239
2580.540, 34.12212
2582.468, 31.97460
2584.397, 33.35843
2586.325, 31.95294
2588.254, 28.04041
2590.182, 37.10361
2592.111, 38.04818
2594.039, 28.08419
2595.968, 26.38482
2597.896, 29.50148
2599.824, 35.08287
2601.753, 34.59059
2603.681, 29.97310
2605.610, 23.80565
2607.538, 28.34801
2609.467, 33.48201
2611.395, 35.51169
2613.324, 28.25487
2615.252, 26.82900
2617.181, 32.04937
2619.109, 29.83556
2621.038, 26.46825
2622.966, 24.53167
2624.895, 26.96751
2626.823, 32.06105
2628.751, 37.15592
2630.680, 35.22071
2632.608, 33.93521
2634.537, 33.72558
2636.465, 30.44283
2638.394, 30.66488
2640.322, 33.49433
2642.251, 34.65198
2644.179, 34.79225
2646.108, 34.23992
2648.036, 33.15477
2649.965, 33.40381
2651.893, 32.39193
2653.822, 23.69425
2655.750, 23.92912
2657.678, 29.53561
2659.607, 34.25423
2661.535, 34.59542
2663.464, 33.45601
2665.392, 33.88728
2667.321, 39.05418
2669.249, 41.47527
2671.178, 34.98927
2673.106, 31.06964
2675.035, 29.05173
2676.963, 27.88610
2678.892, 30.69346
2680.820, 32.12303
2682.749, 30.05458
2684.677, 32.64727
2686.605, 33.20258
2688.534, 30.05036
2690.462, 30.74077
2692.391, 31.10202
2694.319, 30.68059
2696.248, 34.28780
2698.176, 36.39163
2700.105, 36.04072
2702.033, 33.85382
2703.962, 32.59680
2705.890, 33.16932
2707.819, 38.16599
2709.747, 35.18283
2711.676, 30.41636
2713.604, 36.38024
2715.532, 28.84985
2717.461, 23.75553
2719.389, 40.44488
2721.318, 39.43420
2723.246, 32.89961
2725.175, 29.98306
2727.103, 33.44113
2729.032, 33.46490
2730.960, 26.74271
2732.889, 27.71915
2734.817, 29.28169
2736.746, 29.87628
2738.674, 33.59974
2740.603, 32.64358
2742.531, 28.76119
2744.459, 29.71757
2746.388, 27.42764
2748.316, 25.88480
2750.245, 32.43061
2752.173, 32.30132
2754.102, 28.33064
2756.030, 23.38364
2757.959, 20.33040
2759.887, 20.44409
2761.816, 23.92726
2763.744, 30.08612
2765.673, 32.85970
2767.601, 31.46514
2769.530, 26.97141
2771.458, 26.80189
2773.386, 30.29745
2775.315, 34.96409
2777.243, 36.48420
2779.172, 35.82463
2781.100, 34.49545
2783.029, 28.85493
2784.957, 26.49958
2786.886, 32.01295
2788.814, 40.26197
2790.743, 39.32137
2792.671, 29.76384
2794.600, 33.86895
2796.528, 32.56130
2798.457, 27.52214
2800.385, 27.80012
2802.313, 28.33318
2804.242, 25.29451
2806.170, 16.33258
2808.099, 26.83994
2810.027, 36.86615
2811.956, 37.68195
2813.884, 36.54286
2815.813, 36.06863
2817.741, 36.29967
2819.670, 35.80237
2821.598, 33.74023
2823.527, 32.99635
2825.455, 39.58186
2827.384, 34.49617
2829.312, 31.30472
2831.240, 38.17383
2833.169, 34.38306
2835.097, 31.31315
2837.026, 31.81429
2838.954, 33.74312
2840.883, 37.83426
2842.811, 41.92699
2844.740, 43.71713
2846.668, 39.04685
2848.597, 34.35139
2850.525, 33.99928
2852.454, 43.27848
2854.382, 41.19993
2856.311, 29.88304
2858.239, 35.86771
2860.167, 31.44468
2862.096, 29.96466
2864.024, 49.35253
2865.953, 41.43129
2867.881, 37.48278
2869.810, 48.29645
2871.738, 43.00428
2873.667, 32.15490
2875.595, 22.98433
2877.524, 24.97198
2879.452, 27.27891
2881.381, 30.12357
2883.309, 34.34036
2885.238, 32.23066
2887.166, 29.21169
2889.094, 29.71340
2891.023, 43.36260
2892.951, 60.25392
2894.880, 66.93713
2896.808, 46.36823
2898.737, 47.91296
2900.665, 47.16684
2902.594, 34.83902
2904.522, 38.74323
2906.451, 36.56202
2908.379, 32.44240
2910.308, 39.50121
2912.236, 35.24827
2914.165, 32.27165
2916.093, 37.25100
2918.021, 33.18525
2919.950, 28.84751
2921.878, 30.44030
2923.807, 48.71287
2925.735, 38.37992
2927.664, 29.18237
2929.592, 38.85472
2931.521, 39.92885
2933.449, 36.07513
2935.378, 31.75610
2937.306, 34.20766
2939.235, 31.48901
2941.163, 30.33094
2943.092, 35.53590
2945.020, 39.08766
2946.948, 38.92495
2948.877, 37.20995
2950.805, 39.08098
2952.734, 39.50791
2954.662, 39.98996
2956.591, 41.53666
2958.519, 38.30085
2960.448, 33.63155
2962.376, 29.52539
2964.305, 27.51606
2966.233, 36.75938
2968.162, 40.33227
2970.090, 32.36030
2972.019, 46.96967
2973.947, 43.14967
2975.875, 29.43798
2977.804, 26.98062
2979.732, 32.48195
2981.661, 38.56129
2983.589, 40.84703
2985.518, 35.33000
2987.446, 22.03138
2989.375, 18.93595
2991.303, 40.75677
2993.232, 31.50086
2995.160, 25.78499
2997.089, 29.96527
2999.017, 31.78246
3000.946, 42.64130
3002.874, 50.33268
3004.802, 46.54800
3006.731, 29.66494
3008.659, 25.94453
3010.588, 31.90722
3012.516, 36.82299
3014.445, 43.41022
3016.373, 42.03500
3018.302, 33.43567
3020.230, 32.40791
3022.159, 20.83599
3024.087, 11.93619
3026.016, 15.50249
3027.944, 24.16124
3029.873, 24.67187
3031.801, 22.73985
3033.729, 29.66182
3035.658, 31.81709
3037.586, 34.54250
3039.515, 36.76101
3041.443, 25.61315
3043.372, 25.73733
3045.300, 27.82525
3047.229, 24.65415
3049.157, 15.32801
3051.086, 21.53174
3053.014, 31.37986
3054.943, 25.74687
3056.871, 30.48610
3058.800, 36.79302
3060.728, 38.46096
3062.656, 27.49289
3064.585, 22.01279
3066.513, 24.82943
3068.442, 35.05487
3070.370, 48.69733
3072.299, 44.30188
3074.227, 35.77063
3076.156, 34.95300
3078.084, 36.97975
3080.013, 39.70427
3081.941, 39.59969
3083.870, 34.13996
3085.798, 30.65150
3087.727, 33.44676
3089.655, 37.71169
3091.583, 33.84452
3093.512, 46.37120
3095.440, 49.19163
3097.369, 37.44704
3099.297, 21.07336
3101.226, 32.63084
3103.154, 39.08974
3105.083, 29.05734
3107.011, 23.61841
3108.940, 41.18355
3110.868, 54.40745
3112.797, 45.59209
3114.725, 35.80008
3116.654, 37.89306
3118.582, 43.43171
3120.510, 43.51092
3122.439, 50.68763
3124.367, 41.29659
3126.296, 26.84785
3128.224, 24.21985
3130.153, 51.22575
3132.081, 52.32644
3134.010, 39.73230
3135.938, 46.32608
3137.867, 51.22172
3139.795, 55.78338
3141.724, 48.17339
3143.652, 10.72610
3145.581, 5.058927
3147.509, 23.23742
3149.438, 49.13073
3151.366, 64.66270
3153.294, 52.46867
3155.223, 48.07772
3157.151, 46.13036
3159.080, 8.4123313E-02
3161.008, 18.70193
3162.937, 41.72660
3164.865, 46.26860
3166.794, 35.24283
3168.722, 30.52453
3170.651, 42.06187
3172.579, 55.45897
3174.508, 32.47595
3176.436, 34.19780
3178.365, 28.53726
3180.293, 15.85022
3182.221, 28.18859
3184.150, 38.14209
3186.078, 34.64655
3188.007, 33.15652
3189.935, 69.06364
3191.864, 59.41062
3193.792, 46.08616
3195.721, 42.71305
3197.649, 40.29695
3199.578, 51.09826
3201.506, 26.99349
3203.435, 2.445111
3205.363, 60.00764
3207.292, 24.93901
3209.220, 23.03802
3211.148, 48.54837
3213.077, 40.24235
3215.005, 18.51188
3216.934, 12.93897
3218.862, 14.47530
3220.791, 4.473620
3222.719, 48.83174
3224.648, 42.64458
3226.576, 17.90497
3228.505, 22.34148
3230.433, 58.37418
3232.362, 61.53789
3234.290, 41.95814
3236.219, 24.42949
3238.147, 71.20261
3240.075, 45.12194
3242.004, 22.76173
3243.932, 33.64147
3245.861, 2.891634
3247.789, -3.366747
3249.718, 10.48694
3251.646, 23.09155
3253.575, -3.877284
3255.503, 28.62429
3257.432, 60.68242
3259.360, 59.70716
3261.289, 9.136090
3263.217, 65.34898
3265.146, 73.95383
3267.074, 36.69090
3269.002, -3.376538
3270.931, 34.02698
3272.859, 17.54609
3274.788, 7.983235
3276.716, 42.89322
3278.645, 60.03941
3280.573, 33.15726
3282.502, 37.20162
3284.430, 67.48467
3286.359, 50.97070
3288.287, 43.33623
3290.216, 58.65088
3292.144, 55.57178
3294.073, 3.049817
3296.001, 37.04358
3297.929, 73.73916
3299.858, 73.27212
3301.786, 45.58918
3303.715, 85.53208
3305.643, 65.60771
3307.572, 44.90703
3309.500, 51.78457
3311.429, 90.98573
3313.357, 51.81655
3315.286, 39.63566
3317.214, 40.20253
3319.143, 17.15668
3321.071, 11.98159
3323.000, 48.90078
3324.928, 67.41409
3326.856, 45.99974
3328.785, 22.08417
3330.713, -9.995387
3332.642, -28.97907
3334.570, -24.70083
3336.499, 0.4194948
3338.427, -3.824787
3340.356, 57.16817
3342.284, 82.02402
3344.213, 45.69191
3346.141, 66.84074
3348.070, 62.48546
3349.998, 53.51714
3351.927, 30.39513
3353.855, -16.70756
3355.783, 29.22980
3357.712, 44.58015
3359.640, 46.29458
3361.569, 49.99387
3363.497, 21.75082
3365.426, 104.9361
3367.354, 116.2189
3369.283, 71.56771
3371.211, 41.51863
3373.140, 23.65575
3375.068, 55.00678
3376.997, 73.36145
3378.925, 81.02233
3380.854, 133.3140
3382.782, 44.43196
3384.710, 26.16987
3386.639, 45.96312
3388.567, 48.66603
3390.496, 73.24501
3392.424, 37.69874
3394.353, 46.58387
3396.281, 67.47502
3398.210, 27.92431
3400.138, -4.534873
3402.067, 24.42565
3403.995, 65.42843
3405.924, 74.44538
3407.852, 15.46829
3409.781, 70.35639
3411.709, 66.79576
3413.637, 47.20044
3415.566, 49.90664
3417.494, 16.39398
3419.423, 70.78348
3421.351, 89.44740
3423.280, 60.14609
3425.208, 27.77291
3427.137, 86.47389
3429.065, 113.2292
3430.994, 107.4706
3432.922, 101.7305
3434.851, 115.5225
3436.779, 82.29128
3438.708, 17.84978
3440.636, 41.29726
3442.564, 83.25095
3444.493, -7.4198149E-02
3446.421, 26.75801
3448.350, 85.05016
3450.278, 86.07070
3452.207, 44.26546
3454.135, 45.06038
3456.064, 61.55556
##END=



