##NAMES=Walpurgite
##RRUFFID=R050573
##IDEAL CHEMISTRY=Bi_4_O_4_(UO_2_)(AsO_4_)_2_·2H_2_O
##LOCALITY=Joachimstal, Bohemia, Czech Republic
##OWNER=RRUFF
##SOURCE=University of Arizona Mineral Museum
##DESCRIPTION=Yellow thin tabular crystals associated with metazeunerite, R060301
##STATUS=The identification of this mineral has been confirmed by single-crystal X-ray diffraction
##URL=https://www.rruff.net/odr/rruff_sample/R050573
##DIFFRACTION SAMPLE DESCRIPTION=Single crystal, powder profile is calculated
##CELL PARAMETERS=a: 7.118 b: 10.409 c: 5.482 alpha: 101.72 beta: 110.88 gamma: 88.18 volume: 371.2 crystal system: triclinic
##FILETYPE=Raman Processed
##RAMAN WAVELENGTH=780

166.3413, 399.2118
168.2697, 375.2430
170.1982, 357.4105
172.1267, 345.3713
174.0551, 336.4680
175.9836, 331.2410
177.9121, 327.5699
179.8405, 324.6393
181.7690, 322.9099
183.6975, 323.3939
185.6259, 325.5266
187.5544, 327.2117
189.4829, 328.7426
191.4113, 328.4090
193.3398, 325.2366
195.2683, 320.9197
197.1967, 316.1517
199.1252, 310.9062
201.0537, 305.1563
202.9821, 298.8338
204.9106, 292.5607
206.8391, 286.6189
208.7675, 280.5238
210.6960, 273.8755
212.6245, 267.1059
214.5529, 260.4590
216.4814, 254.0139
218.4099, 248.9778
220.3383, 246.1682
222.2668, 243.8272
224.1953, 241.7494
226.1237, 239.9558
228.0522, 238.6463
229.9807, 237.6453
231.9091, 236.3873
233.8376, 234.2908
235.7661, 233.6491
237.6945, 235.5804
239.6230, 237.7027
241.5515, 239.0293
243.4799, 239.9999
245.4084, 241.2564
247.3369, 242.8495
249.2654, 243.8162
251.1938, 243.2055
253.1223, 243.3105
255.0508, 244.2771
256.9792, 246.2136
258.9077, 249.5426
260.8362, 253.8411
262.7646, 257.9663
264.6931, 261.9513
266.6216, 265.6225
268.5500, 269.6844
270.4785, 272.5044
272.4070, 272.8541
274.3354, 272.0720
276.2639, 271.2632
278.1924, 270.4700
280.1208, 269.9669
282.0493, 269.9940
283.9778, 269.6378
285.9062, 268.5055
287.8347, 267.4500
289.7632, 267.2306
291.6916, 267.1519
293.6201, 266.4240
295.5486, 265.0461
297.4770, 262.3829
299.4055, 258.1667
301.3340, 253.6773
303.2624, 249.1586
305.1909, 244.4965
307.1194, 239.0334
309.0478, 233.6520
310.9763, 230.2527
312.9048, 229.0823
314.8332, 227.5789
316.7617, 225.1805
318.6902, 224.0706
320.6186, 225.8314
322.5471, 228.2206
324.4756, 230.3593
326.4040, 232.1384
328.3325, 233.0420
330.2609, 233.0666
332.1894, 233.3228
334.1179, 233.8963
336.0463, 234.7263
337.9748, 236.6739
339.9033, 237.9115
341.8317, 236.3644
343.7602, 233.6686
345.6887, 233.7025
347.6171, 236.1740
349.5456, 238.7474
351.4741, 241.4122
353.4025, 243.5845
355.3310, 244.7097
357.2595, 245.7387
359.1879, 247.6992
361.1164, 249.7012
363.0449, 250.0693
364.9733, 248.9100
366.9018, 246.5676
368.8303, 242.7316
370.7587, 238.7860
372.6872, 234.9883
374.6157, 231.1592
376.5441, 227.1209
378.4726, 223.1175
380.4011, 219.2549
382.3295, 215.6644
384.2580, 213.0815
386.1865, 211.8338
388.1149, 210.4891
390.0434, 208.3376
391.9719, 206.7131
393.9003, 206.2519
395.8288, 206.3156
397.7573, 206.4420
399.6857, 206.5773
401.6142, 206.5990
403.5427, 206.4888
405.4711, 206.3316
407.3996, 206.2421
409.3281, 205.9468
411.2565, 204.8757
413.1850, 204.1500
415.1135, 204.7493
417.0419, 205.8845
418.9704, 206.6498
420.8989, 207.0773
422.8273, 207.4844
424.7558, 208.1541
426.6843, 208.2298
428.6127, 207.1156
430.5412, 206.2366
432.4697, 206.7044
434.3981, 206.9678
436.3266, 205.4859
438.2551, 203.0306
440.1835, 201.5028
442.1120, 201.0635
444.0405, 200.5092
445.9689, 199.4925
447.8974, 199.1095
449.8259, 199.7313
451.7543, 200.6313
453.6828, 201.1656
455.6113, 202.1279
457.5397, 204.5294
459.4682, 207.8844
461.3967, 210.4489
463.3251, 211.9520
465.2536, 214.4661
467.1821, 217.9539
469.1105, 222.3494
471.0390, 227.7862
472.9675, 233.9781
474.8959, 240.8173
476.8244, 248.2452
478.7529, 256.3269
480.6813, 264.9677
482.6098, 273.9967
484.5383, 283.4808
486.4667, 292.2063
488.3952, 300.3395
490.3237, 306.7641
492.2521, 309.9439
494.1806, 313.4135
496.1091, 318.4776
498.0375, 324.6559
499.9660, 332.4962
501.8945, 340.9622
503.8229, 347.6916
505.7514, 352.6236
507.6799, 354.4284
509.6083, 353.0768
511.5368, 348.4752
513.4653, 340.3857
515.3937, 329.1909
517.3222, 314.1264
519.2507, 297.3790
521.1791, 279.1618
523.1076, 260.8088
525.0361, 244.5872
526.9645, 230.4444
528.8930, 217.8844
530.8215, 206.8876
532.7499, 197.4543
534.6784, 189.6863
536.6069, 183.3598
538.5353, 178.7564
540.4638, 174.9874
542.3923, 171.7490
544.3207, 169.1333
546.2492, 167.5585
548.1777, 166.5274
550.1061, 165.0637
552.0346, 163.2849
553.9631, 161.8613
555.8915, 160.9402
557.8200, 159.7456
559.7485, 157.7928
561.6769, 156.1733
563.6054, 155.0233
565.5339, 154.2127
567.4623, 153.8855
569.3908, 153.6859
571.3193, 153.4664
573.2477, 153.0987
575.1762, 152.1319
577.1047, 150.6166
579.0331, 149.4281
580.9616, 148.5355
582.8901, 148.3125
584.8185, 149.3594
586.7470, 149.9967
588.6755, 150.0057
590.6039, 149.5956
592.5324, 148.3297
594.4609, 147.2050
596.3893, 147.2396
598.3178, 147.7714
600.2463, 147.7762
602.1747, 147.3875
604.1032, 147.3512
606.0317, 147.8049
607.9601, 147.3728
609.8886, 145.6149
611.8171, 144.5644
613.7455, 144.6290
615.6740, 144.8554
617.6025, 145.2366
619.5309, 145.3062
621.4594, 144.7801
623.3879, 143.7644
625.3163, 142.0502
627.2448, 140.1647
629.1733, 139.1448
631.1017, 138.8470
633.0302, 138.0704
634.9587, 136.6604
636.8871, 136.3081
638.8156, 137.3587
640.7441, 138.1685
642.6725, 138.5249
644.6010, 138.3867
646.5295, 137.1464
648.4579, 136.1821
650.3864, 136.5335
652.3149, 137.0895
654.2433, 136.7492
656.1718, 136.0477
658.1003, 135.9729
660.0287, 136.3667
661.9572, 136.3317
663.8857, 135.8908
665.8141, 135.7178
667.7426, 135.9200
669.6711, 135.5494
671.5995, 134.0919
673.5280, 133.2042
675.4565, 133.7405
677.3849, 134.2676
679.3134, 134.1800
681.2419, 134.1899
683.1703, 134.8750
685.0988, 135.7454
687.0273, 136.4200
688.9557, 136.7747
690.8842, 136.4203
692.8127, 135.6551
694.7411, 135.1931
696.6696, 135.0523
698.5980, 135.6037
700.5265, 137.1113
702.4550, 137.8304
704.3834, 136.8755
706.3119, 136.5546
708.2404, 137.6047
710.1688, 138.5963
712.0973, 139.6176
714.0258, 139.8786
715.9542, 137.6645
717.8827, 136.0072
719.8112, 138.2441
721.7396, 141.7026
723.6681, 143.1536
725.5966, 143.4644
727.5250, 144.3960
729.4535, 145.8273
731.3820, 146.7201
733.3104, 146.9264
735.2389, 147.9332
737.1674, 149.9526
739.0958, 152.2808
741.0243, 155.1236
742.9528, 157.7957
744.8812, 159.8830
746.8097, 162.4228
748.7382, 165.8185
750.6666, 169.5732
752.5951, 173.5877
754.5236, 177.6987
756.4520, 181.6045
758.3805, 185.7345
760.3090, 190.5512
762.2374, 195.9810
764.1659, 201.8670
766.0944, 207.8774
768.0228, 213.6961
769.9513, 219.2451
771.8798, 223.1591
773.8082, 225.2672
775.7367, 227.4048
777.6652, 229.4745
779.5936, 232.0988
781.5221, 235.3872
783.4506, 239.1772
785.3790, 244.1277
787.3075, 247.1561
789.2360, 247.3973
791.1644, 245.8127
793.0929, 242.4540
795.0214, 237.5808
796.9498, 230.4886
798.8783, 223.1700
800.8068, 215.9725
802.7352, 210.1057
804.6637, 206.7032
806.5922, 205.3273
808.5206, 205.8450
810.4491, 207.6910
812.3776, 209.8970
814.3060, 212.3035
816.2345, 214.3925
818.1630, 216.2056
820.0914, 217.6038
822.0199, 218.8335
823.9484, 222.8744
825.8768, 229.9690
827.8053, 236.8308
829.7338, 243.4868
831.6622, 247.6603
833.5907, 249.3680
835.5192, 247.3765
837.4476, 240.4334
839.3761, 231.6766
841.3046, 221.0545
843.2330, 209.9231
845.1615, 197.5566
847.0900, 186.3190
849.0184, 177.2216
850.9469, 169.6153
852.8754, 163.2717
854.8038, 157.9917
856.7323, 154.1683
858.6608, 150.8713
860.5892, 146.6203
862.5177, 142.6610
864.4462, 141.0115
866.3746, 140.5349
868.3031, 139.6515
870.2316, 138.4995
872.1600, 137.3256
874.0885, 136.2034
876.0170, 135.4077
877.9454, 134.8759
879.8739, 134.1218
881.8024, 133.1348
883.7308, 132.2036
885.6593, 131.3638
887.5878, 130.5244
889.5162, 129.5688
891.4447, 128.8070
893.3732, 128.7170
895.3016, 127.7228
897.2301, 125.2811
899.1586, 123.3376
901.0870, 122.1287
903.0155, 121.1520
904.9440, 120.4548
906.8724, 119.6812
908.8009, 118.7605
910.7294, 117.7193
912.6578, 116.3492
914.5863, 115.3663
916.5148, 115.1124
918.4432, 115.1090
920.3717, 115.3909
922.3002, 115.4766
924.2286, 115.0564
926.1571, 114.4923
928.0856, 113.6117
930.0140, 113.1162
931.9425, 114.0352
933.8710, 114.7485
935.7994, 113.6601
937.7279, 112.4113
939.6564, 112.3626
941.5848, 112.7016
943.5133, 112.9752
945.4418, 112.9979
947.3702, 112.2309
949.2987, 111.3201
951.2272, 111.3031
953.1556, 111.6602
955.0841, 111.4716
957.0126, 110.9746
958.9410, 110.7203
960.8695, 110.5793
962.7980, 110.1286
964.7264, 109.5151
966.6549, 109.1703
968.5834, 108.9925
970.5118, 108.7424
972.4403, 108.5113
974.3688, 108.3338
976.2972, 108.2317
978.2257, 108.6012
980.1542, 109.3578
982.0826, 109.8927
984.0111, 110.1635
985.9396, 110.3929
987.8680, 110.5601
989.7965, 110.4174
991.7250, 109.9790
993.6534, 109.2116
995.5819, 108.1613
997.5104, 107.5426
999.4388, 107.4044
1001.367, 107.4681
1003.296, 107.6902
1005.224, 108.1020
1007.153, 108.7263
1009.081, 108.9498
1011.010, 108.7804
1012.938, 108.1559
1014.867, 106.9565
1016.795, 106.2986
1018.724, 106.2955
1020.652, 106.3714
1022.580, 106.4599
1024.509, 106.3963
1026.437, 106.1984
1028.366, 106.2994
1030.294, 106.7913
1032.223, 106.8189
1034.151, 106.2517
1036.080, 105.7532
1038.008, 105.4895
1039.937, 104.7426
1041.865, 103.2696
1043.794, 102.7480
1045.722, 103.3037
1047.651, 103.8685
1049.579, 104.4726
1051.507, 104.6120
1053.436, 104.2744
1055.364, 103.9404
1057.293, 103.6064
1059.221, 102.7897
1061.150, 101.5377
1063.078, 101.3043
1065.007, 102.0115
1066.935, 103.0315
1068.864, 104.3375
1070.792, 103.9177
1072.721, 101.8882
1074.649, 101.2871
1076.578, 102.0050
1078.506, 101.9029
1080.434, 101.1219
1082.363, 101.0442
1084.291, 101.5458
1086.220, 101.8513
1088.148, 101.9199
1090.077, 101.5833
1092.005, 100.9486
1093.934, 100.4029
1095.862, 100.0052
1097.791, 99.90093
1099.719, 99.95184
1101.648, 99.72585
1103.576, 99.46866
1105.505, 100.2229
1107.433, 101.3872
1109.361, 101.2974
1111.290, 100.5117
1113.218, 100.0389
1115.147, 99.67191
1117.075, 99.15862
1119.004, 98.73596
1120.932, 98.67983
1122.861, 98.69670
1124.789, 98.66508
1126.718, 98.57790
1128.646, 98.03877
1130.575, 97.51295
1132.503, 97.76120
1134.432, 98.02534
1136.360, 97.34542
1138.288, 96.90866
1140.217, 97.82874
1142.145, 98.86181
1144.074, 99.34892
1146.002, 99.47043
1147.931, 99.18333
1149.859, 98.86436
1151.788, 98.81615
1153.716, 98.53181
1155.645, 97.24570
1157.573, 96.65491
1159.502, 98.09272
1161.430, 98.86046
1163.359, 97.64024
1165.287, 96.95974
1167.215, 97.74034
1169.144, 98.09683
1171.072, 97.54952
1173.001, 97.03084
1174.929, 96.63082
1176.858, 96.23635
1178.786, 95.85751
1180.715, 96.16073
1182.643, 97.22413
1184.572, 97.65147
1186.500, 97.34117
1188.429, 96.62812
1190.357, 95.67396
1192.286, 95.79736
1194.214, 96.73909
1196.142, 96.89844
1198.071, 96.49504
1199.999, 95.82365
1201.928, 95.00175
1203.856, 94.84035
1205.785, 95.17931
1207.713, 95.63596
1209.642, 95.99583
1211.570, 95.89652
1213.499, 95.65595
1215.427, 95.72307
1217.356, 95.79512
1219.284, 95.46590
1221.213, 95.05128
1223.141, 94.65688
1225.069, 94.66313
1226.998, 95.61402
1228.926, 96.23483
1230.855, 95.87564
1232.783, 95.40151
1234.712, 94.94944
1236.640, 94.69629
1238.569, 94.70512
1240.497, 94.65979
1242.426, 94.56062
1244.354, 94.61302
1246.283, 94.74855
1248.211, 95.00375
1250.140, 95.44395
1252.068, 95.65153
1253.996, 95.54343
1255.925, 95.03432
1257.853, 94.52628
1259.782, 95.20578
1261.710, 96.28371
1263.639, 96.35574
1265.567, 95.88191
1267.496, 95.11645
1269.424, 94.41411
1271.353, 94.29060
1273.281, 94.39317
1275.210, 94.39831
1277.138, 94.41778
1279.067, 94.73808
1280.995, 94.54150
1282.923, 93.05169
1284.852, 92.84616
1286.780, 95.12058
1288.709, 95.97666
1290.637, 94.46909
1292.566, 93.69286
1294.494, 93.96443
1296.423, 94.53744
1298.351, 95.30446
1300.280, 95.15445
1302.208, 94.49194
1304.137, 94.91846
1306.065, 95.74734
1307.994, 95.74125
1309.922, 95.19112
1311.850, 93.96603
1313.779, 93.11677
1315.707, 94.05679
1317.636, 94.90498
1319.564, 94.15888
1321.493, 93.68904
1323.421, 94.53941
1325.350, 94.93761
1327.278, 94.28630
1329.207, 93.71552
1331.135, 93.34048
1333.064, 93.79305
1334.992, 94.98287
1336.921, 94.94038
1338.849, 93.93799
1340.777, 93.36413
1342.706, 93.15215
1344.634, 92.95103
1346.563, 92.95446
1348.491, 93.88828
1350.420, 94.64583
1352.348, 93.90670
1354.277, 93.09844
1356.205, 93.05452
1358.134, 93.27912
1360.062, 93.74744
1361.991, 93.99244
1363.919, 93.83160
1365.848, 93.82056
1367.776, 94.02331
1369.704, 94.02187
1371.633, 93.80574
1373.561, 93.82076
1375.490, 94.06581
1377.418, 94.38650
1379.347, 94.44669
1381.275, 93.84039
1383.204, 93.23209
1385.132, 92.90527
1387.061, 92.74897
1388.989, 92.65659
1390.918, 92.71989
1392.846, 93.15463
1394.775, 93.55465
1396.703, 93.72335
1398.631, 94.00777
1400.560, 94.50173
1402.488, 94.76618
1404.417, 94.77576
1406.345, 94.24733
1408.274, 93.51826
1410.202, 93.44324
1412.131, 93.72041
1414.059, 93.89361
1415.988, 93.89065
1417.916, 93.77660
1419.845, 93.56653
1421.773, 93.43787
1423.702, 93.61919
1425.630, 93.60108
1427.558, 93.78536
1429.487, 94.76402
1431.415, 94.94572
1433.344, 94.16068
1435.272, 93.72239
1437.201, 93.75732
1439.129, 93.97636
1441.058, 94.22386
1442.986, 94.46922
1444.915, 94.60764
1446.843, 94.67854
1448.771, 94.71544
1450.700, 94.68626
1452.628, 94.55926
1454.557, 94.49599
1456.485, 94.00064
1458.414, 93.00391
1460.342, 93.23412
1462.271, 94.02316
1464.199, 93.52983
1466.128, 92.73708
1468.056, 92.53587
1469.985, 92.38088
1471.913, 91.94010
1473.842, 91.88416
1475.770, 92.73832
1477.698, 92.65252
1479.627, 91.56355
1481.555, 90.85568
1483.484, 90.45175
1485.412, 90.18610
1487.341, 90.26087
1489.269, 91.11580
1491.198, 91.73416
1493.126, 91.37359
1495.055, 90.80589
1496.983, 90.21677
1498.912, 89.92142
1500.840, 90.27033
1502.769, 90.16994
1504.697, 89.42661
1506.625, 89.92131
1508.554, 91.10478
1510.482, 90.39376
1512.411, 89.21029
1514.339, 89.92002
1516.268, 90.51310
1518.196, 89.70171
1520.125, 89.15331
1522.053, 89.53872
1523.982, 89.68237
1525.910, 89.37883
1527.839, 89.62345
1529.767, 90.23441
1531.696, 91.28034
1533.624, 91.72176
1535.552, 89.96642
1537.481, 88.70425
1539.409, 88.84449
1541.338, 88.92715
1543.266, 88.83798
1545.195, 88.51611
1547.123, 88.28841
1549.052, 87.78627
1550.980, 86.95776
1552.909, 87.11609
1554.837, 87.72710
1556.766, 88.17819
1558.694, 88.37947
1560.623, 87.66323
1562.551, 87.20870
1564.479, 87.72165
1566.408, 87.88918
1568.336, 87.51259
1570.265, 87.46671
1572.193, 87.41730
1574.122, 86.87832
1576.050, 86.19129
1577.979, 85.92896
1579.907, 86.28015
1581.836, 86.83126
1583.764, 86.67723
1585.693, 86.02590
1587.621, 85.89407
1589.550, 86.07555
1591.478, 85.89769
1593.406, 85.83202
1595.335, 86.02813
1597.263, 86.01180
1599.192, 85.56526
1601.120, 85.23848
1603.049, 85.32459
1604.977, 85.62882
1606.906, 85.76638
1608.834, 85.33925
1610.763, 84.86619
1612.691, 84.88845
1614.620, 85.11541
1616.548, 84.93884
1618.477, 84.36039
1620.405, 83.67445
1622.333, 83.49776
1624.262, 84.01054
1626.190, 83.89206
1628.119, 82.94395
1630.047, 82.88426
1631.976, 83.53753
1633.904, 83.28615
1635.833, 82.81218
1637.761, 82.82310
1639.690, 82.64310
1641.618, 82.17620
1643.547, 82.35045
1645.475, 82.51416
1647.404, 81.50709
1649.332, 80.82628
1651.260, 81.70923
1653.189, 82.13635
1655.117, 81.83670
1657.046, 82.38113
1658.974, 83.18696
1660.903, 82.44047
1662.831, 81.28175
1664.760, 81.12857
1666.688, 81.24398
1668.617, 80.71950
1670.545, 80.09072
1672.474, 79.82681
1674.402, 80.34080
1676.331, 81.26511
1678.259, 81.01524
1680.188, 79.99526
1682.116, 79.48028
1684.044, 79.50271
1685.973, 79.75655
1687.901, 79.69966
1689.830, 79.47086
1691.758, 79.30730
1693.687, 78.86990
1695.615, 78.90066
1697.544, 79.06872
1699.472, 78.49775
1701.401, 78.11001
1703.329, 77.96960
1705.258, 77.92867
1707.186, 78.44875
1709.115, 78.54978
1711.043, 78.28057
1712.971, 78.19019
1714.900, 78.11520
1716.828, 77.72038
1718.757, 77.27424
1720.685, 77.23686
1722.614, 77.10387
1724.542, 76.83475
1726.471, 76.74108
1728.399, 77.05257
1730.328, 77.91832
1732.256, 77.59348
1734.185, 76.19166
1736.113, 76.14248
1738.042, 76.77402
1739.970, 76.20960
1741.898, 75.23552
1743.827, 74.93375
1745.755, 75.36246
1747.684, 75.72053
1749.612, 75.70068
1751.541, 75.98975
1753.469, 75.57339
1755.398, 74.47015
1757.326, 74.15771
1759.255, 74.48826
1761.183, 74.60397
1763.112, 74.22580
1765.040, 73.63419
1766.969, 73.49504
1768.897, 74.00124
1770.825, 74.59756
1772.754, 74.55685
1774.682, 74.20274
1776.611, 73.71138
1778.539, 72.78945
1780.468, 72.35236
1782.396, 72.66254
1784.325, 73.06908
1786.253, 72.96394
1788.182, 72.93121
1790.110, 72.70843
1792.039, 71.71378
1793.967, 71.25353
1795.896, 71.70618
1797.824, 72.31576
1799.752, 72.36375
1801.681, 71.66862
1803.609, 71.33064
1805.538, 71.69242
1807.466, 71.59689
1809.395, 70.79032
1811.323, 70.27367
1813.252, 70.30399
1815.180, 70.11729
1817.109, 70.09382
1819.037, 70.39425
1820.966, 70.27242
1822.894, 70.04776
1824.823, 70.11464
1826.751, 69.88392
1828.679, 69.28426
1830.608, 68.95353
1832.536, 68.90302
1834.465, 68.57650
1836.393, 68.21660
1838.322, 68.51995
1840.250, 68.84890
1842.179, 68.49479
1844.107, 67.94493
1846.036, 67.41393
1847.964, 67.05167
1849.893, 67.11507
1851.821, 67.62178
1853.750, 67.71709
1855.678, 67.23089
1857.606, 66.87774
1859.535, 66.64952
1861.463, 66.37254
1863.392, 66.33305
1865.320, 66.18198
1867.249, 65.67939
1869.177, 65.50468
1871.106, 66.05140
1873.034, 66.25983
1874.963, 65.59151
1876.891, 65.40871
1878.820, 65.40324
1880.748, 64.25766
1882.677, 63.62846
1884.605, 64.42754
1886.533, 64.80048
1888.462, 64.42101
1890.390, 64.01793
1892.319, 64.12730
1894.247, 63.82386
1896.176, 63.24750
1898.104, 63.83870
1900.033, 64.33779
1901.961, 64.14853
1903.890, 63.90097
1905.818, 63.75492
1907.747, 63.18116
1909.675, 62.79331
1911.604, 63.36349
1913.532, 63.75207
1915.460, 63.38586
1917.389, 62.83971
1919.317, 62.68047
1921.246, 62.39321
1923.174, 61.70483
1925.103, 61.58407
1927.031, 62.32548
1928.960, 62.61734
1930.888, 61.70272
1932.817, 61.13534
1934.745, 61.01771
1936.674, 60.95125
1938.602, 60.71334
1940.531, 60.25270
1942.459, 60.38588
1944.387, 60.44060
1946.316, 60.40680
1948.244, 60.46939
1950.173, 60.59759
1952.101, 60.72540
1954.030, 60.18553
1955.958, 59.34909
1957.887, 58.86499
1959.815, 58.51480
1961.744, 58.45012
1963.672, 59.09486
1965.601, 59.52456
1967.529, 59.45363
1969.458, 59.26153
1971.386, 58.83753
1973.314, 58.68439
1975.243, 58.74828
1977.171, 58.94438
1979.100, 58.70551
1981.028, 57.83994
1982.957, 57.61853
1984.885, 57.70189
1986.814, 57.57293
1988.742, 57.16634
1990.671, 57.34773
1992.599, 57.47842
1994.528, 56.84798
1996.456, 55.95921
1998.385, 55.34836
2000.313, 55.32098
2002.241, 55.71439
2004.170, 55.94218
2006.098, 56.14962
2008.027, 56.29866
2009.955, 55.87960
2011.884, 55.34227
2013.812, 55.69419
2015.741, 55.61605
2017.669, 54.76252
2019.598, 54.01266
2021.526, 54.02552
2023.455, 54.02834
2025.383, 53.91111
2027.312, 53.62170
2029.240, 53.78606
2031.168, 54.35277
2033.097, 54.39128
2035.025, 53.74062
2036.954, 52.82094
2038.882, 52.41348
2040.811, 52.47200
2042.739, 52.71864
2044.668, 52.51257
2046.596, 52.47581
2048.525, 52.75500
2050.453, 51.97361
2052.382, 51.09223
2054.310, 51.05066
2056.239, 50.96355
2058.167, 50.70886
2060.095, 50.36931
2062.024, 50.25547
2063.952, 51.03115
2065.881, 51.02180
2067.809, 49.93317
2069.738, 49.12134
2071.666, 48.89164
2073.595, 49.55937
2075.523, 49.66454
2077.452, 49.22007
2079.380, 49.61025
2081.309, 50.03970
2083.237, 50.01275
2085.166, 49.53135
2087.094, 48.88823
2089.022, 48.51262
2090.951, 48.33041
2092.879, 48.07639
2094.808, 47.42596
2096.736, 46.92240
2098.665, 47.97616
2100.593, 48.59782
2102.522, 47.42842
2104.450, 46.55725
2106.379, 46.78651
2108.307, 47.28458
2110.236, 47.64911
2112.164, 47.52377
2114.093, 46.63131
2116.021, 46.12559
2117.949, 46.93391
2119.878, 47.14257
2121.806, 46.54629
2123.735, 45.67817
2125.663, 45.14251
2127.592, 45.53471
2129.520, 45.97377
2131.449, 45.97804
2133.377, 45.64521
2135.306, 45.49253
2137.234, 45.05870
2139.163, 45.23774
2141.091, 45.63751
2143.020, 44.87371
2144.948, 44.13218
2146.876, 43.69306
2148.805, 43.57051
2150.733, 44.13141
2152.662, 44.46254
2154.590, 44.38696
2156.519, 43.84209
2158.447, 43.93740
2160.376, 44.44390
2162.304, 44.08408
2164.233, 43.66957
2166.161, 43.44207
2168.090, 43.17767
2170.018, 42.94160
2171.947, 42.06508
2173.875, 42.13496
2175.803, 43.09895
2177.732, 43.04822
2179.660, 42.30094
2181.589, 41.82829
2183.517, 42.34634
2185.446, 42.77736
2187.374, 42.39595
2189.303, 41.89281
2191.231, 41.42046
2193.160, 41.38328
2195.088, 41.24529
2197.017, 40.73753
2198.945, 40.67942
2200.874, 40.42727
2202.802, 40.07468
2204.730, 39.64516
2206.659, 39.52749
2208.587, 39.72139
2210.516, 39.68310
2212.444, 39.78759
2214.373, 39.18310
2216.301, 38.34863
2218.230, 39.05132
2220.158, 39.58995
2222.087, 38.87814
2224.015, 38.69715
2225.944, 38.85561
2227.872, 38.90674
2229.801, 38.83730
2231.729, 38.87572
2233.657, 38.90696
2235.586, 38.99946
2237.514, 39.33183
2239.443, 38.84368
2241.371, 38.42883
2243.300, 38.78456
2245.228, 38.94487
2247.157, 39.23483
2249.085, 38.74231
2251.014, 37.77574
2252.942, 37.57020
2254.871, 37.49963
2256.799, 37.09307
2258.728, 37.30019
2260.656, 37.54907
2262.584, 37.21575
2264.513, 36.28270
2266.441, 35.24038
2268.370, 35.90946
2270.298, 36.57771
2272.227, 36.47638
2274.155, 35.70030
2276.084, 35.42451
2278.012, 35.69409
2279.941, 35.71110
2281.869, 35.71524
2283.798, 35.58099
2285.726, 35.51379
2287.655, 35.01660
2289.583, 34.99219
2291.511, 35.41652
2293.440, 35.42066
2295.368, 34.00545
2297.297, 32.73495
2299.225, 34.84454
2301.154, 35.21444
2303.082, 33.11609
2305.011, 32.83855
2306.939, 33.45024
2308.868, 34.33980
2310.796, 34.48771
2312.725, 33.94711
2314.653, 32.99347
2316.582, 32.74337
2318.510, 32.90197
2320.438, 33.19402
2322.367, 33.32346
2324.295, 32.74334
2326.224, 32.75369
2328.152, 32.94535
2330.081, 32.39940
2332.009, 32.07726
2333.938, 32.18946
2335.866, 32.23069
2337.795, 32.52751
2339.723, 33.34323
2341.652, 32.33784
2343.580, 31.17337
2345.509, 31.33076
2347.437, 31.61587
2349.365, 31.40875
2351.294, 30.42192
2353.222, 29.92526
2355.151, 29.88584
2357.079, 30.38944
2359.008, 30.36256
2360.936, 29.69218
2362.865, 29.39957
2364.793, 29.29961
2366.722, 29.87724
2368.650, 30.28820
2370.579, 30.49805
2372.507, 30.08288
2374.436, 29.38448
2376.364, 28.82403
2378.292, 28.94491
2380.221, 29.32737
2382.149, 29.62995
2384.078, 29.03409
2386.006, 28.41730
2387.935, 28.59044
2389.863, 28.87795
2391.792, 28.85319
2393.720, 27.93732
2395.649, 27.96020
2397.577, 28.67606
2399.506, 28.26217
2401.434, 27.69210
2403.363, 27.46867
2405.291, 27.73750
2407.219, 27.89032
2409.148, 27.70944
2411.076, 27.84385
2413.005, 28.04690
2414.933, 27.46954
2416.862, 27.24806
2418.790, 27.59776
2420.719, 27.99391
2422.647, 27.20986
2424.576, 25.91640
2426.504, 26.96671
2428.433, 27.23160
2430.361, 25.89939
2432.290, 26.02452
2434.218, 26.45131
2436.146, 26.15739
2438.075, 25.41753
2440.003, 24.87863
2441.932, 25.01816
2443.860, 24.97458
2445.789, 24.89695
2447.717, 25.67952
2449.646, 26.05663
2451.574, 25.59575
2453.503, 25.10419
2455.431, 24.60248
2457.360, 24.04612
2459.288, 24.99282
2461.217, 25.69483
2463.145, 25.79404
2465.073, 25.01873
2467.002, 24.41574
2468.930, 25.03945
2470.859, 24.57994
2472.787, 23.80417
2474.716, 23.94820
2476.644, 23.97619
2478.573, 23.94324
2480.501, 24.25460
2482.430, 24.22923
2484.358, 24.07739
2486.287, 23.89328
2488.215, 23.87371
2490.144, 23.97017
2492.072, 23.73474
2494.000, 23.53087
2495.929, 23.53059
2497.857, 22.72910
2499.786, 22.01832
2501.714, 22.10122
2503.643, 22.63346
2505.571, 22.79178
2507.500, 22.47499
2509.428, 22.51032
2511.357, 22.43863
2513.285, 22.11056
2515.214, 21.97880
2517.142, 21.96812
2519.071, 21.78534
2520.999, 21.80246
2522.927, 21.68682
2524.856, 20.60249
2526.784, 20.76723
2528.713, 21.59866
2530.641, 21.24334
2532.570, 20.71990
2534.498, 20.37845
2536.427, 20.60187
2538.355, 21.07747
2540.284, 21.64221
2542.212, 20.69314
2544.141, 20.14888
2546.069, 20.46287
2547.998, 20.19024
2549.926, 20.58716
2551.854, 21.96016
2553.783, 21.01206
2555.711, 20.23591
2557.640, 20.63469
2559.568, 21.04158
2561.497, 21.06680
2563.425, 20.70006
2565.354, 19.54099
2567.282, 19.09980
2569.211, 19.80479
2571.139, 19.17603
2573.068, 18.96713
2574.996, 19.92884
2576.925, 19.11008
2578.853, 18.51510
2580.781, 19.39967
2582.710, 19.29018
2584.638, 19.04857
2586.567, 19.36603
2588.495, 18.88658
2590.424, 18.32851
2592.352, 18.41397
2594.281, 18.36112
2596.209, 18.11547
2598.138, 17.95066
2600.066, 18.24185
2601.995, 18.52454
2603.923, 18.21113
2605.852, 17.99563
2607.780, 17.96513
2609.708, 17.76906
2611.637, 17.96996
2613.565, 17.69460
2615.494, 16.24733
2617.422, 16.75481
2619.351, 17.32674
2621.279, 16.86324
2623.208, 17.17774
2625.136, 17.21981
2627.065, 16.40312
2628.993, 17.35651
2630.922, 17.83121
2632.850, 16.50579
2634.779, 16.97953
2636.707, 17.23492
2638.635, 16.06565
2640.564, 16.61474
2642.492, 17.40033
2644.421, 17.41465
2646.349, 16.28648
2648.278, 15.37249
2650.206, 15.22219
2652.135, 16.60166
2654.063, 17.25959
2655.992, 16.43396
2657.920, 16.32647
2659.849, 16.18788
2661.777, 15.82367
2663.706, 15.79529
2665.634, 15.93985
2667.563, 16.09988
2669.491, 15.03837
2671.419, 14.44941
2673.348, 14.71364
2675.276, 15.71875
2677.205, 16.06550
2679.133, 15.50239
2681.062, 14.98372
2682.990, 14.93340
2684.919, 15.22385
2686.847, 15.63769
2688.776, 15.39663
2690.704, 14.70572
2692.633, 14.19138
2694.561, 14.19521
2696.490, 14.25018
2698.418, 14.27180
2700.346, 13.86541
2702.275, 13.51928
2704.203, 13.67503
2706.132, 13.51193
2708.060, 13.40311
2709.989, 13.25986
2711.917, 13.44904
2713.846, 13.76126
2715.774, 13.80347
2717.703, 12.96197
2719.631, 12.59979
2721.560, 13.11920
2723.488, 12.65343
2725.417, 12.30161
2727.345, 12.53178
2729.273, 12.83831
2731.202, 13.21260
2733.130, 13.47606
2735.059, 12.31914
2736.987, 11.95456
2738.916, 12.09695
2740.844, 11.90168
2742.773, 12.07692
2744.701, 12.36575
2746.630, 12.31114
2748.558, 12.12334
2750.487, 12.18273
2752.415, 13.14368
2754.344, 12.29774
2756.272, 11.52850
2758.200, 11.83522
2760.129, 11.65692
2762.057, 11.96713
2763.986, 12.69600
2765.914, 11.27905
2767.843, 10.57662
2769.771, 10.60872
2771.700, 10.89244
2773.628, 10.83192
2775.557, 10.50046
2777.485, 10.61418
2779.414, 10.46702
2781.342, 10.59393
2783.271, 11.53069
2785.199, 11.46346
2787.127, 11.23623
2789.056, 11.40918
2790.984, 10.97074
2792.913, 10.49693
2794.841, 10.50585
2796.770, 11.19055
2798.698, 11.43967
2800.627, 11.62270
2802.555, 11.55539
2804.484, 10.84686
2806.412, 10.43460
2808.341, 10.75965
2810.269, 10.63843
2812.198, 10.49503
2814.126, 10.17644
2816.054, 10.58653
2817.983, 10.41841
2819.911, 9.683980
2821.840, 9.149919
2823.768, 9.484293
2825.697, 9.959989
2827.625, 10.15865
2829.554, 10.43771
2831.482, 11.03459
2833.411, 10.73011
2835.339, 9.872939
2837.268, 9.582562
2839.196, 9.634852
2841.125, 9.328204
2843.053, 9.245922
2844.981, 9.125231
2846.910, 8.239031
2848.838, 8.831550
2850.767, 9.612671
2852.695, 9.279742
2854.624, 9.379344
2856.552, 9.221200
2858.481, 8.829067
2860.409, 8.949531
2862.338, 8.426470
2864.266, 8.145381
2866.195, 9.374404
2868.123, 8.684577
2870.052, 8.072790
2871.980, 8.331431
2873.908, 8.816095
2875.837, 8.808700
2877.765, 8.183038
2879.694, 8.142214
2881.622, 7.940055
2883.551, 7.776032
2885.479, 7.381571
2887.408, 7.874920
2889.336, 8.549572
2891.265, 8.293555
2893.193, 7.487018
2895.122, 7.899797
2897.050, 8.764180
2898.979, 8.060990
2900.907, 8.043039
2902.835, 8.035467
2904.764, 6.899173
2906.692, 7.306616
2908.621, 7.240577
2910.549, 6.894239
2912.478, 7.876719
2914.406, 9.065831
2916.335, 9.579562
2918.263, 9.100518
2920.191, 8.187883
2922.120, 8.647977
2924.048, 8.799841
2925.977, 7.480115
2927.905, 7.567282
2929.834, 7.804108
2931.762, 7.194571
2933.691, 7.672271
2935.619, 8.256949
2937.548, 8.287429
2939.476, 7.420051
2941.405, 7.015012
2943.333, 6.664647
2945.261, 5.690763
2947.190, 7.290237
2949.118, 7.717455
2951.047, 6.541101
2952.975, 6.722836
2954.904, 7.371336
2956.832, 7.853945
2958.761, 7.169942
2960.689, 7.251265
2962.618, 6.945813
2964.546, 6.118500
2966.475, 5.500745
2968.403, 6.165712
2970.332, 7.402564
2972.260, 6.320477
2974.188, 6.203424
2976.117, 6.635401
2978.045, 7.000886
2979.974, 6.049119
2981.902, 6.110881
2983.831, 6.734177
2985.759, 5.413463
2987.688, 5.619683
2989.616, 6.278485
2991.545, 6.531779
2993.473, 5.815426
2995.402, 5.872337
2997.330, 6.190458
2999.259, 5.894267
3001.187, 5.941514
3003.115, 6.140450
3005.044, 6.107767
3006.972, 4.731727
3008.901, 4.863570
3010.829, 5.335264
3012.758, 5.351543
3014.686, 5.352623
3016.615, 5.358790
3018.543, 5.239299
3020.472, 4.733441
3022.400, 5.072512
3024.329, 4.871229
3026.257, 4.065798
3028.186, 4.861240
3030.114, 6.073961
3032.042, 6.373753
3033.971, 5.637961
3035.899, 4.718151
3037.828, 4.208355
3039.756, 4.201468
3041.685, 4.992321
3043.613, 4.863527
3045.542, 4.375911
3047.470, 4.382138
3049.399, 5.010307
3051.327, 5.077297
3053.256, 5.017181
3055.184, 5.082192
3057.113, 4.989017
3059.041, 4.789748
3060.969, 4.494208
3062.898, 3.296631
3064.826, 3.111139
3066.755, 3.836017
3068.683, 4.941004
3070.612, 3.968827
3072.540, 4.618838
3074.469, 4.948990
3076.397, 3.985828
3078.326, 4.357893
3080.254, 4.061674
3082.183, 3.894655
3084.111, 4.070516
3086.040, 5.887540
3087.968, 6.041864
3089.896, 4.844879
3091.825, 4.569255
3093.753, 3.952975
3095.682, 3.057011
3097.610, 3.130579
3099.539, 5.083529
3101.467, 4.660988
3103.396, 3.739933
3105.324, 3.935662
3107.253, 3.510765
3109.181, 3.464654
3111.110, 3.977312
3113.038, 4.925260
3114.967, 4.348059
3116.895, 4.635789
3118.823, 4.919820
3120.752, 3.007654
3122.680, 3.195620
3124.609, 3.890626
3126.537, 4.115021
3128.466, 3.470057
3130.394, 3.738815
3132.323, 3.814410
3134.251, 3.593948
3136.180, 4.038743
3138.108, 4.013329
3140.037, 3.907044
3141.965, 3.870221
3143.894, 3.004524
3145.822, 3.690673
3147.750, 3.931239
3149.679, 3.254064
3151.607, 3.782480
3153.536, 3.376949
3155.464, 3.476245
3157.393, 4.090094
3159.321, 3.947243
3161.250, 3.007310
3163.178, 2.465456
3165.107, 3.370369
3167.035, 2.679000
3168.964, 2.859729
3170.892, 2.947119
3172.821, 2.775540
3174.749, 3.291539
3176.677, 3.139171
3178.606, 3.015094
3180.534, 2.560528
3182.463, 2.842470
3184.391, 2.781719
3186.320, 2.894051
3188.248, 3.033331
3190.177, 3.371194
3192.105, 3.175771
3194.034, 2.654168
3195.962, 2.557157
3197.891, 2.321944
3199.819, 2.763781
3201.748, 2.614979
3203.676, 1.708733
3205.604, 2.928823
3207.533, 2.077275
3209.461, 1.570584
3211.390, 2.823541
3213.318, 2.540402
3215.247, 2.759983
3217.175, 2.906646
3219.104, 2.476119
3221.032, 2.063137
3222.961, 2.135732
3224.889, 2.344652
3226.818, 2.124501
3228.746, 1.478067
3230.675, 1.705041
3232.603, 2.500502
3234.531, 3.417062
3236.460, 3.552443
3238.388, 3.196966
3240.317, 1.972362
3242.245, 1.267615
3244.174, 3.075066
3246.102, 2.974017
3248.031, 2.098568
3249.959, 1.336518
3251.888, 2.145120
3253.816, 1.831432
3255.745, 2.269282
3257.673, 2.629783
3259.602, 1.604977
3261.530, 2.150894
3263.458, 2.178993
3265.387, 1.991567
3267.315, 2.355880
3269.244, 2.812634
3271.172, 3.190193
3273.101, 2.959792
3275.029, 2.211782
3276.958, 2.214524
3278.886, 2.355363
3280.815, 1.933175
3282.743, 1.652762
3284.672, 3.320521
3286.600, 2.525619
3288.529, 1.896685
3290.457, 2.079022
3292.385, 2.867806
3294.314, 2.031835
3296.242, 1.662502
3298.171, 1.559025
3300.099, 1.621261
3302.028, 3.117392
3303.956, 2.797366
3305.885, 2.068355
3307.813, 1.796227
3309.742, 2.009900
3311.670, 2.044736
3313.599, 1.404864
3315.527, 1.109889
3317.456, 2.212951
3319.384, 1.733942
3321.313, 1.821238
3323.241, 2.148332
3325.169, 2.252814
3327.098, 1.942612
3329.026, 2.170877
3330.955, 2.335201
3332.883, 2.215794
3334.812, 2.662739
3336.740, 1.763104
3338.669, 1.528268
3340.597, 2.313076
3342.526, 3.223494
3344.454, 1.957631
3346.383, 2.263400
3348.311, 2.313855
3350.240, 1.365664
3352.168, 0.8873136
3354.096, 2.240622
3356.025, 1.815700
3357.953, 0.7439573
3359.882, 1.485650
3361.810, 1.196038
3363.739, 2.116226
3365.667, 2.617622
3367.596, 1.804005
3369.524, 0.3650927
3371.453, 1.635368
3373.381, 2.023654
3375.310, 2.070206
3377.238, 2.997821
3379.167, 2.934251
3381.095, 2.785833
3383.023, 1.841419
3384.952, 0.7084427
3386.880, 1.261145
3388.809, 1.472781
3390.737, 1.512510
3392.666, 1.531348
3394.594, 1.632891
3396.523, 2.271437
3398.451, 1.598141
3400.380, 1.182570
3402.308, 1.207206
3404.237, 1.148460
3406.165, 2.737645
3408.094, 2.739048
3410.022, 2.849850
3411.950, 3.247516
3413.879, 1.787273
3415.807, 2.278279
3417.736, 2.294157
3419.664, 1.893781
3421.593, 1.642074
3423.521, 1.140001
3425.450, 1.055624
3427.378, 1.985015
3429.307, 2.477231
3431.235, 1.122841
3433.164, 1.899475
3435.092, 1.310961
3437.021, 1.178213
3438.949, 1.798799
3440.877, 1.993267
3442.806, 1.447341
3444.734, 0.7157229
3446.663, 0.6221476
3448.591, 1.227171
3450.520, 1.851722
3452.448, 1.505500
3454.377, 0.8281130
3456.305, 0.9086666
3458.234, 1.909663
3460.162, 2.678978
3462.091, 1.516013
3464.019, 1.398180
3465.948, 1.774672
3467.876, 1.388501
3469.804, -0.4145479
3471.733, 2.487773
3473.661, 3.026214
3475.590, 1.712713
3477.518, 0.9591306
3479.447, 0.6646034
3481.375, -0.1714269
3483.304, 0.9201764
3485.232, 1.268213
3487.161, -0.6811052
3489.089, 2.185975
3491.018, 1.136253
3492.946, 0.1276413
3494.875, 0.5212549
3496.803, 1.723232
3498.731, 1.445044
3500.660, 1.918394
3502.588, 2.636331
3504.517, 1.768000
3506.445, -0.4875309
3508.374, 1.390069
3510.302, 1.311270
3512.231, 1.154552
3514.159, 1.658470
3516.088, 2.370950
3518.016, 2.069518
3519.945, 1.180545
3521.873, 2.075967
3523.802, 2.257942
3525.730, 0.9889563
3527.658, 1.383552
3529.587, 1.934311
3531.515, 1.464768
3533.444, 1.350048
3535.372, 1.509317
3537.301, 0.4073341
3539.229, 3.545227
3541.158, 1.633947
3543.086, 0.4669679
3545.015, 1.477989
3546.943, 1.903665
3548.872, 1.685558
3550.800, 1.227089
3552.729, 0.6783065
3554.657, 0.4640823
3556.585, 0.6278499
3558.514, -0.1895035
3560.442, 0.5412290
3562.371, 1.223085
3564.299, 1.501449
3566.228, 1.633811
3568.156, 1.827696
3570.085, -0.2587984
3572.013, 0.6688609
3573.942, 1.571978
3575.870, 1.670995
3577.799, 2.335433
3579.727, 1.831669
3581.656, 0.8508803
3583.584, 7.2888821E-02
3585.512, 0.3187614
3587.441, 1.311640
3589.369, 0.9366664
3591.298, 0.2872187
3593.226, 0.8429320
3595.155, 1.294007
3597.083, 1.138394
3599.012, 1.010275
3600.940, 1.813259
3602.869, 1.071744
3604.797, 0.9500709
3606.726, 1.020250
3608.654, 0.8559997
3610.583, 2.002554
3612.511, 2.031867
3614.439, 1.896463
3616.368, 1.313374
3618.296, 0.8020558
3620.225, 1.063785
3622.153, 0.8847968
3624.082, 0.8439171
3626.010, 1.364044
3627.939, 2.467885
3629.867, 2.827595
3631.796, 0.8965697
3633.724, 1.281790
3635.653, 0.8754770
3637.581, 0.6574899
3639.510, 0.7730228
3641.438, 0.8725665
3643.366, 0.8619375
3645.295, -9.5265999E-02
3647.223, 1.444343
3649.152, 2.581918
3651.080, 1.946295
3653.009, 0.5655727
3654.937, 1.942519
3656.866, 0.4427670
3658.794, 1.197247
3660.723, 1.707306
3662.651, 0.9654217
3664.580, 8.3698802E-02
3666.508, 4.7230292E-03
3668.437, 1.444825
3670.365, -0.5596213
3672.293, -1.501444
3674.222, -0.2857712
3676.150, 1.013920
3678.079, 2.238345
3680.007, 0.8941565
3681.936, 1.289376
3683.864, 1.916735
3685.793, 1.617913
3687.721, 0.6341810
3689.650, -0.6431164
3691.578, 0.8551168
3693.507, 1.019928
3695.435, 1.109436
3697.364, 1.254668
3699.292, 0.7857209
3701.220, 0.2393316
3703.149, 0.8059608
3705.077, 1.229915
3707.006, 1.604257
3708.934, 1.651656
3710.863, 1.235763
3712.791, 0.9509925
3714.720, 1.087613
3716.648, 1.069942
3718.577, 0.2311932
3720.505, -0.6060902
3722.434, -0.3881644
3724.362, 0.9845377
3726.291, 0.5905600
3728.219, 1.310272
3730.147, 0.3404132
3732.076, -0.5406851
3734.004, -0.1072402
3735.933, 0.8829692
3737.861, 0.8405820
3739.790, 0.6360375
3741.718, 0.6581205
3743.647, 0.9685395
3745.575, 0.8398380
3747.504, 0.3182968
3749.432, 0.6042517
3751.361, 1.817437
3753.289, 1.820564
3755.218, 0.8657442
3757.146, -0.6417685
3759.074, -0.9399119
3761.003, 0.8287917
3762.931, 1.482970
3764.860, 6.1488610E-02
3766.788, -0.1527597
3768.717, -4.7675248E-02
3770.645, 0.8905044
3772.574, 2.163097
3774.502, 1.820126
3776.431, 0.5070931
3778.359, -4.2331658E-02
3780.288, 1.9031880E-02
3782.216, 0.7259867
3784.145, 1.727674
3786.073, 1.743007
3788.001, -0.1868117
3789.930, 3.3512048E-02
3791.858, -0.5053710
3793.787, 0.3096555
3795.715, 1.419581
3797.644, 0.7897001
3799.572, -0.7315425
3801.501, 0.6146859
3803.429, 0.1391688
3805.358, 1.823351
3807.286, 1.734744
3809.215, 1.166777
3811.143, 0.8288885
3813.072, 0.4741952
3815.000, 0.2842594
3816.928, 0.5131791
3818.857, 1.526625
3820.785, -0.3025020
3822.714, 5.8868282E-02
3824.642, 0.8538637
3826.571, 0.2265586
3828.499, 0.4439827
3830.428, 0.7251141
3832.356, -0.2997669
3834.285, 0.2695279
3836.213, 0.3400852
3838.142, -0.5515610
3840.070, -0.8753107
3841.999, 0.1690484
3843.927, 0.1581525
3845.855, -0.3661337
3847.784, -2.0674661E-02
3849.712, 0.3700435
3851.641, 0.4887913
3853.569, 0.7106830
3855.498, 0.9584367
3857.426, 0.3937229
3859.355, 1.377771
3861.283, 0.6495731
3863.212, 0.8228720
3865.140, 0.8236098
3867.069, 0.4205643
3868.997, 0.3790106
3870.926, 1.173368
3872.854, 2.080625
3874.782, 1.734924
3876.711, 0.2810712
3878.639, 0.8985144
3880.568, 1.121364
3882.496, 1.607681
3884.425, 2.214264
3886.353, 1.338212
3888.282, 1.269812
3890.210, 0.2410393
3892.139, 0.6661912
3894.067, 0.9520015
3895.996, 0.3717254
3897.924, 4.3935560E-02
3899.853, 0.6831741
3901.781, 1.363377
3903.709, -0.2103117
3905.638, -7.5668998E-02
3907.566, -0.4263590
3909.495, 0.7320009
3911.423, 2.038511
3913.352, 2.105921
3915.280, 0.9501082
3917.209, -0.3852507
3919.137, -0.5607739
3921.066, -0.5922967
3922.994, -0.5295292
3924.923, 0.3822356
3926.851, 0.6416501
3928.780, -0.2045797
3930.708, -0.9148313
3932.636, 0.1932373
3934.565, 2.962988
3936.493, 2.482194
3938.422, 2.915895
3940.350, 1.695755
3942.279, 1.334976
3944.207, 1.571581
3946.136, 1.655613
3948.064, 0.8586741
3949.993, -0.2459571
3951.921, 1.198861
3953.850, 0.8057890
3955.778, 1.120064
3957.707, 1.538495
3959.635, 0.7927226
3961.563, -3.9254091E-04
3963.492, -0.3206717
3965.420, -0.4524895
3967.349, 0.4189590
3969.277, 0.4293340
3971.206, 0.7011855
3973.134, 1.127316
3975.063, 0.3930579
3976.991, 3.4439329E-02
3978.920, 0.6168770
3980.848, 1.297645
3982.777, 0.7256528
3984.705, -0.1806746
3986.634, -0.7064638
3988.562, -4.6625871E-02
3990.490, 1.752791
3992.419, -0.2814598
3994.347, 0.9096668
3996.276, 0.5348068
3998.204, -0.5021708
4000.133, 0.4827578
4002.061, 0.5365621
4003.990, 0.1697618
4005.918, 0.7092232
4007.847, 1.089156
4009.775, 0.2291975
4011.704, 0.5858023
4013.632, 0.4245120
4015.561, 0.3569360
4017.489, -0.3312456
4019.417, 0.2427977
4021.346, 0.1224943
4023.274, -0.1792132
4025.203, -0.9351340
4027.131, -1.393997
4029.060, 1.675831
4030.988, 0.1362858
4032.917, -0.5465646
4034.845, -0.1060787
4036.774, 0.7161703
4038.702, 0.2657478
4040.631, -0.2101107
4042.559, -0.4148139
4044.488, -0.5343530
4046.416, 5.7866439E-02
4048.344, 1.431615
4050.273, -0.1191499
4052.201, 1.212071
4054.130, 0.7206503
4056.058, 1.100656
4057.987, 1.111530
4059.915, 0.7679554
4061.844, -7.2831817E-02
4063.772, 0.3291326
4065.701, 1.719069
4067.629, 0.2825485
4069.558, -0.4148163
4071.486, 1.010535
4073.415, -0.1896551
4075.343, 0.2286651
4077.271, 0.6893734
4079.200, 0.3006847
4081.128, -0.6362831
4083.057, -0.7193546
4084.985, -0.7353647
4086.914, -1.608423
4088.842, -0.8129167
4090.771, 0.8339929
4092.699, 1.227562
4094.628, 0.4467229
4096.556, -0.4846042
4098.484, -0.2534627
4100.413, 0.6683826
4102.341, 1.639023
4104.270, 0.8514635
4106.198, -0.3698512
4108.127, -0.1601397
4110.055, -0.1276331
4111.984, 1.154831
4113.912, 0.1802707
4115.841, 1.025503
4117.769, 0.7839419
4119.698, -2.013910
4121.626, -0.7038673
4123.555, -0.6929534
4125.483, 0.1970831
4127.412, 0.7367564
4129.340, -0.3245178
4131.269, -0.4580501
4133.197, -0.3827751
4135.125, 0.7276673
4137.054, -0.7109176
4138.982, 1.217354
4140.911, 0.5693251
4142.839, 1.645403
4144.768, 3.7881311E-03
4146.696, 0.8384720
4148.625, 2.400815
4150.553, 8.4690057E-02
4152.481, -1.314636
4154.410, 0.4466238
4156.338, 0.4991107
4158.267, 1.121720
4160.195, 0.4823879
4162.124, 0.5953229
4164.052, 0.7389697
4165.981, 1.274349
4167.909, 0.3047775
4169.838, 1.160046
4171.766, -2.544425
4173.695, -0.6054659
4175.623, 1.207392
4177.552, 0.3914924
4179.480, 0.3482583
4181.409, 6.4536244E-02
4183.337, 0.1970063
4185.266, 0.8042515
4187.194, 0.8395172
4189.123, -1.135579
4191.051, -1.309067
4192.979, -0.9588268
4194.908, -0.2191731
4196.836, 1.482010
4198.765, 1.655571
4200.693, 1.498595
4202.622, 0.7519409
4204.550, 0.1625276
4206.479, -8.5531101E-02
4208.407, -0.2276670
4210.335, -8.7030478E-02
4212.264, -0.8990726
4214.192, -1.179157
4216.121, 2.789573
4218.049, -0.1182537
4219.978, 0.3364291
4221.906, -2.1551030E-02
4223.835, 0.6435847
4225.763, -0.9546061
4227.692, -0.6293688
4229.620, 3.2902971E-02
4231.549, 0.6500264
4233.477, 0.1404346
4235.406, 0.5813504
4237.334, 0.6348869
4239.263, 0.3158466
4241.191, 1.705227
4243.120, 1.026393
4245.048, 2.5292670E-03
4246.977, 0.3041054
4248.905, -1.498837
4250.833, -1.479832
4252.762, 0.7432409
4254.690, 1.015119
4256.619, 0.2675684
4258.547, -0.7875038
4260.476, 0.8921033
4262.404, 1.317626
4264.333, -0.6426197
4266.261, -0.5753885
4268.189, 0.4916516
4270.118, 1.433847
4272.046, 1.228278
4273.975, 0.1468427
4275.903, -0.2101246
4277.832, -0.5412932
4279.760, -0.2908410
4281.689, 1.476409
4283.617, 1.775104
4285.546, 1.344608
4287.474, 1.528611
4289.403, -3.835383
4291.331, 2.262469
4293.260, 2.102471
4295.188, 1.589366
4297.117, 0.5020111
4299.045, 0.5691149
4300.974, -1.183571
4302.902, -1.047057
4304.831, 0.4686679
4306.759, 0.2991822
4308.688, -0.3637390
4310.616, -1.132507
4312.544, -1.031608
4314.473, -0.6771285
4316.401, -2.3555299E-02
4318.330, 0.8811001
4320.258, -0.1255696
4322.187, 0.1861852
4324.115, 0.4491969
4326.043, 0.7809821
4327.972, 7.0871033E-02
4329.900, -0.6097775
4331.829, -1.541412
4333.757, -1.222176
4335.686, 3.0931121E-02
4337.614, 0.9574587
4339.543, 1.164985
4341.471, -0.2002749
4343.400, -1.308569
4345.328, 0.3188545
4347.257, -0.3349701
4349.185, 0.1268396
4351.114, 0.3985839
4353.042, 0.3976746
4354.971, -0.3296703
4356.899, 0.5709267
4358.828, 0.3459336
4360.756, 0.5469373
4362.685, -0.2004531
4364.613, -0.1990099
4366.542, 8.4875233E-02
4368.470, -0.4409754
4370.398, 0.1582858
4372.327, 0.9408398
4374.255, 0.6050287
4376.184, -0.3125883
4378.112, 0.6941443
##END=



