##NAMES=Wardite
##RRUFFID=R050643
##IDEAL CHEMISTRY=NaAl_3_(PO_4_)_2_(OH)_4_·2H_2_O
##LOCALITY=Big Fish River, Yukon Territory, Canada
##OWNER=RRUFF
##SOURCE=Rock Currier
##DESCRIPTION=Tan bipyramidal pseudo-octahedral crystals
##STATUS=The identification of this mineral has been confirmed by X-ray diffraction and chemical analysis
##URL=https://www.rruff.net/odr/rruff_sample/R050643
##MEASURED CHEMISTRY=(Na_0.93_[box]_0.05_Ca_0.02_)(Al_2.97_Fe^3+^_0.03_)(P_1.00_O_4_)_2_((OH)_3.88_F_0.12_)·2H_2_O
##DIFFRACTION SAMPLE DESCRIPTION=Powder
##CELL PARAMETERS=a: 7.0582 b: 7.0582 c: 19.0678 alpha: 90 beta: 90 gamma: 90 volume: 949.94 crystal system: tetragonal
##FILETYPE=Raman Processed
##RAMAN WAVELENGTH=780

152.8020, 1314.576
154.7304, 1322.051
156.6589, 1337.116
158.5874, 1370.274
160.5158, 1417.957
162.4443, 1488.668
164.3728, 1587.427
166.3012, 1714.523
168.2297, 1885.881
170.1582, 2134.862
172.0866, 2372.470
174.0151, 2658.604
175.9436, 2865.501
177.8720, 2878.231
179.8005, 2739.194
181.7290, 2510.559
183.6574, 2127.844
185.5859, 1819.150
187.5144, 1616.073
189.4428, 1472.784
191.3713, 1386.793
193.2998, 1339.480
195.2282, 1303.980
197.1567, 1279.546
199.0852, 1269.165
201.0136, 1271.124
202.9421, 1286.694
204.8706, 1313.720
206.7990, 1357.712
208.7275, 1418.956
210.6560, 1521.280
212.5844, 1611.005
214.5129, 1789.362
216.4414, 1960.754
218.3698, 2151.636
220.2983, 2293.252
222.2268, 2335.222
224.1552, 2295.739
226.0837, 2230.567
228.0122, 2121.812
229.9406, 2027.317
231.8691, 1960.442
233.7976, 1890.072
235.7260, 1791.307
237.6545, 1686.337
239.5830, 1597.001
241.5114, 1522.626
243.4399, 1480.999
245.3684, 1473.281
247.2968, 1490.168
249.2253, 1538.787
251.1538, 1601.951
253.0822, 1684.629
255.0107, 1771.710
256.9392, 1813.621
258.8676, 1809.986
260.7961, 1759.987
262.7246, 1640.556
264.6530, 1517.280
266.5815, 1408.584
268.5100, 1318.196
270.4384, 1253.623
272.3669, 1214.630
274.2954, 1186.853
276.2238, 1171.404
278.1523, 1159.458
280.0808, 1148.773
282.0092, 1141.652
283.9377, 1139.954
285.8662, 1141.739
287.7946, 1144.273
289.7231, 1147.500
291.6516, 1151.193
293.5800, 1155.034
295.5085, 1160.617
297.4370, 1168.977
299.3654, 1178.284
301.2939, 1187.291
303.2224, 1196.850
305.1508, 1207.286
307.0793, 1218.565
309.0078, 1237.008
310.9362, 1264.539
312.8647, 1297.360
314.7932, 1335.515
316.7216, 1376.928
318.6501, 1420.623
320.5786, 1466.380
322.5070, 1512.480
324.4355, 1558.728
326.3640, 1608.263
328.2924, 1672.493
330.2209, 1721.431
332.1494, 1758.975
334.0778, 1768.813
336.0063, 1727.726
337.9348, 1649.409
339.8632, 1559.973
341.7917, 1457.563
343.7202, 1376.146
345.6486, 1325.428
347.5771, 1291.562
349.5056, 1279.932
351.4340, 1276.983
353.3625, 1274.741
355.2910, 1272.901
357.2194, 1270.590
359.1479, 1267.740
361.0764, 1265.799
363.0048, 1268.422
364.9333, 1266.461
366.8618, 1252.420
368.7902, 1240.336
370.7187, 1237.663
372.6472, 1243.437
374.5756, 1256.361
376.5041, 1276.290
378.4326, 1305.663
380.3610, 1346.077
382.2895, 1394.814
384.2180, 1454.996
386.1464, 1518.870
388.0749, 1587.457
390.0034, 1654.745
391.9318, 1717.276
393.8603, 1774.057
395.7888, 1814.477
397.7172, 1843.484
399.6457, 1841.553
401.5742, 1803.012
403.5026, 1742.322
405.4311, 1648.924
407.3596, 1550.574
409.2880, 1463.688
411.2165, 1389.845
413.1450, 1334.941
415.0734, 1301.295
417.0019, 1276.299
418.9304, 1260.919
420.8588, 1250.778
422.7873, 1245.741
424.7158, 1244.494
426.6442, 1247.147
428.5727, 1252.670
430.5012, 1260.312
432.4296, 1269.693
434.3581, 1279.182
436.2866, 1289.619
438.2150, 1296.188
440.1435, 1297.569
442.0720, 1296.543
444.0004, 1291.168
445.9289, 1286.964
447.8574, 1287.359
449.7858, 1290.984
451.7143, 1295.230
453.6428, 1300.665
455.5712, 1311.362
457.4997, 1320.541
459.4282, 1342.217
461.3566, 1347.763
463.2851, 1359.030
465.2136, 1379.494
467.1420, 1408.771
469.0705, 1446.492
470.9990, 1493.292
472.9274, 1552.901
474.8559, 1623.741
476.7844, 1697.335
478.7128, 1775.622
480.6413, 1840.534
482.5698, 1897.227
484.4982, 1922.399
486.4267, 1906.824
488.3552, 1861.852
490.2836, 1779.703
492.2121, 1681.457
494.1406, 1600.059
496.0690, 1534.756
497.9975, 1489.207
499.9260, 1464.943
501.8544, 1451.649
503.7829, 1454.479
505.7114, 1456.482
507.6398, 1460.832
509.5683, 1455.333
511.4968, 1431.067
513.4252, 1394.172
515.3537, 1347.390
517.2822, 1295.466
519.2106, 1249.665
521.1391, 1210.259
523.0676, 1176.563
524.9960, 1148.811
526.9245, 1127.431
528.8530, 1113.818
530.7814, 1103.987
532.7099, 1097.666
534.6384, 1093.338
536.5668, 1089.822
538.4953, 1088.020
540.4238, 1089.045
542.3522, 1092.489
544.2807, 1096.071
546.2092, 1099.610
548.1376, 1104.091
550.0661, 1110.138
551.9946, 1115.990
553.9230, 1121.540
555.8515, 1126.570
557.7800, 1131.349
559.7084, 1135.495
561.6369, 1138.354
563.5654, 1140.181
565.4938, 1141.085
567.4223, 1141.127
569.3508, 1143.527
571.2792, 1149.364
573.2077, 1153.966
575.1362, 1156.270
577.0646, 1159.847
578.9931, 1164.238
580.9216, 1172.283
582.8500, 1188.715
584.7785, 1206.055
586.7070, 1220.693
588.6354, 1231.474
590.5639, 1235.307
592.4924, 1232.670
594.4208, 1227.165
596.3493, 1217.954
598.2778, 1210.346
600.2062, 1204.140
602.1347, 1201.472
604.0632, 1202.346
605.9916, 1207.585
607.9201, 1219.852
609.8486, 1234.252
611.7770, 1248.370
613.7055, 1262.433
615.6340, 1278.332
617.5624, 1294.401
619.4909, 1305.802
621.4194, 1312.451
623.3478, 1312.613
625.2763, 1305.792
627.2048, 1297.863
629.1332, 1288.839
631.0617, 1281.738
632.9902, 1278.774
634.9186, 1275.856
636.8471, 1269.828
638.7756, 1265.407
640.7040, 1265.501
642.6325, 1268.959
644.5610, 1274.014
646.4894, 1282.079
648.4179, 1296.279
650.3464, 1315.812
652.2748, 1338.260
654.2033, 1363.617
656.1318, 1387.807
658.0602, 1411.146
659.9887, 1431.340
661.9172, 1453.984
663.8456, 1463.695
665.7741, 1453.284
667.7026, 1433.742
669.6310, 1407.366
671.5595, 1377.385
673.4880, 1345.761
675.4164, 1313.823
677.3449, 1282.512
679.2734, 1253.440
681.2018, 1231.691
683.1303, 1210.745
685.0588, 1193.839
686.9872, 1183.129
688.9157, 1170.902
690.8442, 1168.814
692.7726, 1167.244
694.7011, 1166.185
696.6296, 1164.562
698.5580, 1161.256
700.4865, 1158.613
702.4149, 1157.664
704.3434, 1157.452
706.2719, 1158.157
708.2003, 1158.966
710.1288, 1158.628
712.0573, 1157.063
713.9857, 1154.169
715.9142, 1150.240
717.8427, 1147.227
719.7711, 1143.297
721.6996, 1138.747
723.6281, 1135.170
725.5565, 1129.486
727.4850, 1124.730
729.4135, 1120.729
731.3419, 1118.197
733.2704, 1114.902
735.1989, 1108.793
737.1273, 1103.128
739.0558, 1100.117
740.9843, 1097.863
742.9127, 1095.442
744.8412, 1093.186
746.7697, 1090.617
748.6981, 1087.946
750.6266, 1086.633
752.5551, 1086.817
754.4835, 1088.373
756.4120, 1091.447
758.3405, 1092.896
760.2689, 1092.384
762.1974, 1091.291
764.1259, 1089.775
766.0543, 1088.842
767.9828, 1088.420
769.9113, 1089.036
771.8397, 1091.657
773.7682, 1093.764
775.6967, 1094.346
777.6251, 1094.114
779.5536, 1092.455
781.4821, 1091.680
783.4105, 1094.490
785.3390, 1097.163
787.2675, 1094.974
789.1959, 1091.198
791.1244, 1090.931
793.0529, 1092.909
794.9813, 1094.388
796.9098, 1095.588
798.8383, 1096.976
800.7667, 1098.682
802.6952, 1101.472
804.6237, 1105.350
806.5521, 1108.605
808.4806, 1110.955
810.4091, 1113.683
812.3375, 1116.979
814.2660, 1120.744
816.1945, 1125.803
818.1229, 1129.598
820.0514, 1131.566
821.9799, 1132.756
823.9083, 1133.515
825.8368, 1133.085
827.7653, 1130.250
829.6937, 1127.937
831.6222, 1128.236
833.5507, 1128.961
835.4791, 1129.384
837.4076, 1128.984
839.3361, 1125.485
841.2645, 1121.214
843.1930, 1120.397
845.1215, 1116.996
847.0499, 1114.533
848.9784, 1113.061
850.9069, 1110.162
852.8353, 1109.435
854.7638, 1108.643
856.6923, 1107.558
858.6207, 1108.941
860.5492, 1113.201
862.4777, 1117.819
864.4061, 1123.468
866.3346, 1126.829
868.2631, 1130.349
870.1915, 1134.005
872.1200, 1135.071
874.0485, 1139.392
875.9769, 1140.230
877.9054, 1141.474
879.8339, 1144.490
881.7623, 1146.451
883.6908, 1146.737
885.6193, 1145.282
887.5477, 1141.040
889.4762, 1136.516
891.4047, 1133.158
893.3331, 1129.490
895.2616, 1123.923
897.1901, 1118.807
899.1185, 1116.521
901.0470, 1114.025
902.9755, 1108.914
904.9039, 1103.023
906.8324, 1097.800
908.7609, 1093.033
910.6893, 1087.656
912.6178, 1083.057
914.5463, 1082.876
916.4747, 1083.985
918.4032, 1079.417
920.3317, 1078.989
922.2601, 1071.543
924.1886, 1074.412
926.1171, 1074.380
928.0455, 1072.304
929.9740, 1073.399
931.9025, 1072.510
933.8309, 1071.842
935.7594, 1072.349
937.6879, 1070.746
939.6163, 1071.258
941.5448, 1070.890
943.4733, 1069.583
945.4017, 1072.080
947.3302, 1073.555
949.2587, 1076.330
951.1871, 1081.902
953.1156, 1085.664
955.0441, 1095.267
956.9725, 1104.568
958.9010, 1111.791
960.8295, 1124.246
962.7579, 1144.011
964.6864, 1164.411
966.6149, 1183.925
968.5433, 1206.329
970.4718, 1229.623
972.4003, 1260.256
974.3287, 1296.561
976.2572, 1343.761
978.1857, 1397.968
980.1141, 1472.054
982.0426, 1570.193
983.9711, 1684.155
985.8995, 1824.109
987.8280, 1957.804
989.7565, 2094.129
991.6849, 2191.753
993.6134, 2247.797
995.5419, 2242.360
997.4703, 2153.458
999.3988, 2034.934
1001.327, 1886.365
1003.256, 1748.521
1005.184, 1632.255
1007.113, 1539.719
1009.041, 1474.347
1010.970, 1427.919
1012.898, 1400.797
1014.827, 1383.779
1016.755, 1373.801
1018.683, 1372.348
1020.612, 1380.695
1022.540, 1395.911
1024.469, 1416.223
1026.397, 1444.289
1028.326, 1479.330
1030.254, 1525.623
1032.183, 1581.565
1034.111, 1655.230
1036.040, 1748.115
1037.968, 1862.639
1039.897, 2009.330
1041.825, 2163.451
1043.754, 2337.011
1045.682, 2481.781
1047.610, 2604.564
1049.539, 2656.829
1051.467, 2612.200
1053.396, 2505.199
1055.324, 2314.290
1057.253, 2114.597
1059.181, 1912.128
1061.110, 1740.734
1063.038, 1614.310
1064.967, 1517.552
1066.895, 1450.549
1068.824, 1404.459
1070.752, 1382.626
1072.681, 1371.383
1074.609, 1371.575
1076.537, 1373.142
1078.466, 1379.373
1080.394, 1376.638
1082.323, 1358.910
1084.251, 1335.025
1086.180, 1303.447
1088.108, 1271.960
1090.037, 1239.025
1091.965, 1212.911
1093.894, 1196.749
1095.822, 1184.684
1097.751, 1176.101
1099.679, 1170.763
1101.608, 1170.682
1103.536, 1169.777
1105.464, 1166.519
1107.393, 1165.048
1109.321, 1162.317
1111.250, 1158.517
1113.178, 1157.105
1115.107, 1150.838
1117.035, 1148.713
1118.964, 1145.564
1120.892, 1141.202
1122.821, 1138.398
1124.749, 1137.063
1126.678, 1135.579
1128.606, 1133.739
1130.535, 1133.474
1132.463, 1134.886
1134.391, 1138.207
1136.320, 1143.571
1138.248, 1142.486
1140.177, 1135.165
1142.105, 1127.275
1144.034, 1118.818
1145.962, 1108.798
1147.891, 1097.095
1149.819, 1081.745
1151.748, 1064.417
1153.676, 1050.336
1155.605, 1038.951
1157.533, 1030.391
1159.462, 1023.924
1161.390, 1017.674
1163.318, 1011.372
1165.247, 1004.128
1167.175, 998.2561
1169.104, 996.4941
1171.032, 997.0934
1172.961, 998.4753
1174.889, 1001.349
1176.818, 1008.240
1178.746, 1014.940
1180.675, 1019.119
1182.603, 1020.162
1184.532, 1017.222
1186.460, 1012.259
1188.389, 1004.845
1190.317, 996.6267
1192.245, 987.4511
1194.174, 979.9495
1196.102, 974.1285
1198.031, 970.8757
1199.959, 971.7427
1201.888, 972.0994
1203.816, 970.7986
1205.745, 969.7028
1207.673, 969.1310
1209.602, 969.5881
1211.530, 971.1451
1213.459, 971.4127
1215.387, 970.5414
1217.316, 972.8372
1219.244, 977.4772
1221.172, 979.3707
1223.101, 979.1962
1225.029, 978.5953
1226.958, 977.8517
1228.886, 978.1477
1230.815, 978.4280
1232.743, 976.5560
1234.672, 974.2328
1236.600, 973.6422
1238.529, 973.5139
1240.457, 973.0779
1242.386, 971.9836
1244.314, 968.7109
1246.243, 966.9250
1248.171, 970.6159
1250.099, 972.4405
1252.028, 968.1365
1253.956, 963.8653
1255.885, 961.9283
1257.813, 960.2667
1259.742, 958.1923
1261.670, 956.8165
1263.599, 956.2469
1265.527, 955.0400
1267.456, 954.5180
1269.384, 954.2811
1271.313, 953.7278
1273.241, 954.3259
1275.170, 954.3967
1277.098, 954.8369
1279.026, 955.5073
1280.955, 956.8173
1282.883, 958.0859
1284.812, 958.0683
1286.740, 958.0758
1288.669, 958.5086
1290.597, 960.2384
1292.526, 965.0338
1294.454, 968.1037
1296.383, 967.0349
1298.311, 965.3547
1300.240, 963.7880
1302.168, 962.7215
1304.097, 961.9482
1306.025, 960.1176
1307.953, 957.5460
1309.882, 954.1963
1311.810, 950.2725
1313.739, 949.9105
1315.667, 947.2700
1317.596, 945.3840
1319.524, 944.4664
1321.453, 941.8845
1323.381, 940.1607
1325.310, 938.3464
1327.238, 937.2666
1329.167, 938.4869
1331.095, 938.9229
1333.024, 935.7745
1334.952, 933.3304
1336.880, 933.5085
1338.809, 933.5045
1340.737, 933.3946
1342.666, 932.6757
1344.594, 932.2515
1346.523, 931.5417
1348.451, 930.2841
1350.380, 929.7565
1352.308, 927.6776
1354.237, 926.2902
1356.165, 926.0189
1358.094, 925.5996
1360.022, 925.0248
1361.951, 926.8183
1363.879, 927.8304
1365.807, 924.5179
1367.736, 922.5002
1369.664, 924.0646
1371.593, 925.5127
1373.521, 926.7112
1375.450, 926.3725
1377.378, 927.0077
1379.307, 927.2155
1381.235, 926.2704
1383.164, 926.8959
1385.092, 925.3842
1387.021, 923.8635
1388.949, 922.5051
1390.878, 923.3639
1392.806, 924.8993
1394.734, 924.4680
1396.663, 922.8043
1398.591, 919.4979
1400.520, 917.9620
1402.448, 919.3569
1404.377, 920.1399
1406.305, 919.8122
1408.234, 921.2557
1410.162, 920.8687
1412.091, 924.2023
1414.019, 920.9757
1415.948, 919.7155
1417.876, 920.3672
1419.805, 922.5963
1421.733, 924.0406
1423.661, 921.8591
1425.590, 920.3181
1427.518, 922.4611
1429.447, 925.3329
1431.375, 928.4061
1433.304, 931.1662
1435.232, 932.8556
1437.161, 935.1071
1439.089, 938.4403
1441.018, 941.9561
1442.946, 944.8214
1444.875, 948.8289
1446.803, 953.0412
1448.731, 953.9128
1450.660, 953.5390
1452.588, 953.2466
1454.517, 952.2822
1456.445, 950.7080
1458.374, 949.7419
1460.302, 949.6641
1462.231, 948.2213
1464.159, 945.3657
1466.088, 941.7669
1468.016, 938.2068
1469.945, 934.5881
1471.873, 930.1722
1473.802, 924.9237
1475.730, 919.6959
1477.658, 915.3686
1479.587, 911.4565
1481.515, 907.4940
1483.444, 905.0858
1485.372, 905.2578
1487.301, 904.3660
1489.229, 901.1646
1491.158, 898.3547
1493.086, 896.4739
1495.015, 896.9731
1496.943, 897.8356
1498.872, 895.7197
1500.800, 893.5173
1502.729, 891.9714
1504.657, 891.0306
1506.585, 890.0658
1508.514, 889.4915
1510.442, 889.2947
1512.371, 888.6780
1514.299, 888.5453
1516.228, 887.8466
1518.156, 886.8776
1520.085, 884.0823
1522.013, 882.8513
1523.942, 882.3684
1525.870, 880.8098
1527.799, 882.4299
1529.727, 879.8606
1531.656, 880.7643
1533.584, 881.8336
1535.512, 881.6151
1537.441, 881.0504
1539.369, 881.1570
1541.298, 881.6351
1543.226, 881.6065
1545.155, 880.9472
1547.083, 880.5251
1549.012, 879.5757
1550.940, 879.5279
1552.869, 878.4650
1554.797, 879.9992
1556.726, 877.1376
1558.654, 875.8359
1560.583, 876.2330
1562.511, 876.9974
1564.439, 877.4437
1566.368, 878.0873
1568.296, 878.2404
1570.225, 877.9071
1572.153, 878.0255
1574.082, 878.9871
1576.010, 881.7518
1577.939, 884.2303
1579.867, 881.9191
1581.796, 879.3350
1583.724, 882.4587
1585.653, 884.3828
1587.581, 881.2955
1589.510, 879.0780
1591.438, 879.0834
1593.366, 880.3690
1595.295, 883.6605
1597.223, 888.8165
1599.152, 893.8148
1601.080, 900.3030
1603.009, 906.1698
1604.937, 908.0132
1606.866, 908.4828
1608.794, 908.8946
1610.723, 905.6273
1612.651, 897.5237
1614.580, 888.9785
1616.508, 881.9957
1618.437, 876.8087
1620.365, 871.6603
1622.293, 866.1010
1624.222, 861.6182
1626.150, 857.2707
1628.079, 852.5990
1630.007, 848.7669
1631.936, 848.1085
1633.864, 848.6119
1635.793, 846.3690
1637.721, 845.1865
1639.650, 848.3671
1641.578, 850.1683
1643.507, 848.5906
1645.435, 845.4383
1647.364, 843.1389
1649.292, 844.8160
1651.220, 846.9632
1653.149, 846.2521
1655.077, 844.9247
1657.006, 844.9871
1658.934, 844.2139
1660.863, 842.1364
1662.791, 841.0594
1664.720, 839.7635
1666.648, 835.6034
1668.577, 831.5685
1670.505, 830.4868
1672.434, 829.8552
1674.362, 829.5427
1676.291, 828.6339
1678.219, 826.2960
1680.147, 823.8361
1682.076, 822.1636
1684.004, 820.5499
1685.933, 818.9796
1687.861, 819.2377
1689.790, 818.9991
1691.718, 816.6331
1693.647, 815.5235
1695.575, 817.4721
1697.504, 818.5844
1699.432, 817.6323
1701.361, 817.1903
1703.289, 817.6726
1705.218, 818.1761
1707.146, 818.3100
1709.074, 817.7031
1711.003, 817.3478
1712.931, 817.6271
1714.860, 817.4726
1716.788, 817.9934
1718.717, 818.6160
1720.645, 819.9106
1722.574, 822.0446
1724.502, 822.0276
1726.431, 821.8260
1728.359, 820.9469
1730.288, 818.0282
1732.216, 814.6709
1734.145, 812.4449
1736.073, 810.0210
1738.001, 807.6158
1739.930, 805.8691
1741.858, 803.7391
1743.787, 801.4696
1745.715, 800.3123
1747.644, 799.3669
1749.572, 796.2105
1751.501, 792.9430
1753.429, 790.8600
1755.358, 789.3648
1757.286, 788.3162
1759.215, 786.2264
1761.143, 783.6109
1763.072, 780.6007
1765.000, 776.9448
1766.928, 774.1756
1768.857, 773.8747
1770.785, 774.4384
1772.714, 774.7082
1774.642, 773.5786
1776.571, 769.8890
1778.499, 767.1106
1780.428, 766.1368
1782.356, 765.2132
1784.285, 764.5886
1786.213, 762.6215
1788.142, 759.3273
1790.070, 757.9096
1791.999, 757.3853
1793.927, 756.9531
1795.855, 756.4691
1797.784, 754.6230
1799.712, 752.8278
1801.641, 751.9636
1803.569, 748.9267
1805.498, 747.0095
1807.426, 745.6188
1809.355, 743.7243
1811.283, 743.1741
1813.212, 741.1930
1815.140, 741.0839
1817.069, 740.1661
1818.997, 737.9363
1820.926, 735.9020
1822.854, 735.2736
1824.782, 734.9976
1826.711, 735.3715
1828.639, 734.8360
1830.568, 733.1579
1832.496, 729.1219
1834.425, 728.8785
1836.353, 726.2535
1838.282, 723.7132
1840.210, 724.2064
1842.139, 724.5443
1844.067, 723.3306
1845.996, 720.7815
1847.924, 717.0488
1849.853, 713.5886
1851.781, 711.5042
1853.709, 710.1947
1855.638, 708.6879
1857.566, 707.2440
1859.495, 706.2725
1861.423, 705.3228
1863.352, 704.3386
1865.280, 703.5566
1867.209, 701.7477
1869.137, 699.8674
1871.066, 699.3901
1872.994, 700.1024
1874.923, 699.0406
1876.851, 693.8959
1878.780, 691.2264
1880.708, 692.8166
1882.636, 693.2706
1884.565, 691.8910
1886.493, 688.7100
1888.422, 685.6377
1890.350, 684.3148
1892.279, 684.6060
1894.207, 685.3988
1896.136, 682.6573
1898.064, 679.7284
1899.993, 679.2688
1901.921, 677.8504
1903.850, 676.1924
1905.778, 674.1329
1907.707, 671.8311
1909.635, 672.1863
1911.563, 672.5048
1913.492, 672.5354
1915.420, 670.8859
1917.349, 669.9736
1919.277, 668.6737
1921.206, 666.3632
1923.134, 665.3594
1925.063, 663.3764
1926.991, 661.1918
1928.920, 660.3696
1930.848, 659.1649
1932.777, 657.0305
1934.705, 654.6717
1936.634, 651.9556
1938.562, 650.0714
1940.490, 651.0880
1942.419, 650.9068
1944.347, 649.4656
1946.276, 648.8287
1948.204, 648.0909
1950.133, 646.6880
1952.061, 643.8121
1953.990, 641.3201
1955.918, 641.7611
1957.847, 641.4542
1959.775, 637.9228
1961.704, 636.0628
1963.632, 635.4459
1965.561, 634.6796
1967.489, 633.4974
1969.417, 632.4072
1971.346, 629.6156
1973.274, 629.2557
1975.203, 627.2962
1977.131, 624.6349
1979.060, 623.3975
1980.988, 623.1293
1982.917, 622.7723
1984.845, 620.6932
1986.774, 618.8970
1988.702, 618.9564
1990.631, 617.6841
1992.559, 615.8646
1994.488, 615.2468
1996.416, 614.5540
1998.344, 614.0095
2000.273, 612.2007
2002.201, 610.7442
2004.130, 606.9580
2006.058, 606.5437
2007.987, 603.8642
2009.915, 601.2343
2011.844, 599.6894
2013.772, 598.6494
2015.701, 597.8956
2017.629, 596.6056
2019.558, 594.8731
2021.486, 594.2589
2023.415, 593.3933
2025.343, 591.4083
2027.271, 589.4304
2029.200, 588.6658
2031.128, 589.6254
2033.057, 588.3805
2034.985, 584.7059
2036.914, 582.5123
2038.842, 580.0264
2040.771, 578.3475
2042.699, 577.4427
2044.628, 575.9646
2046.556, 574.7954
2048.485, 574.8549
2050.413, 572.6316
2052.342, 571.0713
2054.270, 570.2751
2056.198, 567.9659
2058.127, 565.5446
2060.055, 565.4279
2061.984, 564.8082
2063.912, 562.3001
2065.841, 560.3047
2067.769, 559.6951
2069.698, 559.2138
2071.626, 557.4719
2073.555, 555.4214
2075.483, 556.1911
2077.412, 555.8601
2079.340, 550.8389
2081.269, 548.8835
2083.197, 548.8784
2085.125, 547.0609
2087.054, 545.2252
2088.982, 543.4855
2090.911, 543.8772
2092.839, 541.7063
2094.768, 541.2181
2096.696, 538.4880
2098.625, 538.0992
2100.553, 535.6999
2102.482, 533.2123
2104.410, 530.1636
2106.339, 528.8083
2108.267, 530.2538
2110.196, 527.7285
2112.124, 525.6623
2114.052, 529.1276
2115.981, 527.5771
2117.909, 522.3497
2119.838, 520.2327
2121.766, 519.4949
2123.695, 520.0916
2125.623, 519.7040
2127.552, 518.9072
2129.480, 517.3555
2131.409, 515.4270
2133.337, 514.9464
2135.266, 513.3453
2137.194, 509.7531
2139.123, 507.8087
2141.051, 506.4509
2142.979, 503.1909
2144.908, 502.3985
2146.836, 502.6374
2148.765, 502.2605
2150.693, 501.1228
2152.622, 497.9757
2154.550, 495.8385
2156.479, 495.2646
2158.407, 494.8369
2160.336, 492.7973
2162.264, 492.0363
2164.193, 490.0775
2166.121, 489.3579
2168.050, 486.8511
2169.978, 485.4634
2171.906, 484.8995
2173.835, 483.7484
2175.763, 482.3741
2177.692, 480.1889
2179.620, 479.2985
2181.549, 478.3876
2183.477, 474.9360
2185.406, 472.4667
2187.334, 470.5764
2189.263, 470.5298
2191.191, 470.9820
2193.120, 469.5385
2195.048, 467.8205
2196.977, 467.1322
2198.905, 464.5289
2200.833, 461.4619
2202.762, 459.4482
2204.690, 458.8867
2206.619, 458.0004
2208.547, 455.8960
2210.476, 455.1156
2212.404, 454.4920
2214.333, 452.6030
2216.261, 450.9681
2218.190, 451.9420
2220.118, 450.6802
2222.047, 447.1416
2223.975, 447.1626
2225.904, 446.9503
2227.832, 444.1454
2229.760, 441.7792
2231.689, 440.4296
2233.617, 439.0287
2235.546, 438.1592
2237.474, 437.1910
2239.403, 435.5843
2241.331, 434.1898
2243.260, 433.3876
2245.188, 431.6433
2247.117, 429.3174
2249.045, 428.3702
2250.974, 427.5810
2252.902, 426.0021
2254.831, 425.9630
2256.759, 426.0002
2258.688, 425.7972
2260.616, 422.5314
2262.544, 418.5155
2264.473, 418.6921
2266.401, 417.9994
2268.330, 415.8318
2270.258, 415.2898
2272.187, 414.2794
2274.115, 411.9958
2276.044, 410.1183
2277.972, 408.5057
2279.901, 407.1975
2281.829, 406.4931
2283.758, 405.2771
2285.686, 403.9591
2287.615, 402.5926
2289.543, 401.0345
2291.471, 399.7143
2293.400, 397.9200
2295.328, 397.1249
2297.257, 396.6183
2299.185, 395.2738
2301.114, 391.7789
2303.042, 389.8248
2304.971, 390.4086
2306.899, 390.4172
2308.828, 389.4990
2310.756, 387.9566
2312.685, 385.2299
2314.613, 381.7923
2316.542, 379.6679
2318.470, 378.1424
2320.398, 377.1579
2322.327, 377.9291
2324.255, 377.8648
2326.184, 375.5513
2328.112, 374.6196
2330.041, 373.6212
2331.969, 370.6293
2333.898, 368.1671
2335.826, 366.5761
2337.755, 366.1415
2339.683, 365.5627
2341.612, 364.1485
2343.540, 361.9118
2345.469, 359.9204
2347.397, 359.1221
2349.325, 358.4047
2351.254, 357.6017
2353.182, 356.7009
2355.111, 355.0836
2357.039, 352.6995
2358.968, 350.4085
2360.896, 348.9877
2362.825, 348.8387
2364.753, 347.4363
2366.682, 345.7813
2368.610, 345.9968
2370.539, 344.8008
2372.467, 342.3855
2374.396, 339.6261
2376.324, 339.2818
2378.252, 337.1704
2380.181, 337.5269
2382.109, 334.7903
2384.038, 335.1992
2385.966, 334.4069
2387.895, 333.0399
2389.823, 331.7805
2391.752, 329.9031
2393.680, 328.2277
2395.609, 328.5859
2397.537, 329.0699
2399.466, 329.1071
2401.394, 328.0592
2403.323, 325.7496
2405.251, 322.1481
2407.179, 319.7428
2409.108, 318.5485
2411.036, 316.6419
2412.965, 316.8608
2414.893, 314.6576
2416.822, 314.9937
2418.750, 314.1323
2420.679, 312.3641
2422.607, 310.1845
2424.536, 308.6611
2426.464, 307.6850
2428.393, 306.2534
2430.321, 304.7776
2432.250, 302.9245
2434.178, 301.4552
2436.106, 300.3782
2438.035, 299.0865
2439.963, 296.6862
2441.892, 295.5450
2443.820, 294.7662
2445.749, 292.8502
2447.677, 294.2186
2449.606, 291.1020
2451.534, 291.4761
2453.463, 293.2659
2455.391, 290.3249
2457.320, 287.4436
2459.248, 286.0950
2461.177, 284.0439
2463.105, 284.5643
2465.033, 281.6596
2466.962, 281.4329
2468.890, 281.0507
2470.819, 278.2813
2472.747, 276.8193
2474.676, 275.5802
2476.604, 274.3098
2478.533, 272.9988
2480.461, 271.4789
2482.390, 269.6673
2484.318, 269.2550
2486.247, 269.5561
2488.175, 268.8298
2490.104, 267.4243
2492.032, 265.5622
2493.960, 264.7348
2495.889, 264.1723
2497.817, 263.3763
2499.746, 262.3282
2501.674, 262.0215
2503.603, 260.2042
2505.531, 259.3142
2507.460, 258.4653
2509.388, 257.0822
2511.317, 256.1391
2513.245, 255.2187
2515.174, 253.5783
2517.102, 254.3454
2519.031, 254.1780
2520.959, 250.0481
2522.887, 249.3264
2524.816, 249.4922
2526.744, 247.9651
2528.673, 245.5574
2530.601, 243.2657
2532.530, 243.0976
2534.458, 242.7276
2536.387, 242.2833
2538.315, 243.0733
2540.244, 242.8676
2542.172, 241.3797
2544.101, 242.2652
2546.029, 241.3100
2547.958, 238.1400
2549.886, 234.6405
2551.814, 234.0273
2553.743, 235.7173
2555.671, 234.6790
2557.600, 233.5779
2559.528, 232.4388
2561.457, 232.0278
2563.385, 231.8964
2565.314, 230.8323
2567.242, 232.2405
2569.171, 232.6725
2571.099, 229.9832
2573.028, 227.5517
2574.956, 226.0908
2576.885, 226.3858
2578.813, 224.0393
2580.741, 222.2874
2582.670, 223.6336
2584.598, 222.0779
2586.527, 220.7313
2588.455, 220.8179
2590.384, 220.8728
2592.312, 220.5468
2594.241, 218.1616
2596.169, 217.6333
2598.098, 216.2657
2600.026, 215.6310
2601.955, 214.9466
2603.883, 214.8718
2605.812, 213.3564
2607.740, 212.7070
2609.668, 211.0997
2611.597, 210.5594
2613.525, 209.4024
2615.454, 209.0393
2617.382, 207.5900
2619.311, 206.0384
2621.239, 205.5940
2623.168, 205.0235
2625.096, 203.5793
2627.025, 201.2393
2628.953, 199.0029
2630.882, 200.0619
2632.810, 200.6444
2634.739, 197.9626
2636.667, 196.7654
2638.595, 196.6844
2640.524, 196.6811
2642.452, 194.7451
2644.381, 194.1520
2646.309, 195.4884
2648.238, 194.1523
2650.166, 192.2074
2652.095, 191.0988
2654.023, 192.1205
2655.952, 193.0130
2657.880, 193.4904
2659.809, 188.5894
2661.737, 186.1424
2663.666, 187.0488
2665.594, 188.5682
2667.522, 187.8622
2669.451, 185.8021
2671.379, 183.6704
2673.308, 181.6960
2675.236, 181.1450
2677.165, 181.5002
2679.093, 180.3251
2681.022, 178.1551
2682.950, 175.9554
2684.879, 175.2761
2686.807, 175.0437
2688.736, 175.5825
2690.664, 175.0393
2692.593, 173.8579
2694.521, 170.0134
2696.449, 167.6650
2698.378, 167.0738
2700.306, 167.4762
2702.235, 168.2911
2704.163, 168.4406
2706.092, 169.4684
2708.020, 167.7166
2709.949, 165.7602
2711.877, 166.4656
2713.806, 167.5413
2715.734, 167.6599
2717.663, 167.0796
2719.591, 166.7311
2721.520, 166.1411
2723.448, 166.0903
2725.376, 169.1198
2727.305, 166.7492
2729.233, 162.4350
2731.162, 162.7544
2733.090, 165.4236
2735.019, 167.6615
2736.947, 163.3580
2738.876, 161.6570
2740.804, 162.1879
2742.733, 160.7601
2744.661, 159.9363
2746.590, 159.9472
2748.518, 159.5213
2750.447, 159.1301
2752.375, 158.2232
2754.303, 156.7989
2756.232, 155.3848
2758.160, 155.8349
2760.089, 157.9588
2762.017, 157.2546
2763.946, 156.6848
2765.874, 156.3433
2767.803, 155.0529
2769.731, 156.0056
2771.660, 156.8512
2773.588, 156.3976
2775.517, 155.6015
2777.445, 153.7886
2779.374, 152.4093
2781.302, 151.9227
2783.230, 151.9849
2785.159, 151.2991
2787.087, 151.7019
2789.016, 152.0016
2790.944, 151.0437
2792.873, 150.6729
2794.801, 150.5359
2796.730, 150.3127
2798.658, 150.3572
2800.587, 150.2228
2802.515, 149.6484
2804.444, 150.2945
2806.372, 150.2627
2808.301, 151.6410
2810.229, 150.6345
2812.157, 151.8246
2814.086, 152.1934
2816.014, 153.0310
2817.943, 152.3194
2819.871, 152.2225
2821.800, 152.8073
2823.728, 153.8309
2825.657, 152.4806
2827.585, 150.7018
2829.514, 152.8639
2831.442, 153.9013
2833.371, 152.6516
2835.299, 149.4385
2837.228, 150.1271
2839.156, 151.2565
2841.084, 151.8316
2843.013, 154.0969
2844.941, 152.8101
2846.870, 152.1537
2848.798, 155.0112
2850.727, 157.9776
2852.655, 157.8655
2854.584, 159.2924
2856.512, 157.2086
2858.441, 159.3916
2860.369, 161.1406
2862.298, 160.9858
2864.226, 163.6082
2866.155, 166.9167
2868.083, 166.3956
2870.011, 167.6642
2871.940, 168.8885
2873.868, 168.9199
2875.797, 165.6985
2877.725, 164.1595
2879.654, 163.9302
2881.582, 159.0822
2883.511, 159.0828
2885.439, 159.7085
2887.368, 156.3221
2889.296, 158.8590
2891.225, 160.5786
2893.153, 158.4385
2895.082, 156.0074
2897.010, 160.0895
2898.938, 163.4396
2900.867, 155.7549
2902.795, 154.9273
2904.724, 155.6142
2906.652, 154.3575
2908.581, 153.6835
2910.509, 154.0783
2912.438, 152.6096
2914.366, 152.7531
2916.295, 150.5075
2918.223, 150.1336
2920.151, 148.8269
2922.080, 147.6178
2924.008, 148.2759
2925.937, 149.9588
2927.865, 145.3955
2929.794, 143.1888
2931.722, 144.5744
2933.651, 145.3183
2935.579, 143.6224
2937.508, 141.3768
2939.436, 140.9317
2941.365, 139.2441
2943.293, 136.6751
2945.221, 134.0361
2947.150, 131.8477
2949.078, 131.7491
2951.007, 130.8454
2952.935, 129.3634
2954.864, 127.1678
2956.792, 125.7994
2958.721, 124.6353
2960.649, 126.1041
2962.578, 122.5491
2964.506, 121.4180
2966.435, 124.7177
2968.363, 118.6825
2970.292, 115.1879
2972.220, 114.6606
2974.148, 114.1688
2976.077, 111.9259
2978.005, 110.1909
2979.934, 108.7685
2981.862, 104.7347
2983.791, 102.0536
2985.719, 101.2862
2987.648, 100.2565
2989.576, 98.05409
2991.505, 98.13597
2993.433, 98.05230
2995.362, 92.08481
2997.290, 90.42501
2999.219, 89.10714
3001.147, 88.36487
3003.075, 87.31247
3005.004, 86.39201
3006.932, 86.09255
3008.861, 84.74010
3010.789, 84.42480
3012.718, 83.81613
3014.646, 83.34474
3016.575, 82.26051
3018.503, 80.26183
3020.432, 78.35931
3022.360, 76.67822
3024.289, 79.42580
3026.217, 79.65165
3028.146, 77.56333
3030.074, 77.08857
3032.002, 74.61772
3033.931, 74.26742
3035.859, 73.54633
3037.788, 73.08266
3039.716, 73.12208
3041.645, 72.33373
3043.573, 72.80723
3045.502, 72.34731
3047.430, 71.75675
3049.359, 71.59299
3051.287, 71.59812
3053.216, 73.08132
3055.144, 71.97230
3057.073, 72.41101
3059.001, 72.58498
3060.929, 71.48373
3062.858, 69.56128
3064.786, 68.35055
3066.715, 69.33949
3068.643, 69.63016
3070.572, 70.21000
3072.500, 72.13293
3074.429, 70.23255
3076.357, 69.10979
3078.286, 66.37712
3080.214, 64.42852
3082.143, 61.15899
3084.071, 59.32819
3086.000, 60.59840
3087.928, 55.71147
3089.856, 55.56009
3091.785, 57.32573
3093.713, 55.48916
3095.642, 53.13866
3097.570, 54.22037
3099.499, 52.53674
3101.427, 53.17331
3103.356, 52.11680
3105.284, 52.58288
3107.213, 53.69847
3109.141, 50.64048
3111.070, 49.58707
3112.998, 50.32281
3114.927, 51.40215
3116.855, 49.24291
3118.783, 47.74605
3120.712, 46.43493
3122.640, 45.11715
3124.569, 44.38266
3126.497, 44.89492
3128.426, 45.37848
3130.354, 45.07594
3132.283, 45.16049
3134.211, 45.67483
3136.140, 44.46132
3138.068, 44.23310
3139.997, 43.53043
3141.925, 43.87617
3143.854, 43.54059
3145.782, 39.97470
3147.710, 38.30694
3149.639, 39.19495
3151.567, 40.75562
3153.496, 39.22966
3155.424, 39.77248
3157.353, 40.16412
3159.281, 39.68682
3161.210, 38.93103
3163.138, 38.81643
3165.067, 39.52291
3166.995, 39.50398
3168.924, 37.20263
3170.852, 34.63350
3172.781, 33.39176
3174.709, 33.81955
3176.637, 35.18483
3178.566, 33.61514
3180.494, 33.78267
3182.423, 36.83349
3184.351, 33.83733
3186.280, 29.28302
3188.208, 28.75956
3190.137, 31.86553
3192.065, 30.03472
3193.994, 30.84507
3195.922, 31.26862
3197.851, 29.87069
3199.779, 32.04778
3201.708, 32.70945
3203.636, 31.69484
3205.564, 29.76829
3207.493, 31.33272
3209.421, 29.44575
3211.350, 28.88501
3213.278, 30.61236
3215.207, 29.25101
3217.135, 27.43499
3219.064, 26.18966
3220.992, 26.80327
3222.921, 25.97644
3224.849, 25.79859
3226.778, 26.44530
3228.706, 25.37799
3230.635, 26.07090
3232.563, 25.85427
3234.491, 25.10181
3236.420, 24.67243
3238.348, 26.98854
3240.277, 26.84682
3242.205, 26.71953
3244.134, 26.01828
3246.062, 23.92836
3247.991, 26.74122
3249.919, 25.60162
3251.848, 23.94833
3253.776, 25.57970
3255.705, 24.32079
3257.633, 24.10417
3259.562, 24.36476
3261.490, 23.57374
3263.418, 24.34251
3265.347, 24.86310
3267.275, 25.96720
3269.204, 26.51832
3271.132, 22.59612
3273.061, 22.42661
3274.989, 22.55056
3276.918, 21.72228
3278.846, 21.25624
3280.775, 22.34850
3282.703, 22.11341
3284.632, 21.32775
3286.560, 21.81192
3288.489, 22.04156
3290.417, 21.31164
3292.345, 20.00033
3294.274, 19.61464
3296.202, 20.13520
3298.131, 23.58342
3300.059, 25.47372
3301.988, 24.05110
3303.916, 21.64601
3305.845, 18.44064
3307.773, 20.56699
3309.702, 19.04643
3311.630, 20.81273
3313.559, 19.63154
3315.487, 20.60888
3317.416, 20.49470
3319.344, 17.23750
3321.272, 16.08697
3323.201, 19.35571
3325.129, 20.87354
3327.058, 19.28738
3328.986, 20.06425
3330.915, 17.99442
3332.843, 16.96847
3334.772, 16.67470
3336.700, 15.51342
3338.629, 18.23677
3340.557, 16.76343
3342.486, 17.21821
3344.414, 20.82582
3346.343, 13.57230
3348.271, 14.31326
3350.199, 15.00708
3352.128, 14.41883
3354.056, 15.98742
3355.985, 15.45321
3357.913, 15.36304
3359.842, 15.31919
3361.770, 14.74881
3363.699, 14.53337
3365.627, 14.46185
3367.556, 14.64405
3369.484, 14.50928
3371.413, 12.87495
3373.341, 12.23880
3375.270, 13.16877
3377.198, 14.25055
3379.126, 14.18165
3381.055, 12.00853
3382.983, 14.90696
3384.912, 15.01096
3386.840, 13.89190
3388.769, 16.72050
3390.697, 15.13339
3392.626, 12.59438
3394.554, 12.97842
3396.483, 15.34249
3398.411, 13.39018
3400.340, 13.21214
3402.268, 10.11152
3404.197, 8.677798
3406.125, 12.31417
3408.053, 12.10510
3409.982, 11.53568
3411.910, 11.26379
3413.839, 11.41064
3415.767, 11.76429
3417.696, 11.84712
3419.624, 12.14815
3421.553, 12.33297
3423.481, 10.36244
3425.410, 12.46213
3427.338, 13.66216
3429.267, 11.39231
3431.195, 9.542163
3433.124, 10.98401
3435.052, 12.31884
3436.980, 13.71706
3438.909, 13.20222
3440.837, 12.63942
3442.766, 14.04224
3444.694, 13.05873
3446.623, 14.08226
3448.551, 12.49306
3450.480, 10.06196
3452.408, 11.99025
3454.337, 14.22133
3456.265, 11.80214
3458.194, 10.99607
3460.122, 11.79473
3462.051, 8.721914
3463.979, 7.585205
3465.907, 8.466173
3467.836, 10.47362
3469.764, 12.14077
3471.693, 11.66035
3473.621, 8.198771
3475.550, 9.162106
3477.478, 9.841773
3479.407, 8.199738
3481.335, 9.054288
3483.264, 7.716712
3485.192, 6.398586
3487.121, 7.247015
3489.049, 6.666885
3490.978, 6.605429
3492.906, 7.909898
3494.834, 7.298652
3496.763, 9.126303
3498.691, 11.03763
3500.620, 9.950707
3502.548, 10.22602
3504.477, 10.38107
3506.405, 9.951509
3508.334, 9.277158
3510.262, 9.211087
3512.191, 9.727359
3514.119, 11.11452
3516.048, 11.30594
3517.976, 10.93127
3519.905, 13.38745
3521.833, 13.40163
3523.761, 15.25503
3525.690, 14.35414
3527.618, 15.83085
3529.547, 14.44382
3531.475, 14.17933
3533.404, 19.17387
3535.332, 23.25001
3537.261, 24.47006
3539.189, 25.74179
3541.118, 37.95077
3543.046, 50.51966
3544.975, 63.92308
3546.903, 72.85789
3548.832, 71.35998
3550.760, 56.87218
3552.688, 43.18345
3554.617, 33.51492
3556.545, 26.04823
3558.474, 20.20692
3560.402, 19.14805
3562.331, 14.81943
3564.259, 16.86405
3566.188, 12.90119
3568.116, 12.12479
3570.045, 14.96521
3571.973, 13.07812
3573.902, 13.05896
3575.830, 12.48804
3577.759, 11.60787
3579.687, 12.00678
3581.615, 11.30042
3583.544, 12.24664
3585.472, 11.35461
3587.401, 11.50176
3589.329, 13.02910
3591.258, 16.51416
3593.186, 19.92900
3595.115, 22.20864
3597.043, 20.99899
3598.972, 20.30672
3600.900, 24.16238
3602.829, 26.64362
3604.757, 36.12267
3606.686, 45.85111
3608.614, 57.46357
3610.542, 69.74154
3612.471, 75.96583
3614.399, 64.53557
3616.328, 50.53784
3618.256, 40.15301
3620.185, 32.21925
3622.113, 24.42621
3624.042, 17.71908
3625.970, 16.69437
3627.899, 16.48510
3629.827, 14.95696
3631.756, 12.57263
3633.684, 10.91796
3635.613, 9.569263
3637.541, 7.953686
3639.469, 7.371300
3641.398, 7.355454
3643.326, 6.933130
3645.255, 9.140649
3647.183, 8.935726
3649.112, 8.096065
3651.040, 6.571128
3652.969, 4.970087
3654.897, 4.518756
3656.826, 3.791812
3658.754, 5.010934
3660.683, 4.029634
3662.611, 5.628791
3664.540, 7.336179
3666.468, 6.490891
3668.396, 2.514040
3670.325, 5.589479
3672.253, 5.655220
3674.182, 7.600646
3676.110, 9.300427
3678.039, 6.796454
3679.967, 1.932340
3681.896, 1.342072
3683.824, 3.873348
3685.753, 6.315193
3687.681, 5.306152
3689.610, 1.716177
3691.538, 2.205203
3693.467, 0.2435062
3695.395, 0.9750888
3697.323, 3.533094
3699.252, 6.607813
3701.180, 7.836233
3703.109, 4.072772
3705.037, 3.440331
3706.966, 3.417366
3708.894, 2.234985
3710.823, 3.623394
3712.751, 2.322684
3714.680, 3.632315
3716.608, 1.072280
3718.537, 1.250991
3720.465, 1.242308
3722.394, 1.500668
3724.322, 3.422339
3726.250, 2.478951
3728.179, 5.117248
3730.107, 1.772241
3732.036, 2.513095
3733.964, 2.416362
3735.893, 1.465169
3737.821, 1.924873
3739.750, 1.701995
3741.678, 2.158136
3743.607, 4.104964
3745.535, 2.945353
3747.464, 2.752933
3749.392, 3.503986
3751.321, 0.4506495
3753.249, 3.560280
3755.177, 3.716892
3757.106, 2.322306
3759.034, 3.504173
3760.963, 4.908395
3762.891, 3.482399
3764.820, 1.873803
3766.748, 3.328598
3768.677, 1.056690
3770.605, 2.621725
3772.534, 2.820590
3774.462, 0.7037809
3776.391, 1.651876
3778.319, 1.068760
3780.248, -0.9299573
3782.176, 1.024040
3784.104, 0.7387149
3786.033, 0.7132238
3787.961, 2.520778
3789.890, 0.6014563
3791.818, -0.2268457
3793.747, 0.2753033
3795.675, 2.905819
3797.604, 0.4352211
3799.532, 1.939833
3801.461, 2.619894
3803.389, -2.960245
3805.318, 1.550912
3807.246, -0.4983352
3809.175, 3.506747
3811.103, 4.499971
3813.031, 2.390594
3814.960, 1.561132
3816.888, 2.149295
3818.817, 1.974668
3820.745, 3.662984
3822.674, 5.166335
3824.602, 1.169870
3826.531, -1.104478
3828.459, 1.883187
3830.388, 4.469975
3832.316, 3.000962
3834.245, 0.4206540
3836.173, -0.7448487
3838.102, 1.475146
3840.030, 1.969069
3841.958, 4.187902
3843.887, 3.070121
3845.815, 3.720910
3847.744, 1.588622
3849.672, 3.263828
3851.601, 4.989458
3853.529, 4.833570
3855.458, 4.097900
3857.386, 3.438342
3859.315, 0.7287553
3861.243, 1.956905
3863.172, 2.337290
3865.100, 3.503932
3867.029, 4.874375
3868.957, 5.497228
3870.885, 3.723332
3872.814, 0.2097978
3874.742, 1.354809
3876.671, -2.495015
3878.599, 0.7850695
3880.528, 4.004690
3882.456, 2.285447
3884.385, 2.106323
3886.313, 4.143535
3888.242, 2.432751
3890.170, 0.9633493
3892.099, -1.419972
3894.027, -0.1489810
3895.956, 2.600792
3897.884, 2.574216
3899.813, 0.7192100
3901.741, -0.5077010
3903.669, -0.7552971
3905.598, -0.9442800
3907.526, -0.3210250
3909.455, 1.222548
3911.383, 0.4723191
3913.312, 0.8827703
3915.240, -0.1681173
3917.169, 0.5265575
3919.097, 0.2594267
3921.026, 0.4970078
3922.954, 2.923125
3924.883, 0.6844975
3926.811, 2.770501
3928.740, 1.897612
3930.668, -0.4111779
3932.596, -1.484218
3934.525, -1.129066
3936.453, 0.9582547
3938.382, 0.9543818
3940.310, 1.324603
3942.239, 2.014733
3944.167, 2.669770
3946.096, 2.160784
3948.024, 3.879608
3949.953, 3.452558
3951.881, 2.532533
3953.810, 4.3147858E-02
3955.738, -1.665691
3957.667, -0.1114512
3959.595, 3.827722
3961.523, 0.3838308
3963.452, 0.8548460
3965.380, 2.375899
3967.309, 1.979736
3969.237, 2.831045
3971.166, 1.941114
3973.094, 0.4373842
3975.023, 3.372143
3976.951, 0.1058589
3978.880, 1.889738
3980.808, 1.365739
3982.737, 7.8341581E-02
3984.665, 0.3299002
3986.594, 0.2490380
3988.522, 0.7367900
3990.450, 1.533231
3992.379, -0.7648011
3994.307, -0.9569251
3996.236, 0.1669234
3998.164, 0.4034245
4000.093, 2.748134
4002.021, 2.507113
4003.950, 2.774672
4005.878, 2.409500
4007.807, 2.551289
4009.735, 1.506698
4011.664, 1.917904
4013.592, 2.615322
4015.521, 3.338359
4017.449, 2.458637
4019.377, -0.3894142
4021.306, -0.1878249
4023.234, 0.1563709
4025.163, 1.027420
4027.091, 2.551126
4029.020, 2.103708
4030.948, -1.483846
4032.877, 0.7279699
4034.805, 2.469962
4036.734, -0.1558071
4038.662, 1.640193
4040.591, 0.6105888
4042.519, 0.3056361
4044.448, 2.698724
4046.376, 2.175111
4048.304, 0.2545391
4050.233, 2.048145
4052.161, 0.3637778
4054.090, 2.093158
4056.018, 1.553168
4057.947, -0.2457827
4059.875, 9.6808441E-02
4061.804, -1.006906
4063.732, -0.5619539
4065.661, 2.615086
4067.589, 0.1888364
4069.518, 1.551358
4071.446, 2.693262
4073.375, -0.8560764
4075.303, 1.885044
4077.231, 0.8671415
4079.160, -2.017241
4081.088, -0.7772893
4083.017, 0.4800973
4084.945, 0.1120959
4086.874, 0.3452550
4088.802, -2.170495
4090.731, -1.744244
4092.659, -0.8694962
4094.588, -1.549017
4096.516, 1.793514
4098.444, 2.675977
4100.373, 1.041608
4102.301, -0.4666140
4104.230, -1.830239
4106.158, -2.331958
4108.087, -2.722820
4110.015, -2.396883
4111.944, -2.224735
4113.872, -1.857012
4115.801, -0.9444796
4117.729, -1.226508
4119.658, 0.8693810
4121.586, 0.9808848
4123.515, 1.104097
4125.443, 1.837512
4127.372, 0.3803419
4129.300, -1.653319
4131.229, -0.4483669
4133.157, 1.442611
4135.085, -0.9965150
4137.014, 0.4857801
4138.942, 2.233503
4140.871, -1.742307
4142.799, -2.582557
4144.728, 0.4954609
4146.656, 2.230546
4148.584, 1.428426
4150.513, 0.9769533
4152.441, 2.090783
4154.370, 2.866395
4156.298, 2.223036
4158.227, 2.059974
4160.155, 1.793561
4162.084, 0.8551626
4164.012, 2.966186
4165.941, -1.459109
4167.869, -0.6610953
4169.798, 2.943498
4171.726, -0.4933458
4173.655, 0.3004676
4175.583, 2.930054
4177.512, 0.2568512
4179.440, -1.448287
4181.369, 1.063410
4183.297, -0.5706369
4185.226, -2.444616
4187.154, 1.176861
4189.083, 4.5163911E-02
4191.011, 1.655598
4192.939, -2.340962
4194.868, 1.229579
4196.796, -0.7124194
4198.725, 0.4587201
4200.653, 0.5152264
4202.582, -2.365208
4204.510, -3.209073
4206.438, 4.9284451E-02
4208.367, 1.279894
4210.295, -1.147429
4212.224, 0.8792152
4214.152, 0.3598823
4216.081, -0.2835944
4218.009, -0.4231904
4219.938, -2.934589
4221.866, -0.4217161
4223.795, 3.012954
4225.723, -0.1814203
4227.652, 4.030894
4229.580, -1.413868
4231.509, -2.358475
4233.437, -2.744509
4235.366, 1.068312
4237.294, 2.712732
4239.223, -0.9791247
4241.151, 0.1572285
4243.080, -0.1212122
4245.008, 2.065196
4246.937, -0.5110226
4248.865, 2.418455
4250.793, 2.838583
4252.722, 5.290156
4254.650, 2.062677
4256.579, 0.2799594
4258.507, -0.4568246
4260.436, -2.464455
4262.364, -2.885275
4264.292, -3.039715
4266.221, -0.6218859
4268.149, 0.1637649
4270.078, 0.6233855
4272.006, 1.410564
4273.935, 1.104384
4275.863, -2.943115
4277.792, -4.2505011E-02
4279.720, -0.1828198
4281.649, -1.518335
4283.577, 5.547542
4285.506, 2.579373
4287.434, 3.977485
4289.363, -0.1555400
4291.291, -0.2954458
4293.220, -1.857320
4295.148, -2.942245
4297.077, -2.284099
4299.005, -2.757132
4300.934, -1.407548
4302.862, 0.9407820
4304.791, 0.6521367
4306.719, 1.424733
4308.647, 1.810572
4310.576, 1.778637
4312.504, 0.2587902
4314.433, -2.619191
4316.361, -0.8731153
4318.290, 1.480376
4320.218, -1.235718
4322.146, -7.1520910E-02
4324.075, -3.714896
4326.003, -3.427134
4327.932, 1.633845
4329.860, -0.9891838
4331.789, 2.918634
4333.717, -1.066331
4335.646, -0.9433812
4337.574, 2.518902
4339.503, -0.5367339
4341.431, -0.2810578
4343.360, 2.971926
4345.288, -3.761410
4347.217, -0.4358405
4349.145, 2.317729
4351.074, 0.5603544
4353.002, 0.4674421
4354.931, 2.927646
4356.859, 2.261830
4358.788, -1.732773
4360.716, -2.318994
4362.645, -3.150895
4364.573, -0.4924583
4366.501, 1.310603
4368.430, -1.795502
4370.358, -2.084788
4372.287, -8.0311410E-02
4374.215, -0.1949489
4376.144, -2.783089
4378.072, -4.144380
##END=



