##NAMES=Weddellite
##RRUFFID=R050242
##IDEAL CHEMISTRY=Ca(C_2_O_4_)·2H_2_O
##LOCALITY=Biggs, Wasco County, Oregon, USA
##OWNER=RRUFF
##SOURCE=Marcus Origlieri
##DESCRIPTION=Isolated yellowish brown crystal
##STATUS=The identification of this mineral has been confirmed by X-ray diffraction and chemical analysis
##URL=https://www.rruff.net/odr/rruff_sample/R050242
##MEASURED CHEMISTRY=Ca_1.00_(C_2_O_4_)·2H_2_O ; C not measured
##DIFFRACTION SAMPLE DESCRIPTION=Powder
##CELL PARAMETERS=a: 12.3693 b: 12.3693 c: 7.3567 alpha: 90 beta: 90 gamma: 90 volume: 1125.58 crystal system: tetragonal
##FILETYPE=Raman RAW
##RAMAN WAVELENGTH=532

86.05151, 287.3990
87.97998, 312.8549
89.90845, 366.5862
91.83691, 424.1770
93.76538, 476.5843
95.69385, 539.8138
97.62231, 622.3668
99.55078, 725.3105
101.4792, 838.0989
103.4077, 960.2946
105.3362, 1091.199
107.2646, 1220.260
109.1931, 1329.790
111.1216, 1450.094
113.0500, 1599.968
114.9785, 1789.930
116.9070, 2003.079
118.8354, 2250.622
120.7639, 2529.444
122.6924, 2802.550
124.6208, 3072.034
126.5493, 3331.715
128.4778, 3523.943
130.4063, 3542.124
132.3347, 3543.323
134.2632, 3560.550
136.1917, 3593.283
138.1201, 3634.793
140.0486, 3698.762
141.9771, 3768.717
143.9055, 3808.722
145.8340, 3802.394
147.7625, 3789.563
149.6909, 3787.856
151.6194, 3802.004
153.5479, 3819.625
155.4763, 3845.826
157.4048, 3875.554
159.3333, 3895.893
161.2617, 3896.596
163.1902, 3893.155
165.1187, 3892.696
167.0471, 3889.287
168.9756, 3897.902
170.9041, 3931.034
172.8325, 3986.035
174.7610, 4023.567
176.6895, 4031.437
178.6179, 4027.945
180.5464, 4028.675
182.4749, 4031.294
184.4033, 4041.721
186.3318, 4063.570
188.2603, 4100.777
190.1887, 4130.524
192.1172, 4148.247
194.0457, 4160.656
195.9741, 4175.244
197.9026, 4195.835
199.8311, 4213.310
201.7595, 4220.222
203.6880, 4212.616
205.6165, 4219.079
207.5449, 4256.374
209.4734, 4305.044
211.4019, 4339.015
213.3303, 4344.085
215.2588, 4346.633
217.1873, 4353.941
219.1157, 4366.210
221.0442, 4378.274
222.9727, 4383.631
224.9011, 4389.331
226.8296, 4409.436
228.7581, 4458.187
230.6865, 4506.256
232.6150, 4544.360
234.5435, 4572.255
236.4719, 4593.133
238.4004, 4601.541
240.3289, 4603.750
242.2573, 4612.934
244.1858, 4632.779
246.1143, 4653.973
248.0427, 4673.276
249.9712, 4690.631
251.8997, 4707.730
253.8281, 4727.046
255.7566, 4746.302
257.6851, 4761.357
259.6135, 4766.655
261.5420, 4775.520
263.4705, 4792.037
265.3989, 4817.549
267.3274, 4849.288
269.2559, 4898.608
271.1843, 4950.178
273.1128, 4985.658
275.0413, 4989.828
276.9697, 4991.482
278.8982, 4998.023
280.8267, 5009.994
282.7551, 5023.941
284.6836, 5039.181
286.6121, 5056.685
288.5405, 5077.750
290.4690, 5110.996
292.3975, 5140.101
294.3259, 5157.630
296.2544, 5165.091
298.1829, 5178.521
300.1113, 5209.242
302.0398, 5243.432
303.9683, 5268.275
305.8967, 5277.233
307.8252, 5283.834
309.7537, 5286.423
311.6821, 5286.173
313.6106, 5292.780
315.5391, 5313.122
317.4675, 5337.258
319.3960, 5357.822
321.3245, 5373.894
323.2529, 5389.805
325.1814, 5408.903
327.1099, 5430.249
329.0383, 5445.418
330.9668, 5447.673
332.8953, 5449.558
334.8238, 5460.438
336.7522, 5481.905
338.6807, 5501.375
340.6092, 5512.760
342.5376, 5519.872
344.4661, 5533.914
346.3946, 5558.236
348.3230, 5585.480
350.2515, 5613.497
352.1800, 5641.971
354.1084, 5668.917
356.0369, 5693.176
357.9654, 5715.094
359.8938, 5734.709
361.8223, 5748.841
363.7508, 5764.587
365.6792, 5785.983
367.6077, 5812.849
369.5362, 5836.639
371.4646, 5859.217
373.3931, 5878.513
375.3216, 5891.347
377.2500, 5896.509
379.1785, 5902.284
381.1070, 5906.046
383.0354, 5909.558
384.9639, 5928.580
386.8924, 5983.825
388.8208, 6035.621
390.7493, 6058.658
392.6778, 6052.296
394.6062, 6048.109
396.5347, 6051.984
398.4632, 6062.528
400.3916, 6078.926
402.3201, 6108.147
404.2486, 6136.794
406.1770, 6161.012
408.1055, 6181.775
410.0340, 6203.200
411.9624, 6230.795
413.8909, 6256.042
415.8194, 6269.576
417.7478, 6263.022
419.6763, 6264.289
421.6048, 6282.450
423.5332, 6312.201
425.4617, 6343.031
427.3902, 6376.826
429.3186, 6408.687
431.2471, 6438.411
433.1756, 6466.132
435.1040, 6482.960
437.0325, 6475.629
438.9610, 6462.343
440.8894, 6460.630
442.8179, 6489.641
444.7464, 6512.751
446.6748, 6522.853
448.6033, 6525.261
450.5318, 6535.156
452.4602, 6557.407
454.3887, 6585.009
456.3172, 6614.435
458.2456, 6645.141
460.1741, 6676.496
462.1026, 6707.529
464.0310, 6737.203
465.9595, 6764.429
467.8880, 6786.129
469.8164, 6808.852
471.7449, 6837.912
473.6734, 6872.068
475.6018, 6894.696
477.5303, 6901.578
479.4588, 6902.480
481.3872, 6898.470
483.3157, 6885.176
485.2442, 6891.361
487.1726, 6933.126
489.1011, 6989.713
491.0296, 7031.958
492.9580, 7054.365
494.8865, 7076.829
496.8150, 7107.273
498.7434, 7143.886
500.6719, 7175.644
502.6004, 7201.270
504.5288, 7223.667
506.4573, 7240.955
508.3858, 7252.966
510.3142, 7273.758
512.2427, 7321.139
514.1711, 7371.441
516.0996, 7402.686
518.0281, 7392.864
519.9565, 7386.560
521.8850, 7384.086
523.8135, 7386.165
525.7419, 7394.244
527.6704, 7410.508
529.5989, 7428.144
531.5273, 7446.281
533.4558, 7466.213
535.3843, 7476.982
537.3127, 7467.796
539.2412, 7459.153
541.1697, 7468.875
543.0981, 7503.053
545.0266, 7532.600
546.9551, 7552.306
548.8835, 7565.225
550.8120, 7574.272
552.7405, 7564.356
554.6689, 7570.138
556.5974, 7615.368
558.5259, 7686.149
560.4543, 7738.718
562.3828, 7747.563
564.3113, 7752.870
566.2397, 7773.014
568.1682, 7813.836
570.0967, 7838.097
572.0251, 7817.729
573.9536, 7797.375
575.8821, 7814.479
577.8105, 7894.161
579.7390, 7955.769
581.6675, 7975.312
583.5960, 7971.668
585.5245, 7986.333
587.4529, 8031.382
589.3814, 8069.916
591.3099, 8085.719
593.2383, 8082.521
595.1668, 8082.982
597.0953, 8084.073
599.0237, 8092.533
600.9522, 8115.976
602.8807, 8154.516
604.8091, 8186.800
606.7376, 8204.344
608.6661, 8218.479
610.5945, 8237.307
612.5230, 8264.643
614.4515, 8288.759
616.3799, 8312.951
618.3084, 8332.553
620.2369, 8339.509
622.1653, 8328.406
624.0938, 8322.351
626.0223, 8330.848
627.9507, 8350.430
629.8792, 8369.880
631.8077, 8384.120
633.7361, 8403.147
635.6646, 8429.758
637.5931, 8462.966
639.5215, 8501.574
641.4500, 8559.560
643.3785, 8606.272
645.3069, 8621.741
647.2354, 8589.062
649.1639, 8583.313
651.0923, 8626.453
653.0208, 8680.454
654.9493, 8714.608
656.8777, 8726.605
658.8062, 8740.479
660.7347, 8764.417
662.6631, 8790.562
664.5916, 8810.133
666.5201, 8815.172
668.4485, 8822.676
670.3770, 8840.023
672.3055, 8859.262
674.2339, 8866.183
676.1624, 8850.167
678.0909, 8843.745
680.0193, 8863.733
681.9478, 8905.048
683.8763, 8932.236
685.8047, 8922.605
687.7332, 8924.913
689.6617, 8971.104
691.5901, 9048.176
693.5186, 9098.886
695.4471, 9090.757
697.3755, 9079.029
699.3040, 9087.053
701.2325, 9118.853
703.1609, 9150.742
705.0894, 9184.000
707.0179, 9215.463
708.9464, 9242.946
710.8748, 9266.255
712.8033, 9287.540
714.7318, 9312.193
716.6602, 9331.981
718.5887, 9337.673
720.5172, 9312.822
722.4456, 9309.065
724.3741, 9342.374
726.3026, 9392.100
728.2310, 9438.148
730.1595, 9481.894
732.0880, 9516.660
734.0164, 9537.706
735.9449, 9550.375
737.8734, 9562.049
739.8018, 9566.104
741.7303, 9579.453
743.6588, 9615.391
745.5872, 9660.327
747.5157, 9692.491
749.4442, 9706.873
751.3726, 9716.298
753.3011, 9713.492
755.2296, 9706.635
757.1580, 9727.162
759.0865, 9802.981
761.0150, 9867.340
762.9434, 9890.850
764.8719, 9889.854
766.8004, 9906.080
768.7288, 9958.416
770.6573, 10006.35
772.5858, 10038.04
774.5142, 10054.79
776.4427, 10065.30
778.3712, 10054.64
780.2996, 10053.59
782.2281, 10078.16
784.1566, 10120.83
786.0850, 10158.67
788.0135, 10188.77
789.9420, 10211.51
791.8704, 10227.35
793.7989, 10236.26
795.7274, 10238.67
797.6558, 10217.67
799.5843, 10209.26
801.5128, 10243.05
803.4412, 10309.08
805.3697, 10355.83
807.2982, 10365.78
809.2266, 10368.22
811.1551, 10374.24
813.0836, 10383.88
815.0120, 10395.92
816.9405, 10404.83
818.8690, 10421.12
820.7974, 10457.11
822.7259, 10508.67
824.6544, 10548.70
826.5828, 10564.38
828.5113, 10577.91
830.4398, 10600.64
832.3682, 10633.78
834.2967, 10657.37
836.2252, 10655.20
838.1536, 10659.05
840.0821, 10693.56
842.0106, 10752.72
843.9390, 10791.92
845.8675, 10792.27
847.7960, 10791.63
849.7244, 10808.20
851.6529, 10843.39
853.5814, 10876.31
855.5098, 10908.38
857.4383, 10936.38
859.3668, 10956.50
861.2952, 10969.87
863.2237, 10986.27
865.1522, 11008.23
867.0806, 11030.83
869.0091, 11046.74
870.9376, 11057.29
872.8660, 11088.00
874.7945, 11176.96
876.7230, 11244.77
878.6514, 11248.97
880.5799, 11202.89
882.5084, 11193.41
884.4368, 11245.31
886.3653, 11293.89
888.2938, 11303.60
890.2222, 11289.47
892.1507, 11299.83
894.0792, 11372.67
896.0076, 11425.04
897.9361, 11414.43
899.8646, 11368.25
901.7930, 11378.17
903.7215, 11473.52
905.6500, 11562.49
907.5784, 11614.54
909.5069, 11643.89
911.4354, 11672.44
913.3638, 11699.83
915.2923, 11727.50
917.2208, 11762.07
919.1492, 11794.88
921.0777, 11810.81
923.0062, 11798.00
924.9346, 11789.16
926.8631, 11783.75
928.7916, 11784.98
930.7200, 11798.27
932.6485, 11826.56
934.5770, 11849.65
936.5054, 11857.50
938.4339, 11864.10
940.3624, 11879.83
942.2908, 11908.07
944.2193, 11941.10
946.1478, 11985.77
948.0762, 12029.52
950.0047, 12061.72
951.9332, 12082.38
953.8616, 12101.01
955.7901, 12120.95
957.7186, 12133.78
959.6470, 12133.04
961.5755, 12118.84
963.5040, 12114.50
965.4324, 12125.83
967.3609, 12144.78
969.2894, 12178.80
971.2178, 12222.27
973.1463, 12244.13
975.0748, 12221.35
977.0032, 12219.71
978.9317, 12287.23
980.8602, 12383.40
982.7886, 12434.04
984.7171, 12403.18
986.6456, 12395.60
988.5740, 12450.28
990.5025, 12526.90
992.4310, 12574.35
994.3594, 12584.23
996.2879, 12589.99
998.2164, 12586.89
1000.145, 12587.71
1002.073, 12606.10
1004.002, 12642.33
1005.930, 12670.61
1007.859, 12681.80
1009.787, 12688.98
1011.716, 12694.61
1013.644, 12698.28
1015.573, 12717.21
1017.501, 12761.29
1019.430, 12807.66
1021.358, 12847.70
1023.286, 12883.80
1025.215, 12924.20
1027.143, 12970.17
1029.072, 13014.31
1031.000, 13057.26
1032.929, 13094.17
1034.857, 13115.26
1036.786, 13106.04
1038.714, 13115.54
1040.643, 13171.89
1042.571, 13232.91
1044.500, 13259.70
1046.428, 13246.68
1048.356, 13239.84
1050.285, 13236.48
1052.213, 13245.50
1054.142, 13282.17
1056.070, 13337.65
1057.999, 13371.20
1059.927, 13358.31
1061.856, 13354.94
1063.784, 13391.45
1065.713, 13448.47
1067.641, 13477.05
1069.570, 13431.80
1071.498, 13419.64
1073.427, 13472.32
1075.355, 13547.08
1077.284, 13598.35
1079.212, 13626.65
1081.141, 13643.54
1083.069, 13632.49
1084.997, 13631.02
1086.926, 13669.54
1088.854, 13746.57
1090.783, 13794.34
1092.711, 13774.06
1094.640, 13764.97
1096.568, 13793.11
1098.497, 13845.96
1100.425, 13891.55
1102.354, 13932.03
1104.282, 13963.02
1106.211, 13976.50
1108.139, 13984.97
1110.068, 13999.70
1111.996, 14020.46
1113.924, 14040.66
1115.853, 14057.02
1117.781, 14073.70
1119.710, 14095.39
1121.638, 14121.17
1123.567, 14137.44
1125.495, 14129.82
1127.424, 14132.51
1129.352, 14160.84
1131.281, 14201.67
1133.209, 14231.52
1135.138, 14247.97
1137.066, 14267.60
1138.995, 14293.57
1140.923, 14322.75
1142.851, 14351.84
1144.780, 14380.53
1146.708, 14413.17
1148.637, 14461.79
1150.565, 14497.62
1152.494, 14496.72
1154.422, 14478.20
1156.351, 14492.67
1158.279, 14584.54
1160.208, 14643.48
1162.136, 14641.02
1164.065, 14619.89
1165.993, 14619.33
1167.922, 14637.65
1169.850, 14649.43
1171.778, 14641.29
1173.707, 14641.20
1175.635, 14660.93
1177.564, 14698.24
1179.492, 14749.02
1181.421, 14821.33
1183.349, 14890.59
1185.278, 14960.61
1187.206, 15019.05
1189.135, 15048.73
1191.063, 15039.17
1192.992, 15046.40
1194.920, 15082.52
1196.849, 15122.26
1198.777, 15163.51
1200.705, 15202.62
1202.634, 15229.47
1204.562, 15242.77
1206.491, 15253.07
1208.419, 15246.34
1210.348, 15250.01
1212.276, 15289.06
1214.205, 15365.17
1216.133, 15434.62
1218.062, 15505.00
1219.990, 15552.68
1221.919, 15555.31
1223.847, 15533.20
1225.776, 15536.90
1227.704, 15584.10
1229.632, 15625.85
1231.561, 15653.82
1233.489, 15679.63
1235.418, 15710.87
1237.346, 15745.79
1239.275, 15780.19
1241.203, 15813.06
1243.132, 15842.79
1245.060, 15868.10
1246.989, 15890.79
1248.917, 15913.91
1250.846, 15939.68
1252.774, 15963.45
1254.703, 15982.83
1256.631, 16002.60
1258.559, 16018.13
1260.488, 16032.22
1262.416, 16066.74
1264.345, 16136.54
1266.273, 16198.53
1268.202, 16260.35
1270.130, 16302.57
1272.059, 16293.21
1273.987, 16238.56
1275.916, 16206.99
1277.844, 16212.96
1279.773, 16230.56
1281.701, 16256.07
1283.630, 16283.61
1285.558, 16299.83
1287.486, 16298.36
1289.415, 16315.11
1291.343, 16375.29
1293.272, 16436.59
1295.200, 16475.13
1297.129, 16497.11
1299.057, 16534.91
1300.986, 16617.75
1302.914, 16676.31
1304.843, 16682.47
1306.771, 16678.79
1308.700, 16700.76
1310.628, 16747.05
1312.557, 16798.64
1314.485, 16861.66
1316.413, 16912.35
1318.342, 16928.40
1320.270, 16933.40
1322.199, 16962.49
1324.127, 17019.13
1326.056, 17049.78
1327.984, 17023.91
1329.913, 17008.52
1331.841, 17046.05
1333.770, 17112.28
1335.698, 17146.16
1337.627, 17119.43
1339.555, 17127.95
1341.484, 17209.35
1343.412, 17290.84
1345.340, 17329.83
1347.269, 17334.46
1349.197, 17345.68
1351.126, 17362.48
1353.054, 17386.80
1354.983, 17417.28
1356.911, 17456.13
1358.840, 17515.87
1360.768, 17587.82
1362.697, 17625.11
1364.625, 17605.26
1366.554, 17604.21
1368.482, 17668.88
1370.411, 17747.57
1372.339, 17803.13
1374.267, 17835.61
1376.196, 17835.02
1378.124, 17757.52
1380.053, 17726.19
1381.981, 17812.15
1383.910, 17934.58
1385.838, 18006.33
1387.767, 18017.79
1389.695, 18025.46
1391.624, 18025.98
1393.552, 18028.75
1395.481, 18028.13
1397.409, 18036.76
1399.338, 18079.18
1401.266, 18170.01
1403.194, 18230.53
1405.123, 18237.64
1407.051, 18242.89
1408.980, 18252.28
1410.908, 18273.92
1412.837, 18327.17
1414.765, 18412.91
1416.694, 18480.59
1418.622, 18510.79
1420.551, 18539.38
1422.479, 18590.93
1424.408, 18645.46
1426.336, 18671.71
1428.265, 18667.10
1430.193, 18670.06
1432.121, 18692.10
1434.050, 18715.33
1435.978, 18730.37
1437.907, 18745.21
1439.835, 18774.04
1441.764, 18822.20
1443.692, 18864.24
1445.621, 18895.72
1447.549, 18924.57
1449.478, 18948.55
1451.406, 18971.81
1453.335, 19001.44
1455.263, 19038.29
1457.192, 19073.41
1459.120, 19102.00
1461.048, 19134.60
1462.977, 19177.28
1464.905, 19226.54
1466.834, 19277.12
1468.762, 19330.25
1470.691, 19392.14
1472.619, 19472.58
1474.548, 19547.96
1476.476, 19603.23
1478.405, 19650.83
1480.333, 19711.88
1482.262, 19781.92
1484.190, 19818.85
1486.119, 19809.91
1488.047, 19788.78
1489.975, 19756.80
1491.904, 19729.95
1493.832, 19721.22
1495.761, 19730.41
1497.689, 19751.62
1499.618, 19785.19
1501.546, 19825.73
1503.475, 19877.16
1505.403, 19927.07
1507.332, 19966.79
1509.260, 19996.39
1511.189, 20021.95
1513.117, 20045.15
1515.046, 20059.77
1516.974, 20052.87
1518.902, 20051.42
1520.831, 20078.94
1522.759, 20123.95
1524.688, 20149.91
1526.616, 20149.05
1528.545, 20150.52
1530.473, 20145.50
1532.402, 20155.08
1534.330, 20202.45
1536.259, 20262.97
1538.187, 20291.99
1540.116, 20278.28
1542.044, 20281.29
1543.973, 20307.88
1545.901, 20341.31
1547.829, 20372.92
1549.758, 20412.44
1551.686, 20477.79
1553.615, 20566.59
1555.543, 20628.52
1557.472, 20645.46
1559.400, 20672.26
1561.329, 20739.46
1563.257, 20802.79
1565.186, 20815.73
1567.114, 20802.27
1569.043, 20840.10
1570.971, 20943.38
1572.900, 21018.26
1574.828, 21030.99
1576.756, 21034.39
1578.685, 21050.47
1580.613, 21074.06
1582.542, 21102.07
1584.470, 21135.00
1586.399, 21156.11
1588.327, 21152.13
1590.256, 21169.51
1592.184, 21251.15
1594.113, 21338.98
1596.041, 21382.80
1597.970, 21392.04
1599.898, 21403.51
1601.827, 21412.57
1603.755, 21439.83
1605.683, 21493.40
1607.612, 21558.39
1609.540, 21639.93
1611.469, 21722.72
1613.397, 21786.29
1615.326, 21832.54
1617.254, 21837.55
1619.183, 21766.54
1621.111, 21720.87
1623.040, 21751.49
1624.968, 21802.38
1626.897, 21826.88
1628.825, 21831.72
1630.754, 21865.25
1632.682, 21938.49
1634.610, 22003.83
1636.539, 22061.63
1638.467, 22101.01
1640.396, 22103.12
1642.324, 22092.84
1644.253, 22102.59
1646.181, 22132.38
1648.110, 22186.44
1650.038, 22292.88
1651.967, 22369.92
1653.895, 22381.77
1655.824, 22380.46
1657.752, 22392.05
1659.681, 22415.64
1661.609, 22455.67
1663.537, 22529.23
1665.466, 22563.65
1667.394, 22501.98
1669.323, 22477.19
1671.251, 22559.11
1673.180, 22661.45
1675.108, 22699.36
1677.037, 22683.17
1678.965, 22690.08
1680.894, 22735.39
1682.822, 22770.83
1684.751, 22770.93
1686.679, 22788.11
1688.608, 22852.06
1690.536, 22935.52
1692.464, 23004.50
1694.393, 23057.33
1696.321, 23110.27
1698.250, 23173.62
1700.178, 23213.66
1702.107, 23200.37
1704.035, 23194.84
1705.964, 23237.32
1707.892, 23302.26
1709.821, 23351.75
1711.749, 23388.56
1713.678, 23411.16
1715.606, 23400.08
1717.535, 23412.11
1719.463, 23464.42
1721.391, 23527.35
1723.320, 23588.28
1725.248, 23642.57
1727.177, 23679.26
1729.105, 23689.22
1731.034, 23716.52
1732.962, 23785.03
1734.891, 23832.81
1736.819, 23855.07
1738.748, 23858.13
1740.676, 23832.33
1742.605, 23799.44
1744.533, 23799.30
1746.462, 23835.25
1748.390, 23893.89
1750.318, 24010.60
1752.247, 24089.33
1754.175, 24078.54
1756.104, 24064.19
1758.032, 24082.91
1759.961, 24132.04
1761.889, 24221.00
1763.818, 24361.03
1765.746, 24435.25
1767.675, 24396.80
1769.603, 24382.03
1771.532, 24441.97
1773.460, 24501.22
1775.389, 24532.74
1777.317, 24541.42
1779.245, 24517.60
1781.174, 24460.74
1783.102, 24471.88
1785.031, 24583.82
1786.959, 24675.19
1788.888, 24704.75
1790.816, 24728.28
1792.745, 24766.79
1794.673, 24810.30
1796.602, 24842.40
1798.530, 24868.34
1800.459, 24933.89
1802.387, 25061.38
1804.316, 25134.48
1806.244, 25099.19
1808.172, 25067.59
1810.101, 25086.73
1812.029, 25124.07
1813.958, 25163.51
1815.886, 25198.88
1817.815, 25204.37
1819.743, 25177.77
1821.672, 25188.65
1823.600, 25273.54
1825.529, 25333.04
1827.457, 25296.84
1829.386, 25268.94
1831.314, 25322.69
1833.243, 25425.82
1835.171, 25544.68
1837.099, 25671.34
1839.028, 25740.27
1840.956, 25725.87
1842.885, 25725.92
1844.813, 25771.17
1846.742, 25821.95
1848.670, 25871.65
1850.599, 25911.79
1852.527, 25932.22
1854.456, 25938.62
1856.384, 25944.11
1858.313, 25948.73
1860.241, 25966.93
1862.170, 25996.61
1864.098, 26046.74
1866.026, 26132.84
1867.955, 26222.60
1869.883, 26302.35
1871.812, 26364.27
1873.740, 26385.41
1875.669, 26364.28
1877.597, 26369.26
1879.526, 26411.97
1881.454, 26459.00
1883.383, 26546.75
1885.311, 26596.26
1887.240, 26545.29
1889.168, 26490.61
1891.097, 26524.59
1893.025, 26616.78
1894.953, 26678.86
1896.882, 26697.32
1898.810, 26752.24
1900.739, 26863.15
1902.667, 26946.74
1904.596, 26971.31
1906.524, 26981.34
1908.453, 26996.55
1910.381, 27006.52
1912.310, 27001.84
1914.238, 26990.10
1916.167, 26983.14
1918.095, 26983.34
1920.024, 27006.14
1921.952, 27057.89
1923.880, 27113.74
1925.809, 27184.73
1927.737, 27226.98
1929.666, 27180.49
1931.594, 27124.01
1933.523, 27150.87
1935.451, 27231.42
1937.380, 27283.07
1939.308, 27304.47
1941.237, 27321.21
1943.165, 27314.52
1945.094, 27347.26
1947.022, 27464.53
1948.951, 27575.56
1950.879, 27650.38
1952.807, 27688.21
1954.736, 27678.58
1956.664, 27635.90
1958.593, 27601.19
1960.521, 27579.31
1962.450, 27560.49
1964.378, 27539.29
1966.307, 27541.89
1968.235, 27577.91
1970.164, 27629.62
1972.092, 27692.10
1974.021, 27761.92
1975.949, 27846.49
1977.878, 27927.69
1979.806, 27957.01
1981.734, 27938.22
1983.663, 27972.95
1985.591, 28082.88
1987.520, 28142.02
1989.448, 28099.48
1991.377, 28079.13
1993.305, 28151.03
1995.234, 28229.13
1997.162, 28249.01
1999.091, 28248.76
2001.019, 28276.77
2002.948, 28327.73
2004.876, 28385.75
2006.805, 28456.77
2008.733, 28493.15
2010.661, 28458.92
2012.590, 28456.09
2014.518, 28528.47
2016.447, 28595.30
2018.375, 28610.24
2020.304, 28617.47
2022.232, 28662.45
2024.161, 28723.95
2026.089, 28757.85
2028.018, 28764.88
2029.946, 28766.68
2031.875, 28755.88
2033.803, 28774.74
2035.732, 28837.74
2037.660, 28901.12
2039.589, 28962.79
2041.517, 29004.09
2043.445, 29004.66
2045.374, 28991.81
2047.302, 28993.17
2049.231, 29005.47
2051.159, 29015.53
2053.088, 29027.21
2055.016, 29060.50
2056.945, 29116.38
2058.873, 29187.27
2060.802, 29291.89
2062.730, 29370.22
2064.659, 29374.25
2066.587, 29384.12
2068.516, 29460.49
2070.444, 29543.87
2072.373, 29580.13
2074.301, 29579.38
2076.229, 29555.99
2078.158, 29513.38
2080.086, 29493.76
2082.015, 29498.47
2083.943, 29537.73
2085.872, 29633.54
2087.800, 29702.12
2089.729, 29688.32
2091.657, 29686.98
2093.586, 29751.84
2095.514, 29839.97
2097.443, 29933.27
2099.371, 30015.12
2101.300, 30050.71
2103.228, 30046.26
2105.156, 30048.48
2107.085, 30060.16
2109.013, 30069.35
2110.942, 30049.99
2112.870, 30076.96
2114.799, 30211.15
2116.727, 30315.21
2118.656, 30331.42
2120.584, 30331.40
2122.513, 30355.16
2124.441, 30380.92
2126.370, 30375.84
2128.298, 30355.04
2130.227, 30364.84
2132.155, 30399.62
2134.083, 30398.39
2136.012, 30351.22
2137.940, 30351.15
2139.869, 30439.96
2141.797, 30516.68
2143.726, 30555.51
2145.654, 30583.26
2147.583, 30596.03
2149.511, 30607.88
2151.440, 30617.37
2153.368, 30637.94
2155.297, 30712.44
2157.225, 30810.90
2159.154, 30822.96
2161.082, 30760.79
2163.010, 30748.35
2164.939, 30796.18
2166.867, 30837.24
2168.796, 30851.94
2170.724, 30891.02
2172.653, 31002.62
2174.581, 31079.98
2176.510, 31059.65
2178.438, 31024.00
2180.367, 31012.52
2182.295, 31027.77
2184.224, 31081.74
2186.152, 31159.91
2188.081, 31227.97
2190.009, 31284.30
2191.938, 31346.68
2193.866, 31413.78
2195.794, 31436.14
2197.723, 31395.49
2199.651, 31380.59
2201.580, 31425.58
2203.508, 31460.93
2205.437, 31462.03
2207.365, 31462.11
2209.294, 31485.16
2211.222, 31508.27
2213.151, 31483.69
2215.079, 31471.60
2217.008, 31581.44
2218.936, 31757.14
2220.865, 31835.77
2222.793, 31819.95
2224.721, 31827.77
2226.650, 31857.85
2228.578, 31922.01
2230.507, 32039.86
2232.435, 32090.46
2234.364, 32015.60
2236.292, 31963.66
2238.221, 31992.97
2240.149, 32042.58
2242.078, 32109.40
2244.006, 32163.17
2245.935, 32162.89
2247.863, 32154.15
2249.792, 32196.46
2251.720, 32267.18
2253.648, 32314.71
2255.577, 32345.02
2257.505, 32389.06
2259.434, 32446.25
2261.362, 32534.21
2263.291, 32661.31
2265.219, 32733.93
2267.148, 32719.51
2269.076, 32699.91
2271.005, 32682.48
2272.933, 32680.38
2274.862, 32703.65
2276.790, 32740.97
2278.719, 32811.75
2280.647, 32869.03
2282.575, 32865.53
2284.504, 32838.38
2286.432, 32822.09
2288.361, 32817.52
2290.289, 32827.74
2292.218, 32852.49
2294.146, 32895.64
2296.075, 32958.43
2298.003, 33005.24
2299.932, 33023.70
2301.860, 33066.17
2303.789, 33169.32
2305.717, 33216.34
2307.646, 33152.45
2309.574, 33119.75
2311.502, 33166.86
2313.431, 33215.15
2315.359, 33241.89
2317.288, 33252.85
2319.216, 33237.06
2321.145, 33229.28
2323.073, 33260.99
2325.002, 33320.28
2326.930, 33395.73
2328.859, 33479.16
2330.787, 33555.14
2332.716, 33618.23
2334.644, 33655.67
2336.573, 33665.77
2338.501, 33683.04
2340.429, 33710.27
2342.358, 33750.73
2344.286, 33819.45
2346.215, 33852.86
2348.143, 33837.31
2350.072, 33802.49
2352.000, 33726.39
2353.929, 33675.51
2355.857, 33673.11
2357.786, 33691.77
2359.714, 33725.39
2361.643, 33768.70
2363.571, 33831.53
2365.500, 33887.43
2367.428, 33890.00
2369.356, 33886.19
2371.285, 33961.77
2373.213, 34068.85
2375.142, 34089.30
2377.070, 34045.60
2378.999, 34060.18
2380.927, 34134.86
2382.856, 34130.71
2384.784, 34044.08
2386.713, 34022.21
2388.641, 34079.54
2390.570, 34155.91
2392.498, 34252.30
2394.427, 34326.88
2396.355, 34362.84
2398.283, 34384.41
2400.212, 34394.13
2402.140, 34388.76
2404.069, 34351.23
2405.997, 34324.64
2407.926, 34339.52
2409.854, 34362.31
2411.783, 34383.65
2413.711, 34400.76
2415.640, 34379.67
2417.568, 34381.48
2419.497, 34510.35
2421.425, 34680.06
2423.354, 34732.45
2425.282, 34709.64
2427.210, 34736.35
2429.139, 34798.96
2431.067, 34845.67
2432.996, 34877.64
2434.924, 34882.10
2436.853, 34864.07
2438.781, 34869.18
2440.710, 34906.92
2442.638, 34947.30
2444.567, 34976.14
2446.495, 35027.43
2448.424, 35111.79
2450.352, 35171.55
2452.281, 35194.80
2454.209, 35200.69
2456.137, 35197.13
2458.066, 35179.73
2459.994, 35119.84
2461.923, 35092.65
2463.851, 35140.22
2465.780, 35211.38
2467.708, 35290.45
2469.637, 35365.41
2471.565, 35432.05
2473.494, 35485.63
2475.422, 35522.74
2477.351, 35546.39
2479.279, 35545.87
2481.208, 35545.15
2483.136, 35595.59
2485.064, 35659.98
2486.993, 35648.10
2488.921, 35591.80
2490.850, 35587.58
2492.778, 35628.06
2494.707, 35706.13
2496.635, 35805.54
2498.564, 35819.99
2500.492, 35746.90
2502.421, 35696.76
2504.349, 35669.87
2506.278, 35665.99
2508.206, 35684.46
2510.135, 35734.72
2512.063, 35825.84
2513.991, 35900.39
2515.920, 35957.07
2517.848, 35974.63
2519.777, 35926.12
2521.705, 35896.78
2523.634, 35906.75
2525.562, 35925.55
2527.491, 35951.30
2529.419, 35978.85
2531.348, 35995.44
2533.276, 36039.98
2535.205, 36151.13
2537.133, 36248.50
2539.062, 36275.08
2540.990, 36303.20
2542.918, 36388.22
2544.847, 36454.90
2546.775, 36431.43
2548.704, 36409.30
2550.632, 36479.87
2552.561, 36546.48
2554.489, 36516.68
2556.418, 36471.59
2558.346, 36485.45
2560.275, 36528.43
2562.203, 36562.28
2564.132, 36602.54
2566.060, 36700.30
2567.989, 36796.63
2569.917, 36755.62
2571.845, 36676.67
2573.774, 36766.03
2575.702, 36936.61
2577.631, 36973.43
2579.559, 36924.37
2581.488, 36930.26
2583.416, 36982.57
2585.345, 37076.73
2587.273, 37187.98
2589.202, 37214.12
2591.130, 37165.20
2593.059, 37107.05
2594.987, 37046.55
2596.916, 37042.11
2598.844, 37099.11
2600.772, 37149.74
2602.701, 37194.14
2604.629, 37214.06
2606.558, 37207.36
2608.486, 37242.81
2610.415, 37333.25
2612.343, 37384.60
2614.272, 37389.27
2616.200, 37368.94
2618.129, 37312.67
2620.057, 37318.68
2621.986, 37403.02
2623.914, 37474.36
2625.843, 37527.35
2627.771, 37536.91
2629.699, 37449.28
2631.628, 37429.01
2633.556, 37504.62
2635.485, 37570.97
2637.413, 37616.29
2639.342, 37665.57
2641.270, 37725.14
2643.199, 37779.66
2645.127, 37801.30
2647.056, 37856.70
2648.984, 37985.15
2650.913, 38065.81
2652.841, 38063.86
2654.770, 38075.59
2656.698, 38138.39
2658.626, 38166.69
2660.555, 38104.63
2662.483, 38063.00
2664.412, 38062.63
2666.340, 38089.43
2668.269, 38158.73
2670.197, 38220.69
2672.126, 38267.14
2674.054, 38300.77
2675.983, 38334.36
2677.911, 38332.06
2679.840, 38205.85
2681.768, 38175.77
2683.697, 38351.20
2685.625, 38486.83
2687.553, 38513.89
2689.482, 38497.26
2691.410, 38421.63
2693.339, 38374.14
2695.267, 38383.08
2697.196, 38414.57
2699.124, 38466.36
2701.053, 38513.30
2702.981, 38542.72
2704.910, 38570.75
2706.838, 38605.16
2708.767, 38639.13
2710.695, 38685.18
2712.624, 38715.32
2714.552, 38711.70
2716.480, 38725.28
2718.409, 38794.41
2720.337, 38832.96
2722.266, 38749.68
2724.194, 38725.81
2726.123, 38870.14
2728.051, 38977.37
2729.980, 38977.51
2731.908, 38987.78
2733.837, 39053.09
2735.765, 39110.36
2737.694, 39156.30
2739.622, 39163.27
2741.551, 39075.36
2743.479, 39036.63
2745.407, 39090.16
2747.336, 39145.85
2749.264, 39182.27
2751.193, 39207.71
2753.121, 39221.76
2755.050, 39229.30
2756.978, 39223.68
2758.907, 39240.28
2760.835, 39310.82
2762.764, 39328.29
2764.692, 39228.27
2766.621, 39188.65
2768.549, 39266.60
2770.478, 39370.04
2772.406, 39514.52
2774.334, 39578.96
2776.263, 39517.36
2778.191, 39482.22
2780.120, 39509.70
2782.048, 39537.34
2783.977, 39561.54
2785.905, 39596.36
2787.834, 39650.95
2789.762, 39681.07
2791.691, 39675.92
2793.619, 39697.90
2795.548, 39786.55
2797.476, 39759.98
2799.405, 39574.65
2801.333, 39571.55
2803.261, 39770.21
2805.190, 39865.14
2807.118, 39830.69
2809.047, 39789.62
2810.975, 39737.36
2812.904, 39797.83
2814.832, 39959.91
2816.761, 39993.64
2818.689, 39914.77
2820.618, 39926.08
2822.546, 40018.01
2824.475, 40106.99
2826.403, 40181.38
2828.332, 40128.13
2830.260, 39999.82
2832.188, 39994.96
2834.117, 40071.98
2836.045, 40108.12
2837.974, 40122.96
2839.902, 40171.85
2841.831, 40226.86
2843.759, 40203.63
2845.688, 40158.46
2847.616, 40187.64
2849.545, 40238.05
2851.473, 40233.58
2853.402, 40208.30
2855.330, 40212.20
2857.259, 40217.08
2859.187, 40178.47
2861.115, 40160.88
2863.044, 40246.49
2864.972, 40347.55
2866.901, 40409.96
2868.829, 40444.70
2870.758, 40420.12
2872.686, 40422.77
2874.615, 40519.03
2876.543, 40614.15
2878.472, 40681.16
2880.400, 40703.40
2882.329, 40644.64
2884.257, 40622.50
2886.186, 40696.82
2888.114, 40776.38
2890.042, 40881.82
2891.971, 40904.54
2893.899, 40802.17
2895.828, 40750.38
2897.756, 40781.07
2899.685, 40824.57
2901.613, 40873.25
2903.542, 40934.46
2905.470, 41015.24
2907.399, 41040.57
2909.327, 41010.20
2911.256, 40944.46
2913.184, 40850.65
2915.113, 40841.52
2917.041, 40906.09
2918.969, 40953.14
2920.898, 40993.34
2922.826, 41091.26
2924.755, 41197.94
2926.683, 41187.70
2928.612, 41113.53
2930.540, 41061.58
2932.469, 41033.70
2934.397, 41042.18
2936.326, 41068.22
2938.254, 41091.49
2940.183, 41123.80
2942.111, 41175.11
2944.040, 41232.67
2945.968, 41274.16
2947.896, 41330.59
2949.825, 41458.79
2951.753, 41532.01
2953.682, 41494.35
2955.610, 41409.39
2957.539, 41262.73
2959.467, 41162.22
2961.396, 41136.80
2963.324, 41175.70
2965.253, 41312.67
2967.181, 41363.60
2969.110, 41309.67
2971.038, 41291.66
2972.967, 41322.52
2974.895, 41381.44
2976.823, 41464.11
2978.752, 41497.11
2980.680, 41495.79
2982.609, 41536.23
2984.537, 41597.74
2986.466, 41641.56
2988.394, 41649.22
2990.323, 41523.18
2992.251, 41398.50
2994.180, 41460.68
2996.108, 41565.36
2998.037, 41572.09
2999.965, 41569.48
3001.894, 41632.16
3003.822, 41684.19
3005.750, 41660.86
3007.679, 41668.01
3009.607, 41785.34
3011.536, 41853.02
3013.464, 41819.82
3015.393, 41814.85
3017.321, 41861.49
3019.250, 41934.46
3021.178, 42058.55
3023.107, 42090.88
3025.035, 42037.87
3026.964, 42057.07
3028.892, 42134.19
3030.821, 42082.05
3032.749, 41958.04
3034.677, 41974.84
3036.606, 42077.15
3038.534, 42208.05
3040.463, 42298.93
3042.391, 42202.16
3044.320, 42093.34
3046.248, 42161.29
3048.177, 42243.91
3050.105, 42250.09
3052.034, 42237.97
3053.962, 42218.44
3055.891, 42215.98
3057.819, 42247.30
3059.748, 42263.90
3061.676, 42254.23
3063.604, 42240.52
3065.533, 42212.44
3067.461, 42232.59
3069.390, 42295.27
3071.318, 42336.93
3073.247, 42357.33
3075.175, 42369.54
3077.104, 42378.45
3079.032, 42404.36
3080.961, 42428.88
3082.889, 42417.48
3084.818, 42403.02
3086.746, 42425.95
3088.675, 42450.12
3090.603, 42436.07
3092.531, 42445.98
3094.460, 42519.64
3096.388, 42595.41
3098.317, 42671.47
3100.245, 42694.86
3102.174, 42652.36
3104.102, 42597.54
3106.031, 42533.58
3107.959, 42505.76
3109.888, 42517.35
3111.816, 42564.02
3113.745, 42640.84
3115.673, 42749.71
3117.602, 42845.54
3119.530, 42817.02
3121.458, 42755.53
3123.387, 42743.36
3125.315, 42766.70
3127.244, 42890.40
3129.172, 42932.28
3131.101, 42774.22
3133.029, 42639.26
3134.958, 42569.52
3136.886, 42578.94
3138.815, 42697.55
3140.743, 42808.75
3142.672, 42906.00
3144.600, 42875.51
3146.529, 42746.11
3148.457, 42717.58
3150.385, 42755.71
3152.314, 42790.95
3154.242, 42816.50
3156.171, 42800.31
3158.099, 42801.46
3160.028, 42922.54
3161.956, 42985.52
3163.885, 42869.18
3165.813, 42796.90
3167.742, 42884.58
3169.670, 42948.59
3171.599, 42973.35
3173.527, 42990.43
3175.456, 43003.66
3177.384, 43070.67
3179.313, 43169.29
3181.241, 43159.03
3183.169, 43093.97
3185.098, 43065.23
3187.026, 43077.70
3188.955, 43180.43
3190.883, 43269.78
3192.812, 43280.58
3194.740, 43264.10
3196.669, 43204.29
3198.597, 43206.91
3200.526, 43315.91
3202.454, 43358.10
3204.383, 43315.34
3206.311, 43280.04
3208.240, 43255.80
3210.168, 43251.66
3212.096, 43259.24
3214.025, 43262.52
3215.953, 43259.03
3217.882, 43232.01
3219.810, 43217.01
3221.739, 43242.19
3223.667, 43281.06
3225.596, 43369.71
3227.524, 43376.77
3229.453, 43262.48
3231.381, 43184.35
3233.310, 43157.35
3235.238, 43182.33
3237.167, 43247.30
3239.095, 43283.01
3241.023, 43309.60
3242.952, 43382.97
3244.880, 43462.40
3246.809, 43517.21
3248.737, 43544.18
3250.666, 43538.09
3252.594, 43526.09
3254.523, 43495.71
3256.451, 43513.82
3258.380, 43591.67
3260.308, 43627.27
3262.237, 43611.34
3264.165, 43557.96
3266.094, 43492.54
3268.022, 43511.75
3269.950, 43566.10
3271.879, 43608.64
3273.807, 43626.20
3275.736, 43566.73
3277.664, 43541.80
3279.593, 43598.92
3281.521, 43634.48
3283.450, 43602.33
3285.378, 43601.42
3287.307, 43633.44
3289.235, 43691.10
3291.164, 43745.88
3293.092, 43641.79
3295.021, 43508.90
3296.949, 43535.59
3298.877, 43628.47
3300.806, 43767.32
3302.734, 43854.63
3304.663, 43833.70
3306.591, 43839.95
3308.520, 43915.28
3310.448, 43924.60
3312.377, 43866.74
3314.305, 43870.43
3316.234, 43914.85
3318.162, 43953.43
3320.091, 43976.11
3322.019, 43968.07
3323.948, 43939.33
3325.876, 43844.39
3327.804, 43838.29
3329.733, 44032.24
3331.661, 44102.23
3333.590, 44012.92
3335.518, 44003.82
3337.447, 44064.67
3339.375, 44034.50
3341.304, 43978.48
3343.232, 44023.49
3345.161, 44085.48
3347.089, 44080.22
3349.018, 44076.79
3350.946, 44090.27
3352.875, 44142.91
3354.803, 44280.23
3356.731, 44314.76
3358.660, 44256.11
3360.588, 44188.92
3362.517, 44132.35
3364.445, 44138.67
3366.374, 44166.39
3368.302, 44173.90
3370.231, 44182.56
3372.159, 44213.55
3374.088, 44219.96
3376.016, 44186.55
3377.945, 44178.03
3379.873, 44200.64
3381.802, 44287.92
3383.730, 44397.55
3385.658, 44391.18
3387.587, 44351.48
3389.515, 44362.67
3391.444, 44384.27
3393.372, 44397.23
3395.301, 44415.29
3397.229, 44469.76
3399.158, 44451.42
3401.086, 44372.12
3403.015, 44362.02
3404.943, 44399.08
3406.872, 44426.14
3408.800, 44451.09
3410.729, 44486.82
3412.657, 44510.00
3414.585, 44493.95
3416.514, 44488.75
3418.442, 44501.40
3420.371, 44486.10
3422.299, 44447.16
3424.228, 44500.41
3426.156, 44563.10
3428.085, 44443.35
3430.013, 44304.92
3431.942, 44263.37
3433.870, 44308.18
3435.799, 44469.87
3437.727, 44583.23
3439.656, 44620.75
3441.584, 44623.16
3443.512, 44593.04
3445.441, 44507.36
3447.369, 44445.74
3449.298, 44586.16
3451.226, 44700.40
3453.155, 44638.43
3455.083, 44559.73
3457.012, 44478.60
3458.940, 44513.54
3460.869, 44648.78
3462.797, 44596.22
3464.726, 44459.30
3466.654, 44491.61
3468.583, 44541.51
3470.511, 44451.55
3472.439, 44415.74
3474.368, 44505.75
3476.296, 44565.92
3478.225, 44572.56
3480.153, 44593.66
3482.082, 44622.18
3484.010, 44615.74
3485.939, 44613.32
3487.867, 44666.52
3489.796, 44716.04
3491.724, 44738.14
3493.653, 44731.09
3495.581, 44668.23
3497.510, 44720.35
3499.438, 44834.95
3501.366, 44806.06
3503.295, 44727.36
3505.223, 44723.19
3507.152, 44736.04
3509.080, 44751.05
3511.009, 44760.09
3512.937, 44763.27
3514.866, 44755.51
3516.794, 44740.30
3518.723, 44736.91
3520.651, 44750.75
3522.580, 44816.53
3524.508, 44857.48
3526.437, 44808.04
3528.365, 44776.84
3530.293, 44783.07
3532.222, 44781.52
3534.150, 44775.36
3536.079, 44786.83
3538.007, 44813.31
3539.936, 44861.63
3541.864, 44890.66
3543.793, 44869.66
3545.721, 44840.78
3547.650, 44812.05
3549.578, 44814.80
3551.507, 44843.41
3553.435, 44833.48
3555.364, 44818.41
3557.292, 44844.25
3559.220, 44841.47
3561.149, 44742.93
3563.077, 44740.47
3565.006, 44880.73
3566.934, 44962.68
3568.863, 44980.43
3570.791, 44881.39
3572.720, 44796.36
3574.648, 44910.08
3576.577, 44973.86
3578.505, 44829.47
3580.434, 44834.13
3582.362, 44989.42
3584.291, 45042.41
3586.219, 45032.40
3588.147, 45029.16
3590.076, 45035.34
3592.004, 45041.61
3593.933, 45083.89
3595.861, 45187.82
3597.790, 45224.11
3599.718, 45191.46
3601.647, 45102.60
3603.575, 45012.82
3605.504, 44970.73
3607.432, 45001.21
3609.361, 45196.39
3611.289, 45266.41
3613.218, 45189.12
3615.146, 45162.40
3617.074, 45173.39
3619.003, 45178.51
3620.931, 45186.75
3622.860, 45225.98
3624.788, 45228.93
3626.717, 45177.55
3628.645, 45159.49
3630.574, 45176.88
3632.502, 45187.16
3634.431, 45207.71
3636.359, 45274.74
3638.288, 45325.32
3640.216, 45322.35
3642.145, 45340.84
3644.073, 45390.50
3646.001, 45355.98
3647.930, 45283.23
3649.858, 45273.56
3651.787, 45277.24
3653.715, 45257.76
3655.644, 45251.55
3657.572, 45269.36
3659.501, 45252.50
3661.429, 45214.17
3663.358, 45197.98
3665.286, 45214.40
3667.215, 45310.52
3669.143, 45366.30
3671.072, 45344.91
3673.000, 45307.07
3674.928, 45265.25
3676.857, 45268.78
3678.785, 45290.47
3680.714, 45314.15
3682.642, 45294.91
3684.571, 45184.65
3686.499, 45218.44
3688.428, 45409.47
3690.356, 45456.33
3692.285, 45395.71
3694.213, 45223.19
3696.142, 45111.99
3698.070, 45160.78
3699.999, 45204.11
3701.927, 45216.41
3703.855, 45210.21
3705.784, 45208.45
3707.712, 45278.71
3709.641, 45318.98
3711.569, 45245.80
3713.498, 45234.11
3715.426, 45328.10
3717.355, 45377.10
3719.283, 45378.40
3721.212, 45292.59
3723.140, 45230.30
3725.069, 45272.66
3726.997, 45310.51
3728.926, 45318.77
3730.854, 45364.00
3732.782, 45412.79
3734.711, 45403.55
3736.639, 45339.66
3738.568, 45187.71
3740.496, 45102.82
3742.425, 45122.71
3744.353, 45207.91
3746.282, 45316.93
3748.210, 45328.05
3750.139, 45371.29
3752.067, 45587.16
3753.996, 45635.59
3755.924, 45413.73
3757.853, 45424.09
3759.781, 45541.43
3761.709, 45503.80
3763.638, 45461.55
3765.566, 45528.94
3767.495, 45515.54
3769.423, 45388.53
3771.352, 45422.07
3773.280, 45526.79
3775.209, 45585.94
3777.137, 45539.16
3779.066, 45298.49
3780.994, 45254.58
3782.923, 45444.52
3784.851, 45431.27
3786.780, 45349.76
3788.708, 45415.51
3790.636, 45439.23
3792.565, 45336.98
3794.493, 45298.19
3796.422, 45329.02
3798.350, 45356.84
3800.279, 45373.45
3802.207, 45348.30
3804.136, 45371.77
3806.064, 45479.08
3807.993, 45508.52
3809.921, 45476.51
3811.850, 45435.36
3813.778, 45445.31
3815.707, 45632.12
3817.635, 45691.71
3819.563, 45571.63
3821.492, 45467.05
3823.420, 45409.20
3825.349, 45497.89
3827.277, 45579.54
3829.206, 45561.87
3831.134, 45521.16
3833.063, 45471.65
3834.991, 45508.54
3836.920, 45523.80
3838.848, 45262.88
3840.777, 45155.15
3842.705, 45401.71
3844.634, 45497.02
3846.562, 45462.05
3848.490, 45555.37
3850.419, 45608.50
3852.347, 45451.11
3854.276, 45328.45
3856.204, 45283.06
3858.133, 45264.21
3860.061, 45272.45
3861.990, 45311.30
3863.918, 45363.27
3865.847, 45424.20
3867.775, 45431.30
3869.704, 45399.55
3871.632, 45419.57
3873.561, 45440.02
3875.489, 45411.91
3877.417, 45370.61
3879.346, 45315.27
3881.274, 45322.36
3883.203, 45361.55
3885.131, 45393.52
3887.060, 45395.75
3888.988, 45361.61
3890.917, 45280.01
3892.845, 45169.12
3894.774, 45236.52
3896.702, 45330.42
3898.631, 45251.23
3900.559, 45196.43
3902.488, 45206.96
3904.416, 45236.88
3906.344, 45282.94
3908.273, 45326.23
3910.201, 45318.93
3912.130, 45217.68
3914.058, 45171.74
3915.987, 45202.14
3917.915, 45296.18
3919.844, 45343.75
3921.772, 45185.88
3923.701, 45091.55
3925.629, 45104.85
3927.558, 45101.80
3929.486, 45097.86
3931.415, 45109.55
3933.343, 45077.75
3935.271, 44978.97
3937.200, 44950.51
3939.128, 44969.99
3941.057, 44997.30
3942.985, 45024.28
3944.914, 45016.29
3946.842, 45031.83
3948.771, 45080.77
3950.699, 45039.53
3952.628, 44956.14
3954.556, 44940.68
3956.485, 44929.95
3958.413, 44908.03
3960.342, 44896.00
3962.270, 44844.64
3964.198, 44833.27
3966.127, 44845.36
3968.055, 44808.09
3969.984, 44754.86
3971.912, 44713.89
3973.841, 44730.80
3975.769, 44739.95
3977.698, 44719.12
3979.626, 44763.59
3981.555, 44849.18
3983.483, 44797.83
3985.412, 44702.31
3987.340, 44705.31
3989.269, 44714.68
3991.197, 44705.77
3993.125, 44678.62
3995.054, 44627.12
3996.982, 44550.56
3998.911, 44518.11
4000.839, 44575.35
4002.768, 44640.12
4004.696, 44679.99
4006.625, 44640.41
4008.553, 44553.80
4010.482, 44536.80
4012.410, 44562.10
4014.339, 44613.80
4016.267, 44728.21
4018.196, 44781.58
4020.124, 44734.21
4022.052, 44656.86
4023.981, 44588.36
4025.909, 44599.45
4027.838, 44686.45
4029.766, 44661.52
4031.695, 44554.66
4033.623, 44545.55
4035.552, 44546.18
4037.480, 44510.76
4039.409, 44560.06
4041.337, 44664.10
4043.266, 44618.63
4045.194, 44537.35
4047.123, 44530.15
4049.051, 44510.25
4050.979, 44508.40
4052.908, 44508.69
4054.836, 44472.61
4056.765, 44521.71
4058.693, 44570.57
4060.622, 44523.03
4062.550, 44492.46
4064.479, 44482.31
4066.407, 44363.11
4068.336, 44243.68
4070.264, 44289.34
4072.193, 44312.44
4074.121, 44287.50
4076.050, 44320.89
4077.978, 44335.84
4079.906, 44332.95
4081.835, 44302.55
4083.763, 44279.03
4085.692, 44348.48
4087.620, 44311.13
4089.549, 44211.08
4091.477, 44237.33
4093.406, 44252.23
4095.334, 44191.07
4097.263, 44089.85
4099.191, 43999.52
4101.120, 44005.94
4103.048, 44064.29
4104.977, 44114.83
4106.905, 44157.70
4108.833, 44043.21
4110.762, 43978.39
4112.690, 44163.59
4114.619, 44177.51
4116.547, 44030.02
4118.476, 44054.09
4120.404, 44112.25
4122.333, 43999.26
4124.261, 43945.30
4126.190, 43965.81
4128.118, 43902.94
4130.047, 43862.60
4131.975, 43886.92
4133.904, 43855.63
4135.832, 43784.63
4137.761, 43772.35
4139.689, 43793.27
4141.618, 43847.37
4143.546, 43779.98
4145.475, 43649.96
4147.403, 43690.03
4149.332, 43755.93
4151.260, 43807.02
4153.188, 43763.02
4155.117, 43665.62
4157.045, 43674.40
4158.974, 43662.25
4160.902, 43622.91
4162.831, 43660.95
4164.759, 43724.09
4166.688, 43743.87
4168.616, 43718.64
4170.544, 43582.94
4172.473, 43613.29
4174.401, 43743.53
4176.330, 43769.02
4178.258, 43686.79
4180.187, 43391.86
4182.115, 43354.78
4184.044, 43489.64
4185.972, 43443.55
4187.901, 43390.92
4189.829, 43419.60
4191.758, 43464.31
4193.686, 43510.93
4195.615, 43576.30
4197.543, 43568.46
4199.472, 43440.02
4201.400, 43473.22
4203.329, 43564.14
4205.257, 43474.86
4207.186, 43375.83
4209.114, 43308.52
4211.042, 43249.54
4212.971, 43196.16
4214.899, 43124.54
4216.828, 43114.78
4218.756, 43178.28
4220.685, 43239.63
4222.613, 43265.74
4224.542, 43220.82
4226.470, 43113.79
4228.398, 42969.98
4230.327, 43051.91
4232.255, 43145.95
4234.184, 43067.55
4236.112, 43010.15
4238.041, 43000.71
4239.969, 43054.61
4241.898, 43070.73
4243.826, 42973.41
4245.755, 42957.17
4247.683, 42990.89
4249.612, 42925.61
4251.540, 42850.23
4253.469, 42800.63
4255.397, 42765.71
4257.326, 42768.19
4259.254, 42887.44
4261.183, 42960.75
4263.111, 42934.47
4265.040, 42971.14
4266.968, 43022.10
4268.896, 43048.33
4270.825, 42991.06
4272.753, 42852.68
4274.682, 42781.34
4276.610, 42808.35
4278.539, 43028.88
4280.467, 43015.46
4282.396, 42812.27
4284.324, 42751.38
4286.252, 42710.46
4288.181, 42626.87
4290.109, 42610.32
4292.038, 42648.36
4293.966, 42745.76
4295.895, 42774.50
4297.823, 42695.41
4299.752, 42634.47
4301.680, 42617.09
4303.609, 42700.39
4305.537, 42740.23
4307.466, 42716.43
4309.394, 42574.46
4311.323, 42470.70
4313.251, 42517.36
4315.180, 42467.03
4317.108, 42366.13
4319.037, 42379.54
4320.965, 42433.50
4322.894, 42502.65
4324.822, 42461.01
4326.750, 42393.68
4328.679, 42433.65
4330.607, 42399.23
4332.536, 42295.62
4334.464, 42350.55
4336.393, 42378.37
4338.321, 42235.54
4340.250, 42264.29
4342.178, 42395.28
4344.106, 42390.48
4346.035, 42388.26
4347.963, 42427.13
4349.892, 42443.30
4351.820, 42417.04
4353.749, 42286.23
4355.677, 42276.55
4357.606, 42369.48
4359.534, 42336.80
4361.463, 42297.55
4363.391, 42320.07
4365.320, 42381.37
4367.248, 42424.65
4369.177, 42313.53
4371.105, 42249.61
4373.034, 42274.12
4374.962, 42226.42
4376.891, 42190.36
4378.819, 42292.45
4380.748, 42228.80
4382.676, 42083.82
4384.604, 42236.90
4386.533, 42254.23
4388.461, 41942.30
4390.390, 41855.13
4392.318, 41897.41
4394.247, 42024.49
4396.175, 42027.51
4398.104, 41921.98
4400.032, 41836.93
4401.960, 41888.07
4403.889, 42135.46
4405.817, 42131.70
4407.746, 42018.11
4409.674, 41994.35
4411.603, 41953.55
4413.531, 41901.06
4415.460, 41985.15
4417.388, 42035.66
4419.317, 41959.78
4421.245, 41879.07
4423.174, 41831.95
4425.102, 41913.25
4427.031, 41882.26
4428.959, 41735.73
4430.888, 41760.45
4432.816, 41802.68
4434.745, 41766.45
4436.673, 41725.04
4438.602, 41680.26
4440.530, 41606.73
4442.458, 41633.45
4444.387, 41753.11
4446.315, 41665.14
4448.244, 41609.04
4450.172, 41715.11
4452.101, 41686.70
4454.029, 41593.52
4455.958, 41556.74
4457.886, 41513.39
4459.814, 41454.40
4461.743, 41366.55
4463.671, 41331.10
4465.600, 41405.72
4467.528, 41325.64
4469.457, 41224.16
4471.385, 41315.35
4473.314, 41354.96
4475.242, 41328.88
4477.171, 41305.00
4479.099, 41281.22
4481.028, 41257.57
4482.956, 41210.49
4484.885, 41132.12
4486.813, 40992.66
4488.742, 40971.91
4490.670, 41043.84
4492.599, 41101.63
4494.527, 41159.21
4496.456, 41210.31
4498.384, 41184.56
4500.313, 41128.66
4502.241, 41092.38
4504.169, 41000.95
4506.098, 40898.96
4508.026, 40850.29
4509.955, 40878.30
4511.883, 40960.12
4513.812, 40905.23
4515.740, 40870.92
4517.668, 40927.20
4519.597, 40863.94
4521.525, 40802.10
4523.454, 40915.74
4525.382, 40858.67
4527.311, 40705.73
4529.239, 40758.84
4531.168, 40776.82
4533.096, 40698.09
4535.025, 40649.11
4536.953, 40616.55
4538.882, 40592.53
4540.810, 40633.60
4542.739, 40659.83
4544.667, 40531.16
4546.596, 40485.52
4548.524, 40516.36
4550.453, 40507.81
4552.381, 40486.39
4554.310, 40462.93
4556.238, 40465.73
4558.167, 40454.50
4560.095, 40383.50
4562.023, 40352.70
4563.952, 40321.35
4565.880, 40198.16
4567.809, 40210.86
4569.737, 40324.30
4571.666, 40288.77
4573.594, 40224.17
4575.522, 40175.13
4577.451, 40272.96
4579.379, 40348.39
4581.308, 40232.26
4583.236, 40254.08
4585.165, 40266.46
4587.093, 40004.04
4589.022, 40001.14
4590.950, 40173.87
4592.879, 40106.86
4594.807, 39989.18
4596.736, 39892.63
4598.664, 39972.66
4600.593, 40057.59
4602.521, 40049.16
4604.450, 39953.39
4606.378, 39879.43
4608.307, 39960.42
4610.235, 39973.89
4612.164, 39921.88
4614.092, 39801.74
4616.021, 39777.16
4617.949, 39827.29
4619.877, 39764.60
4621.806, 39736.86
4623.734, 39793.96
4625.663, 39634.23
4627.591, 39494.89
4629.520, 39529.04
4631.448, 39493.61
4633.376, 39481.89
4635.305, 39624.14
4637.233, 39696.76
4639.162, 39698.89
4641.090, 39667.48
4643.019, 39633.56
4644.947, 39597.53
4646.876, 39536.95
4648.804, 39468.13
4650.733, 39401.39
4652.661, 39379.09
4654.590, 39366.03
4656.518, 39340.36
4658.447, 39361.37
4660.375, 39381.93
4662.304, 39364.56
4664.232, 39264.81
4666.161, 39153.37
4668.089, 39146.95
4670.018, 39138.91
4671.946, 39116.39
4673.875, 39073.88
4675.803, 39063.09
4677.731, 39085.04
4679.660, 39071.55
4681.588, 39082.36
4683.517, 39137.51
4685.445, 39122.09
4687.374, 39081.46
4689.302, 39040.29
4691.230, 39044.56
4693.159, 39033.88
4695.087, 38921.57
4697.016, 38891.99
4698.944, 38874.52
4700.873, 38749.36
4702.801, 38665.91
4704.730, 38625.41
4706.658, 38553.72
4708.587, 38626.95
4710.515, 38792.57
4712.444, 38714.54
4714.372, 38608.85
4716.301, 38533.29
4718.229, 38463.04
4720.158, 38401.12
4722.086, 38350.20
4724.015, 38320.69
4725.943, 38328.97
4727.872, 38406.87
4729.800, 38386.93
4731.729, 38300.52
4733.657, 38153.11
4735.585, 38179.60
4737.514, 38264.80
4739.442, 38273.30
4741.371, 38201.34
4743.299, 38102.31
4745.228, 38065.06
4747.156, 38023.71
4749.084, 37984.55
4751.013, 37993.36
4752.941, 37966.47
4754.870, 37906.68
4756.798, 37901.35
4758.727, 37857.51
4760.655, 37775.52
4762.584, 37796.99
4764.512, 37887.66
4766.441, 38006.29
4768.369, 37859.49
4770.298, 37751.54
4772.226, 37820.79
4774.155, 37724.52
4776.083, 37640.98
4778.012, 37657.82
4779.940, 37579.10
4781.869, 37507.24
4783.797, 37530.74
4785.726, 37564.82
4787.654, 37577.25
4789.583, 37540.91
4791.511, 37477.25
4793.439, 37418.01
4795.368, 37407.98
4797.296, 37385.27
4799.225, 37336.48
4801.153, 37230.18
4803.082, 37232.46
4805.010, 37292.90
4806.938, 37320.11
4808.867, 37303.91
4810.795, 37237.77
4812.724, 37083.73
4814.652, 37057.49
4816.581, 37106.22
4818.509, 37063.30
4820.438, 36954.68
4822.366, 36856.57
4824.295, 36988.29
4826.223, 37086.38
4828.152, 37093.64
4830.080, 36944.13
4832.009, 36900.43
4833.937, 36962.11
4835.866, 36907.47
4837.794, 36819.27
4839.723, 36732.47
4841.651, 36689.16
4843.580, 36711.44
4845.508, 36780.13
4847.437, 36781.02
4849.365, 36696.56
4851.293, 36551.19
4853.222, 36454.16
4855.150, 36437.18
4857.079, 36490.99
4859.007, 36467.20
4860.936, 36484.88
4862.864, 36555.06
4864.792, 36569.15
4866.721, 36489.29
4868.649, 36329.62
4870.578, 36363.93
4872.506, 36342.66
4874.435, 36215.96
4876.363, 36132.05
4878.292, 36112.61
4880.220, 36154.38
4882.149, 36162.71
4884.077, 36143.40
4886.006, 36105.00
4887.934, 36100.39
4889.863, 36072.54
4891.791, 36013.91
4893.720, 36058.93
4895.648, 36019.71
4897.577, 35880.50
4899.505, 35834.85
4901.434, 35842.65
4903.362, 35879.77
4905.291, 35901.70
4907.219, 35881.80
4909.147, 35819.31
4911.076, 35736.71
4913.004, 35672.47
4914.933, 35635.73
4916.861, 35612.16
4918.790, 35628.76
4920.718, 35660.03
4922.646, 35563.22
4924.575, 35478.06
4926.503, 35427.10
4928.432, 35377.03
4930.360, 35359.29
4932.289, 35349.61
4934.217, 35218.83
4936.146, 35260.88
4938.074, 35406.65
4940.003, 35428.14
4941.931, 35235.78
4943.860, 35008.17
4945.788, 35172.70
4947.717, 35162.48
4949.645, 35037.12
4951.574, 35053.91
4953.502, 34979.07
4955.431, 34877.11
4957.359, 34874.51
4959.288, 34875.20
4961.216, 34864.62
4963.145, 34824.20
4965.073, 34877.34
4967.001, 34867.93
4968.930, 34596.79
4970.858, 34500.63
4972.787, 34533.39
4974.715, 34653.84
4976.644, 34579.12
4978.572, 34484.67
4980.500, 34500.05
4982.429, 34447.80
4984.357, 34394.67
4986.286, 34371.28
4988.214, 34413.64
4990.143, 34379.90
4992.071, 34236.26
4994.000, 34213.82
4995.928, 34218.52
4997.857, 34203.16
4999.785, 34035.93
5001.714, 34038.70
5003.642, 34182.57
5005.571, 34206.72
5007.499, 34140.94
5009.428, 34019.35
5011.356, 33868.25
5013.285, 33897.20
5015.213, 33971.30
5017.142, 33836.59
5019.070, 33734.74
5020.999, 33694.91
5022.927, 33746.91
5024.855, 33625.44
5026.784, 33552.55
5028.712, 33695.67
5030.641, 33765.75
5032.569, 33775.74
5034.498, 33742.09
5036.426, 33682.09
5038.354, 33645.67
5040.283, 33628.63
5042.211, 33513.12
5044.140, 33396.82
5046.068, 33326.74
5047.997, 33401.53
5049.925, 33434.46
5051.854, 33397.66
5053.782, 33279.60
5055.711, 33285.07
5057.639, 33312.52
5059.568, 33179.79
5061.496, 33055.63
5063.425, 32989.46
5065.353, 33019.59
5067.282, 32941.12
5069.210, 32864.86
5071.139, 32854.59
5073.067, 32884.56
5074.996, 32873.16
5076.924, 32798.83
5078.853, 32677.78
5080.781, 32684.84
5082.709, 32762.14
5084.638, 32633.36
5086.566, 32571.60
5088.495, 32561.52
5090.423, 32531.17
5092.352, 32493.76
5094.280, 32460.24
5096.208, 32439.75
5098.137, 32521.06
5100.065, 32515.94
5101.994, 32330.11
5103.922, 32320.28
5105.851, 32268.38
5107.779, 32146.71
5109.708, 32252.06
5111.636, 32228.52
5113.565, 32093.06
5115.493, 32007.58
5117.422, 32005.51
5119.350, 32037.83
5121.279, 32048.38
5123.207, 32000.35
5125.136, 31967.99
5127.064, 31990.16
5128.993, 31886.40
5130.921, 31811.01
5132.850, 31812.02
5134.778, 31722.40
5136.707, 31765.28
5138.635, 31889.05
5140.563, 31873.22
5142.492, 31768.84
5144.420, 31669.86
5146.349, 31693.28
5148.277, 31639.43
5150.206, 31608.35
5152.134, 31664.11
5154.063, 31470.58
5155.991, 31388.46
5157.919, 31454.21
5159.848, 31303.33
5161.776, 31282.33
5163.705, 31354.89
5165.633, 31358.17
5167.562, 31272.34
5169.490, 31180.20
5171.419, 31153.80
5173.347, 31234.74
5175.276, 31252.61
5177.204, 31150.83
5179.133, 31185.04
5181.061, 31160.09
5182.990, 31073.54
5184.918, 31049.69
5186.847, 30973.04
5188.775, 30875.89
5190.704, 30807.68
5192.632, 30764.81
5194.561, 30788.13
5196.489, 30885.52
5198.417, 30762.64
5200.346, 30708.09
5202.274, 30740.16
5204.203, 30699.04
5206.131, 30644.15
5208.060, 30598.94
5209.988, 30581.97
5211.917, 30578.07
5213.845, 30578.18
5215.773, 30569.80
5217.702, 30420.18
5219.630, 30417.05
5221.559, 30518.32
5223.487, 30448.57
5225.416, 30369.75
5227.344, 30310.24
5229.273, 30278.41
5231.201, 30283.58
5233.130, 30225.62
5235.058, 30095.45
5236.987, 30102.54
5238.915, 30121.67
5240.844, 30140.02
5242.772, 30205.78
5244.701, 30216.25
5246.629, 30125.37
5248.558, 29906.28
5250.486, 29930.14
5252.415, 30007.22
5254.343, 30028.08
5256.271, 29826.21
5258.200, 29749.87
5260.128, 29769.76
5262.057, 29785.52
5263.985, 29794.68
5265.914, 29741.12
5267.842, 29612.87
5269.771, 29496.46
5271.699, 29507.16
5273.627, 29571.04
5275.556, 29477.60
5277.484, 29420.06
5279.413, 29400.83
5281.341, 29410.43
5283.270, 29351.60
5285.198, 29360.28
5287.127, 29405.90
5289.055, 29257.29
5290.984, 29169.20
5292.912, 29117.44
5294.841, 29036.78
5296.769, 29088.77
5298.698, 29139.04
5300.626, 29120.54
5302.555, 28978.06
5304.483, 28759.14
5306.412, 28603.97
5308.340, 28672.65
5310.269, 28889.31
5312.197, 28969.69
5314.125, 28820.87
5316.054, 28706.83
5317.982, 28651.05
5319.911, 28649.75
5321.839, 28697.24
5323.768, 28685.86
5325.696, 28648.75
5327.625, 28605.33
5329.553, 28520.12
5331.481, 28458.40
5333.410, 28411.95
5335.338, 28339.89
5337.267, 28382.31
5339.195, 28401.30
5341.124, 28334.55
5343.052, 28270.57
5344.981, 28252.32
5346.909, 28233.30
5348.838, 28116.54
5350.766, 28040.86
5352.695, 28019.58
5354.623, 28029.40
5356.552, 27873.20
5358.480, 27758.78
5360.409, 27757.24
5362.337, 27923.91
5364.266, 27849.98
5366.194, 27652.73
5368.123, 27454.14
5370.051, 27566.32
5371.979, 27576.06
5373.908, 27532.91
5375.836, 27572.00
5377.765, 27422.53
5379.693, 27338.16
5381.622, 27378.31
5383.550, 27420.31
5385.479, 27333.97
5387.407, 27228.60
5389.335, 27215.52
5391.264, 27186.56
5393.192, 27119.63
5395.121, 27063.24
5397.049, 27150.28
5398.978, 27067.64
5400.906, 26980.13
5402.835, 26997.54
5404.763, 26936.45
5406.692, 26847.86
5408.620, 26768.56
5410.549, 26733.23
5412.477, 26722.32
5414.406, 26741.27
5416.334, 26775.98
5418.263, 26768.25
5420.191, 26724.65
5422.120, 26629.22
5424.048, 26467.67
5425.977, 26377.08
5427.905, 26352.83
5429.833, 26368.62
5431.762, 26382.32
5433.690, 26367.23
5435.619, 26294.92
5437.547, 26169.43
5439.476, 26086.17
5441.404, 26115.18
5443.333, 26146.89
5445.261, 26052.32
5447.189, 25945.99
5449.118, 25900.50
5451.046, 25921.86
5452.975, 25977.66
5454.903, 25990.07
5456.832, 25949.55
5458.760, 25863.16
5460.689, 25755.98
5462.617, 25778.66
5464.546, 25786.73
5466.474, 25591.15
5468.403, 25614.31
5470.331, 25602.46
5472.260, 25510.83
5474.188, 25444.94
5476.117, 25409.54
5478.045, 25320.11
5479.974, 25175.77
5481.902, 25205.62
5483.831, 25315.66
5485.759, 25315.88
5487.688, 25070.25
5489.616, 25089.27
5491.544, 25036.53
5493.473, 24917.21
5495.401, 24907.31
5497.330, 24928.32
5499.258, 24913.35
5501.187, 24857.00
5503.115, 24821.54
5505.043, 24774.78
5506.972, 24765.07
5508.900, 24798.83
5510.829, 24692.88
5512.757, 24579.72
5514.686, 24498.09
5516.614, 24457.25
5518.543, 24495.26
5520.471, 24469.52
5522.400, 24395.89
5524.328, 24365.46
5526.257, 24345.36
5528.185, 24244.02
5530.114, 24119.36
5532.042, 24233.11
5533.971, 24200.96
5535.899, 24104.89
5537.828, 24022.84
5539.756, 24013.92
5541.685, 23974.04
5543.613, 23941.71
5545.542, 23952.47
5547.470, 23873.60
5549.398, 23864.54
5551.327, 23846.87
5553.255, 23712.41
5555.184, 23670.10
5557.112, 23703.74
5559.041, 23731.00
5560.969, 23634.62
5562.897, 23565.96
5564.826, 23487.31
5566.754, 23427.52
5568.683, 23521.21
5570.611, 23416.40
5572.540, 23337.53
5574.468, 23354.53
5576.397, 23339.29
5578.325, 23229.48
5580.254, 23194.08
5582.182, 23270.46
5584.111, 23186.62
5586.039, 23128.48
5587.968, 23079.47
5589.896, 23015.56
5591.825, 22972.04
5593.753, 22918.27
5595.682, 22855.34
5597.610, 22799.58
5599.539, 22933.11
5601.467, 22924.92
5603.396, 22786.09
5605.324, 22612.04
5607.252, 22565.40
5609.181, 22588.79
5611.109, 22577.38
5613.038, 22439.52
5614.966, 22444.16
5616.895, 22469.53
5618.823, 22468.91
5620.751, 22425.89
5622.680, 22377.65
5624.608, 22257.79
5626.537, 22175.46
5628.465, 22298.20
5630.394, 22097.70
5632.322, 22027.28
5634.251, 22060.96
5636.179, 21952.41
5638.108, 21858.99
5640.036, 21851.23
5641.965, 21871.76
5643.893, 21782.13
5645.822, 21819.93
5647.750, 21702.59
5649.679, 21514.72
5651.607, 21567.97
5653.536, 21544.50
5655.464, 21508.54
5657.393, 21478.40
5659.321, 21440.73
5661.250, 21457.67
5663.178, 21377.35
5665.106, 21271.23
5667.035, 21315.51
5668.963, 21329.00
5670.892, 21284.25
5672.820, 21196.12
5674.749, 21070.94
5676.677, 21210.72
5678.605, 21151.67
5680.534, 20965.05
5682.462, 20942.34
5684.391, 20863.58
5686.319, 20812.83
5688.248, 20773.95
5690.176, 20708.11
5692.105, 20792.72
5694.033, 20838.29
5695.962, 20795.14
5697.890, 20674.10
5699.819, 20600.36
5701.747, 20474.98
5703.676, 20386.86
5705.604, 20417.49
5707.533, 20394.88
5709.461, 20337.29
5711.390, 20291.04
5713.318, 20274.79
5715.247, 20181.50
5717.175, 20151.18
5719.104, 20151.05
5721.032, 20142.15
5722.960, 20115.57
5724.889, 20099.36
5726.817, 20090.11
5728.746, 20059.24
5730.674, 19930.39
5732.603, 19941.44
5734.531, 19936.82
5736.459, 19891.72
5738.388, 19933.71
5740.316, 19796.80
5742.245, 19692.44
5744.173, 19650.77
5746.102, 19601.83
5748.030, 19542.11
5749.959, 19548.35
5751.887, 19547.96
5753.816, 19452.41
5755.744, 19434.10
5757.673, 19362.76
5759.601, 19358.56
5761.530, 19457.54
5763.458, 19272.54
5765.387, 19175.94
5767.315, 19163.26
5769.244, 19181.31
5771.172, 19182.86
5773.101, 19153.56
5775.029, 19077.48
5776.958, 18967.16
5778.886, 18838.70
5780.814, 18903.50
5782.743, 18955.79
5784.671, 18895.94
5786.600, 18685.56
5788.528, 18742.65
5790.457, 18719.14
5792.385, 18704.39
5794.313, 18766.74
5796.242, 18624.51
5798.170, 18509.00
5800.099, 18440.30
5802.027, 18402.19
5803.956, 18372.25
5805.884, 18453.18
5807.813, 18417.47
5809.741, 18326.79
5811.670, 18350.58
5813.598, 18390.67
5815.527, 18313.93
5817.455, 18253.72
5819.384, 18292.24
5821.312, 18143.11
5823.241, 18092.94
5825.169, 18075.95
5827.098, 18039.47
5829.026, 17974.40
5830.955, 17905.57
5832.883, 17870.07
5834.812, 17878.35
5836.740, 17924.29
5838.668, 17878.28
5840.597, 17815.97
5842.525, 17737.15
5844.454, 17651.36
5846.382, 17622.97
5848.311, 17668.57
5850.239, 17632.40
5852.167, 17542.67
5854.096, 17528.64
5856.024, 17402.26
5857.953, 17364.92
5859.881, 17389.52
5861.810, 17402.37
5863.738, 17337.02
5865.667, 17284.86
5867.595, 17291.43
5869.524, 17308.42
5871.452, 17206.78
5873.381, 17140.58
5875.309, 17084.51
5877.238, 17078.15
5879.166, 17138.30
5881.095, 17108.72
5883.023, 16986.67
5884.952, 16911.51
5886.880, 16905.73
5888.809, 16887.17
5890.737, 16824.98
5892.666, 16830.45
5894.594, 16783.92
5896.522, 16624.75
5898.451, 16748.16
5900.379, 16632.71
5902.308, 16561.73
5904.236, 16579.70
5906.165, 16513.00
5908.093, 16555.00
5910.021, 16580.85
5911.950, 16496.68
5913.878, 16341.21
5915.807, 16422.12
5917.735, 16363.30
5919.664, 16304.44
5921.592, 16302.31
5923.521, 16328.92
5925.449, 16225.65
5927.378, 16218.64
5929.306, 16223.66
5931.235, 16188.49
5933.163, 16182.15
5935.092, 16049.58
5937.020, 15972.75
5938.949, 15929.12
5940.877, 15863.23
5942.806, 15894.67
5944.734, 15883.82
5946.663, 15809.06
5948.591, 15734.34
5950.520, 15760.37
5952.448, 15686.13
5954.376, 15603.02
5956.305, 15570.41
5958.233, 15576.48
5960.162, 15538.91
5962.090, 15528.16
5964.019, 15473.67
5965.947, 15460.15
5967.875, 15516.46
5969.804, 15382.99
5971.732, 15377.30
5973.661, 15343.21
5975.589, 15268.96
5977.518, 15213.73
5979.446, 15121.80
5981.375, 15083.85
5983.303, 15079.63
5985.232, 15083.07
5987.160, 15073.97
5989.089, 14927.05
5991.017, 14875.89
5992.946, 14922.07
5994.874, 14949.40
5996.803, 14788.62
5998.731, 14926.94
6000.660, 14951.85
6002.588, 14855.66
6004.517, 14743.23
6006.445, 14705.07
6008.374, 14690.31
6010.302, 14668.83
6012.230, 14639.07
6014.159, 14596.49
6016.087, 14473.11
6018.016, 14466.94
6019.944, 14519.67
6021.873, 14529.29
6023.801, 14452.56
6025.729, 14481.83
6027.658, 14339.37
6029.586, 14309.83
6031.515, 14350.10
6033.443, 14292.76
6035.372, 14291.95
6037.300, 14183.48
6039.229, 14181.51
6041.157, 14235.84
6043.086, 14175.57
6045.014, 14054.78
6046.943, 14038.56
6048.871, 14028.70
6050.800, 13989.70
6052.728, 13941.77
6054.657, 13894.78
6056.585, 13761.22
6058.514, 13762.61
6060.442, 13842.22
6062.371, 13803.27
6064.299, 13711.98
6066.228, 13609.60
6068.156, 13579.47
6070.084, 13615.09
6072.013, 13659.27
6073.941, 13629.29
6075.870, 13512.79
6077.798, 13410.59
6079.727, 13383.43
6081.655, 13436.40
6083.583, 13453.22
6085.512, 13379.51
6087.440, 13376.83
6089.369, 13381.59
6091.297, 13292.67
6093.226, 13236.67
6095.154, 13237.65
6097.083, 13150.81
6099.011, 13070.13
6100.940, 13076.58
6102.868, 12998.32
6104.797, 13017.38
6106.725, 12959.01
6108.654, 12889.78
6110.582, 12881.63
6112.511, 12894.04
6114.439, 12845.30
6116.368, 12801.22
6118.296, 12717.04
6120.225, 12661.69
6122.153, 12827.25
6124.082, 12716.80
6126.010, 12692.86
6127.938, 12687.58
6129.867, 12639.10
6131.795, 12560.49
6133.724, 12541.33
6135.652, 12532.01
6137.581, 12526.42
6139.509, 12486.16
6141.438, 12398.45
6143.366, 12393.18
6145.294, 12328.17
6147.223, 12281.73
6149.151, 12275.85
6151.080, 12291.56
6153.008, 12294.11
6154.937, 12229.71
6156.865, 12064.75
6158.794, 12070.30
6160.722, 12196.67
6162.651, 12150.70
6164.579, 12014.89
6166.508, 11976.73
6168.436, 11950.99
6170.365, 11908.16
6172.293, 11876.89
6174.222, 11944.76
6176.150, 11909.13
6178.079, 11919.77
6180.007, 11872.90
6181.936, 11764.08
6183.864, 11765.64
6185.792, 11753.29
6187.721, 11727.01
6189.649, 11713.42
6191.578, 11667.51
6193.506, 11567.64
6195.435, 11635.85
6197.363, 11515.65
6199.292, 11548.50
6201.220, 11551.67
6203.148, 11428.84
6205.077, 11348.43
6207.005, 11408.48
6208.934, 11305.92
6210.862, 11278.06
6212.791, 11319.21
6214.719, 11315.62
6216.648, 11293.59
6218.576, 11237.22
6220.505, 11269.31
6222.433, 11262.90
6224.362, 11185.74
6226.290, 11126.46
6228.219, 11061.16
6230.147, 11114.26
6232.076, 11044.82
6234.004, 10924.70
6235.933, 10866.30
6237.861, 10841.04
6239.790, 10976.98
6241.718, 10890.41
6243.646, 10838.68
6245.575, 10838.12
6247.503, 10776.89
6249.432, 10730.03
6251.360, 10757.66
6253.289, 10743.82
6255.217, 10665.83
6257.146, 10576.99
6259.074, 10540.25
6261.002, 10537.24
6262.931, 10507.15
6264.859, 10554.25
6266.788, 10557.86
6268.716, 10494.58
6270.645, 10490.84
6272.573, 10537.42
6274.502, 10453.42
6276.430, 10360.07
6278.359, 10321.79
6280.287, 10329.25
6282.216, 10337.18
6284.144, 10318.24
6286.073, 10255.14
6288.001, 10268.22
6289.930, 10254.93
6291.858, 10146.97
6293.787, 10051.69
6295.715, 10129.07
6297.644, 10134.14
6299.572, 10015.14
6301.500, 9977.004
6303.429, 10068.12
6305.357, 9976.038
6307.286, 10029.12
6309.214, 9925.340
6311.143, 9832.592
6313.071, 9839.023
6315.000, 9887.748
6316.928, 9845.450
6318.856, 9783.264
6320.785, 9781.733
6322.713, 9798.315
6324.642, 9766.110
6326.570, 9706.492
6328.499, 9715.002
6330.427, 9613.322
6332.356, 9567.296
6334.284, 9527.262
6336.213, 9504.393
6338.141, 9517.220
6340.070, 9544.414
6341.998, 9529.823
6343.927, 9559.298
6345.855, 9447.841
6347.784, 9375.149
6349.712, 9416.807
6351.641, 9454.838
6353.569, 9336.900
6355.498, 9300.048
6357.426, 9276.232
6359.354, 9293.931
6361.283, 9316.087
6363.211, 9282.300
6365.140, 9217.354
6367.068, 9121.447
6368.997, 9122.471
6370.925, 9076.259
6372.854, 9066.635
6374.782, 9104.546
6376.710, 8965.511
6378.639, 8909.239
6380.567, 8979.005
6382.496, 8964.194
6384.424, 8955.558
6386.353, 8965.975
6388.281, 8907.703
6390.210, 8913.399
6392.138, 8876.449
6394.067, 8923.410
6395.995, 8833.339
6397.924, 8707.961
6399.852, 8722.039
6401.781, 8793.067
6403.709, 8707.959
6405.638, 8633.292
6407.566, 8636.438
6409.495, 8672.520
6411.423, 8660.015
6413.352, 8564.505
6415.280, 8527.928
6417.208, 8516.031
6419.137, 8500.026
6421.065, 8429.203
6422.994, 8437.345
6424.922, 8489.242
6426.851, 8340.914
6428.779, 8407.125
6430.708, 8356.720
6432.636, 8389.909
6434.564, 8371.614
6436.493, 8335.675
6438.421, 8375.341
6440.350, 8357.381
6442.278, 8248.938
6444.207, 8226.943
6446.135, 8181.120
6448.064, 8134.949
6449.992, 8176.711
6451.921, 8290.194
6453.849, 8138.579
6455.778, 8086.340
6457.706, 8058.098
6459.635, 8115.751
6461.563, 8105.229
6463.492, 8008.295
6465.420, 7957.333
6467.349, 7939.859
6469.277, 7973.006
6471.206, 7907.778
6473.134, 7900.690
6475.063, 7943.710
6476.991, 7951.347
6478.919, 7893.519
6480.848, 7865.410
6482.776, 7827.573
6484.705, 7783.011
6486.633, 7735.672
6488.562, 7723.194
6490.490, 7743.662
6492.418, 7751.400
6494.347, 7684.386
6496.275, 7684.241
6498.204, 7662.814
6500.132, 7686.968
6502.061, 7717.642
6503.989, 7650.921
6505.918, 7517.228
6507.846, 7559.298
6509.775, 7556.639
6511.703, 7546.020
6513.632, 7464.467
6515.560, 7406.606
6517.489, 7410.615
6519.417, 7419.660
6521.346, 7356.596
6523.274, 7398.602
6525.203, 7377.246
6527.131, 7398.565
6529.060, 7299.613
6530.988, 7270.312
6532.917, 7334.559
6534.845, 7279.472
6536.773, 7242.150
6538.702, 7224.679
6540.630, 7183.809
6542.559, 7189.960
6544.487, 7216.091
6546.416, 7211.896
6548.344, 7161.368
6550.272, 7083.278
6552.201, 7069.370
6554.129, 7028.862
6556.058, 7023.638
6557.986, 7035.842
6559.915, 7044.651
6561.843, 7011.560
6563.772, 6932.777
6565.700, 6909.000
6567.629, 6900.731
6569.557, 6958.546
6571.486, 6937.702
6573.414, 6876.624
6575.343, 6836.379
6577.271, 6847.786
6579.200, 6905.459
6581.128, 6880.273
6583.057, 6841.058
6584.985, 6788.299
6586.914, 6788.662
6588.842, 6763.861
6590.771, 6698.777
6592.699, 6672.433
6594.627, 6722.708
6596.556, 6704.738
6598.484, 6683.194
6600.413, 6658.980
6602.341, 6636.527
6604.270, 6613.931
6606.198, 6571.682
6608.126, 6541.349
6610.055, 6575.740
6611.983, 6515.018
6613.912, 6526.837
6615.840, 6465.164
6617.769, 6490.042
6619.697, 6450.808
6621.626, 6418.313
6623.554, 6439.034
6625.483, 6411.672
6627.411, 6405.992
6629.340, 6371.239
##END=



