##NAMES=Wendwilsonite
##RRUFFID=R180009
##IDEAL CHEMISTRY=Ca_2_Mg(AsO_4_)_2_·2H_2_O
##LOCALITY=Bou Azzer, Morrocco
##OWNER=RRUFF
##SOURCE=Wendell Wilson
##DESCRIPTION=Red vitreous crystals. Photo from Wendell Wilson
##STATUS=The identification of this mineral is confirmed by single-crystal X-ray diffraction and chemical analysis
##URL=https://www.rruff.net/odr/rruff_sample/R180009
##MEASURED CHEMISTRY=Ca_1.98_(Mg_0.53_Zn_0.27_Co_0.18_Ni_0.02_)(AsO_4_)_2_·2H_2_O
##DIFFRACTION SAMPLE DESCRIPTION=Single crystal, powder profile is calculated
##CELL PARAMETERS=a: 5.8493 b: 12.9572 c: 5.6619 alpha: 90 beta: 107.496 gamma: 90 volume: 409.269 crystal system: monoclinic
##FILETYPE=Raman RAW
##RAMAN WAVELENGTH=780

7.084375e+001, 1.383330e+003
7.277222e+001, 1.265829e+003
7.470068e+001, 1.252202e+003
7.662915e+001, 1.340510e+003
7.855762e+001, 1.517460e+003
8.048608e+001, 1.807093e+003
8.241455e+001, 2.167742e+003
8.434302e+001, 2.598669e+003
8.627148e+001, 3.094762e+003
8.819995e+001, 3.487487e+003
9.012842e+001, 3.722818e+003
9.205688e+001, 4.014200e+003
9.398535e+001, 4.326343e+003
9.591382e+001, 4.542419e+003
9.784229e+001, 4.880396e+003
9.977075e+001, 5.516366e+003
1.016992e+002, 5.679974e+003
1.036277e+002, 5.495695e+003
1.055562e+002, 5.037271e+003
1.074846e+002, 4.058791e+003
1.094131e+002, 3.095330e+003
1.113416e+002, 2.431712e+003
1.132700e+002, 2.032681e+003
1.151985e+002, 1.781122e+003
1.171270e+002, 1.675329e+003
1.190554e+002, 1.645311e+003
1.209839e+002, 1.742066e+003
1.229124e+002, 1.835455e+003
1.248408e+002, 1.836079e+003
1.267693e+002, 1.756412e+003
1.286978e+002, 1.666713e+003
1.306262e+002, 1.552564e+003
1.325547e+002, 1.489120e+003
1.344832e+002, 1.526139e+003
1.364116e+002, 1.590989e+003
1.383401e+002, 1.672018e+003
1.402686e+002, 1.747351e+003
1.421970e+002, 1.747328e+003
1.441255e+002, 1.659726e+003
1.460540e+002, 1.579734e+003
1.479824e+002, 1.518189e+003
1.499109e+002, 1.482564e+003
1.518394e+002, 1.484661e+003
1.537678e+002, 1.514835e+003
1.556963e+002, 1.551958e+003
1.576248e+002, 1.595987e+003
1.595532e+002, 1.645161e+003
1.614817e+002, 1.696579e+003
1.634102e+002, 1.756541e+003
1.653386e+002, 1.814961e+003
1.672671e+002, 1.890670e+003
1.691956e+002, 2.002626e+003
1.711240e+002, 2.149943e+003
1.730525e+002, 2.342465e+003
1.749810e+002, 2.604673e+003
1.769094e+002, 2.887039e+003
1.788379e+002, 3.204354e+003
1.807664e+002, 3.520404e+003
1.826948e+002, 3.812018e+003
1.846233e+002, 4.075768e+003
1.865518e+002, 4.290323e+003
1.884802e+002, 4.474160e+003
1.904087e+002, 4.562500e+003
1.923372e+002, 4.503116e+003
1.942656e+002, 4.393961e+003
1.961941e+002, 4.284590e+003
1.981226e+002, 4.173097e+003
2.000510e+002, 4.060182e+003
2.019795e+002, 3.964571e+003
2.039080e+002, 3.810818e+003
2.058364e+002, 3.563891e+003
2.077649e+002, 3.304305e+003
2.096934e+002, 3.043739e+003
2.116218e+002, 2.798894e+003
2.135503e+002, 2.580237e+003
2.154788e+002, 2.384151e+003
2.174072e+002, 2.254773e+003
2.193357e+002, 2.207045e+003
2.212642e+002, 2.193771e+003
2.231926e+002, 2.229990e+003
2.251211e+002, 2.275523e+003
2.270496e+002, 2.296148e+003
2.289780e+002, 2.302572e+003
2.309065e+002, 2.338773e+003
2.328350e+002, 2.415401e+003
2.347634e+002, 2.499128e+003
2.366919e+002, 2.603951e+003
2.386204e+002, 2.692062e+003
2.405488e+002, 2.766987e+003
2.424773e+002, 2.801588e+003
2.444058e+002, 2.756781e+003
2.463342e+002, 2.628637e+003
2.482627e+002, 2.458094e+003
2.501912e+002, 2.226523e+003
2.521196e+002, 2.014694e+003
2.540481e+002, 1.838465e+003
2.559766e+002, 1.698377e+003
2.579050e+002, 1.598066e+003
2.598335e+002, 1.531753e+003
2.617620e+002, 1.487939e+003
2.636904e+002, 1.467268e+003
2.656189e+002, 1.460012e+003
2.675474e+002, 1.466575e+003
2.694758e+002, 1.484596e+003
2.714043e+002, 1.509193e+003
2.733328e+002, 1.547661e+003
2.752612e+002, 1.607544e+003
2.771897e+002, 1.687742e+003
2.791182e+002, 1.786637e+003
2.810466e+002, 1.908327e+003
2.829751e+002, 2.006963e+003
2.849036e+002, 2.053292e+003
2.868320e+002, 2.105289e+003
2.887605e+002, 2.153192e+003
2.906890e+002, 2.239319e+003
2.926174e+002, 2.425892e+003
2.945459e+002, 2.701483e+003
2.964744e+002, 3.023452e+003
2.984028e+002, 3.428755e+003
3.003313e+002, 3.699347e+003
3.022598e+002, 3.765646e+003
3.041882e+002, 3.699386e+003
3.061167e+002, 3.449897e+003
3.080452e+002, 3.122769e+003
3.099736e+002, 2.843981e+003
3.119021e+002, 2.614420e+003
3.138306e+002, 2.457675e+003
3.157590e+002, 2.377723e+003
3.176875e+002, 2.371278e+003
3.196160e+002, 2.424907e+003
3.215445e+002, 2.558146e+003
3.234729e+002, 2.776650e+003
3.254014e+002, 3.086245e+003
3.273299e+002, 3.497249e+003
3.292583e+002, 4.001413e+003
3.311868e+002, 4.572501e+003
3.331153e+002, 5.278969e+003
3.350437e+002, 5.885039e+003
3.369722e+002, 6.397989e+003
3.389007e+002, 6.769359e+003
3.408291e+002, 6.896926e+003
3.427576e+002, 6.920133e+003
3.446861e+002, 6.983724e+003
3.466145e+002, 7.087795e+003
3.485430e+002, 7.240324e+003
3.504715e+002, 7.531458e+003
3.523999e+002, 7.681737e+003
3.543284e+002, 7.724128e+003
3.562569e+002, 7.571376e+003
3.581853e+002, 7.101419e+003
3.601138e+002, 6.480415e+003
3.620423e+002, 5.815229e+003
3.639707e+002, 5.129408e+003
3.658992e+002, 4.570822e+003
3.678277e+002, 4.158946e+003
3.697561e+002, 3.849305e+003
3.716846e+002, 3.698455e+003
3.736131e+002, 3.555375e+003
3.755415e+002, 3.386974e+003
3.774700e+002, 3.191833e+003
3.793985e+002, 2.951428e+003
3.813269e+002, 2.688812e+003
3.832554e+002, 2.463756e+003
3.851839e+002, 2.274190e+003
3.871123e+002, 2.142141e+003
3.890408e+002, 2.069709e+003
3.909693e+002, 2.044927e+003
3.928977e+002, 2.072838e+003
3.948262e+002, 2.139010e+003
3.967547e+002, 2.253543e+003
3.986831e+002, 2.385769e+003
4.006116e+002, 2.506043e+003
4.025401e+002, 2.611617e+003
4.044685e+002, 2.643603e+003
4.063970e+002, 2.590917e+003
4.083255e+002, 2.537478e+003
4.102539e+002, 2.475416e+003
4.121824e+002, 2.458008e+003
4.141109e+002, 2.517310e+003
4.160393e+002, 2.619897e+003
4.179678e+002, 2.760635e+003
4.198963e+002, 2.922275e+003
4.218247e+002, 3.067167e+003
4.237532e+002, 3.194925e+003
4.256817e+002, 3.262299e+003
4.276101e+002, 3.250985e+003
4.295386e+002, 3.237336e+003
4.314671e+002, 3.183992e+003
4.333955e+002, 3.215496e+003
4.353240e+002, 3.338760e+003
4.372525e+002, 3.605438e+003
4.391809e+002, 4.068569e+003
4.411094e+002, 4.732364e+003
4.430379e+002, 5.635259e+003
4.449663e+002, 6.776608e+003
4.468948e+002, 7.848843e+003
4.488233e+002, 9.007040e+003
4.507517e+002, 9.584631e+003
4.526802e+002, 9.302374e+003
4.546087e+002, 8.596803e+003
4.565371e+002, 7.412783e+003
4.584656e+002, 6.103093e+003
4.603941e+002, 5.059500e+003
4.623225e+002, 4.269021e+003
4.642510e+002, 3.733999e+003
4.661795e+002, 3.464307e+003
4.681079e+002, 3.304947e+003
4.700364e+002, 3.289305e+003
4.719649e+002, 3.289402e+003
4.738933e+002, 3.302618e+003
4.758218e+002, 3.303292e+003
4.777503e+002, 3.292517e+003
4.796787e+002, 3.251379e+003
4.816072e+002, 3.156100e+003
4.835357e+002, 3.015398e+003
4.854641e+002, 2.841058e+003
4.873926e+002, 2.629763e+003
4.893211e+002, 2.420593e+003
4.912495e+002, 2.205629e+003
4.931780e+002, 2.010034e+003
4.951065e+002, 1.834323e+003
4.970349e+002, 1.679557e+003
4.989634e+002, 1.546898e+003
5.008919e+002, 1.435062e+003
5.028203e+002, 1.345932e+003
5.047488e+002, 1.274531e+003
5.066773e+002, 1.211620e+003
5.086057e+002, 1.157342e+003
5.105342e+002, 1.110367e+003
5.124626e+002, 1.071924e+003
5.143911e+002, 1.039209e+003
5.163196e+002, 1.013514e+003
5.182480e+002, 9.912399e+002
5.201765e+002, 9.722650e+002
5.221050e+002, 9.550825e+002
5.240334e+002, 9.384569e+002
5.259619e+002, 9.231281e+002
5.278904e+002, 9.098168e+002
5.298188e+002, 8.986364e+002
5.317473e+002, 8.907936e+002
5.336758e+002, 8.873701e+002
5.356042e+002, 8.818846e+002
5.375327e+002, 8.737062e+002
5.394612e+002, 8.657941e+002
5.413896e+002, 8.579217e+002
5.433181e+002, 8.521061e+002
5.452466e+002, 8.509004e+002
5.471750e+002, 8.503929e+002
5.491035e+002, 8.479462e+002
5.510320e+002, 8.445189e+002
5.529604e+002, 8.407990e+002
5.548889e+002, 8.372365e+002
5.568174e+002, 8.384074e+002
5.587458e+002, 8.445573e+002
5.606743e+002, 8.468943e+002
5.626028e+002, 8.439461e+002
5.645313e+002, 8.403129e+002
5.664598e+002, 8.361802e+002
5.683882e+002, 8.332926e+002
5.703167e+002, 8.331068e+002
5.722452e+002, 8.332482e+002
5.741736e+002, 8.316588e+002
5.761021e+002, 8.296292e+002
5.780306e+002, 8.291297e+002
5.799590e+002, 8.299435e+002
5.818875e+002, 8.312290e+002
5.838160e+002, 8.329965e+002
5.857444e+002, 8.343823e+002
5.876729e+002, 8.350983e+002
5.896014e+002, 8.368148e+002
5.915298e+002, 8.399537e+002
5.934583e+002, 8.441179e+002
5.953868e+002, 8.504090e+002
5.973152e+002, 8.561006e+002
5.992437e+002, 8.591232e+002
6.011722e+002, 8.612725e+002
6.031006e+002, 8.645072e+002
6.050291e+002, 8.681771e+002
6.069576e+002, 8.708235e+002
6.088860e+002, 8.727261e+002
6.108145e+002, 8.755006e+002
6.127430e+002, 8.793848e+002
6.146714e+002, 8.826981e+002
6.165999e+002, 8.846893e+002
6.185284e+002, 8.874070e+002
6.204568e+002, 8.917539e+002
6.223853e+002, 8.959492e+002
6.243138e+002, 8.980371e+002
6.262422e+002, 9.015755e+002
6.281707e+002, 9.100532e+002
6.300992e+002, 9.200539e+002
6.320276e+002, 9.281813e+002
6.339561e+002, 9.351232e+002
6.358846e+002, 9.421812e+002
6.378130e+002, 9.492872e+002
6.397415e+002, 9.554698e+002
6.416700e+002, 9.599334e+002
6.435984e+002, 9.663765e+002
6.455269e+002, 9.761371e+002
6.474554e+002, 9.852773e+002
6.493839e+002, 9.931312e+002
6.513123e+002, 1.001132e+003
6.532408e+002, 1.010311e+003
6.551693e+002, 1.018907e+003
6.570977e+002, 1.025305e+003
6.590262e+002, 1.031589e+003
6.609547e+002, 1.039794e+003
6.628831e+002, 1.048688e+003
6.648116e+002, 1.056866e+003
6.667401e+002, 1.064024e+003
6.686685e+002, 1.068056e+003
6.705970e+002, 1.068611e+003
6.725255e+002, 1.073701e+003
6.744539e+002, 1.083989e+003
6.763824e+002, 1.094409e+003
6.783109e+002, 1.104343e+003
6.802393e+002, 1.115498e+003
6.821678e+002, 1.126834e+003
6.840963e+002, 1.143042e+003
6.860247e+002, 1.166635e+003
6.879532e+002, 1.194702e+003
6.898817e+002, 1.223847e+003
6.918101e+002, 1.258584e+003
6.937386e+002, 1.303771e+003
6.956671e+002, 1.355836e+003
6.975955e+002, 1.411948e+003
6.995240e+002, 1.470392e+003
7.014525e+002, 1.529857e+003
7.033809e+002, 1.588127e+003
7.053094e+002, 1.629271e+003
7.072379e+002, 1.653313e+003
7.091663e+002, 1.663085e+003
7.110948e+002, 1.659093e+003
7.130233e+002, 1.636954e+003
7.149517e+002, 1.591915e+003
7.168802e+002, 1.539713e+003
7.188087e+002, 1.477304e+003
7.207371e+002, 1.419864e+003
7.226656e+002, 1.373403e+003
7.245941e+002, 1.331190e+003
7.265225e+002, 1.289074e+003
7.284510e+002, 1.250541e+003
7.303795e+002, 1.218781e+003
7.323079e+002, 1.192139e+003
7.342364e+002, 1.168665e+003
7.361649e+002, 1.148490e+003
7.380933e+002, 1.131377e+003
7.400218e+002, 1.117464e+003
7.419503e+002, 1.107332e+003
7.438787e+002, 1.101001e+003
7.458072e+002, 1.098284e+003
7.477357e+002, 1.099213e+003
7.496641e+002, 1.103707e+003
7.515926e+002, 1.110937e+003
7.535211e+002, 1.124055e+003
7.554495e+002, 1.143745e+003
7.573780e+002, 1.168532e+003
7.593065e+002, 1.196035e+003
7.612349e+002, 1.231867e+003
7.631634e+002, 1.275623e+003
7.650919e+002, 1.331245e+003
7.670203e+002, 1.398224e+003
7.689488e+002, 1.480516e+003
7.708773e+002, 1.583755e+003
7.728057e+002, 1.701998e+003
7.747342e+002, 1.831944e+003
7.766627e+002, 1.970359e+003
7.785911e+002, 2.116952e+003
7.805196e+002, 2.266065e+003
7.824481e+002, 2.400394e+003
7.843765e+002, 2.519614e+003
7.863050e+002, 2.619267e+003
7.882335e+002, 2.697846e+003
7.901619e+002, 2.769427e+003
7.920904e+002, 2.829311e+003
7.940189e+002, 2.895584e+003
7.959473e+002, 2.958110e+003
7.978758e+002, 3.056917e+003
7.998043e+002, 3.178610e+003
8.017327e+002, 3.382318e+003
8.036612e+002, 3.635037e+003
8.055897e+002, 4.080315e+003
8.075181e+002, 4.692357e+003
8.094466e+002, 5.652308e+003
8.113751e+002, 6.977101e+003
8.133035e+002, 8.781022e+003
8.152320e+002, 1.117805e+004
8.171605e+002, 1.398613e+004
8.190889e+002, 1.745715e+004
8.210174e+002, 2.089659e+004
8.229459e+002, 2.391586e+004
8.248743e+002, 2.621779e+004
8.268028e+002, 2.714401e+004
8.287313e+002, 2.714440e+004
8.306597e+002, 2.691675e+004
8.325882e+002, 2.662039e+004
8.345167e+002, 2.696850e+004
8.364451e+002, 2.778088e+004
8.383736e+002, 2.810669e+004
8.403021e+002, 2.791052e+004
8.422305e+002, 2.677261e+004
8.441590e+002, 2.469939e+004
8.460875e+002, 2.240794e+004
8.480159e+002, 1.992915e+004
8.499444e+002, 1.775155e+004
8.518729e+002, 1.591516e+004
8.538013e+002, 1.453246e+004
8.557298e+002, 1.368983e+004
8.576583e+002, 1.310013e+004
8.595867e+002, 1.282817e+004
8.615152e+002, 1.257516e+004
8.634437e+002, 1.239934e+004
8.653721e+002, 1.204878e+004
8.673006e+002, 1.146254e+004
8.692291e+002, 1.068753e+004
8.711575e+002, 9.631370e+003
8.730860e+002, 8.542619e+003
8.750145e+002, 7.473192e+003
8.769429e+002, 6.503200e+003
8.788714e+002, 5.678474e+003
8.807999e+002, 4.981650e+003
8.827283e+002, 4.432709e+003
8.846568e+002, 3.970025e+003
8.865853e+002, 3.552674e+003
8.885137e+002, 3.170947e+003
8.904422e+002, 2.807339e+003
8.923707e+002, 2.476189e+003
8.942991e+002, 2.197376e+003
8.962276e+002, 1.965385e+003
8.981561e+002, 1.773604e+003
9.000845e+002, 1.619075e+003
9.020130e+002, 1.498573e+003
9.039415e+002, 1.407644e+003
9.058699e+002, 1.330259e+003
9.077984e+002, 1.265868e+003
9.097269e+002, 1.209926e+003
9.116553e+002, 1.162453e+003
9.135838e+002, 1.123762e+003
9.155123e+002, 1.094166e+003
9.174407e+002, 1.065269e+003
9.193692e+002, 1.036291e+003
9.212977e+002, 1.014629e+003
9.232261e+002, 1.001040e+003
9.251546e+002, 9.915045e+002
9.270831e+002, 9.872335e+002
9.290115e+002, 9.798828e+002
9.309400e+002, 9.687518e+002
9.328685e+002, 9.564167e+002
9.347969e+002, 9.426066e+002
9.367254e+002, 9.309695e+002
9.386539e+002, 9.221973e+002
9.405823e+002, 9.143623e+002
9.425108e+002, 9.062797e+002
9.444393e+002, 9.036274e+002
9.463677e+002, 9.086564e+002
9.482962e+002, 9.146597e+002
9.502247e+002, 9.195703e+002
9.521531e+002, 9.268853e+002
9.540816e+002, 9.376953e+002
9.560101e+002, 9.504600e+002
9.579385e+002, 9.638846e+002
9.598670e+002, 9.813001e+002
9.617955e+002, 1.005527e+003
9.637239e+002, 1.030477e+003
9.656524e+002, 1.056355e+003
9.675809e+002, 1.079168e+003
9.695093e+002, 1.102591e+003
9.714378e+002, 1.115097e+003
9.733663e+002, 1.112541e+003
9.752947e+002, 1.098498e+003
9.772232e+002, 1.073176e+003
9.791517e+002, 1.038388e+003
9.810801e+002, 9.906407e+002
9.830086e+002, 9.398768e+002
9.849371e+002, 8.875480e+002
9.868655e+002, 8.384261e+002
9.887940e+002, 7.946791e+002
9.907225e+002, 7.554361e+002
9.926509e+002, 7.193809e+002
9.945794e+002, 6.888827e+002
9.965079e+002, 6.669582e+002
9.984363e+002, 6.489796e+002
1.000365e+003, 6.322291e+002
1.002293e+003, 6.178646e+002
1.004222e+003, 6.083102e+002
1.006150e+003, 5.992548e+002
1.008079e+003, 5.866044e+002
1.010007e+003, 5.746594e+002
1.011936e+003, 5.670045e+002
1.013864e+003, 5.607388e+002
1.015793e+003, 5.543499e+002
1.017721e+003, 5.478188e+002
1.019649e+003, 5.408721e+002
1.021578e+003, 5.341481e+002
1.023506e+003, 5.277249e+002
1.025435e+003, 5.222208e+002
1.027363e+003, 5.190353e+002
1.029292e+003, 5.156581e+002
1.031220e+003, 5.094688e+002
1.033149e+003, 5.031861e+002
1.035077e+003, 4.986409e+002
1.037006e+003, 4.951060e+002
1.038934e+003, 4.924264e+002
1.040863e+003, 4.901263e+002
1.042791e+003, 4.877577e+002
1.044719e+003, 4.858259e+002
1.046648e+003, 4.850218e+002
1.048576e+003, 4.843738e+002
1.050505e+003, 4.833774e+002
1.052433e+003, 4.820901e+002
1.054362e+003, 4.800840e+002
1.056290e+003, 4.784182e+002
1.058219e+003, 4.792938e+002
1.060147e+003, 4.787560e+002
1.062076e+003, 4.705177e+002
1.064004e+003, 4.651485e+002
1.065933e+003, 4.743669e+002
1.067861e+003, 4.811821e+002
1.069790e+003, 4.727004e+002
1.071718e+003, 4.630342e+002
1.073647e+003, 4.595136e+002
1.075575e+003, 4.575616e+002
1.077504e+003, 4.552822e+002
1.079432e+003, 4.533040e+002
1.081360e+003, 4.524959e+002
1.083289e+003, 4.512728e+002
1.085217e+003, 4.485156e+002
1.087146e+003, 4.458689e+002
1.089074e+003, 4.439490e+002
1.091003e+003, 4.423392e+002
1.092931e+003, 4.411599e+002
1.094860e+003, 4.397685e+002
1.096788e+003, 4.382382e+002
1.098717e+003, 4.359284e+002
1.100645e+003, 4.312482e+002
1.102574e+003, 4.281568e+002
1.104502e+003, 4.284348e+002
1.106431e+003, 4.290234e+002
1.108359e+003, 4.297479e+002
1.110287e+003, 4.299735e+002
1.112216e+003, 4.289551e+002
1.114144e+003, 4.286186e+002
1.116073e+003, 4.305126e+002
1.118001e+003, 4.304813e+002
1.119930e+003, 4.270230e+002
1.121858e+003, 4.239814e+002
1.123787e+003, 4.215436e+002
1.125715e+003, 4.195984e+002
1.127644e+003, 4.177986e+002
1.129572e+003, 4.175565e+002
1.131501e+003, 4.198677e+002
1.133429e+003, 4.206618e+002
1.135358e+003, 4.193958e+002
1.137286e+003, 4.188366e+002
1.139214e+003, 4.192179e+002
1.141143e+003, 4.190513e+002
1.143071e+003, 4.184112e+002
1.145000e+003, 4.157138e+002
1.146928e+003, 4.110136e+002
1.148857e+003, 4.091337e+002
1.150785e+003, 4.097611e+002
1.152714e+003, 4.099291e+002
1.154642e+003, 4.097995e+002
1.156571e+003, 4.108459e+002
1.158499e+003, 4.122020e+002
1.160428e+003, 4.100129e+002
1.162356e+003, 4.062612e+002
1.164285e+003, 4.059844e+002
1.166213e+003, 4.075628e+002
1.168141e+003, 4.083766e+002
1.170070e+003, 4.085773e+002
1.171998e+003, 4.080855e+002
1.173927e+003, 4.073666e+002
1.175855e+003, 4.069538e+002
1.177784e+003, 4.065775e+002
1.179712e+003, 4.058694e+002
1.181641e+003, 4.052745e+002
1.183569e+003, 4.050768e+002
1.185498e+003, 4.052414e+002
1.187426e+003, 4.065110e+002
1.189355e+003, 4.070000e+002
1.191283e+003, 4.057765e+002
1.193212e+003, 4.036539e+002
1.195140e+003, 3.993950e+002
1.197068e+003, 3.974831e+002
1.198997e+003, 4.005235e+002
1.200925e+003, 4.018793e+002
1.202854e+003, 3.995063e+002
1.204782e+003, 3.986010e+002
1.206711e+003, 4.005116e+002
1.208639e+003, 4.005749e+002
1.210568e+003, 3.979699e+002
1.212496e+003, 3.972131e+002
1.214425e+003, 3.986278e+002
1.216353e+003, 3.992863e+002
1.218282e+003, 3.990834e+002
1.220210e+003, 3.992014e+002
1.222139e+003, 3.996602e+002
1.224067e+003, 4.009942e+002
1.225995e+003, 4.023690e+002
1.227924e+003, 4.003605e+002
1.229852e+003, 3.970967e+002
1.231781e+003, 3.974798e+002
1.233709e+003, 3.990572e+002
1.235638e+003, 3.979110e+002
1.237566e+003, 3.964897e+002
1.239495e+003, 3.982933e+002
1.241423e+003, 3.997841e+002
1.243352e+003, 3.974270e+002
1.245280e+003, 3.947587e+002
1.247209e+003, 3.932163e+002
1.249137e+003, 3.931156e+002
1.251066e+003, 3.955388e+002
1.252994e+003, 3.974431e+002
1.254922e+003, 3.979207e+002
1.256851e+003, 3.975466e+002
1.258779e+003, 3.958686e+002
1.260708e+003, 3.951484e+002
1.262636e+003, 3.959488e+002
1.264565e+003, 3.966336e+002
1.266493e+003, 3.971517e+002
1.268422e+003, 3.979065e+002
1.270350e+003, 3.988660e+002
1.272279e+003, 3.979368e+002
1.274207e+003, 3.956600e+002
1.276136e+003, 3.952585e+002
1.278064e+003, 3.958608e+002
1.279993e+003, 3.953033e+002
1.281921e+003, 3.941387e+002
1.283849e+003, 3.925931e+002
1.285778e+003, 3.918201e+002
1.287706e+003, 3.943767e+002
1.289635e+003, 3.964882e+002
1.291563e+003, 3.943729e+002
1.293492e+003, 3.928224e+002
1.295420e+003, 3.944273e+002
1.297349e+003, 3.957015e+002
1.299277e+003, 3.952437e+002
1.301206e+003, 3.956866e+002
1.303134e+003, 3.978604e+002
1.305063e+003, 3.987840e+002
1.306991e+003, 3.980207e+002
1.308920e+003, 3.960864e+002
1.310848e+003, 3.933835e+002
1.312776e+003, 3.942870e+002
1.314705e+003, 3.979569e+002
1.316633e+003, 4.001998e+002
1.318562e+003, 4.009749e+002
1.320490e+003, 3.994778e+002
1.322419e+003, 3.974911e+002
1.324347e+003, 3.977808e+002
1.326276e+003, 3.987263e+002
1.328204e+003, 3.988640e+002
1.330133e+003, 3.989063e+002
1.332061e+003, 3.990266e+002
1.333990e+003, 3.996912e+002
1.335918e+003, 4.023671e+002
1.337847e+003, 4.031910e+002
1.339775e+003, 3.993708e+002
1.341703e+003, 3.981619e+002
1.343632e+003, 4.007236e+002
1.345560e+003, 4.019605e+002
1.347489e+003, 4.017185e+002
1.349417e+003, 4.007004e+002
1.351346e+003, 3.993478e+002
1.353274e+003, 4.002120e+002
1.355203e+003, 4.023705e+002
1.357131e+003, 4.041199e+002
1.359060e+003, 4.054702e+002
1.360988e+003, 4.068691e+002
1.362917e+003, 4.071126e+002
1.364845e+003, 4.045454e+002
1.366774e+003, 4.020269e+002
1.368702e+003, 4.002957e+002
1.370630e+003, 4.005428e+002
1.372559e+003, 4.042462e+002
1.374487e+003, 4.050374e+002
1.376416e+003, 4.010544e+002
1.378344e+003, 4.012494e+002
1.380273e+003, 4.058355e+002
1.382201e+003, 4.070697e+002
1.384130e+003, 4.058115e+002
1.386058e+003, 4.055241e+002
1.387987e+003, 4.055099e+002
1.389915e+003, 4.043239e+002
1.391844e+003, 4.028708e+002
1.393772e+003, 4.017803e+002
1.395701e+003, 4.012243e+002
1.397629e+003, 4.014353e+002
1.399557e+003, 4.019628e+002
1.401486e+003, 4.029581e+002
1.403414e+003, 4.031613e+002
1.405343e+003, 4.023011e+002
1.407271e+003, 4.019655e+002
1.409200e+003, 4.022138e+002
1.411128e+003, 4.012231e+002
1.413057e+003, 3.996346e+002
1.414985e+003, 4.009487e+002
1.416914e+003, 4.028349e+002
1.418842e+003, 4.005590e+002
1.420771e+003, 3.975643e+002
1.422699e+003, 3.970848e+002
1.424628e+003, 3.973791e+002
1.426556e+003, 3.985875e+002
1.428484e+003, 3.982536e+002
1.430413e+003, 3.948333e+002
1.432341e+003, 3.928575e+002
1.434270e+003, 3.927677e+002
1.436198e+003, 3.943444e+002
1.438127e+003, 3.969876e+002
1.440055e+003, 3.963411e+002
1.441984e+003, 3.934409e+002
1.443912e+003, 3.900872e+002
1.445841e+003, 3.872328e+002
1.447769e+003, 3.861992e+002
1.449698e+003, 3.856694e+002
1.451626e+003, 3.850797e+002
1.453555e+003, 3.841528e+002
1.455483e+003, 3.821880e+002
1.457411e+003, 3.812003e+002
1.459340e+003, 3.817678e+002
1.461268e+003, 3.821812e+002
1.463197e+003, 3.824540e+002
1.465125e+003, 3.818088e+002
1.467054e+003, 3.805597e+002
1.468982e+003, 3.794697e+002
1.470911e+003, 3.783423e+002
1.472839e+003, 3.765528e+002
1.474768e+003, 3.751918e+002
1.476696e+003, 3.749089e+002
1.478625e+003, 3.749346e+002
1.480553e+003, 3.750910e+002
1.482482e+003, 3.751146e+002
1.484410e+003, 3.749754e+002
1.486339e+003, 3.747414e+002
1.488267e+003, 3.743516e+002
1.490195e+003, 3.729156e+002
1.492124e+003, 3.712208e+002
1.494052e+003, 3.709300e+002
1.495981e+003, 3.710385e+002
1.497909e+003, 3.710597e+002
1.499838e+003, 3.702563e+002
1.501766e+003, 3.675471e+002
1.503695e+003, 3.670995e+002
1.505623e+003, 3.699925e+002
1.507552e+003, 3.704979e+002
1.509480e+003, 3.686194e+002
1.511409e+003, 3.702873e+002
1.513337e+003, 3.734411e+002
1.515266e+003, 3.726581e+002
1.517194e+003, 3.705871e+002
1.519122e+003, 3.701080e+002
1.521051e+003, 3.696876e+002
1.522979e+003, 3.676449e+002
1.524908e+003, 3.676052e+002
1.526836e+003, 3.709633e+002
1.528765e+003, 3.713486e+002
1.530693e+003, 3.687128e+002
1.532622e+003, 3.675210e+002
1.534550e+003, 3.677810e+002
1.536479e+003, 3.698931e+002
1.538407e+003, 3.719278e+002
1.540336e+003, 3.717153e+002
1.542264e+003, 3.707809e+002
1.544193e+003, 3.690866e+002
1.546121e+003, 3.685078e+002
1.548049e+003, 3.696373e+002
1.549978e+003, 3.710090e+002
1.551906e+003, 3.725316e+002
1.553835e+003, 3.726989e+002
1.555763e+003, 3.722932e+002
1.557692e+003, 3.734929e+002
1.559620e+003, 3.746956e+002
1.561549e+003, 3.744321e+002
1.563477e+003, 3.740527e+002
1.565406e+003, 3.740484e+002
1.567334e+003, 3.740223e+002
1.569263e+003, 3.735180e+002
1.571191e+003, 3.754536e+002
1.573120e+003, 3.791432e+002
1.575048e+003, 3.809655e+002
1.576976e+003, 3.815649e+002
1.578905e+003, 3.815641e+002
1.580833e+003, 3.814615e+002
1.582762e+003, 3.813697e+002
1.584690e+003, 3.818821e+002
1.586619e+003, 3.832326e+002
1.588547e+003, 3.847772e+002
1.590476e+003, 3.863516e+002
1.592404e+003, 3.866863e+002
1.594333e+003, 3.861973e+002
1.596261e+003, 3.852594e+002
1.598190e+003, 3.848970e+002
1.600118e+003, 3.864085e+002
1.602047e+003, 3.882969e+002
1.603975e+003, 3.905237e+002
1.605903e+003, 3.906861e+002
1.607832e+003, 3.886907e+002
1.609760e+003, 3.889021e+002
1.611689e+003, 3.906568e+002
1.613617e+003, 3.920035e+002
1.615546e+003, 3.927440e+002
1.617474e+003, 3.924872e+002
1.619403e+003, 3.917885e+002
1.621331e+003, 3.904825e+002
1.623260e+003, 3.900042e+002
1.625188e+003, 3.904932e+002
1.627117e+003, 3.902708e+002
1.629045e+003, 3.893025e+002
1.630974e+003, 3.870589e+002
1.632902e+003, 3.851875e+002
1.634830e+003, 3.864272e+002
1.636759e+003, 3.869265e+002
1.638687e+003, 3.841518e+002
1.640616e+003, 3.819046e+002
1.642544e+003, 3.803742e+002
1.644473e+003, 3.814094e+002
1.646401e+003, 3.840683e+002
1.648330e+003, 3.853037e+002
1.650258e+003, 3.862200e+002
1.652187e+003, 3.881648e+002
1.654115e+003, 3.895316e+002
1.656044e+003, 3.888433e+002
1.657972e+003, 3.904084e+002
1.659901e+003, 3.947840e+002
1.661829e+003, 3.951078e+002
1.663757e+003, 3.933023e+002
1.665686e+003, 3.936000e+002
1.667614e+003, 3.956306e+002
1.669543e+003, 3.999272e+002
1.671471e+003, 4.032953e+002
1.673400e+003, 4.045003e+002
1.675328e+003, 4.065633e+002
1.677257e+003, 4.093943e+002
1.679185e+003, 4.082740e+002
1.681114e+003, 4.061167e+002
1.683042e+003, 4.084305e+002
1.684971e+003, 4.110837e+002
1.686899e+003, 4.119811e+002
1.688828e+003, 4.129092e+002
1.690756e+003, 4.142697e+002
1.692684e+003, 4.116418e+002
1.694613e+003, 4.067429e+002
1.696541e+003, 4.058505e+002
1.698470e+003, 4.069564e+002
1.700398e+003, 4.095500e+002
1.702327e+003, 4.100914e+002
1.704255e+003, 4.071764e+002
1.706184e+003, 4.044818e+002
1.708112e+003, 4.024193e+002
1.710041e+003, 4.012085e+002
1.711969e+003, 4.004794e+002
1.713898e+003, 3.996763e+002
1.715826e+003, 3.990890e+002
1.717755e+003, 4.002220e+002
1.719683e+003, 3.980301e+002
1.721611e+003, 3.918303e+002
1.723540e+003, 3.884592e+002
1.725468e+003, 3.870148e+002
1.727397e+003, 3.841661e+002
1.729325e+003, 3.814601e+002
1.731254e+003, 3.808734e+002
1.733182e+003, 3.795167e+002
1.735111e+003, 3.764417e+002
1.737039e+003, 3.732621e+002
1.738968e+003, 3.700351e+002
1.740896e+003, 3.667443e+002
1.742825e+003, 3.636236e+002
1.744753e+003, 3.605932e+002
1.746682e+003, 3.585211e+002
1.748610e+003, 3.585162e+002
1.750538e+003, 3.570502e+002
1.752467e+003, 3.540743e+002
1.754395e+003, 3.510696e+002
1.756324e+003, 3.481507e+002
1.758252e+003, 3.453574e+002
1.760181e+003, 3.430204e+002
1.762109e+003, 3.415226e+002
1.764038e+003, 3.392024e+002
1.765966e+003, 3.359627e+002
1.767895e+003, 3.355064e+002
1.769823e+003, 3.357967e+002
1.771752e+003, 3.327134e+002
1.773680e+003, 3.297952e+002
1.775609e+003, 3.289072e+002
1.777537e+003, 3.266852e+002
1.779465e+003, 3.228427e+002
1.781394e+003, 3.219243e+002
1.783322e+003, 3.228182e+002
1.785251e+003, 3.241653e+002
1.787179e+003, 3.248920e+002
1.789108e+003, 3.245225e+002
1.791036e+003, 3.231093e+002
1.792965e+003, 3.206868e+002
1.794893e+003, 3.171793e+002
1.796822e+003, 3.143106e+002
1.798750e+003, 3.163700e+002
1.800679e+003, 3.179057e+002
1.802607e+003, 3.157723e+002
1.804536e+003, 3.144392e+002
1.806464e+003, 3.141863e+002
1.808392e+003, 3.127300e+002
1.810321e+003, 3.113616e+002
1.812249e+003, 3.128462e+002
1.814178e+003, 3.136897e+002
1.816106e+003, 3.117274e+002
1.818035e+003, 3.103022e+002
1.819963e+003, 3.094219e+002
1.821892e+003, 3.071438e+002
1.823820e+003, 3.051511e+002
1.825749e+003, 3.059268e+002
1.827677e+003, 3.068217e+002
1.829606e+003, 3.068135e+002
1.831534e+003, 3.064842e+002
1.833463e+003, 3.059741e+002
1.835391e+003, 3.069403e+002
1.837319e+003, 3.071175e+002
1.839248e+003, 3.035859e+002
1.841176e+003, 3.012076e+002
1.843105e+003, 3.019939e+002
1.845033e+003, 3.010277e+002
1.846962e+003, 2.990865e+002
1.848890e+003, 2.985559e+002
1.850819e+003, 2.981735e+002
1.852747e+003, 2.970345e+002
1.854676e+003, 2.964296e+002
1.856604e+003, 2.966038e+002
1.858533e+003, 2.957154e+002
1.860461e+003, 2.944616e+002
1.862390e+003, 2.941748e+002
1.864318e+003, 2.938753e+002
1.866246e+003, 2.932790e+002
1.868175e+003, 2.918792e+002
1.870103e+003, 2.898580e+002
1.872032e+003, 2.883209e+002
1.873960e+003, 2.872214e+002
1.875889e+003, 2.864545e+002
1.877817e+003, 2.865449e+002
1.879746e+003, 2.876181e+002
1.881674e+003, 2.872923e+002
1.883603e+003, 2.859096e+002
1.885531e+003, 2.839120e+002
1.887460e+003, 2.824073e+002
1.889388e+003, 2.819205e+002
1.891317e+003, 2.826203e+002
1.893245e+003, 2.840749e+002
1.895173e+003, 2.835510e+002
1.897102e+003, 2.820222e+002
1.899030e+003, 2.801962e+002
1.900959e+003, 2.786524e+002
1.902887e+003, 2.774945e+002
1.904816e+003, 2.767162e+002
1.906744e+003, 2.771314e+002
1.908673e+003, 2.819716e+002
1.910601e+003, 2.855124e+002
1.912530e+003, 2.828661e+002
1.914458e+003, 2.820638e+002
1.916387e+003, 2.831511e+002
1.918315e+003, 2.821973e+002
1.920244e+003, 2.811935e+002
1.922172e+003, 2.816449e+002
1.924100e+003, 2.838942e+002
1.926029e+003, 2.885075e+002
1.927957e+003, 2.905102e+002
1.929886e+003, 2.908141e+002
1.931814e+003, 2.907264e+002
1.933743e+003, 2.906892e+002
1.935671e+003, 2.910548e+002
1.937600e+003, 2.899599e+002
1.939528e+003, 2.883421e+002
1.941457e+003, 2.916485e+002
1.943385e+003, 2.941601e+002
1.945314e+003, 2.916947e+002
1.947242e+003, 2.909394e+002
1.949171e+003, 2.927287e+002
1.951099e+003, 2.934853e+002
1.953027e+003, 2.932845e+002
1.954956e+003, 2.916977e+002
1.956884e+003, 2.906151e+002
1.958813e+003, 2.904100e+002
1.960741e+003, 2.897605e+002
1.962670e+003, 2.887246e+002
1.964598e+003, 2.872116e+002
1.966527e+003, 2.860646e+002
1.968455e+003, 2.856345e+002
1.970384e+003, 2.840173e+002
1.972312e+003, 2.814674e+002
1.974241e+003, 2.788543e+002
1.976169e+003, 2.763097e+002
1.978098e+003, 2.736242e+002
1.980026e+003, 2.729303e+002
1.981954e+003, 2.735449e+002
1.983883e+003, 2.719122e+002
1.985811e+003, 2.697495e+002
1.987740e+003, 2.684398e+002
1.989668e+003, 2.668177e+002
1.991597e+003, 2.647614e+002
1.993525e+003, 2.622098e+002
1.995454e+003, 2.597234e+002
1.997382e+003, 2.580217e+002
1.999311e+003, 2.560049e+002
2.001239e+003, 2.535433e+002
2.003168e+003, 2.534421e+002
2.005096e+003, 2.538872e+002
2.007025e+003, 2.524582e+002
2.008953e+003, 2.516602e+002
2.010881e+003, 2.523554e+002
2.012810e+003, 2.496036e+002
2.014738e+003, 2.462959e+002
2.016667e+003, 2.470504e+002
2.018595e+003, 2.475470e+002
2.020524e+003, 2.463613e+002
2.022452e+003, 2.450775e+002
2.024381e+003, 2.441040e+002
2.026309e+003, 2.449232e+002
2.028238e+003, 2.442835e+002
2.030166e+003, 2.409929e+002
2.032095e+003, 2.385431e+002
2.034023e+003, 2.368705e+002
2.035952e+003, 2.349254e+002
2.037880e+003, 2.354858e+002
2.039808e+003, 2.396832e+002
2.041737e+003, 2.393621e+002
2.043665e+003, 2.364073e+002
2.045594e+003, 2.348705e+002
2.047522e+003, 2.336320e+002
2.049451e+003, 2.323088e+002
2.051379e+003, 2.316816e+002
2.053308e+003, 2.315791e+002
2.055236e+003, 2.320213e+002
2.057165e+003, 2.315690e+002
2.059093e+003, 2.296403e+002
2.061022e+003, 2.312367e+002
2.062950e+003, 2.338017e+002
2.064879e+003, 2.318978e+002
2.066807e+003, 2.290652e+002
2.068736e+003, 2.263188e+002
2.070664e+003, 2.255898e+002
2.072593e+003, 2.256377e+002
2.074521e+003, 2.237144e+002
2.076449e+003, 2.230941e+002
2.078378e+003, 2.249991e+002
2.080306e+003, 2.253247e+002
2.082235e+003, 2.242774e+002
2.084163e+003, 2.213232e+002
2.086092e+003, 2.200342e+002
2.088020e+003, 2.215770e+002
2.089949e+003, 2.219085e+002
2.091877e+003, 2.215441e+002
2.093806e+003, 2.211222e+002
2.095734e+003, 2.203832e+002
2.097663e+003, 2.192822e+002
2.099591e+003, 2.178430e+002
2.101520e+003, 2.171341e+002
2.103448e+003, 2.185544e+002
2.105376e+003, 2.185890e+002
2.107305e+003, 2.168949e+002
2.109233e+003, 2.162926e+002
2.111162e+003, 2.160595e+002
2.113090e+003, 2.158440e+002
2.115019e+003, 2.148084e+002
2.116947e+003, 2.132072e+002
2.118876e+003, 2.124338e+002
2.120804e+003, 2.120601e+002
2.122733e+003, 2.117627e+002
2.124661e+003, 2.126229e+002
2.126590e+003, 2.140591e+002
2.128518e+003, 2.144948e+002
2.130447e+003, 2.144977e+002
2.132375e+003, 2.142990e+002
2.134303e+003, 2.134360e+002
2.136232e+003, 2.126614e+002
2.138160e+003, 2.138992e+002
2.140089e+003, 2.138990e+002
2.142017e+003, 2.121150e+002
2.143946e+003, 2.112721e+002
2.145874e+003, 2.107435e+002
2.147803e+003, 2.094740e+002
2.149731e+003, 2.092527e+002
2.151660e+003, 2.100237e+002
2.153588e+003, 2.107092e+002
2.155517e+003, 2.106692e+002
2.157445e+003, 2.087514e+002
2.159374e+003, 2.079270e+002
2.161302e+003, 2.081894e+002
2.163230e+003, 2.096642e+002
2.165159e+003, 2.107292e+002
2.167087e+003, 2.108012e+002
2.169016e+003, 2.093492e+002
2.170944e+003, 2.078068e+002
2.172873e+003, 2.085350e+002
2.174801e+003, 2.082963e+002
2.176730e+003, 2.064843e+002
2.178658e+003, 2.058289e+002
2.180587e+003, 2.060225e+002
2.182515e+003, 2.070549e+002
2.184444e+003, 2.071141e+002
2.186372e+003, 2.067355e+002
2.188301e+003, 2.092765e+002
2.190229e+003, 2.105338e+002
2.192157e+003, 2.088007e+002
2.194086e+003, 2.073215e+002
2.196014e+003, 2.064393e+002
2.197943e+003, 2.065945e+002
2.199871e+003, 2.068459e+002
2.201800e+003, 2.071253e+002
2.203728e+003, 2.083912e+002
2.205657e+003, 2.097983e+002
2.207585e+003, 2.109171e+002
2.209514e+003, 2.104529e+002
2.211442e+003, 2.093190e+002
2.213371e+003, 2.102822e+002
2.215299e+003, 2.112122e+002
2.217228e+003, 2.114495e+002
2.219156e+003, 2.089890e+002
2.221084e+003, 2.066556e+002
2.223013e+003, 2.083455e+002
2.224941e+003, 2.088012e+002
2.226870e+003, 2.082222e+002
2.228798e+003, 2.096974e+002
2.230727e+003, 2.107688e+002
2.232655e+003, 2.101357e+002
2.234584e+003, 2.097639e+002
2.236512e+003, 2.093405e+002
2.238441e+003, 2.075453e+002
2.240369e+003, 2.081104e+002
2.242298e+003, 2.109030e+002
2.244226e+003, 2.107589e+002
2.246155e+003, 2.102088e+002
2.248083e+003, 2.107966e+002
2.250011e+003, 2.110568e+002
2.251940e+003, 2.112615e+002
2.253868e+003, 2.122248e+002
2.255797e+003, 2.119061e+002
2.257725e+003, 2.102039e+002
2.259654e+003, 2.112701e+002
2.261582e+003, 2.126126e+002
2.263511e+003, 2.127827e+002
2.265439e+003, 2.125019e+002
2.267368e+003, 2.123645e+002
2.269296e+003, 2.137822e+002
2.271225e+003, 2.140621e+002
2.273153e+003, 2.128872e+002
2.275082e+003, 2.129884e+002
2.277010e+003, 2.127436e+002
2.278938e+003, 2.110102e+002
2.280867e+003, 2.140367e+002
2.282795e+003, 2.182563e+002
2.284724e+003, 2.168973e+002
2.286652e+003, 2.146875e+002
2.288581e+003, 2.129850e+002
2.290509e+003, 2.149676e+002
2.292438e+003, 2.166323e+002
2.294366e+003, 2.160192e+002
2.296295e+003, 2.149010e+002
2.298223e+003, 2.142566e+002
2.300152e+003, 2.161555e+002
2.302080e+003, 2.157854e+002
2.304009e+003, 2.134897e+002
2.305937e+003, 2.124889e+002
2.307865e+003, 2.118650e+002
2.309794e+003, 2.112839e+002
2.311722e+003, 2.106228e+002
2.313651e+003, 2.101337e+002
2.315579e+003, 2.103133e+002
2.317508e+003, 2.096398e+002
2.319436e+003, 2.085776e+002
2.321365e+003, 2.083450e+002
2.323293e+003, 2.090086e+002
2.325222e+003, 2.103790e+002
2.327150e+003, 2.076036e+002
2.329079e+003, 2.050963e+002
2.331007e+003, 2.058140e+002
2.332936e+003, 2.052075e+002
2.334864e+003, 2.039144e+002
2.336792e+003, 2.028744e+002
2.338721e+003, 2.025890e+002
2.340649e+003, 2.027956e+002
2.342578e+003, 2.023336e+002
2.344506e+003, 2.014801e+002
2.346435e+003, 2.003368e+002
2.348363e+003, 2.000306e+002
2.350292e+003, 1.993468e+002
2.352220e+003, 1.974386e+002
2.354149e+003, 1.954859e+002
2.356077e+003, 1.939239e+002
2.358006e+003, 1.935991e+002
2.359934e+003, 1.929828e+002
2.361863e+003, 1.920617e+002
2.363791e+003, 1.918228e+002
2.365719e+003, 1.910478e+002
2.367648e+003, 1.894981e+002
2.369576e+003, 1.898438e+002
2.371505e+003, 1.904028e+002
2.373433e+003, 1.899111e+002
2.375362e+003, 1.890386e+002
2.377290e+003, 1.882490e+002
2.379219e+003, 1.882013e+002
2.381147e+003, 1.885826e+002
2.383076e+003, 1.889042e+002
2.385004e+003, 1.872659e+002
2.386933e+003, 1.867938e+002
2.388861e+003, 1.881294e+002
2.390790e+003, 1.872798e+002
2.392718e+003, 1.866615e+002
2.394646e+003, 1.884361e+002
2.396575e+003, 1.866960e+002
2.398503e+003, 1.848875e+002
2.400432e+003, 1.868741e+002
2.402360e+003, 1.878757e+002
2.404289e+003, 1.877313e+002
2.406217e+003, 1.865248e+002
2.408146e+003, 1.868317e+002
2.410074e+003, 1.882214e+002
2.412003e+003, 1.855001e+002
2.413931e+003, 1.836327e+002
2.415860e+003, 1.842584e+002
2.417788e+003, 1.845748e+002
2.419717e+003, 1.852098e+002
2.421645e+003, 1.865521e+002
2.423573e+003, 1.842182e+002
2.425502e+003, 1.817134e+002
2.427430e+003, 1.829349e+002
2.429359e+003, 1.833911e+002
2.431287e+003, 1.831342e+002
2.433216e+003, 1.831389e+002
2.435144e+003, 1.826717e+002
2.437073e+003, 1.819223e+002
2.439001e+003, 1.820645e+002
2.440930e+003, 1.815521e+002
2.442858e+003, 1.802309e+002
2.444787e+003, 1.791540e+002
2.446715e+003, 1.791322e+002
2.448644e+003, 1.804279e+002
2.450572e+003, 1.822119e+002
2.452500e+003, 1.826988e+002
2.454429e+003, 1.799149e+002
2.456357e+003, 1.789659e+002
2.458286e+003, 1.793044e+002
2.460214e+003, 1.808366e+002
2.462143e+003, 1.808483e+002
2.464071e+003, 1.795519e+002
2.466000e+003, 1.769904e+002
2.467928e+003, 1.761521e+002
2.469857e+003, 1.767135e+002
2.471785e+003, 1.773188e+002
2.473714e+003, 1.764631e+002
2.475642e+003, 1.744491e+002
2.477571e+003, 1.749120e+002
2.479499e+003, 1.752529e+002
2.481427e+003, 1.747287e+002
2.483356e+003, 1.747815e+002
2.485284e+003, 1.740972e+002
2.487213e+003, 1.721894e+002
2.489141e+003, 1.731369e+002
2.491070e+003, 1.751808e+002
2.492998e+003, 1.772176e+002
2.494927e+003, 1.748834e+002
2.496855e+003, 1.723490e+002
2.498784e+003, 1.732665e+002
2.500712e+003, 1.741765e+002
2.502641e+003, 1.740055e+002
2.504569e+003, 1.711880e+002
2.506498e+003, 1.703542e+002
2.508426e+003, 1.709988e+002
2.510354e+003, 1.721158e+002
2.512283e+003, 1.721100e+002
2.514211e+003, 1.712292e+002
2.516140e+003, 1.699932e+002
2.518068e+003, 1.702931e+002
2.519997e+003, 1.713687e+002
2.521925e+003, 1.699358e+002
2.523854e+003, 1.700331e+002
2.525782e+003, 1.714160e+002
2.527711e+003, 1.697088e+002
2.529639e+003, 1.681563e+002
2.531568e+003, 1.676120e+002
2.533496e+003, 1.683100e+002
2.535425e+003, 1.686269e+002
2.537353e+003, 1.681623e+002
2.539281e+003, 1.692732e+002
2.541210e+003, 1.699967e+002
2.543138e+003, 1.695693e+002
2.545067e+003, 1.691953e+002
2.546995e+003, 1.695132e+002
2.548924e+003, 1.708725e+002
2.550852e+003, 1.685015e+002
2.552781e+003, 1.670856e+002
2.554709e+003, 1.690953e+002
2.556638e+003, 1.697199e+002
2.558566e+003, 1.695371e+002
2.560495e+003, 1.690252e+002
2.562423e+003, 1.691117e+002
2.564352e+003, 1.688888e+002
2.566280e+003, 1.678007e+002
2.568208e+003, 1.669812e+002
2.570137e+003, 1.663576e+002
2.572065e+003, 1.658137e+002
2.573994e+003, 1.662932e+002
2.575922e+003, 1.666499e+002
2.577851e+003, 1.659970e+002
2.579779e+003, 1.646127e+002
2.581708e+003, 1.625026e+002
2.583636e+003, 1.593019e+002
2.585565e+003, 1.584073e+002
2.587493e+003, 1.584338e+002
2.589422e+003, 1.579853e+002
2.591350e+003, 1.582831e+002
2.593279e+003, 1.584702e+002
2.595207e+003, 1.570839e+002
2.597135e+003, 1.583630e+002
2.599064e+003, 1.598358e+002
2.600992e+003, 1.588656e+002
2.602921e+003, 1.570013e+002
2.604849e+003, 1.554490e+002
2.606778e+003, 1.555002e+002
2.608706e+003, 1.544556e+002
2.610635e+003, 1.534322e+002
2.612563e+003, 1.535803e+002
2.614492e+003, 1.529303e+002
2.616420e+003, 1.519732e+002
2.618349e+003, 1.511905e+002
2.620277e+003, 1.496134e+002
2.622206e+003, 1.489551e+002
2.624134e+003, 1.503606e+002
2.626063e+003, 1.507807e+002
2.627991e+003, 1.502258e+002
2.629919e+003, 1.489029e+002
2.631848e+003, 1.468088e+002
2.633776e+003, 1.459409e+002
2.635705e+003, 1.471821e+002
2.637633e+003, 1.459448e+002
2.639562e+003, 1.445648e+002
2.641490e+003, 1.443218e+002
2.643419e+003, 1.449793e+002
2.645347e+003, 1.438875e+002
2.647276e+003, 1.405107e+002
2.649204e+003, 1.417770e+002
2.651133e+003, 1.428859e+002
2.653061e+003, 1.418925e+002
2.654990e+003, 1.383434e+002
2.656918e+003, 1.365714e+002
2.658846e+003, 1.373302e+002
2.660775e+003, 1.367338e+002
2.662703e+003, 1.361464e+002
2.664632e+003, 1.358156e+002
2.666560e+003, 1.346771e+002
2.668489e+003, 1.342084e+002
2.670417e+003, 1.344837e+002
2.672346e+003, 1.346925e+002
2.674274e+003, 1.352849e+002
2.676203e+003, 1.356049e+002
2.678131e+003, 1.337442e+002
2.680060e+003, 1.321440e+002
2.681988e+003, 1.311506e+002
2.683917e+003, 1.308602e+002
2.685845e+003, 1.302166e+002
2.687773e+003, 1.287845e+002
2.689702e+003, 1.258819e+002
2.691630e+003, 1.261880e+002
2.693559e+003, 1.271256e+002
2.695487e+003, 1.259711e+002
2.697416e+003, 1.278608e+002
2.699344e+003, 1.287002e+002
2.701273e+003, 1.258350e+002
2.703201e+003, 1.254761e+002
2.705130e+003, 1.255760e+002
2.707058e+003, 1.250351e+002
2.708987e+003, 1.250458e+002
2.710915e+003, 1.247412e+002
2.712844e+003, 1.239504e+002
2.714772e+003, 1.237436e+002
2.716700e+003, 1.221008e+002
2.718629e+003, 1.196882e+002
2.720557e+003, 1.200472e+002
2.722486e+003, 1.202652e+002
2.724414e+003, 1.215714e+002
2.726343e+003, 1.303828e+002
2.728271e+003, 1.271841e+002
2.730200e+003, 1.190887e+002
2.732128e+003, 1.187547e+002
2.734057e+003, 1.173165e+002
2.735985e+003, 1.165042e+002
2.737914e+003, 1.189540e+002
2.739842e+003, 1.167675e+002
2.741771e+003, 1.143432e+002
2.743699e+003, 1.143991e+002
2.745627e+003, 1.148904e+002
2.747556e+003, 1.154093e+002
2.749484e+003, 1.154863e+002
2.751413e+003, 1.125132e+002
2.753341e+003, 1.104953e+002
2.755270e+003, 1.100113e+002
2.757198e+003, 1.101320e+002
2.759127e+003, 1.115900e+002
2.761055e+003, 1.127349e+002
2.762984e+003, 1.109131e+002
2.764912e+003, 1.094581e+002
2.766841e+003, 1.093507e+002
2.768769e+003, 1.110574e+002
2.770698e+003, 1.088783e+002
2.772626e+003, 1.059370e+002
2.774554e+003, 1.041489e+002
2.776483e+003, 1.057081e+002
2.778411e+003, 1.057069e+002
2.780340e+003, 1.038771e+002
2.782268e+003, 1.044894e+002
2.784197e+003, 1.033318e+002
2.786125e+003, 1.013706e+002
2.788054e+003, 1.016556e+002
2.789982e+003, 1.021210e+002
2.791911e+003, 1.025580e+002
2.793839e+003, 1.030471e+002
2.795768e+003, 1.026498e+002
2.797696e+003, 1.022105e+002
2.799625e+003, 1.021438e+002
2.801553e+003, 1.009477e+002
2.803481e+003, 9.951722e+001
2.805410e+003, 9.823607e+001
2.807338e+003, 9.735551e+001
2.809267e+003, 9.736501e+001
2.811195e+003, 9.753569e+001
2.813124e+003, 9.674525e+001
2.815052e+003, 9.750752e+001
2.816981e+003, 9.771703e+001
2.818909e+003, 9.600379e+001
2.820838e+003, 9.513739e+001
2.822766e+003, 9.529123e+001
2.824695e+003, 9.570321e+001
2.826623e+003, 9.241148e+001
2.828552e+003, 8.996596e+001
2.830480e+003, 8.919228e+001
2.832408e+003, 9.032845e+001
2.834337e+003, 9.021587e+001
2.836265e+003, 8.977197e+001
2.838194e+003, 8.993136e+001
2.840122e+003, 8.877965e+001
2.842051e+003, 8.835555e+001
2.843979e+003, 8.888255e+001
2.845908e+003, 8.758577e+001
2.847836e+003, 8.581404e+001
2.849765e+003, 8.491544e+001
2.851693e+003, 8.716663e+001
2.853622e+003, 8.781804e+001
2.855550e+003, 8.748351e+001
2.857479e+003, 8.692278e+001
2.859407e+003, 8.673975e+001
2.861335e+003, 8.567997e+001
2.863264e+003, 8.393587e+001
2.865192e+003, 8.499659e+001
2.867121e+003, 8.470384e+001
2.869049e+003, 8.297723e+001
2.870978e+003, 8.051263e+001
2.872906e+003, 8.023239e+001
2.874835e+003, 8.091197e+001
2.876763e+003, 8.155162e+001
2.878692e+003, 8.155251e+001
2.880620e+003, 8.140418e+001
2.882549e+003, 8.083235e+001
2.884477e+003, 7.832494e+001
2.886406e+003, 7.760339e+001
2.888334e+003, 7.783781e+001
2.890262e+003, 7.786291e+001
2.892191e+003, 7.667973e+001
2.894119e+003, 7.487450e+001
2.896048e+003, 7.341926e+001
2.897976e+003, 7.554719e+001
2.899905e+003, 7.553571e+001
2.901833e+003, 7.418128e+001
2.903762e+003, 7.408475e+001
2.905690e+003, 7.362577e+001
2.907619e+003, 7.297724e+001
2.909547e+003, 7.236045e+001
2.911476e+003, 7.245657e+001
2.913404e+003, 7.259630e+001
2.915333e+003, 7.246217e+001
2.917261e+003, 7.183315e+001
2.919189e+003, 7.088902e+001
2.921118e+003, 6.943448e+001
2.923046e+003, 6.740750e+001
2.924975e+003, 6.696251e+001
2.926903e+003, 6.719642e+001
2.928832e+003, 6.755940e+001
2.930760e+003, 6.745039e+001
2.932689e+003, 6.738980e+001
2.934617e+003, 6.691935e+001
2.936546e+003, 6.577684e+001
2.938474e+003, 6.443355e+001
2.940403e+003, 6.479753e+001
2.942331e+003, 6.597651e+001
2.944260e+003, 6.489134e+001
2.946188e+003, 6.469548e+001
2.948116e+003, 6.477257e+001
2.950045e+003, 6.448795e+001
2.951973e+003, 6.352668e+001
2.953902e+003, 6.323201e+001
2.955830e+003, 6.328801e+001
2.957759e+003, 6.234310e+001
2.959687e+003, 6.083784e+001
2.961616e+003, 6.005986e+001
2.963544e+003, 6.051950e+001
2.965473e+003, 6.042289e+001
2.967401e+003, 6.059161e+001
2.969330e+003, 6.063079e+001
2.971258e+003, 5.952112e+001
2.973187e+003, 5.798943e+001
2.975115e+003, 5.822435e+001
2.977043e+003, 6.040797e+001
2.978972e+003, 5.757249e+001
2.980900e+003, 5.728590e+001
2.982829e+003, 5.893049e+001
2.984757e+003, 6.041779e+001
2.986686e+003, 5.779494e+001
2.988614e+003, 5.555042e+001
2.990543e+003, 5.535705e+001
2.992471e+003, 5.675362e+001
2.994400e+003, 5.583385e+001
2.996328e+003, 5.463906e+001
2.998257e+003, 5.498500e+001
3.000185e+003, 5.525430e+001
3.002114e+003, 5.458759e+001
3.004042e+003, 5.331641e+001
3.005970e+003, 5.233787e+001
3.007899e+003, 5.242617e+001
3.009827e+003, 5.274416e+001
3.011756e+003, 5.283506e+001
3.013684e+003, 5.306543e+001
3.015613e+003, 5.132417e+001
3.017541e+003, 4.964809e+001
3.019470e+003, 5.044034e+001
3.021398e+003, 5.071014e+001
3.023327e+003, 5.085741e+001
3.025255e+003, 5.093187e+001
3.027184e+003, 5.055959e+001
3.029112e+003, 4.984975e+001
3.031041e+003, 5.281697e+001
3.032969e+003, 5.952506e+001
3.034897e+003, 5.196225e+001
3.036826e+003, 4.952711e+001
3.038754e+003, 5.037539e+001
3.040683e+003, 4.904994e+001
3.042611e+003, 4.751765e+001
3.044540e+003, 4.689857e+001
3.046468e+003, 4.707592e+001
3.048397e+003, 4.721252e+001
3.050325e+003, 4.794593e+001
3.052254e+003, 4.817324e+001
3.054182e+003, 4.751945e+001
3.056111e+003, 4.649043e+001
3.058039e+003, 4.767908e+001
3.059968e+003, 4.857055e+001
3.061896e+003, 4.725851e+001
3.063824e+003, 4.519502e+001
3.065753e+003, 4.536345e+001
3.067681e+003, 4.661217e+001
3.069610e+003, 4.660576e+001
3.071538e+003, 4.725734e+001
3.073467e+003, 4.694884e+001
3.075395e+003, 4.564654e+001
3.077324e+003, 4.420363e+001
3.079252e+003, 4.487038e+001
3.081181e+003, 4.470510e+001
3.083109e+003, 4.305079e+001
3.085038e+003, 4.332933e+001
3.086966e+003, 4.368164e+001
3.088895e+003, 4.369991e+001
3.090823e+003, 4.334362e+001
3.092751e+003, 4.362121e+001
3.094680e+003, 4.385875e+001
3.096608e+003, 4.359916e+001
3.098537e+003, 4.252505e+001
3.100465e+003, 4.345565e+001
3.102394e+003, 4.366870e+001
3.104322e+003, 4.266371e+001
3.106251e+003, 4.082650e+001
3.108179e+003, 4.191338e+001
3.110108e+003, 4.189467e+001
3.112036e+003, 4.063163e+001
3.113965e+003, 4.092527e+001
3.115893e+003, 4.115010e+001
3.117822e+003, 4.063956e+001
3.119750e+003, 3.952451e+001
3.121678e+003, 3.864649e+001
3.123607e+003, 3.806452e+001
3.125535e+003, 3.872828e+001
3.127464e+003, 4.025123e+001
3.129392e+003, 3.949332e+001
3.131321e+003, 4.025357e+001
3.133249e+003, 4.007438e+001
3.135178e+003, 3.783588e+001
3.137106e+003, 3.712487e+001
3.139035e+003, 3.729845e+001
3.140963e+003, 3.716954e+001
3.142892e+003, 3.614196e+001
3.144820e+003, 3.663813e+001
3.146749e+003, 3.572832e+001
3.148677e+003, 3.461084e+001
3.150605e+003, 3.478402e+001
3.152534e+003, 3.749103e+001
3.154462e+003, 3.716962e+001
3.156391e+003, 3.543583e+001
3.158319e+003, 3.468450e+001
3.160248e+003, 3.446992e+001
3.162176e+003, 3.447736e+001
3.164105e+003, 3.449784e+001
3.166033e+003, 3.434924e+001
3.167962e+003, 3.337764e+001
3.169890e+003, 3.292647e+001
3.171819e+003, 3.291949e+001
3.173747e+003, 3.287489e+001
3.175676e+003, 3.167992e+001
3.177604e+003, 3.245478e+001
3.179532e+003, 3.305466e+001
3.181461e+003, 3.101998e+001
3.183389e+003, 3.127741e+001
3.185318e+003, 3.009402e+001
3.187246e+003, 2.934114e+001
3.189175e+003, 3.134786e+001
3.191103e+003, 3.054347e+001
3.193032e+003, 3.027032e+001
3.194960e+003, 3.025029e+001
3.196889e+003, 2.955540e+001
3.198817e+003, 2.886686e+001
3.200746e+003, 2.961356e+001
3.202674e+003, 3.011813e+001
3.204603e+003, 2.893263e+001
3.206531e+003, 2.859281e+001
3.208459e+003, 2.814862e+001
3.210388e+003, 2.714812e+001
3.212316e+003, 2.578971e+001
3.214245e+003, 2.693427e+001
3.216173e+003, 2.760615e+001
3.218102e+003, 2.737415e+001
3.220030e+003, 2.673758e+001
3.221959e+003, 2.789417e+001
3.223887e+003, 2.853212e+001
3.225816e+003, 2.773263e+001
3.227744e+003, 2.613383e+001
3.229673e+003, 2.671172e+001
3.231601e+003, 2.762922e+001
3.233530e+003, 2.653452e+001
3.235458e+003, 2.457755e+001
3.237386e+003, 2.655273e+001
3.239315e+003, 2.655256e+001
3.241243e+003, 2.719695e+001
3.243172e+003, 2.794747e+001
3.245100e+003, 2.621086e+001
3.247029e+003, 2.533575e+001
3.248957e+003, 2.663247e+001
3.250886e+003, 2.730170e+001
3.252814e+003, 2.374238e+001
3.254743e+003, 2.495698e+001
3.256671e+003, 2.526717e+001
3.258600e+003, 2.527385e+001
3.260528e+003, 2.623900e+001
3.262457e+003, 2.663214e+001
3.264385e+003, 2.439618e+001
3.266313e+003, 2.342754e+001
3.268242e+003, 2.484852e+001
3.270170e+003, 2.429890e+001
3.272099e+003, 2.396988e+001
3.274027e+003, 2.386020e+001
3.275956e+003, 2.403855e+001
3.277884e+003, 2.480988e+001
3.279813e+003, 2.590762e+001
3.281741e+003, 2.504526e+001
3.283670e+003, 2.361208e+001
3.285598e+003, 2.384395e+001
3.287527e+003, 2.456950e+001
3.289455e+003, 2.523160e+001
3.291384e+003, 2.531571e+001
3.293312e+003, 2.466938e+001
3.295240e+003, 2.365016e+001
3.297169e+003, 2.380523e+001
3.299097e+003, 2.372421e+001
3.301026e+003, 2.341356e+001
3.302954e+003, 2.489947e+001
3.304883e+003, 2.386955e+001
3.306811e+003, 2.325253e+001
3.308740e+003, 2.364717e+001
3.310668e+003, 2.461137e+001
3.312597e+003, 2.441730e+001
3.314525e+003, 2.430365e+001
3.316454e+003, 2.384462e+001
3.318382e+003, 2.291209e+001
3.320311e+003, 2.252923e+001
3.322239e+003, 2.266945e+001
3.324167e+003, 2.201611e+001
3.326096e+003, 2.106074e+001
3.328024e+003, 2.122467e+001
3.329953e+003, 2.114377e+001
3.331881e+003, 2.110877e+001
3.333810e+003, 2.152577e+001
3.335738e+003, 2.253222e+001
3.337667e+003, 2.397641e+001
3.339595e+003, 2.402732e+001
3.341524e+003, 2.383403e+001
3.343452e+003, 2.309670e+001
3.345381e+003, 2.005887e+001
3.347309e+003, 2.150444e+001
3.349238e+003, 2.119841e+001
3.351166e+003, 2.007526e+001
3.353094e+003, 2.023238e+001
3.355023e+003, 2.139409e+001
3.356951e+003, 2.131542e+001
3.358880e+003, 2.145778e+001
3.360808e+003, 2.191113e+001
3.362737e+003, 2.149022e+001
3.364665e+003, 2.085147e+001
3.366594e+003, 2.063532e+001
3.368522e+003, 2.043258e+001
3.370451e+003, 2.019928e+001
3.372379e+003, 2.143126e+001
3.374308e+003, 2.042340e+001
3.376236e+003, 1.927619e+001
3.378165e+003, 1.879349e+001
3.380093e+003, 1.869670e+001
3.382021e+003, 1.877951e+001
3.383950e+003, 2.086643e+001
3.385878e+003, 2.142408e+001
3.387807e+003, 2.000713e+001
3.389735e+003, 2.100055e+001
3.391664e+003, 1.931871e+001
3.393592e+003, 1.902633e+001
3.395521e+003, 1.917493e+001
3.397449e+003, 1.817871e+001
3.399378e+003, 1.822415e+001
3.401306e+003, 1.786658e+001
3.403235e+003, 1.840303e+001
3.405163e+003, 1.945821e+001
3.407092e+003, 1.972430e+001
3.409020e+003, 2.003695e+001
3.410948e+003, 1.958638e+001
3.412877e+003, 1.988455e+001
3.414805e+003, 2.083356e+001
3.416734e+003, 2.023982e+001
3.418662e+003, 1.963842e+001
3.420591e+003, 1.954724e+001
3.422519e+003, 1.943813e+001
3.424448e+003, 1.902136e+001
3.426376e+003, 1.889623e+001
3.428305e+003, 1.727443e+001
3.430233e+003, 1.669197e+001
3.432162e+003, 1.604181e+001
3.434090e+003, 1.442196e+001
3.436019e+003, 1.703242e+001
3.437947e+003, 1.662288e+001
3.439875e+003, 1.671624e+001
3.441804e+003, 1.654127e+001
3.443732e+003, 1.402142e+001
3.445661e+003, 1.518893e+001
3.447589e+003, 1.618625e+001
3.449518e+003, 1.559113e+001
3.451446e+003, 1.462394e+001
##END=



