##NAMES=Wilancookite
##RRUFFID=R100091
##IDEAL CHEMISTRY=(Ba_5_Li_2_[box])Ba_6_Be_24_P_24_O_96_·26H_2_O
##LOCALITY=Lavra Ponte do Piauí complex granitic pegmatite, Itinga, Jequitinhonha, Minas Gerais, Brazil
##OWNER=RRUFF
##SOURCE=Luiz Menezes
##DESCRIPTION=Colorless dodecahedra on mica, type sample
##STATUS=The identification of this mineral is confirmed by single-crystal X-ray diffraction and chemical analysis
##URL=https://www.rruff.net/odr/rruff_sample/R100091
##DIFFRACTION SAMPLE DESCRIPTION=Single crystal, powder profile is calculated
##CELL PARAMETERS=a: 13.482 b: 13.482 c: 13.482 alpha: 90 beta: 90 gamma: 90 volume: 2450.5 crystal system: cubic
##FILETYPE=Raman RAW
##RAMAN WAVELENGTH=532

167.4370, 5810.628
169.3655, 5875.140
171.2939, 5932.853
173.2224, 5982.003
175.1509, 6025.052
177.0793, 6061.569
179.0078, 6093.583
180.9363, 6121.554
182.8647, 6146.499
184.7932, 6169.046
186.7217, 6191.864
188.6501, 6213.908
190.5786, 6234.009
192.5071, 6256.158
194.4355, 6281.814
196.3640, 6307.166
198.2925, 6328.047
200.2209, 6342.610
202.1494, 6354.635
204.0779, 6365.126
206.0063, 6373.450
207.9348, 6380.151
209.8633, 6383.342
211.7918, 6386.806
213.7202, 6393.004
215.6487, 6403.469
217.5772, 6413.096
219.5056, 6421.142
221.4341, 6427.745
223.3626, 6434.399
225.2910, 6440.584
227.2195, 6446.389
229.1480, 6452.034
231.0764, 6455.165
233.0049, 6460.222
234.9334, 6469.136
236.8618, 6480.417
238.7903, 6487.831
240.7188, 6486.856
242.6472, 6484.326
244.5757, 6485.690
246.5042, 6491.576
248.4326, 6497.458
250.3611, 6503.081
252.2896, 6508.898
254.2180, 6516.174
256.1465, 6526.766
258.0750, 6536.948
260.0034, 6542.850
261.9319, 6542.362
263.8604, 6545.110
265.7888, 6555.638
267.7173, 6572.729
269.6458, 6588.815
271.5742, 6600.634
273.5027, 6613.593
275.4312, 6630.004
277.3596, 6650.634
279.2881, 6671.440
281.2166, 6693.483
283.1450, 6716.165
285.0735, 6737.962
287.0020, 6758.545
288.9304, 6778.366
290.8589, 6797.000
292.7874, 6813.412
294.7158, 6828.806
296.6443, 6843.107
298.5728, 6857.912
300.5012, 6874.571
302.4297, 6894.899
304.3582, 6913.717
306.2866, 6928.524
308.2151, 6939.009
310.1436, 6951.869
312.0720, 6968.866
314.0005, 6987.697
315.9290, 7006.999
317.8574, 7028.692
319.7859, 7050.517
321.7144, 7072.167
323.6428, 7093.478
325.5713, 7114.357
327.4998, 7135.401
329.4282, 7155.678
331.3567, 7173.632
333.2852, 7185.375
335.2137, 7194.458
337.1421, 7200.934
339.0706, 7205.080
340.9991, 7207.162
342.9275, 7206.814
344.8560, 7206.815
346.7845, 7209.207
348.7129, 7214.228
350.6414, 7217.972
352.5699, 7219.976
354.4983, 7220.340
356.4268, 7219.516
358.3553, 7214.493
360.2837, 7215.771
362.2122, 7225.053
364.1407, 7240.649
366.0691, 7258.357
367.9976, 7280.008
369.9261, 7304.847
371.8545, 7331.174
373.7830, 7356.548
375.7115, 7384.353
377.6399, 7416.260
379.5684, 7447.962
381.4969, 7475.708
383.4253, 7498.095
385.3538, 7518.563
387.2823, 7538.626
389.2107, 7558.083
391.1392, 7575.773
393.0677, 7590.978
394.9961, 7607.356
396.9246, 7627.451
398.8531, 7655.178
400.7815, 7678.204
402.7100, 7689.248
404.6385, 7696.382
406.5669, 7709.681
408.4954, 7735.125
410.4239, 7756.767
412.3523, 7768.678
414.2808, 7771.238
416.2093, 7773.985
418.1377, 7778.999
420.0662, 7786.307
421.9947, 7795.917
423.9231, 7808.723
425.8516, 7823.385
427.7801, 7838.933
429.7085, 7855.037
431.6370, 7871.962
433.5655, 7890.083
435.4939, 7911.065
437.4224, 7935.740
439.3509, 7962.917
441.2793, 7988.028
443.2078, 8010.515
445.1363, 8030.053
447.0647, 8048.120
448.9932, 8063.947
450.9217, 8073.001
452.8501, 8071.971
454.7786, 8069.562
456.7071, 8074.080
458.6355, 8086.602
460.5640, 8100.689
462.4925, 8115.597
464.4209, 8130.812
466.3494, 8144.075
468.2779, 8153.279
470.2063, 8159.357
472.1348, 8162.296
474.0633, 8161.848
475.9917, 8159.020
477.9202, 8152.865
479.8487, 8146.583
481.7771, 8142.204
483.7056, 8142.399
485.6341, 8142.831
487.5625, 8141.702
489.4910, 8142.834
491.4195, 8149.406
493.3479, 8161.338
495.2764, 8175.797
497.2049, 8192.425
499.1333, 8212.629
501.0618, 8234.278
502.9903, 8253.689
504.9187, 8274.830
506.8472, 8300.737
508.7757, 8333.554
510.7041, 8365.496
512.6326, 8393.225
514.5610, 8419.443
516.4895, 8447.309
518.4180, 8477.993
520.3464, 8509.503
522.2749, 8540.442
524.2034, 8572.535
526.1318, 8608.864
528.0603, 8649.940
529.9888, 8694.998
531.9172, 8745.962
533.8457, 8800.047
535.7742, 8853.834
537.7026, 8907.953
539.6311, 8962.627
541.5596, 9017.121
543.4880, 9067.482
545.4165, 9119.083
547.3450, 9178.671
549.2734, 9234.673
551.2019, 9277.894
553.1304, 9307.476
555.0588, 9335.875
556.9873, 9363.884
558.9158, 9392.456
560.8442, 9423.460
562.7727, 9458.667
564.7012, 9496.559
566.6296, 9540.986
568.5581, 9583.431
570.4866, 9617.010
572.4150, 9645.469
574.3435, 9662.294
576.2720, 9665.403
578.2004, 9650.690
580.1289, 9624.701
582.0574, 9585.025
583.9859, 9537.540
585.9144, 9481.874
587.8428, 9421.396
589.7713, 9361.494
591.6998, 9295.568
593.6282, 9233.865
595.5567, 9185.318
597.4852, 9150.365
599.4136, 9117.214
601.3421, 9082.312
603.2706, 9048.661
605.1990, 9021.122
607.1275, 9002.995
609.0560, 8986.364
610.9844, 8970.854
612.9129, 8956.425
614.8414, 8944.672
616.7698, 8933.901
618.6983, 8928.983
620.6268, 8932.235
622.5552, 8943.302
624.4837, 8951.638
626.4122, 8953.858
628.3406, 8955.579
630.2691, 8959.881
632.1976, 8966.495
634.1260, 8971.806
636.0545, 8975.140
637.9830, 8978.463
639.9114, 8983.532
641.8399, 8991.380
643.7684, 8998.155
645.6968, 9001.358
647.6253, 9005.221
649.5538, 9012.720
651.4822, 9024.452
653.4107, 9038.244
655.3392, 9054.864
657.2676, 9071.652
659.1961, 9085.920
661.1246, 9097.226
663.0530, 9108.119
664.9815, 9120.393
666.9100, 9132.917
668.8384, 9144.229
670.7669, 9151.744
672.6954, 9162.471
674.6238, 9179.412
676.5523, 9199.557
678.4808, 9216.530
680.4092, 9227.933
682.3377, 9239.471
684.2662, 9253.402
686.1946, 9268.987
688.1231, 9282.607
690.0516, 9291.429
691.9800, 9301.862
693.9085, 9318.243
695.8370, 9338.221
697.7654, 9353.732
699.6939, 9359.868
701.6224, 9365.165
703.5508, 9373.034
705.4793, 9383.303
707.4078, 9391.517
709.3362, 9397.605
711.2647, 9402.677
713.1932, 9407.072
715.1216, 9410.834
717.0501, 9414.663
718.9786, 9419.162
720.9070, 9424.734
722.8355, 9431.146
724.7640, 9438.350
726.6924, 9447.198
728.6209, 9457.939
730.5494, 9469.827
732.4778, 9481.743
734.4063, 9493.678
736.3348, 9506.669
738.2632, 9521.300
740.1917, 9534.832
742.1202, 9547.878
744.0486, 9563.228
745.9771, 9576.793
747.9056, 9587.528
749.8340, 9596.484
751.7625, 9605.628
753.6910, 9615.065
755.6194, 9625.825
757.5479, 9638.156
759.4764, 9653.646
761.4048, 9671.703
763.3333, 9690.864
765.2618, 9708.409
767.1902, 9721.028
769.1187, 9732.884
771.0472, 9747.323
772.9756, 9765.968
774.9041, 9780.838
776.8326, 9789.501
778.7610, 9794.279
780.6895, 9800.609
782.6180, 9808.255
784.5464, 9812.924
786.4749, 9812.189
788.4034, 9813.286
790.3318, 9817.779
792.2603, 9827.112
794.1888, 9835.032
796.1172, 9839.582
798.0457, 9842.719
799.9742, 9849.535
801.9026, 9854.832
803.8311, 9860.291
805.7596, 9868.379
807.6880, 9873.720
809.6165, 9881.700
811.5450, 9891.842
813.4734, 9901.797
815.4019, 9911.141
817.3304, 9921.593
819.2589, 9935.779
821.1873, 9953.859
823.1158, 9969.092
825.0443, 9979.056
826.9727, 9986.582
828.9012, 9991.843
830.8297, 9994.315
832.7581, 10000.18
834.6866, 10013.49
836.6151, 10024.37
838.5435, 10030.21
840.4720, 10034.20
842.4005, 10039.21
844.3289, 10044.68
846.2574, 10050.28
848.1859, 10059.77
850.1143, 10074.03
852.0428, 10088.52
853.9713, 10099.51
855.8997, 10111.98
857.8282, 10129.81
859.7567, 10154.74
861.6851, 10176.05
863.6136, 10187.98
865.5421, 10192.73
867.4705, 10201.15
869.3990, 10214.79
871.3275, 10224.21
873.2559, 10224.61
875.1844, 10223.03
877.1129, 10222.72
879.0413, 10224.63
880.9698, 10230.22
882.8983, 10241.27
884.8267, 10252.18
886.7552, 10259.65
888.6837, 10267.83
890.6121, 10281.44
892.5406, 10301.96
894.4691, 10326.46
896.3975, 10352.35
898.3260, 10373.54
900.2545, 10393.98
902.1829, 10416.93
904.1114, 10442.42
906.0399, 10465.75
907.9683, 10484.07
909.8968, 10498.03
911.8253, 10505.86
913.7537, 10510.59
915.6822, 10512.02
917.6107, 10522.66
919.5391, 10544.70
921.4676, 10573.88
923.3961, 10598.96
925.3245, 10618.29
927.2530, 10633.35
929.1815, 10645.98
931.1099, 10656.66
933.0384, 10666.46
934.9669, 10674.66
936.8953, 10684.83
938.8238, 10700.63
940.7523, 10722.00
942.6807, 10745.15
944.6092, 10768.36
946.5377, 10793.35
948.4661, 10822.04
950.3946, 10852.74
952.3231, 10881.41
954.2515, 10903.96
956.1800, 10926.51
958.1085, 10957.79
960.0369, 10996.21
961.9654, 11038.07
963.8939, 11084.20
965.8223, 11136.48
967.7508, 11191.66
969.6793, 11252.06
971.6077, 11310.46
973.5362, 11364.77
975.4647, 11420.46
977.3931, 11485.66
979.3216, 11549.40
981.2501, 11617.62
983.1785, 11686.85
985.1070, 11759.57
987.0355, 11842.37
988.9639, 11941.31
990.8924, 12044.97
992.8209, 12158.69
994.7493, 12287.51
996.6778, 12431.92
998.6063, 12579.22
1000.535, 12737.79
1002.463, 12906.84
1004.392, 13064.95
1006.320, 13201.75
1008.249, 13311.98
1010.177, 13378.22
1012.106, 13409.74
1014.034, 13396.99
1015.962, 13334.81
1017.891, 13232.72
1019.819, 13128.11
1021.748, 13020.26
1023.676, 12924.61
1025.605, 12844.53
1027.533, 12784.11
1029.462, 12750.72
1031.390, 12736.18
1033.319, 12724.77
1035.247, 12718.82
1037.176, 12723.45
1039.104, 12740.27
1041.032, 12767.64
1042.961, 12796.46
1044.889, 12831.36
1046.818, 12871.06
1048.746, 12910.58
1050.675, 12944.27
1052.603, 12959.07
1054.532, 12959.53
1056.460, 12943.12
1058.389, 12903.18
1060.317, 12837.58
1062.246, 12757.80
1064.174, 12674.68
1066.103, 12599.17
1068.031, 12523.05
1069.959, 12447.38
1071.888, 12382.42
1073.816, 12336.34
1075.745, 12304.70
1077.673, 12277.17
1079.602, 12248.17
1081.530, 12218.99
1083.459, 12194.00
1085.387, 12176.33
1087.316, 12166.20
1089.244, 12158.13
1091.173, 12151.28
1093.101, 12145.26
1095.030, 12137.14
1096.958, 12123.33
1098.887, 12113.16
1100.815, 12110.60
1102.744, 12111.52
1104.672, 12109.44
1106.600, 12101.23
1108.529, 12103.27
1110.457, 12119.05
1112.386, 12140.89
1114.314, 12159.42
1116.243, 12173.26
1118.171, 12195.00
1120.100, 12233.16
1122.028, 12272.85
1123.957, 12305.12
1125.885, 12342.96
1127.814, 12371.05
1129.742, 12410.71
1131.671, 12441.00
1133.599, 12468.02
1135.527, 12490.76
1137.456, 12507.44
1139.384, 12517.11
1141.313, 12526.25
1143.241, 12535.35
1145.170, 12546.64
1147.098, 12560.23
1149.027, 12574.17
1150.955, 12587.02
1152.884, 12601.62
1154.812, 12620.35
1156.741, 12637.13
1158.669, 12651.65
1160.598, 12664.18
1162.526, 12672.84
1164.454, 12682.46
1166.383, 12700.56
1168.311, 12721.94
1170.240, 12739.58
1172.168, 12752.88
1174.097, 12771.56
1176.025, 12798.36
1177.954, 12817.31
1179.882, 12825.95
1181.811, 12828.15
1183.739, 12829.21
1185.668, 12829.22
1187.596, 12831.47
1189.525, 12837.29
1191.453, 12845.70
1193.381, 12863.19
1195.310, 12893.84
1197.238, 12921.43
1199.167, 12931.76
1201.095, 12939.33
1203.024, 12956.28
1204.952, 12982.49
1206.881, 13003.98
1208.809, 13015.22
1210.738, 13021.86
1212.666, 13032.32
1214.595, 13047.84
1216.523, 13059.64
1218.452, 13069.09
1220.380, 13082.00
1222.308, 13099.80
1224.237, 13119.19
1226.165, 13144.46
1228.094, 13174.49
1230.022, 13200.02
1231.951, 13214.89
1233.879, 13234.80
1235.808, 13268.80
1237.736, 13301.74
1239.665, 13322.14
1241.593, 13331.13
1243.522, 13345.00
1245.450, 13368.29
1247.379, 13391.39
1249.307, 13411.86
1251.235, 13431.57
1253.164, 13455.77
1255.092, 13486.02
1257.021, 13517.01
1258.949, 13546.83
1260.878, 13572.19
1262.806, 13593.73
1264.735, 13613.40
1266.663, 13633.80
1268.592, 13654.31
1270.520, 13676.91
1272.449, 13705.78
1274.377, 13736.03
1276.306, 13760.96
1278.234, 13778.89
1280.162, 13799.51
1282.091, 13825.71
1284.019, 13854.14
1285.948, 13882.20
1287.876, 13909.26
1289.805, 13938.25
1291.733, 13969.37
1293.662, 14003.49
1295.590, 14041.93
1297.519, 14078.24
1299.447, 14108.33
1301.376, 14133.12
1303.304, 14156.60
1305.233, 14179.98
1307.161, 14200.82
1309.089, 14218.19
1311.018, 14237.20
1312.946, 14260.50
1314.875, 14288.46
1316.803, 14318.02
1318.732, 14346.81
1320.660, 14379.23
1322.589, 14416.60
1324.517, 14456.09
1326.446, 14492.47
1328.374, 14523.00
1330.303, 14550.09
1332.231, 14573.28
1334.160, 14594.11
1336.088, 14614.02
1338.016, 14633.22
1339.945, 14651.13
1341.873, 14668.04
1343.802, 14687.45
1345.730, 14711.82
1347.659, 14737.31
1349.587, 14761.67
1351.516, 14785.24
1353.444, 14808.50
1355.373, 14828.81
1357.301, 14854.56
1359.230, 14892.23
1361.158, 14929.39
1363.087, 14958.84
1365.015, 14980.52
1366.943, 14998.57
1368.872, 15009.70
1370.800, 15022.98
1372.729, 15042.27
1374.657, 15062.66
1376.586, 15078.97
1378.514, 15092.19
1380.443, 15111.57
1382.371, 15140.54
1384.300, 15167.08
1386.228, 15184.97
1388.157, 15199.85
1390.085, 15217.26
1392.014, 15236.55
1393.942, 15253.25
1395.870, 15267.86
1397.799, 15277.20
1399.727, 15275.59
1401.656, 15273.62
1403.584, 15282.43
1405.513, 15303.09
1407.441, 15320.19
1409.370, 15329.09
1411.298, 15342.44
1413.227, 15364.27
1415.155, 15390.45
1417.084, 15416.73
1419.012, 15442.83
1420.941, 15466.27
1422.869, 15478.75
1424.797, 15496.29
1426.726, 15527.69
1428.654, 15564.29
1430.583, 15596.40
1432.511, 15624.15
1434.440, 15647.94
1436.368, 15667.18
1438.297, 15684.93
1440.225, 15697.88
1442.154, 15710.96
1444.082, 15731.38
1446.011, 15757.62
1447.939, 15782.93
1449.868, 15807.17
1451.796, 15829.07
1453.724, 15848.63
1455.653, 15865.17
1457.581, 15877.96
1459.510, 15889.59
1461.438, 15903.67
1463.367, 15920.93
1465.295, 15939.96
1467.224, 15961.43
1469.152, 15986.92
1471.081, 16015.68
1473.009, 16044.35
1474.938, 16067.88
1476.866, 16083.01
1478.795, 16097.78
1480.723, 16114.27
1482.651, 16129.80
1484.580, 16143.88
1486.508, 16157.57
1488.437, 16173.38
1490.365, 16191.23
1492.294, 16217.22
1494.222, 16255.56
1496.151, 16296.74
1498.079, 16334.16
1500.008, 16365.06
1501.936, 16388.40
1503.865, 16400.68
1505.793, 16413.83
1507.722, 16434.60
1509.650, 16452.95
1511.578, 16461.90
1513.507, 16466.93
1515.435, 16481.21
1517.364, 16507.04
1519.292, 16533.43
1521.221, 16559.37
1523.149, 16583.36
1525.078, 16598.26
1527.006, 16611.99
1528.935, 16638.47
1530.863, 16676.40
1532.792, 16706.53
1534.720, 16723.94
1536.649, 16740.02
1538.577, 16760.57
1540.505, 16782.92
1542.434, 16803.23
1544.362, 16822.80
1546.291, 16849.57
1548.219, 16886.95
1550.148, 16920.68
1552.076, 16941.24
1554.005, 16961.40
1555.933, 16989.45
1557.862, 17022.04
1559.790, 17048.03
1561.719, 17065.44
1563.647, 17080.28
1565.576, 17094.29
1567.504, 17108.99
1569.432, 17126.15
1571.361, 17146.19
1573.289, 17168.16
1575.218, 17190.77
1577.146, 17219.69
1579.075, 17258.98
1581.003, 17297.17
1582.932, 17329.16
1584.860, 17358.68
1586.789, 17389.09
1588.717, 17419.30
1590.646, 17446.79
1592.574, 17475.50
1594.503, 17495.38
1596.431, 17501.26
1598.359, 17504.09
1600.288, 17510.23
1602.216, 17519.54
1604.145, 17532.00
1606.073, 17552.47
1608.002, 17568.46
1609.930, 17576.85
1611.859, 17585.31
1613.787, 17593.28
1615.716, 17602.43
1617.644, 17616.53
1619.573, 17634.78
1621.501, 17647.09
1623.430, 17650.84
1625.358, 17655.12
1627.286, 17657.73
1629.215, 17664.53
1631.143, 17685.11
1633.072, 17711.76
1635.000, 17724.62
1636.929, 17721.62
1638.857, 17723.05
1640.786, 17730.59
1642.714, 17741.76
1644.643, 17759.84
1646.571, 17776.06
1648.500, 17777.90
1650.428, 17787.17
1652.357, 17791.70
1654.285, 17784.83
1656.214, 17790.02
1658.142, 17773.54
1660.070, 17755.29
1661.999, 17745.17
1663.927, 17740.18
1665.856, 17736.00
1667.784, 17733.22
1669.713, 17732.31
1671.641, 17731.96
1673.570, 17738.14
1675.498, 17755.44
1677.427, 17777.16
1679.355, 17799.92
1681.284, 17823.26
1683.212, 17844.66
1685.141, 17862.76
1687.069, 17886.88
1688.997, 17921.84
1690.926, 17951.16
1692.854, 17964.04
1694.783, 17973.24
1696.711, 17990.57
1698.640, 18012.76
1700.568, 18030.42
1702.497, 18043.76
1704.425, 18052.82
1706.354, 18055.26
1708.282, 18057.55
1710.211, 18063.02
1712.139, 18070.11
1714.068, 18078.87
1715.996, 18090.15
1717.924, 18102.63
1719.853, 18116.39
1721.781, 18140.44
1723.710, 18180.09
1725.638, 18222.43
1727.567, 18259.06
1729.495, 18292.31
1731.424, 18323.56
1733.352, 18350.56
1735.281, 18372.43
1737.209, 18389.50
1739.138, 18398.87
1741.066, 18403.12
1742.995, 18401.58
1744.923, 18386.63
1746.851, 18376.72
1748.780, 18396.23
1750.708, 18438.46
1752.637, 18470.07
1754.565, 18487.37
1756.494, 18502.16
1758.422, 18508.42
1760.351, 18519.14
1762.279, 18545.04
1764.208, 18571.89
1766.136, 18585.88
1768.065, 18589.57
1769.993, 18591.99
1771.922, 18592.90
1773.850, 18599.65
1775.778, 18617.38
1777.707, 18636.63
1779.635, 18653.88
1781.564, 18671.32
1783.492, 18690.62
1785.421, 18710.69
1787.349, 18729.70
1789.278, 18747.28
1791.206, 18763.24
1793.135, 18778.06
1795.063, 18790.86
1796.992, 18797.29
1798.920, 18807.36
1800.849, 18831.19
1802.777, 18863.74
1804.705, 18893.72
1806.634, 18920.96
1808.562, 18949.32
1810.491, 18978.01
1812.419, 19008.57
1814.348, 19039.72
1816.276, 19071.28
1818.205, 19101.50
1820.133, 19130.34
1822.062, 19159.63
1823.990, 19188.53
1825.919, 19209.77
1827.847, 19223.35
1829.776, 19231.96
1831.704, 19234.33
1833.632, 19239.08
1835.561, 19250.44
1837.489, 19266.59
1839.418, 19287.41
1841.346, 19310.88
1843.275, 19328.39
1845.203, 19349.02
1847.132, 19372.67
1849.060, 19386.85
1850.989, 19415.98
1852.917, 19435.53
1854.846, 19448.48
1856.774, 19455.13
1858.703, 19457.45
1860.631, 19456.99
1862.559, 19454.71
1864.488, 19457.14
1866.416, 19466.88
1868.345, 19473.04
1870.273, 19473.34
1872.202, 19473.64
1874.130, 19472.47
1876.059, 19477.92
1877.987, 19499.54
1879.916, 19530.88
1881.844, 19556.94
1883.773, 19576.92
1885.701, 19605.00
1887.630, 19644.19
1889.558, 19677.50
1891.486, 19701.24
1893.415, 19715.73
1895.343, 19718.24
1897.272, 19715.96
1899.200, 19716.84
1901.129, 19721.78
1903.057, 19729.57
1904.986, 19742.31
1906.914, 19759.00
1908.843, 19778.01
1910.771, 19803.52
1912.700, 19838.00
1914.628, 19872.50
1916.557, 19897.58
1918.485, 19919.71
1920.413, 19947.96
1922.342, 19980.10
1924.270, 20009.25
1926.199, 20037.40
1928.127, 20059.96
1930.056, 20074.79
1931.984, 20091.79
1933.913, 20115.99
1935.841, 20139.14
1937.770, 20157.82
1939.698, 20171.48
1941.627, 20177.03
1943.555, 20176.31
1945.484, 20181.04
1947.412, 20192.56
1949.340, 20199.11
1951.269, 20200.43
1953.197, 20199.27
1955.126, 20195.93
1957.054, 20193.83
1958.983, 20190.66
1960.911, 20193.85
1962.840, 20213.96
1964.768, 20245.24
1966.697, 20271.26
1968.625, 20289.97
1970.554, 20310.22
1972.482, 20331.40
1974.411, 20350.93
1976.339, 20368.41
1978.267, 20383.94
1980.196, 20406.15
1982.124, 20422.29
1984.053, 20412.74
1985.981, 20394.58
1987.910, 20405.61
1989.838, 20446.69
1991.767, 20479.27
1993.695, 20496.61
1995.624, 20517.85
1997.552, 20549.88
1999.481, 20573.02
2001.409, 20576.98
2003.338, 20577.10
2005.266, 20581.76
2007.194, 20589.02
2009.123, 20596.34
2011.051, 20603.22
2012.980, 20607.63
2014.908, 20609.08
2016.837, 20614.47
2018.765, 20626.18
2020.694, 20638.27
2022.622, 20650.17
2024.551, 20664.56
2026.479, 20685.04
2028.408, 20708.48
2030.336, 20731.61
2032.265, 20754.65
2034.193, 20779.63
2036.121, 20804.04
2038.050, 20815.54
2039.978, 20804.42
2041.907, 20804.58
2043.835, 20826.86
2045.764, 20845.71
2047.692, 20856.38
2049.621, 20870.58
2051.549, 20894.11
2053.478, 20923.54
2055.406, 20955.68
2057.334, 20988.32
2059.263, 21017.61
2061.191, 21041.80
2063.120, 21063.79
2065.049, 21083.08
2066.977, 21091.07
2068.906, 21081.75
2070.834, 21078.38
2072.762, 21103.85
2074.691, 21119.69
2076.619, 21101.35
2078.548, 21078.33
2080.476, 21075.52
2082.405, 21085.12
2084.333, 21092.02
2086.262, 21098.02
2088.190, 21118.70
2090.119, 21134.65
2092.047, 21150.72
2093.976, 21183.79
2095.904, 21194.01
2097.833, 21227.02
2099.761, 21262.75
2101.689, 21296.34
2103.618, 21322.39
2105.546, 21336.59
2107.475, 21343.35
2109.403, 21349.49
2111.332, 21355.98
2113.260, 21360.75
2115.189, 21365.93
2117.117, 21375.04
2119.046, 21387.07
2120.974, 21404.11
2122.903, 21422.55
2124.831, 21445.14
2126.760, 21478.52
2128.688, 21504.65
2130.616, 21510.26
2132.545, 21513.46
2134.473, 21533.66
2136.402, 21560.02
2138.330, 21572.32
2140.259, 21573.93
2142.187, 21578.09
2144.116, 21583.64
2146.044, 21588.43
2147.973, 21592.58
2149.901, 21594.54
2151.830, 21594.76
2153.758, 21599.82
2155.687, 21617.62
2157.615, 21637.97
2159.543, 21651.60
2161.472, 21667.16
2163.400, 21687.27
2165.329, 21710.18
2167.257, 21740.57
2169.186, 21771.69
2171.114, 21778.10
2173.043, 21762.49
2174.971, 21755.52
2176.900, 21764.21
2178.828, 21778.87
2180.757, 21802.89
2182.685, 21825.32
2184.614, 21833.82
2186.542, 21847.65
2188.470, 21872.61
2190.399, 21900.08
2192.327, 21929.11
2194.256, 21953.48
2196.184, 21965.51
2198.113, 21970.45
2200.041, 21978.04
2201.970, 21989.00
2203.898, 22001.58
2205.827, 22014.93
2207.755, 22030.88
2209.684, 22049.50
2211.612, 22063.99
2213.541, 22072.54
2215.469, 22080.41
2217.397, 22090.94
2219.326, 22102.19
2221.254, 22107.97
2223.183, 22120.24
2225.111, 22156.19
2227.040, 22195.27
2228.968, 22203.74
2230.897, 22236.87
2232.825, 22256.21
2234.754, 22269.24
2236.682, 22289.48
2238.611, 22280.12
2240.539, 22281.38
2242.468, 22299.01
2244.396, 22306.34
2246.324, 22293.54
2248.253, 22284.06
2250.181, 22284.54
2252.110, 22291.23
2254.038, 22308.32
2255.967, 22328.05
2257.895, 22345.88
2259.824, 22365.14
2261.752, 22390.15
2263.681, 22416.45
2265.609, 22432.12
2267.538, 22442.37
2269.466, 22470.46
2271.395, 22512.27
2273.323, 22540.81
2275.251, 22554.20
2277.180, 22568.21
2279.108, 22585.90
2281.037, 22600.97
2282.965, 22610.65
2284.894, 22621.18
2286.822, 22626.27
2288.751, 22642.56
2290.679, 22685.36
2292.608, 22727.05
2294.536, 22755.71
2296.465, 22773.49
2298.393, 22777.15
2300.322, 22775.24
2302.250, 22779.90
2304.178, 22787.25
2306.107, 22783.96
2308.035, 22799.78
2309.964, 22786.66
2311.892, 22824.78
2313.821, 22849.66
2315.749, 22857.30
2317.678, 22865.12
2319.606, 22875.65
2321.535, 22877.66
2323.463, 22863.82
2325.392, 22858.03
2327.320, 22876.90
2329.249, 22893.30
2331.177, 22887.14
2333.105, 22889.23
2335.034, 22923.76
2336.962, 22965.38
2338.891, 22992.02
2340.819, 23008.99
2342.748, 23020.46
2344.676, 23027.41
2346.605, 23033.98
2348.533, 23040.92
2350.462, 23053.23
2352.390, 23060.89
2354.319, 23081.99
2356.247, 23084.96
2358.176, 23095.79
2360.104, 23117.09
2362.032, 23137.77
2363.961, 23158.21
2365.889, 23170.80
2367.818, 23167.69
2369.746, 23172.88
2371.675, 23203.65
2373.603, 23227.13
2375.532, 23222.91
2377.460, 23222.18
2379.389, 23236.42
2381.317, 23264.54
2383.246, 23313.92
2385.174, 23362.12
2387.103, 23385.12
2389.031, 23388.85
2390.959, 23378.96
2392.888, 23362.57
2394.816, 23362.24
2396.745, 23373.84
2398.673, 23372.71
2400.602, 23381.71
2402.530, 23391.70
2404.459, 23394.40
2406.387, 23402.43
2408.316, 23410.93
2410.244, 23413.59
2412.173, 23416.67
2414.101, 23422.78
2416.030, 23432.88
2417.958, 23446.91
2419.886, 23470.82
2421.815, 23488.14
2423.743, 23482.10
2425.672, 23486.66
2427.600, 23524.22
2429.529, 23564.30
2431.457, 23592.60
2433.386, 23618.41
2435.314, 23643.81
2437.243, 23673.16
2439.171, 23712.93
2441.100, 23750.83
2443.028, 23766.31
2444.957, 23770.15
2446.885, 23787.42
2448.813, 23805.88
2450.742, 23796.16
2452.670, 23767.08
2454.599, 23749.58
2456.527, 23747.68
2458.456, 23751.20
2460.384, 23763.64
2462.313, 23791.05
2464.241, 23833.43
2466.170, 23873.94
2468.098, 23903.08
2470.027, 23939.93
2471.955, 23992.09
2473.884, 24022.07
2475.812, 24017.41
2477.740, 24010.99
2479.669, 24012.07
2481.597, 24006.59
2483.526, 23994.97
2485.454, 23982.71
2487.383, 23971.46
2489.311, 23970.67
2491.240, 23987.38
2493.168, 24013.20
2495.097, 24039.09
2497.025, 24073.10
2498.954, 24124.60
2500.882, 24170.86
2502.811, 24185.14
2504.739, 24192.28
2506.667, 24224.17
2508.596, 24221.90
2510.524, 24249.35
2512.453, 24229.53
2514.381, 24223.98
2516.310, 24229.14
2518.238, 24235.32
2520.167, 24244.59
2522.095, 24255.40
2524.024, 24269.13
2525.952, 24294.64
2527.881, 24326.36
2529.809, 24347.00
2531.738, 24355.88
2533.666, 24367.16
2535.594, 24381.99
2537.523, 24383.71
2539.451, 24374.42
2541.380, 24371.03
2543.308, 24375.04
2545.237, 24396.04
2547.165, 24440.64
2549.094, 24476.92
2551.022, 24499.82
2552.951, 24522.22
2554.879, 24546.13
2556.808, 24561.51
2558.736, 24563.10
2560.665, 24576.38
2562.593, 24613.53
2564.521, 24647.43
2566.450, 24671.07
2568.378, 24690.49
2570.307, 24695.66
2572.235, 24713.34
2574.164, 24759.31
2576.092, 24795.46
2578.021, 24802.89
2579.949, 24810.75
2581.878, 24834.00
2583.806, 24858.18
2585.735, 24870.51
2587.663, 24892.71
2589.592, 24948.77
2591.520, 24997.65
2593.448, 25014.04
2595.377, 25022.08
2597.305, 25030.65
2599.234, 25041.48
2601.162, 25058.39
2603.091, 25074.38
2605.019, 25085.36
2606.948, 25095.28
2608.876, 25113.01
2610.805, 25130.48
2612.733, 25130.72
2614.662, 25139.66
2616.590, 25191.81
2618.519, 25256.68
2620.447, 25295.62
2622.375, 25322.79
2624.304, 25356.65
2626.232, 25388.60
2628.161, 25411.65
2630.089, 25423.26
2632.018, 25407.92
2633.946, 25390.61
2635.875, 25424.68
2637.803, 25480.26
2639.732, 25497.68
2641.660, 25493.10
2643.589, 25493.87
2645.517, 25500.80
2647.446, 25517.57
2649.374, 25540.77
2651.302, 25564.59
2653.231, 25587.70
2655.159, 25602.47
2657.088, 25614.12
2659.016, 25648.39
2660.945, 25649.10
2662.873, 25692.26
2664.802, 25670.22
2666.730, 25675.44
2668.659, 25702.57
2670.587, 25730.08
2672.516, 25757.21
2674.444, 25777.15
2676.373, 25793.05
2678.301, 25825.24
2680.229, 25866.02
2682.158, 25887.05
2684.086, 25892.27
2686.015, 25896.68
2687.943, 25903.21
2689.872, 25928.13
2691.800, 25964.30
2693.729, 25977.70
2695.657, 25972.57
2697.586, 25970.29
2699.514, 25974.37
2701.443, 26007.65
2703.371, 26065.28
2705.300, 26105.13
2707.228, 26129.75
2709.156, 26140.75
2711.085, 26142.81
2713.013, 26166.94
2714.942, 26206.29
2716.870, 26235.58
2718.799, 26256.72
2720.727, 26287.37
2722.656, 26325.37
2724.584, 26358.04
2726.513, 26386.94
2728.441, 26413.58
2730.370, 26437.78
2732.298, 26452.37
2734.227, 26462.34
2736.155, 26501.00
2738.083, 26555.47
2740.012, 26585.80
2741.940, 26599.78
2743.869, 26618.88
2745.797, 26644.41
2747.726, 26684.55
2749.654, 26731.74
2751.583, 26758.92
2753.511, 26773.24
2755.440, 26788.50
2757.368, 26805.37
2759.297, 26827.32
2761.225, 26852.22
2763.154, 26877.95
2765.082, 26903.16
2767.010, 26927.52
2768.939, 26949.05
2770.867, 26959.00
2772.796, 26968.36
2774.724, 26999.76
2776.653, 27039.24
2778.581, 27062.68
2780.510, 27079.39
2782.438, 27099.93
2784.367, 27123.03
2786.295, 27149.35
2788.224, 27175.64
2790.152, 27194.91
2792.081, 27216.89
2794.009, 27259.32
2795.938, 27301.64
2797.866, 27319.06
2799.794, 27331.83
2801.723, 27355.63
2803.651, 27381.43
2805.580, 27407.74
2807.508, 27425.15
2809.437, 27431.08
2811.365, 27428.57
2813.294, 27416.60
2815.222, 27410.70
2817.151, 27418.86
2819.079, 27441.39
2821.008, 27482.18
2822.936, 27523.69
2824.865, 27548.09
2826.793, 27577.57
2828.721, 27618.33
2830.650, 27660.86
2832.578, 27712.30
2834.507, 27737.94
2836.435, 27716.00
2838.364, 27708.12
2840.292, 27753.88
2842.221, 27784.05
2844.149, 27784.60
2846.078, 27789.15
2848.006, 27801.44
2849.935, 27820.12
2851.863, 27844.85
2853.792, 27870.48
2855.720, 27896.83
2857.648, 27915.18
2859.577, 27942.40
2861.505, 27970.46
2863.434, 27991.80
2865.362, 28028.71
2867.291, 28054.76
2869.219, 28080.18
2871.148, 28103.58
2873.076, 28119.37
2875.005, 28129.94
2876.933, 28146.99
2878.862, 28171.67
2880.790, 28205.45
2882.719, 28229.51
2884.647, 28270.63
2886.575, 28289.69
2888.504, 28320.49
2890.432, 28351.44
2892.361, 28366.63
2894.289, 28372.20
2896.218, 28366.19
2898.146, 28368.92
2900.075, 28411.06
2902.003, 28460.54
2903.932, 28492.64
2905.860, 28511.70
2907.789, 28505.55
2909.717, 28505.65
2911.646, 28543.44
2913.574, 28571.04
2915.502, 28557.90
2917.431, 28552.55
2919.359, 28581.31
2921.288, 28610.11
2923.216, 28625.81
2925.145, 28653.21
2927.073, 28697.60
2929.002, 28739.61
2930.930, 28781.17
2932.859, 28798.71
2934.787, 28787.09
2936.716, 28789.54
2938.644, 28810.80
2940.573, 28831.96
2942.501, 28853.14
2944.429, 28861.61
2946.358, 28858.55
2948.286, 28862.51
2950.215, 28872.62
2952.143, 28885.32
2954.072, 28901.97
2956.000, 28934.75
2957.929, 28967.93
2959.857, 28959.98
2961.786, 28985.30
2963.714, 28968.79
2965.643, 28998.86
2967.571, 29003.34
2969.500, 28999.12
2971.428, 28995.27
2973.356, 28994.83
2975.285, 29004.90
2977.213, 29013.56
2979.142, 29014.70
2981.070, 29019.01
2982.999, 29029.27
2984.927, 29041.15
2986.856, 29054.14
2988.784, 29063.50
2990.713, 29060.92
2992.641, 29072.07
2994.570, 29097.89
2996.498, 29124.33
2998.427, 29150.15
3000.355, 29168.44
3002.283, 29177.99
3004.212, 29165.09
3006.140, 29138.66
3008.069, 29131.93
3009.997, 29137.08
3011.926, 29136.90
3013.854, 29143.88
3015.783, 29185.42
3017.711, 29231.17
3019.640, 29251.08
3021.568, 29262.95
3023.497, 29272.75
3025.425, 29281.53
3027.354, 29286.93
3029.282, 29293.91
3031.210, 29309.57
3033.139, 29316.87
3035.067, 29318.44
3036.996, 29303.68
3038.924, 29267.64
3040.853, 29254.09
3042.781, 29264.87
3044.710, 29274.33
3046.638, 29280.11
3048.567, 29292.24
3050.495, 29307.35
3052.424, 29302.69
3054.352, 29293.70
3056.281, 29306.32
3058.209, 29335.48
3060.137, 29377.84
3062.066, 29419.73
3063.994, 29445.85
3065.923, 29461.65
3067.851, 29465.64
3069.780, 29466.59
3071.708, 29483.96
3073.637, 29473.06
3075.565, 29417.65
3077.494, 29376.11
3079.422, 29364.40
3081.351, 29364.18
3083.279, 29373.82
3085.208, 29380.43
3087.136, 29381.93
3089.064, 29375.44
3090.993, 29364.84
3092.921, 29368.71
3094.850, 29376.55
3096.778, 29356.93
3098.707, 29334.68
3100.635, 29337.66
3102.564, 29348.73
3104.492, 29355.53
3106.421, 29363.15
3108.349, 29372.36
3110.278, 29387.13
3112.206, 29408.46
3114.135, 29436.81
3116.063, 29473.37
3117.991, 29496.25
3119.920, 29500.18
3121.848, 29494.80
3123.777, 29482.13
3125.705, 29483.50
3127.634, 29477.65
3129.562, 29487.09
3131.491, 29475.53
3133.419, 29478.82
3135.348, 29483.13
3137.276, 29469.44
3139.205, 29457.04
3141.133, 29466.42
3143.062, 29470.68
3144.990, 29449.32
3146.918, 29449.62
3148.847, 29486.90
3150.775, 29516.71
3152.704, 29526.98
3154.632, 29542.26
3156.561, 29561.16
3158.489, 29579.90
3160.418, 29598.52
3162.346, 29622.63
3164.275, 29645.34
3166.203, 29654.87
3168.132, 29655.07
3170.060, 29646.43
3171.989, 29640.73
3173.917, 29654.96
3175.845, 29667.96
3177.774, 29676.90
3179.702, 29682.60
3181.631, 29675.61
3183.559, 29692.16
3185.488, 29732.01
3187.416, 29746.06
3189.345, 29734.52
3191.273, 29734.78
3193.202, 29739.17
3195.130, 29731.69
3197.059, 29717.48
3198.987, 29710.31
3200.916, 29697.11
3202.844, 29660.01
3204.772, 29635.71
3206.701, 29645.16
3208.629, 29653.11
3210.558, 29644.14
3212.486, 29650.78
3214.415, 29674.01
3216.343, 29691.79
3218.272, 29705.25
3220.200, 29748.45
3222.129, 29801.63
3224.057, 29813.82
3225.986, 29807.36
3227.914, 29812.18
3229.843, 29812.91
3231.771, 29804.89
3233.699, 29783.03
3235.628, 29742.60
3237.556, 29707.43
3239.485, 29678.39
3241.413, 29680.56
3243.342, 29715.18
3245.270, 29730.10
3247.199, 29726.93
3249.127, 29717.49
3251.056, 29708.16
3252.984, 29712.90
3254.913, 29723.41
3256.841, 29741.68
3258.770, 29748.87
3260.698, 29722.29
3262.626, 29712.66
3264.555, 29735.27
3266.483, 29753.18
3268.412, 29762.90
3270.340, 29740.05
3272.269, 29690.28
3274.197, 29653.91
3276.126, 29632.13
3278.054, 29635.02
3279.983, 29648.03
3281.911, 29657.94
3283.840, 29672.15
3285.768, 29694.98
3287.697, 29719.79
3289.625, 29741.45
3291.553, 29760.95
3293.482, 29775.54
3295.410, 29769.90
3297.339, 29747.34
3299.267, 29739.72
3301.196, 29737.47
3303.124, 29719.63
3305.053, 29701.84
3306.981, 29702.62
3308.910, 29702.97
3310.838, 29692.67
3312.767, 29686.52
3314.695, 29696.87
3316.624, 29690.80
3318.552, 29669.79
3320.480, 29668.26
3322.409, 29685.09
3324.337, 29723.78
3326.266, 29761.63
3328.194, 29761.95
3330.123, 29749.21
3332.051, 29734.97
3333.980, 29722.19
3335.908, 29713.35
3337.837, 29701.92
3339.765, 29689.40
3341.694, 29660.65
3343.622, 29621.39
3345.551, 29613.71
3347.479, 29627.79
3349.407, 29654.10
3351.336, 29674.83
3353.264, 29657.01
3355.193, 29652.20
3357.121, 29690.47
3359.050, 29721.75
3360.978, 29737.81
3362.907, 29734.70
3364.835, 29715.11
3366.764, 29712.85
3368.692, 29722.44
3370.621, 29726.38
3372.549, 29732.17
3374.478, 29748.47
3376.406, 29764.57
3378.334, 29773.88
3380.263, 29778.42
3382.191, 29775.87
3384.120, 29764.88
3386.048, 29745.34
3387.977, 29760.34
3389.905, 29752.69
3391.834, 29781.16
3393.762, 29768.17
3395.691, 29785.37
3397.619, 29811.15
3399.548, 29841.89
3401.476, 29871.01
3403.405, 29897.16
3405.333, 29917.38
3407.261, 29934.30
3409.190, 29985.52
3411.118, 30049.04
3413.047, 30080.77
3414.975, 30099.30
3416.904, 30124.13
3418.832, 30135.20
3420.761, 30123.56
3422.689, 30120.53
3424.618, 30133.18
3426.546, 30150.79
3428.475, 30172.82
3430.403, 30195.47
3432.332, 30223.38
3434.260, 30274.20
3436.188, 30313.22
3438.117, 30317.82
3440.045, 30316.04
3441.974, 30318.76
3443.902, 30316.84
3445.831, 30312.47
3447.759, 30306.53
3449.688, 30310.91
3451.616, 30368.09
3453.545, 30425.40
3455.473, 30435.64
3457.402, 30429.83
3459.330, 30414.43
3461.259, 30407.51
3463.187, 30395.01
3465.115, 30384.21
3467.044, 30372.54
3468.972, 30361.89
3470.901, 30354.82
3472.829, 30341.24
3474.758, 30312.44
3476.686, 30248.56
3478.615, 30202.75
3480.543, 30189.22
3482.472, 30124.37
3484.400, 30084.93
3486.329, 29985.78
3488.257, 29972.27
3490.186, 29892.47
3492.114, 29810.61
3494.042, 29767.34
3495.971, 29728.92
3497.899, 29682.82
3499.828, 29641.53
3501.756, 29603.77
3503.685, 29600.81
3505.613, 29600.93
3507.542, 29552.16
3509.470, 29482.87
3511.399, 29404.08
3513.327, 29348.11
3515.256, 29300.81
3517.184, 29257.45
3519.113, 29237.19
3521.041, 29207.57
3522.969, 29203.03
3524.898, 29206.00
3526.826, 29193.45
3528.755, 29131.94
3530.683, 29084.82
3532.612, 29067.01
3534.540, 29049.62
3536.469, 29028.29
3538.397, 28980.26
3540.326, 28921.91
3542.254, 28878.85
3544.183, 28845.48
3546.111, 28821.91
3548.040, 28805.36
3549.968, 28794.91
3551.896, 28779.04
3553.825, 28757.86
3555.753, 28756.56
3557.682, 28733.38
3559.610, 28727.31
3561.539, 28698.54
3563.467, 28685.82
3565.396, 28670.59
3567.324, 28648.86
3569.253, 28629.93
3571.181, 28615.47
3573.110, 28625.78
3575.038, 28632.81
3576.967, 28597.05
3578.895, 28572.19
3580.823, 28582.43
3582.752, 28586.84
3584.680, 28582.05
3586.609, 28577.28
3588.537, 28572.16
3590.466, 28556.54
3592.394, 28554.25
3594.323, 28588.29
3596.251, 28619.87
3598.180, 28634.53
3600.108, 28657.73
3602.037, 28686.57
3603.965, 28708.86
3605.894, 28724.81
3607.822, 28729.50
3609.750, 28736.18
3611.679, 28758.97
3613.607, 28759.67
3615.536, 28737.55
3617.464, 28755.73
3619.393, 28730.87
3621.321, 28743.36
3623.250, 28698.74
3625.178, 28706.23
3627.107, 28700.18
3629.035, 28658.00
3630.964, 28637.03
3632.892, 28629.54
3634.821, 28592.42
3636.749, 28544.41
3638.677, 28509.93
3640.606, 28469.60
3642.534, 28407.51
3644.463, 28349.52
3646.391, 28297.58
3648.320, 28279.94
3650.248, 28274.78
3652.177, 28242.00
3654.105, 28210.15
3656.034, 28207.04
3657.962, 28183.96
3659.891, 28137.20
3661.819, 28100.13
3663.748, 28073.68
3665.676, 28064.67
3667.604, 28056.13
3669.533, 28041.30
3671.461, 28008.03
3673.390, 27991.82
3675.318, 27975.46
3677.247, 27945.38
3679.175, 27942.35
3681.104, 27929.83
3683.032, 27902.61
3684.961, 27882.25
3686.889, 27873.43
3688.818, 27871.65
3690.746, 27876.57
3692.675, 27893.66
3694.603, 27904.10
3696.531, 27876.74
3698.460, 27861.14
3700.388, 27878.16
3702.317, 27889.22
3704.245, 27887.63
3706.174, 27851.47
3708.102, 27814.59
3710.031, 27838.15
3711.959, 27841.97
3713.888, 27789.28
3715.816, 27729.94
3717.745, 27674.28
3719.673, 27662.84
3721.602, 27661.56
3723.530, 27618.25
3725.458, 27574.22
3727.387, 27529.79
3729.315, 27544.54
3731.244, 27609.76
3733.172, 27641.53
3735.101, 27655.17
3737.029, 27679.86
3738.958, 27687.34
3740.886, 27660.57
3742.815, 27641.77
3744.743, 27634.97
3746.672, 27625.01
3748.600, 27618.35
3750.529, 27620.67
3752.457, 27624.17
3754.385, 27619.29
3756.314, 27619.17
3758.242, 27621.07
3760.171, 27624.76
3762.099, 27618.38
3764.028, 27583.91
3765.956, 27555.83
3767.885, 27552.18
3769.813, 27530.68
3771.742, 27499.22
3773.670, 27502.83
3775.599, 27510.81
3777.527, 27496.80
3779.456, 27479.34
3781.384, 27462.66
3783.313, 27461.21
3785.241, 27468.39
3787.169, 27462.96
3789.098, 27451.90
3791.026, 27432.45
3792.955, 27430.10
3794.883, 27451.81
3796.812, 27476.34
3798.740, 27491.87
3800.669, 27462.32
3802.597, 27434.33
3804.526, 27432.91
3806.454, 27421.29
3808.383, 27395.47
3810.311, 27399.37
3812.240, 27414.14
3814.168, 27415.61
3816.096, 27416.44
3818.025, 27418.54
3819.953, 27432.13
3821.882, 27449.81
3823.810, 27432.96
3825.739, 27401.99
3827.667, 27377.24
3829.596, 27344.27
3831.524, 27300.97
3833.453, 27284.71
3835.381, 27291.06
3837.310, 27303.50
3839.238, 27329.41
3841.167, 27328.18
3843.095, 27332.09
3845.023, 27333.75
3846.952, 27317.79
3848.880, 27313.39
3850.809, 27294.53
3852.737, 27275.89
3854.666, 27263.57
3856.594, 27265.82
3858.523, 27278.06
3860.451, 27283.39
3862.380, 27283.75
3864.308, 27278.88
3866.237, 27262.55
3868.165, 27236.45
3870.094, 27234.08
3872.022, 27246.85
3873.950, 27263.95
3875.879, 27278.51
3877.807, 27288.60
3879.736, 27290.02
3881.664, 27291.76
3883.593, 27282.77
3885.521, 27277.28
3887.450, 27266.92
3889.378, 27245.31
3891.307, 27215.46
3893.235, 27187.70
3895.164, 27172.51
3897.092, 27160.77
3899.021, 27151.01
3900.949, 27162.30
3902.877, 27152.71
3904.806, 27174.94
3906.734, 27196.97
3908.663, 27203.59
3910.591, 27191.81
3912.520, 27166.24
3914.448, 27130.80
3916.377, 27113.84
3918.305, 27109.38
3920.234, 27095.55
3922.162, 27090.96
3924.091, 27102.98
3926.019, 27090.40
3927.948, 27072.00
3929.876, 27083.54
3931.804, 27088.46
3933.733, 27072.55
3935.661, 27052.82
3937.590, 27032.50
3939.518, 27038.98
3941.447, 27049.70
3943.375, 27051.63
3945.304, 27046.56
3947.232, 27026.26
3949.161, 27010.22
3951.089, 27011.53
3953.018, 26987.10
3954.946, 27000.82
3956.875, 26957.33
3958.803, 26940.21
3960.731, 26937.18
3962.660, 26934.11
3964.588, 26933.39
3966.517, 26927.83
3968.445, 26925.94
3970.374, 26929.92
3972.302, 26925.14
3974.231, 26912.66
3976.159, 26907.65
3978.088, 26893.11
3980.016, 26866.51
3981.945, 26840.21
3983.873, 26819.91
3985.802, 26811.57
3987.730, 26818.89
3989.658, 26835.54
3991.587, 26845.10
3993.515, 26843.76
3995.444, 26849.50
3997.372, 26847.33
3999.301, 26829.51
4001.229, 26831.78
4003.158, 26835.86
4005.086, 26817.98
4007.015, 26797.84
4008.943, 26789.32
4010.872, 26793.71
4012.800, 26795.93
4014.729, 26772.71
4016.657, 26760.66
4018.585, 26776.94
4020.514, 26791.70
4022.442, 26795.97
4024.371, 26802.87
4026.299, 26801.69
4028.228, 26797.12
4030.156, 26776.83
4032.085, 26778.40
4034.013, 26764.53
4035.942, 26749.35
4037.870, 26747.29
4039.799, 26741.84
4041.727, 26724.38
4043.656, 26727.72
4045.584, 26732.69
4047.512, 26713.30
4049.441, 26699.96
4051.369, 26703.53
4053.298, 26681.67
4055.226, 26658.32
4057.155, 26662.20
4059.083, 26669.97
4061.012, 26675.22
4062.940, 26677.14
4064.869, 26680.20
4066.797, 26671.47
4068.726, 26665.11
4070.654, 26669.09
4072.583, 26652.80
4074.511, 26631.36
4076.439, 26623.35
4078.368, 26600.56
4080.296, 26573.62
4082.225, 26564.72
4084.153, 26558.61
4086.082, 26552.48
4088.010, 26551.22
4089.939, 26549.55
4091.867, 26557.20
4093.796, 26555.87
4095.724, 26534.38
4097.653, 26519.87
4099.581, 26506.79
4101.510, 26472.86
4103.438, 26439.79
4105.367, 26421.12
4107.295, 26420.72
4109.224, 26431.87
4111.152, 26421.98
4113.081, 26411.78
4115.009, 26412.92
4116.938, 26425.45
4118.866, 26442.22
4120.794, 26443.61
4122.723, 26435.05
4124.651, 26418.62
4126.580, 26405.01
4128.508, 26396.03
4130.437, 26394.18
4132.365, 26400.54
4134.293, 26397.60
4136.222, 26397.33
4138.150, 26397.78
4140.079, 26387.04
4142.007, 26376.39
4143.936, 26356.11
4145.864, 26340.86
4147.793, 26332.99
4149.721, 26316.44
4151.650, 26310.80
4153.578, 26305.70
4155.507, 26301.68
4157.435, 26304.63
4159.364, 26304.02
4161.292, 26312.08
4163.221, 26307.54
4165.149, 26314.43
4167.078, 26300.82
4169.006, 26295.70
4170.935, 26290.66
4172.863, 26275.26
4174.792, 26265.33
4176.720, 26264.28
4178.648, 26256.86
4180.577, 26251.97
4182.505, 26254.14
4184.434, 26236.46
4186.362, 26236.40
4188.291, 26216.21
4190.219, 26198.94
4192.147, 26198.35
4194.076, 26186.19
4196.004, 26167.11
4197.933, 26154.32
4199.861, 26149.71
4201.790, 26146.20
4203.718, 26141.59
4205.647, 26143.63
4207.575, 26145.46
4209.504, 26147.24
4211.432, 26157.22
4213.361, 26151.69
4215.289, 26161.57
4217.218, 26157.12
4219.146, 26138.69
4221.075, 26139.36
4223.003, 26111.31
4224.932, 26120.54
4226.860, 26101.07
4228.789, 26087.40
4230.717, 26084.48
4232.646, 26073.47
4234.574, 26063.40
4236.502, 26051.27
4238.431, 26039.63
4240.359, 26025.50
4242.288, 26014.41
4244.216, 26009.27
4246.145, 25995.81
4248.073, 25976.68
4250.001, 25957.36
4251.930, 25970.12
4253.858, 25986.74
4255.787, 25991.10
4257.715, 25987.54
4259.644, 25977.46
4261.572, 25963.63
4263.501, 25951.06
4265.429, 25943.37
4267.358, 25950.09
4269.286, 25958.89
4271.215, 25938.73
4273.143, 25935.99
4275.072, 25956.37
4277.000, 25960.26
4278.929, 25952.62
4280.857, 25938.30
4282.786, 25924.87
4284.714, 25913.66
4286.643, 25900.50
4288.571, 25899.29
4290.500, 25924.08
4292.428, 25927.79
4294.356, 25913.14
4296.285, 25894.10
4298.213, 25883.46
4300.142, 25885.03
4302.070, 25879.24
4303.999, 25867.21
4305.927, 25853.94
4307.855, 25837.54
4309.784, 25819.00
4311.712, 25802.51
4313.641, 25793.16
4315.569, 25794.47
4317.498, 25805.27
4319.426, 25815.72
4321.355, 25791.91
4323.283, 25759.14
4325.212, 25726.48
4327.140, 25716.70
4329.069, 25721.64
4330.997, 25725.70
4332.926, 25738.68
4334.854, 25760.84
4336.783, 25753.33
4338.711, 25730.33
4340.640, 25695.08
4342.568, 25688.46
4344.497, 25672.44
4346.425, 25681.70
4348.354, 25661.56
4350.282, 25659.06
4352.210, 25660.94
4354.139, 25667.71
4356.067, 25680.81
4357.996, 25688.86
4359.924, 25687.80
4361.853, 25691.60
4363.781, 25687.22
4365.709, 25658.88
4367.638, 25666.07
4369.566, 25688.60
4371.495, 25633.29
4373.423, 25595.55
4375.352, 25605.70
4377.280, 25622.07
4379.209, 25623.36
4381.137, 25577.66
4383.066, 25560.91
4384.994, 25575.04
4386.923, 25575.26
4388.851, 25559.54
4390.780, 25526.10
4392.708, 25509.53
4394.637, 25499.11
4396.565, 25470.82
4398.494, 25455.70
4400.422, 25454.45
4402.351, 25440.26
4404.279, 25415.35
4406.208, 25413.75
4408.136, 25373.82
4410.064, 25390.75
4411.993, 25372.69
4413.921, 25346.60
4415.850, 25320.73
4417.778, 25332.57
4419.707, 25349.91
4421.635, 25350.89
4423.563, 25325.31
4425.492, 25286.58
4427.420, 25268.97
4429.349, 25254.24
4431.277, 25239.69
4433.206, 25227.47
4435.134, 25219.83
4437.063, 25219.16
4438.991, 25209.56
4440.920, 25192.71
4442.848, 25173.57
4444.777, 25163.87
4446.705, 25162.99
4448.634, 25132.08
4450.562, 25094.16
4452.491, 25065.57
4454.419, 25059.42
4456.348, 25067.28
4458.276, 25066.22
4460.205, 25067.04
4462.133, 25070.39
4464.062, 25083.04
4465.990, 25085.73
4467.918, 25064.48
4469.847, 25040.62
4471.775, 25016.31
4473.704, 24996.03
4475.632, 24959.29
4477.561, 24942.87
4479.489, 24900.21
4481.417, 24903.10
4483.346, 24907.13
4485.274, 24892.69
4487.203, 24867.06
4489.131, 24836.37
4491.060, 24815.88
4492.988, 24809.57
4494.917, 24832.81
4496.845, 24845.96
4498.774, 24830.62
4500.702, 24799.31
4502.631, 24773.09
4504.559, 24777.16
4506.488, 24768.55
4508.416, 24748.80
4510.345, 24724.71
4512.273, 24718.47
4514.202, 24706.78
4516.130, 24712.07
4518.059, 24696.54
4519.987, 24712.74
4521.916, 24708.66
4523.844, 24687.50
4525.772, 24657.52
4527.701, 24617.54
4529.629, 24575.49
4531.558, 24568.49
4533.486, 24562.85
4535.415, 24546.36
4537.343, 24540.55
4539.271, 24542.18
4541.200, 24550.78
4543.128, 24546.59
4545.057, 24531.31
4546.985, 24525.07
4548.914, 24493.93
4550.842, 24493.27
4552.771, 24471.52
4554.699, 24450.51
4556.628, 24441.42
4558.556, 24418.32
4560.485, 24395.62
4562.413, 24390.54
4564.342, 24362.94
4566.270, 24322.86
4568.199, 24295.94
4570.127, 24278.35
4572.056, 24269.63
4573.984, 24277.01
4575.913, 24274.44
4577.841, 24246.81
4579.770, 24231.63
4581.698, 24223.98
4583.626, 24222.13
4585.555, 24211.49
4587.483, 24191.06
4589.412, 24153.44
4591.340, 24136.18
4593.269, 24141.93
4595.197, 24149.32
4597.125, 24148.76
4599.054, 24131.78
4600.982, 24152.34
4602.911, 24160.99
4604.839, 24122.40
4606.768, 24101.03
4608.696, 24080.68
4610.625, 24028.20
4612.553, 23995.70
4614.482, 23983.13
4616.410, 23964.88
4618.339, 23956.61
4620.267, 23957.87
4622.196, 23940.59
4624.124, 23898.18
4626.053, 23829.25
4627.981, 23797.04
4629.910, 23783.64
4631.838, 23770.16
4633.767, 23774.08
4635.695, 23777.04
4637.624, 23743.47
4639.552, 23720.44
4641.480, 23709.32
4643.409, 23690.34
4645.337, 23676.21
4647.266, 23667.36
4649.194, 23662.17
4651.123, 23642.17
4653.051, 23594.88
4654.979, 23591.43
4656.908, 23580.74
4658.836, 23517.89
4660.765, 23486.75
4662.693, 23477.38
4664.622, 23479.96
4666.550, 23459.10
4668.479, 23449.37
4670.407, 23429.06
4672.336, 23416.90
4674.264, 23388.35
4676.193, 23369.95
4678.121, 23351.02
4680.050, 23327.21
4681.978, 23299.22
4683.907, 23269.22
4685.835, 23241.32
4687.764, 23221.84
4689.692, 23215.31
4691.621, 23229.49
4693.549, 23200.73
4695.478, 23169.82
4697.406, 23197.35
4699.334, 23187.33
4701.263, 23149.98
4703.191, 23136.08
4705.120, 23102.35
4707.048, 23056.72
4708.977, 23049.32
4710.905, 23023.86
4712.833, 22973.32
4714.762, 22932.90
4716.690, 22911.13
4718.619, 22879.99
4720.547, 22874.09
4722.476, 22842.79
4724.404, 22839.19
4726.333, 22826.62
4728.261, 22813.26
4730.190, 22808.49
4732.118, 22776.97
4734.047, 22739.46
4735.975, 22726.24
4737.904, 22717.63
4739.832, 22700.60
4741.761, 22691.49
4743.689, 22677.36
4745.618, 22662.68
4747.546, 22644.12
4749.475, 22613.35
4751.403, 22582.50
4753.332, 22566.50
4755.260, 22538.29
4757.188, 22531.67
4759.117, 22501.25
4761.045, 22486.29
4762.974, 22484.97
4764.902, 22472.06
4766.831, 22456.72
4768.759, 22442.68
4770.688, 22435.51
4772.616, 22420.32
4774.544, 22417.67
4776.473, 22390.12
4778.401, 22404.36
4780.330, 22403.63
4782.258, 22380.43
4784.187, 22359.22
4786.115, 22370.46
4788.044, 22333.06
4789.972, 22285.13
4791.901, 22271.25
4793.829, 22286.35
4795.758, 22297.33
4797.686, 22256.54
4799.615, 22219.41
4801.543, 22185.21
4803.472, 22151.60
4805.400, 22119.63
4807.329, 22090.12
4809.257, 22061.63
4811.186, 22031.58
4813.114, 22008.99
4815.042, 21981.76
4816.971, 21961.32
4818.899, 21939.18
4820.828, 21926.04
4822.756, 21919.99
4824.685, 21910.96
4826.613, 21889.73
4828.542, 21872.15
4830.470, 21860.71
4832.398, 21854.29
4834.327, 21842.94
4836.255, 21825.45
4838.184, 21810.31
4840.112, 21790.97
4842.041, 21764.82
4843.969, 21725.14
4845.898, 21697.51
4847.826, 21687.38
4849.755, 21676.34
4851.683, 21667.37
4853.612, 21660.74
4855.540, 21621.90
4857.469, 21592.90
4859.397, 21583.18
4861.326, 21556.57
4863.254, 21524.01
4865.183, 21492.17
4867.111, 21503.46
4869.040, 21496.42
4870.968, 21453.22
4872.896, 21436.13
4874.825, 21421.17
4876.753, 21397.60
4878.682, 21378.21
4880.610, 21356.32
4882.539, 21335.99
4884.467, 21313.40
4886.396, 21297.90
4888.324, 21283.59
4890.252, 21270.83
4892.181, 21262.74
4894.109, 21257.18
4896.038, 21242.77
4897.966, 21203.22
4899.895, 21142.84
4901.823, 21132.60
4903.752, 21115.92
4905.680, 21074.81
4907.609, 21068.78
4909.537, 21075.06
4911.466, 21077.30
4913.394, 21031.47
4915.323, 21012.20
4917.251, 21032.90
4919.180, 20973.84
4921.108, 20918.85
4923.037, 20890.96
4924.965, 20882.88
4926.894, 20867.10
4928.822, 20840.18
4930.750, 20825.89
4932.679, 20813.59
4934.607, 20802.49
4936.536, 20805.34
4938.464, 20791.46
4940.393, 20760.18
4942.321, 20732.56
4944.250, 20699.28
4946.178, 20665.98
4948.106, 20650.14
4950.035, 20637.78
4951.963, 20621.42
4953.892, 20583.23
4955.820, 20559.53
4957.749, 20549.08
4959.677, 20546.06
4961.606, 20537.90
4963.534, 20521.25
4965.463, 20488.12
4967.391, 20463.13
4969.320, 20447.90
4971.248, 20445.59
4973.177, 20417.96
4975.105, 20376.75
4977.034, 20335.12
4978.962, 20310.94
4980.891, 20288.89
4982.819, 20255.47
4984.748, 20251.56
4986.676, 20244.88
4988.604, 20218.22
4990.533, 20212.24
4992.461, 20203.68
4994.390, 20182.49
4996.318, 20125.86
4998.247, 20084.16
5000.175, 20071.70
5002.104, 20090.39
5004.032, 20088.46
5005.960, 20055.24
5007.889, 19998.55
5009.817, 19951.92
5011.746, 19925.06
5013.674, 19929.70
5015.603, 19920.15
5017.531, 19904.90
5019.460, 19912.74
5021.388, 19887.79
5023.317, 19848.74
5025.245, 19822.07
5027.174, 19806.15
5029.102, 19792.30
5031.031, 19773.43
5032.959, 19762.48
5034.888, 19745.41
5036.816, 19713.44
5038.745, 19697.30
5040.673, 19674.57
5042.602, 19640.20
5044.530, 19611.58
5046.458, 19595.97
5048.387, 19589.73
5050.315, 19569.49
5052.244, 19546.40
5054.172, 19524.12
5056.101, 19506.26
5058.029, 19485.75
5059.958, 19466.61
5061.886, 19458.69
5063.814, 19459.18
5065.743, 19448.23
5067.671, 19407.59
5069.600, 19378.02
5071.528, 19352.54
5073.457, 19325.13
5075.385, 19299.17
5077.314, 19276.46
5079.242, 19250.47
5081.171, 19234.46
5083.099, 19215.22
5085.028, 19199.66
5086.956, 19190.65
5088.885, 19170.01
5090.813, 19181.56
5092.742, 19142.68
5094.670, 19147.76
5096.599, 19153.04
5098.527, 19116.76
5100.456, 19062.50
5102.384, 19023.93
5104.313, 19021.20
5106.241, 18995.17
5108.169, 18978.29
5110.098, 18976.77
5112.026, 18966.62
5113.955, 18963.73
5115.883, 18960.98
5117.812, 18933.08
5119.740, 18926.51
5121.668, 18924.50
5123.597, 18900.53
5125.525, 18900.13
5127.454, 18899.54
5129.382, 18880.40
5131.311, 18843.02
5133.239, 18808.63
5135.168, 18785.00
5137.096, 18770.79
5139.025, 18748.59
5140.953, 18724.71
5142.882, 18720.76
5144.810, 18693.20
5146.739, 18670.81
5148.667, 18652.88
5150.596, 18622.46
5152.524, 18606.01
5154.453, 18594.02
5156.381, 18578.65
5158.310, 18554.79
5160.238, 18545.99
5162.167, 18529.40
5164.095, 18521.33
5166.023, 18504.23
5167.952, 18491.08
5169.880, 18468.34
5171.809, 18449.15
5173.737, 18445.48
5175.666, 18428.18
5177.594, 18397.86
5179.522, 18358.57
5181.451, 18331.63
5183.379, 18304.15
5185.308, 18274.18
5187.236, 18260.62
5189.165, 18229.51
5191.093, 18218.46
5193.022, 18214.89
5194.950, 18195.97
5196.879, 18181.22
5198.807, 18178.10
5200.736, 18139.76
5202.664, 18125.53
5204.593, 18129.22
5206.521, 18093.35
5208.450, 18086.36
5210.378, 18088.86
5212.307, 18070.31
5214.235, 18062.24
5216.164, 18048.97
5218.092, 18026.90
5220.021, 18029.52
5221.949, 18004.11
5223.877, 17958.37
5225.806, 17927.90
5227.734, 17916.97
5229.663, 17914.57
5231.591, 17912.96
5233.520, 17866.46
5235.448, 17845.93
5237.376, 17860.11
5239.305, 17803.53
5241.233, 17788.94
5243.162, 17798.64
5245.090, 17767.66
5247.019, 17738.07
5248.947, 17710.26
5250.876, 17684.43
5252.804, 17672.31
5254.733, 17656.65
5256.661, 17638.58
5258.590, 17640.37
5260.518, 17630.35
5262.447, 17616.57
5264.375, 17615.98
5266.304, 17596.38
5268.232, 17565.13
5270.161, 17529.39
5272.089, 17498.15
5274.018, 17484.95
5275.946, 17475.27
5277.875, 17439.01
5279.803, 17422.93
5281.731, 17402.40
5283.660, 17363.90
5285.588, 17331.45
5287.517, 17305.73
5289.445, 17289.51
5291.374, 17290.07
5293.302, 17285.94
5295.230, 17273.27
5297.159, 17248.51
5299.087, 17250.42
5301.016, 17230.12
5302.944, 17187.21
5304.873, 17166.34
5306.801, 17156.50
5308.730, 17135.62
5310.658, 17083.71
5312.587, 17061.77
5314.515, 17036.51
5316.444, 17000.20
5318.372, 16971.60
5320.301, 16975.65
5322.229, 16975.32
5324.158, 16927.84
5326.086, 16889.14
5328.015, 16876.52
5329.943, 16882.45
5331.872, 16840.04
5333.800, 16820.21
5335.729, 16812.28
5337.657, 16790.63
5339.585, 16756.46
5341.514, 16722.06
5343.442, 16692.62
5345.371, 16663.54
5347.299, 16638.33
5349.228, 16610.67
5351.156, 16585.61
5353.084, 16560.17
5355.013, 16540.00
5356.941, 16533.17
5358.870, 16525.51
5360.798, 16503.71
5362.727, 16477.63
5364.655, 16458.60
5366.584, 16450.33
5368.512, 16433.40
5370.441, 16410.06
5372.369, 16391.04
5374.298, 16368.82
5376.226, 16340.76
5378.155, 16321.32
5380.083, 16294.02
5382.012, 16264.96
5383.940, 16239.53
5385.869, 16231.13
5387.797, 16197.07
5389.726, 16170.96
5391.654, 16172.49
5393.583, 16153.56
5395.511, 16143.58
5397.439, 16128.07
5399.368, 16104.42
5401.296, 16070.58
5403.225, 16054.59
5405.153, 16011.17
5407.082, 15982.57
5409.010, 15975.53
5410.938, 15966.63
5412.867, 15929.54
5414.795, 15908.31
5416.724, 15894.07
5418.652, 15882.83
5420.581, 15876.44
5422.509, 15851.22
5424.438, 15811.09
5426.366, 15765.26
5428.295, 15761.69
5430.223, 15738.87
5432.152, 15704.23
5434.080, 15684.89
5436.009, 15679.85
5437.937, 15667.63
5439.866, 15640.25
5441.794, 15594.25
5443.723, 15580.31
5445.651, 15570.38
5447.580, 15542.99
5449.508, 15556.52
5451.437, 15525.50
5453.365, 15478.03
5455.293, 15488.59
5457.222, 15452.01
5459.150, 15421.56
5461.079, 15410.77
5463.007, 15388.54
5464.936, 15353.33
5466.864, 15331.20
5468.792, 15333.16
5470.721, 15281.99
5472.649, 15258.70
5474.578, 15246.97
5476.506, 15202.78
5478.435, 15193.89
5480.363, 15143.36
5482.292, 15156.33
5484.220, 15137.48
5486.149, 15109.53
5488.077, 15095.88
5490.006, 15077.14
5491.934, 15058.64
5493.863, 15047.98
5495.791, 15021.77
5497.720, 15009.42
5499.648, 14981.86
5501.577, 14957.99
5503.505, 14939.78
5505.434, 14921.75
5507.362, 14914.73
5509.291, 14906.85
5511.219, 14889.20
5513.147, 14871.42
5515.076, 14852.84
5517.004, 14830.63
5518.933, 14808.68
5520.861, 14781.61
5522.790, 14758.70
5524.718, 14728.17
5526.646, 14698.20
5528.575, 14667.04
5530.503, 14638.38
5532.432, 14601.91
5534.360, 14581.85
5536.289, 14582.08
5538.217, 14572.67
5540.146, 14544.44
5542.074, 14497.58
5544.003, 14465.13
5545.931, 14444.93
5547.860, 14432.04
5549.788, 14413.79
5551.717, 14399.44
5553.645, 14379.77
5555.574, 14352.65
5557.502, 14341.58
5559.431, 14331.88
5561.359, 14312.23
5563.288, 14276.98
5565.216, 14244.54
5567.145, 14228.16
5569.073, 14223.45
5571.001, 14225.25
5572.930, 14179.29
5574.858, 14147.84
5576.787, 14125.35
5578.715, 14082.75
5580.644, 14078.08
5582.572, 14065.65
5584.500, 14037.65
5586.429, 14007.79
5588.357, 13984.83
5590.286, 13973.35
5592.214, 13967.61
5594.143, 13954.58
5596.071, 13911.99
5598.000, 13882.00
5599.928, 13869.22
5601.857, 13832.85
5603.785, 13822.87
5605.714, 13805.03
5607.642, 13770.37
5609.571, 13756.63
5611.499, 13740.62
5613.428, 13714.84
5615.356, 13680.14
5617.285, 13647.50
5619.213, 13628.03
5621.142, 13615.67
5623.070, 13601.66
5624.999, 13562.88
5626.927, 13538.73
5628.855, 13521.47
5630.784, 13498.17
5632.712, 13468.42
5634.641, 13418.23
5636.569, 13408.00
5638.498, 13393.10
5640.426, 13368.80
5642.354, 13370.24
5644.283, 13365.52
5646.211, 13332.48
5648.140, 13298.06
5650.068, 13282.08
5651.997, 13275.18
5653.925, 13267.17
5655.854, 13252.24
5657.782, 13227.37
5659.711, 13193.43
5661.639, 13157.31
5663.568, 13152.27
5665.496, 13139.09
5667.425, 13114.42
5669.353, 13081.87
5671.282, 13044.11
5673.210, 13026.40
5675.139, 13006.96
5677.067, 12973.38
5678.996, 12934.79
5680.924, 12927.60
5682.853, 12915.23
5684.781, 12883.05
5686.709, 12871.71
5688.638, 12847.77
5690.566, 12828.12
5692.495, 12814.77
5694.423, 12776.22
5696.352, 12783.96
5698.280, 12781.21
5700.208, 12752.11
5702.137, 12734.25
5704.065, 12718.86
5705.994, 12699.81
5707.922, 12677.01
5709.851, 12655.72
5711.779, 12625.18
5713.708, 12590.54
5715.636, 12562.51
5717.565, 12557.02
5719.493, 12532.19
5721.422, 12522.75
5723.350, 12517.72
5725.279, 12491.50
5727.207, 12448.96
5729.136, 12435.00
5731.064, 12425.20
5732.993, 12393.31
5734.921, 12377.25
5736.850, 12357.68
5738.778, 12328.19
5740.707, 12293.10
5742.635, 12272.05
5744.563, 12244.59
5746.492, 12228.67
5748.420, 12203.45
5750.349, 12197.48
5752.277, 12189.41
5754.206, 12168.87
5756.134, 12141.07
5758.063, 12122.45
5759.991, 12097.54
5761.919, 12068.51
5763.848, 12042.00
5765.776, 12024.45
5767.705, 11999.43
5769.633, 11965.83
5771.562, 11938.36
5773.490, 11926.89
5775.419, 11919.78
5777.347, 11904.81
5779.276, 11878.60
5781.204, 11846.62
5783.133, 11831.85
5785.061, 11824.35
5786.990, 11791.47
5788.918, 11745.64
5790.847, 11741.23
5792.775, 11723.44
5794.704, 11718.68
5796.632, 11713.78
5798.561, 11685.68
5800.489, 11654.38
5802.417, 11649.28
5804.346, 11639.43
5806.274, 11607.25
5808.203, 11593.38
5810.131, 11559.80
5812.060, 11525.55
5813.988, 11505.30
5815.917, 11504.42
5817.845, 11476.03
5819.773, 11467.14
5821.702, 11465.55
5823.630, 11441.40
5825.559, 11414.07
5827.487, 11371.22
5829.416, 11342.95
5831.344, 11338.71
5833.273, 11306.78
5835.201, 11306.43
5837.130, 11290.08
5839.058, 11254.29
5840.987, 11229.90
5842.915, 11219.60
5844.844, 11208.51
5846.772, 11197.69
5848.701, 11185.55
5850.629, 11165.85
5852.558, 11138.30
5854.486, 11121.50
5856.415, 11098.53
5858.343, 11054.19
5860.271, 11052.78
5862.200, 11025.57
5864.128, 10994.25
5866.057, 10989.54
5867.985, 10962.85
5869.914, 10937.15
5871.842, 10917.84
5873.771, 10908.00
5875.699, 10919.79
5877.627, 10891.41
5879.556, 10875.63
5881.484, 10867.69
5883.413, 10846.22
5885.341, 10821.10
5887.270, 10798.38
5889.198, 10773.94
5891.127, 10746.68
5893.055, 10721.84
5894.984, 10710.07
5896.912, 10678.72
5898.841, 10662.48
5900.769, 10627.81
5902.698, 10621.90
5904.626, 10600.30
5906.555, 10577.30
5908.483, 10555.95
5910.412, 10538.79
5912.340, 10511.12
5914.269, 10504.74
5916.197, 10496.24
5918.125, 10476.63
5920.054, 10439.09
5921.982, 10402.71
5923.911, 10380.04
5925.839, 10364.13
5927.768, 10342.09
5929.696, 10341.23
5931.625, 10322.13
5933.553, 10309.16
5935.481, 10289.63
5937.410, 10273.66
5939.338, 10242.90
5941.267, 10208.54
5943.195, 10188.93
5945.124, 10187.32
5947.052, 10159.57
5948.981, 10155.55
5950.909, 10134.28
5952.838, 10103.29
5954.766, 10096.55
5956.695, 10045.57
5958.623, 10014.73
5960.552, 9997.143
5962.480, 9981.953
5964.409, 9969.438
5966.337, 9976.093
5968.266, 9957.440
5970.194, 9929.228
5972.123, 9907.724
5974.051, 9879.846
5975.979, 9865.557
5977.908, 9851.122
5979.836, 9850.605
5981.765, 9871.223
5983.693, 9859.899
5985.622, 9834.781
5987.550, 9792.907
5989.479, 9759.942
5991.407, 9730.329
5993.335, 9698.170
5995.264, 9674.280
5997.192, 9641.025
5999.121, 9622.699
6001.049, 9591.807
6002.978, 9584.293
6004.906, 9570.208
6006.835, 9545.424
6008.763, 9520.143
6010.692, 9512.038
6012.620, 9501.046
6014.549, 9472.630
6016.477, 9452.358
6018.406, 9446.589
6020.334, 9421.859
6022.263, 9399.677
6024.191, 9369.107
6026.120, 9346.329
6028.048, 9323.942
6029.977, 9309.881
6031.905, 9284.741
6033.833, 9274.392
6035.762, 9262.824
6037.690, 9238.982
6039.619, 9217.304
6041.547, 9193.009
6043.476, 9171.953
6045.404, 9155.979
6047.333, 9142.171
6049.261, 9120.188
6051.189, 9095.509
6053.118, 9088.732
6055.046, 9075.944
6056.975, 9042.096
6058.903, 9023.529
6060.832, 8998.651
6062.760, 8975.345
6064.689, 8959.566
6066.617, 8946.379
6068.546, 8923.322
6070.474, 8888.660
6072.403, 8878.576
6074.331, 8859.185
6076.260, 8828.918
6078.188, 8815.094
6080.117, 8791.298
6082.045, 8776.172
6083.974, 8760.241
6085.902, 8738.713
6087.831, 8724.796
6089.759, 8719.152
6091.688, 8698.168
6093.616, 8667.618
6095.544, 8642.784
6097.473, 8638.101
6099.401, 8608.470
6101.330, 8592.024
6103.258, 8585.651
6105.187, 8573.024
6107.115, 8540.785
6109.043, 8533.946
6110.972, 8511.768
6112.900, 8491.533
6114.829, 8476.832
6116.757, 8458.694
6118.686, 8431.802
6120.614, 8405.370
6122.543, 8393.046
6124.471, 8387.124
6126.400, 8371.324
6128.328, 8355.503
6130.257, 8322.691
6132.185, 8317.616
6134.114, 8298.967
6136.042, 8278.508
6137.971, 8276.954
6139.899, 8247.991
6141.828, 8231.935
6143.756, 8221.774
6145.685, 8205.739
6147.613, 8179.819
6149.542, 8159.278
6151.470, 8133.714
6153.398, 8123.073
6155.327, 8108.166
6157.255, 8069.653
6159.184, 8043.303
6161.112, 8032.820
6163.041, 8014.357
6164.969, 7992.702
6166.897, 7973.985
6168.826, 7954.347
6170.754, 7937.011
6172.683, 7929.562
6174.611, 7918.196
6176.540, 7903.246
6178.468, 7891.352
6180.397, 7863.123
6182.325, 7843.708
6184.254, 7825.076
6186.182, 7802.899
6188.111, 7780.972
6190.039, 7770.713
6191.968, 7767.646
6193.896, 7731.969
6195.825, 7714.090
6197.753, 7705.915
6199.682, 7670.311
6201.610, 7665.135
6203.539, 7649.649
6205.467, 7629.024
6207.396, 7606.950
6209.324, 7584.466
6211.252, 7567.722
6213.181, 7552.227
6215.109, 7534.944
6217.038, 7523.115
6218.966, 7508.470
6220.895, 7481.227
6222.823, 7471.034
6224.751, 7449.575
6226.680, 7442.257
6228.608, 7412.688
6230.537, 7394.497
6232.465, 7376.829
6234.394, 7360.483
6236.322, 7345.585
6238.251, 7338.697
6240.179, 7320.169
6242.108, 7309.452
6244.036, 7299.369
6245.965, 7284.334
6247.893, 7275.149
6249.822, 7264.079
6251.750, 7242.836
6253.679, 7211.016
6255.607, 7203.064
6257.536, 7184.157
6259.464, 7164.740
6261.393, 7168.960
6263.321, 7171.217
6265.250, 7142.253
6267.178, 7121.097
6269.106, 7096.844
6271.035, 7086.608
6272.963, 7091.708
6274.892, 7080.433
6276.820, 7026.400
6278.749, 6982.735
6280.677, 6983.540
6282.605, 6980.104
6284.534, 6965.929
6286.462, 6948.761
6288.391, 6934.580
6290.319, 6917.866
6292.248, 6901.702
6294.176, 6885.407
6296.105, 6868.597
6298.033, 6853.709
6299.962, 6836.422
6301.890, 6820.210
6303.819, 6802.882
6305.747, 6789.212
6307.676, 6769.236
6309.604, 6758.268
6311.533, 6745.916
6313.461, 6729.726
6315.390, 6704.758
6317.318, 6698.122
6319.247, 6669.506
6321.175, 6646.323
6323.104, 6658.650
6325.032, 6633.560
6326.960, 6631.708
6328.889, 6617.271
6330.817, 6597.847
6332.746, 6573.032
6334.674, 6538.674
6336.603, 6515.415
6338.531, 6495.042
6340.459, 6496.058
6342.388, 6493.958
6344.316, 6479.314
6346.245, 6463.752
6348.173, 6464.742
6350.102, 6428.828
6352.030, 6408.159
6353.959, 6400.087
6355.887, 6390.679
6357.816, 6376.539
6359.744, 6365.160
6361.673, 6347.123
6363.601, 6336.621
6365.530, 6311.467
6367.458, 6309.640
6369.387, 6299.640
6371.315, 6279.643
6373.244, 6260.624
6375.172, 6244.555
6377.101, 6220.981
6379.029, 6212.821
6380.958, 6203.535
6382.886, 6176.586
6384.814, 6160.158
6386.743, 6148.509
6388.671, 6142.979
6390.600, 6119.906
6392.528, 6106.143
6394.457, 6101.044
6396.385, 6075.938
6398.313, 6063.247
6400.242, 6055.197
6402.170, 6026.933
6404.099, 6010.791
6406.027, 6009.116
6407.956, 6003.804
6409.884, 5986.749
6411.813, 5971.782
6413.741, 5944.208
6415.670, 5929.417
6417.598, 5919.555
6419.527, 5911.577
6421.455, 5909.031
6423.384, 5886.253
6425.312, 5868.016
6427.241, 5867.092
6429.169, 5848.462
6431.098, 5837.570
6433.026, 5825.716
6434.955, 5810.000
6436.883, 5795.569
6438.812, 5778.009
6440.740, 5764.978
6442.668, 5758.939
6444.597, 5746.390
6446.525, 5728.759
6448.454, 5726.211
6450.382, 5709.500
6452.311, 5694.323
6454.239, 5667.886
6456.167, 5641.989
6458.096, 5637.690
6460.024, 5650.824
6461.953, 5643.473
6463.881, 5620.164
6465.810, 5591.451
6467.738, 5593.209
6469.667, 5578.188
6471.595, 5553.786
6473.524, 5548.993
6475.452, 5553.329
6477.381, 5540.548
6479.309, 5537.305
6481.238, 5527.935
6483.166, 5514.818
6485.095, 5498.700
6487.023, 5474.725
6488.952, 5444.649
6490.880, 5447.654
6492.809, 5419.854
6494.737, 5404.842
6496.666, 5399.748
6498.594, 5392.497
6500.522, 5379.998
6502.451, 5364.875
6504.379, 5343.226
6506.308, 5323.284
6508.236, 5317.915
6510.165, 5303.844
6512.093, 5296.583
6514.021, 5288.163
6515.950, 5262.049
6517.878, 5258.112
6519.807, 5250.200
6521.735, 5237.180
6523.664, 5238.921
6525.592, 5220.751
6527.521, 5214.659
6529.449, 5206.756
6531.378, 5187.639
6533.306, 5172.047
6535.235, 5165.994
6537.163, 5143.282
6539.092, 5140.322
6541.020, 5130.371
6542.949, 5104.661
6544.877, 5092.864
6546.806, 5094.367
6548.734, 5080.781
6550.663, 5071.596
6552.591, 5069.531
6554.520, 5052.690
6556.448, 5047.880
6558.376, 5029.819
6560.305, 5031.495
6562.233, 5016.918
6564.162, 5008.434
6566.090, 4998.547
6568.019, 4986.668
6569.947, 4975.812
6571.875, 4960.440
6573.804, 4937.724
6575.732, 4918.308
6577.661, 4912.687
6579.589, 4909.973
6581.518, 4896.749
6583.446, 4887.581
6585.375, 4871.188
6587.303, 4858.313
6589.232, 4861.418
6591.160, 4855.898
6593.089, 4843.740
6595.017, 4820.140
6596.946, 4813.375
6598.874, 4801.978
6600.803, 4784.344
6602.731, 4776.909
6604.660, 4774.234
6606.588, 4750.945
6608.517, 4753.343
6610.445, 4732.404
6612.374, 4724.637
6614.302, 4713.241
6616.230, 4700.336
6618.159, 4688.755
6620.087, 4677.499
6622.016, 4669.661
6623.944, 4674.676
6625.873, 4666.630
6627.801, 4656.037
6629.729, 4640.834
##END=



