##NAMES=Willemseite
##RRUFFID=R061112
##IDEAL CHEMISTRY=Ni_3_Si_4_O_10_(OH)_2_
##LOCALITY=near Scotia Talc mine, Barberton Mountain, Transvaal, South Africa
##OWNER=RRUFF
##SOURCE=Michael Scott
##DESCRIPTION=Green massive
##STATUS=The identification of this mineral is not yet confirmed
##URL=https://www.rruff.net/odr/rruff_sample/R061112
##FILETYPE=Raman RAW
##RAMAN WAVELENGTH=532

182.7175, 8093.438
184.6460, 8222.801
186.5745, 8349.791
188.5029, 8470.340
190.4314, 8586.620
192.3599, 8690.641
194.2883, 8778.432
196.2168, 8852.865
198.1453, 8918.088
200.0737, 8967.282
202.0022, 9013.851
203.9307, 9060.528
205.8591, 9105.522
207.7876, 9161.670
209.7161, 9245.073
211.6445, 9341.154
213.5730, 9409.845
215.5014, 9438.046
217.4299, 9456.948
219.3584, 9478.992
221.2868, 9503.138
223.2153, 9534.010
225.1438, 9571.564
227.0723, 9616.079
229.0007, 9668.235
230.9292, 9740.563
232.8577, 9803.444
234.7861, 9841.872
236.7146, 9837.301
238.6431, 9852.589
240.5715, 9904.950
242.5000, 9972.971
244.4285, 10029.06
246.3569, 10059.94
248.2854, 10090.07
250.2139, 10126.34
252.1423, 10169.16
254.0708, 10211.98
255.9993, 10260.18
257.9277, 10305.68
259.8562, 10338.50
261.7847, 10333.70
263.7131, 10341.42
265.6416, 10382.62
267.5701, 10450.37
269.4985, 10505.63
271.4270, 10529.45
273.3555, 10546.16
275.2839, 10576.10
277.2124, 10628.62
279.1409, 10675.57
281.0693, 10702.48
282.9978, 10713.26
284.9263, 10739.98
286.8547, 10802.23
288.7832, 10870.36
290.7117, 10920.14
292.6401, 10949.87
294.5686, 10964.79
296.4971, 10949.54
298.4255, 10920.42
300.3540, 10933.40
302.2825, 11027.00
304.2109, 11119.88
306.1394, 11174.32
308.0679, 11186.52
309.9963, 11201.42
311.9248, 11229.28
313.8533, 11262.93
315.7817, 11293.98
317.7102, 11319.42
319.6387, 11352.28
321.5671, 11393.52
323.4956, 11441.45
325.4241, 11484.04
327.3525, 11525.69
329.2810, 11568.55
331.2095, 11601.28
333.1379, 11617.74
335.0664, 11631.76
336.9948, 11654.52
338.9233, 11688.58
340.8518, 11724.30
342.7802, 11761.40
344.7087, 11791.27
346.6372, 11816.62
348.5656, 11837.33
350.4941, 11870.37
352.4226, 11919.69
354.3510, 11970.00
356.2795, 12007.85
358.2080, 12029.85
360.1364, 12058.71
362.0649, 12099.79
363.9934, 12158.01
365.9218, 12199.85
367.8503, 12206.63
369.7788, 12200.27
371.7072, 12213.93
373.6357, 12255.56
375.5642, 12306.51
377.4926, 12350.60
379.4211, 12388.00
381.3496, 12424.91
383.2780, 12473.24
385.2065, 12515.19
387.1350, 12531.91
389.0634, 12519.63
390.9919, 12517.34
392.9204, 12544.54
394.8488, 12592.78
396.7773, 12645.47
398.7058, 12703.56
400.6342, 12739.37
402.5627, 12746.73
404.4912, 12739.96
406.4196, 12764.25
408.3481, 12831.52
410.2766, 12888.97
412.2050, 12923.84
414.1335, 12943.32
416.0620, 12969.90
417.9904, 12989.89
419.9189, 13002.04
421.8474, 13016.82
423.7758, 13052.29
425.7043, 13099.26
427.6328, 13140.87
429.5612, 13170.70
431.4897, 13186.48
433.4182, 13195.39
435.3466, 13207.88
437.2751, 13227.46
439.2036, 13254.91
441.1320, 13289.22
443.0605, 13326.44
444.9890, 13366.52
446.9174, 13410.19
448.8459, 13460.05
450.7744, 13506.91
452.7029, 13554.84
454.6313, 13603.53
456.5598, 13649.32
458.4883, 13694.00
460.4167, 13728.93
462.3452, 13743.75
464.2737, 13725.59
466.2021, 13726.38
468.1306, 13778.54
470.0591, 13847.58
471.9875, 13900.06
473.9160, 13919.52
475.8445, 13935.30
477.7729, 13969.32
479.7014, 14015.35
481.6299, 14048.89
483.5583, 14049.42
485.4868, 14053.91
487.4153, 14075.36
489.3437, 14109.96
491.2722, 14141.88
493.2007, 14180.58
495.1291, 14223.60
497.0576, 14273.15
498.9861, 14325.20
500.9145, 14364.17
502.8430, 14359.28
504.7715, 14340.72
506.6999, 14338.85
508.6284, 14412.02
510.5569, 14476.81
512.4854, 14508.62
514.4138, 14511.92
516.3423, 14523.15
518.2708, 14567.55
520.1992, 14627.35
522.1277, 14696.85
524.0562, 14757.64
525.9846, 14787.07
527.9131, 14790.17
529.8416, 14800.73
531.7700, 14837.19
533.6985, 14876.75
535.6270, 14910.07
537.5554, 14948.02
539.4839, 14988.19
541.4124, 15016.32
543.3408, 15016.46
545.2693, 15025.32
547.1978, 15059.80
549.1262, 15112.30
551.0547, 15161.70
552.9832, 15197.75
554.9116, 15234.61
556.8401, 15281.01
558.7686, 15335.13
560.6970, 15371.44
562.6255, 15377.86
564.5540, 15387.28
566.4824, 15418.87
568.4109, 15466.40
570.3394, 15503.29
572.2678, 15523.87
574.1963, 15546.83
576.1248, 15588.89
578.0532, 15651.73
579.9817, 15696.37
581.9102, 15699.74
583.8386, 15685.52
585.7670, 15684.13
587.6955, 15695.86
589.6240, 15719.02
591.5524, 15761.72
593.4809, 15821.10
595.4094, 15877.03
597.3378, 15918.16
599.2663, 15949.76
601.1948, 15971.09
603.1232, 15989.47
605.0517, 16019.47
606.9802, 16077.23
608.9086, 16134.42
610.8371, 16175.84
612.7656, 16201.26
614.6940, 16223.51
616.6225, 16232.12
618.5510, 16240.37
620.4794, 16263.96
622.4079, 16315.22
624.3364, 16364.61
626.2648, 16409.10
628.1933, 16444.95
630.1218, 16475.08
632.0502, 16491.18
633.9787, 16513.72
635.9072, 16544.64
637.8356, 16588.29
639.7641, 16634.74
641.6926, 16681.70
643.6210, 16720.25
645.5495, 16742.38
647.4780, 16761.35
649.4064, 16790.65
651.3349, 16838.12
653.2634, 16885.50
655.1918, 16931.27
657.1203, 16974.08
659.0488, 17014.39
660.9772, 17050.53
662.9057, 17087.32
664.8342, 17126.53
666.7626, 17168.05
668.6911, 17207.66
670.6196, 17242.62
672.5480, 17278.53
674.4765, 17321.26
676.4050, 17369.07
678.3334, 17409.32
680.2619, 17430.34
682.1904, 17453.26
684.1188, 17491.66
686.0473, 17552.65
687.9758, 17589.71
689.9042, 17581.20
691.8327, 17564.51
693.7612, 17565.65
695.6896, 17588.13
697.6181, 17613.83
699.5466, 17636.46
701.4750, 17657.17
703.4035, 17686.71
705.3320, 17742.48
707.2604, 17783.71
709.1889, 17784.13
711.1174, 17773.81
713.0458, 17799.81
714.9743, 17884.69
716.9028, 17955.74
718.8312, 17988.17
720.7597, 17995.88
722.6882, 18009.29
724.6166, 18030.55
726.5451, 18060.57
728.4736, 18106.38
730.4020, 18150.54
732.3305, 18187.96
734.2590, 18224.44
736.1874, 18252.61
738.1159, 18252.76
740.0444, 18232.48
741.9728, 18241.05
743.9013, 18289.36
745.8298, 18351.54
747.7582, 18423.80
749.6867, 18482.09
751.6152, 18522.46
753.5436, 18540.17
755.4721, 18568.78
757.4006, 18591.79
759.3290, 18609.93
761.2575, 18637.59
763.1860, 18674.16
765.1144, 18695.02
767.0429, 18701.93
768.9714, 18718.29
770.8998, 18747.03
772.8283, 18786.14
774.7568, 18831.63
776.6852, 18890.42
778.6137, 18954.14
780.5422, 19009.22
782.4706, 19055.23
784.3991, 19094.26
786.3276, 19127.62
788.2560, 19149.47
790.1845, 19169.34
792.1130, 19182.70
794.0414, 19218.22
795.9699, 19266.14
797.8984, 19308.66
799.8268, 19350.18
801.7553, 19398.73
803.6838, 19446.88
805.6122, 19483.50
807.5407, 19506.59
809.4692, 19526.13
811.3976, 19543.11
813.3261, 19563.29
815.2546, 19579.38
817.1830, 19607.68
819.1115, 19645.71
821.0400, 19684.38
822.9684, 19702.39
824.8969, 19735.79
826.8254, 19799.26
828.7538, 19855.58
830.6823, 19876.14
832.6108, 19875.21
834.5392, 19886.25
836.4677, 19919.97
838.3962, 19959.59
840.3246, 19993.04
842.2531, 20016.26
844.1816, 20058.49
846.1100, 20120.44
848.0385, 20172.93
849.9670, 20197.24
851.8954, 20228.08
853.8239, 20279.87
855.7524, 20320.33
857.6808, 20349.97
859.6093, 20379.08
861.5378, 20411.21
863.4662, 20421.02
865.3947, 20445.80
867.3232, 20498.74
869.2516, 20571.77
871.1801, 20598.19
873.1086, 20605.71
875.0370, 20652.65
876.9655, 20710.71
878.8940, 20749.91
880.8224, 20771.22
882.7509, 20820.34
884.6794, 20877.69
886.6078, 20900.91
888.5363, 20895.69
890.4648, 20907.79
892.3932, 20981.13
894.3217, 21043.57
896.2502, 21069.68
898.1786, 21079.95
900.1071, 21110.46
902.0356, 21157.41
903.9641, 21179.77
905.8925, 21195.69
907.8210, 21231.96
909.7495, 21299.43
911.6779, 21366.00
913.6064, 21401.99
915.5349, 21411.43
917.4633, 21413.42
919.3918, 21419.69
921.3203, 21448.58
923.2487, 21527.61
925.1772, 21626.16
927.1057, 21679.00
929.0341, 21677.76
930.9626, 21673.23
932.8911, 21718.99
934.8195, 21772.03
936.7480, 21806.31
938.6765, 21823.52
940.6049, 21853.34
942.5334, 21899.19
944.4619, 21940.84
946.3903, 21980.98
948.3188, 22020.78
950.2473, 22064.49
952.1757, 22121.46
954.1042, 22195.63
956.0327, 22225.21
957.9611, 22196.92
959.8896, 22176.99
961.8181, 22228.89
963.7465, 22308.11
965.6750, 22356.20
967.6035, 22374.40
969.5319, 22400.01
971.4604, 22447.60
973.3889, 22491.93
975.3173, 22522.84
977.2458, 22546.88
979.1743, 22578.13
981.1027, 22619.91
983.0312, 22669.49
984.9597, 22721.85
986.8881, 22775.82
988.8166, 22827.61
990.7451, 22877.39
992.6735, 22916.32
994.6020, 22943.04
996.5305, 22980.28
998.4589, 23020.18
1000.387, 23046.13
1002.316, 23053.07
1004.244, 23042.08
1006.173, 23054.57
1008.101, 23094.22
1010.030, 23162.13
1011.958, 23223.59
1013.887, 23267.65
1015.815, 23302.75
1017.744, 23344.44
1019.672, 23410.60
1021.601, 23485.55
1023.529, 23578.87
1025.458, 23646.29
1027.386, 23672.38
1029.314, 23640.62
1031.243, 23628.46
1033.171, 23648.57
1035.100, 23695.94
1037.028, 23765.15
1038.957, 23832.90
1040.885, 23882.42
1042.814, 23908.78
1044.742, 23931.11
1046.671, 23937.46
1048.599, 23947.09
1050.528, 23986.08
1052.456, 24054.49
1054.385, 24111.20
1056.313, 24145.16
1058.241, 24181.10
1060.170, 24224.88
1062.098, 24273.61
1064.027, 24325.35
1065.955, 24393.32
1067.884, 24442.99
1069.812, 24449.28
1071.741, 24433.89
1073.669, 24440.95
1075.598, 24485.29
1077.526, 24531.30
1079.454, 24586.93
1081.383, 24645.21
1083.311, 24691.04
1085.240, 24722.57
1087.168, 24751.91
1089.097, 24767.78
1091.025, 24795.21
1092.954, 24858.51
1094.882, 24957.09
1096.811, 25031.43
1098.739, 25046.07
1100.668, 25067.96
1102.596, 25136.04
1104.525, 25238.02
1106.453, 25300.32
1108.381, 25284.21
1110.310, 25279.54
1112.238, 25300.48
1114.167, 25340.83
1116.095, 25400.15
1118.024, 25487.57
1119.952, 25551.78
1121.881, 25555.21
1123.809, 25552.67
1125.738, 25587.96
1127.666, 25660.38
1129.595, 25720.41
1131.523, 25749.52
1133.452, 25786.87
1135.380, 25841.87
1137.308, 25898.33
1139.237, 25955.23
1141.165, 26022.52
1143.094, 26082.76
1145.022, 26133.25
1146.951, 26178.72
1148.879, 26210.94
1150.808, 26231.36
1152.736, 26262.06
1154.665, 26306.55
1156.593, 26345.86
1158.522, 26377.76
1160.450, 26423.44
1162.379, 26478.86
1164.307, 26532.12
1166.235, 26581.53
1168.164, 26643.45
1170.092, 26730.60
1172.021, 26792.43
1173.949, 26768.60
1175.878, 26773.99
1177.806, 26833.67
1179.735, 26906.95
1181.663, 26959.07
1183.592, 26995.26
1185.520, 27024.76
1187.449, 27030.46
1189.377, 27046.76
1191.306, 27097.14
1193.234, 27183.41
1195.162, 27276.62
1197.091, 27362.93
1199.019, 27416.18
1200.948, 27414.27
1202.876, 27420.73
1204.805, 27481.99
1206.733, 27585.55
1208.662, 27651.25
1210.590, 27675.93
1212.519, 27701.96
1214.447, 27739.51
1216.376, 27774.00
1218.304, 27809.75
1220.233, 27866.46
1222.161, 27926.67
1224.089, 27979.21
1226.018, 28014.44
1227.946, 28031.18
1229.875, 28064.65
1231.803, 28121.04
1233.732, 28183.99
1235.660, 28240.29
1237.589, 28296.71
1239.517, 28366.77
1241.446, 28442.57
1243.374, 28488.73
1245.303, 28521.27
1247.231, 28552.87
1249.160, 28594.11
1251.088, 28639.56
1253.016, 28697.71
1254.945, 28766.94
1256.873, 28849.55
1258.802, 28917.26
1260.730, 28945.23
1262.659, 28944.05
1264.587, 28951.83
1266.516, 29001.23
1268.444, 29064.47
1270.373, 29118.14
1272.301, 29168.84
1274.230, 29232.72
1276.158, 29309.09
1278.087, 29366.90
1280.015, 29403.66
1281.943, 29441.67
1283.872, 29475.24
1285.800, 29515.15
1287.729, 29583.36
1289.657, 29687.07
1291.586, 29770.08
1293.514, 29836.28
1295.443, 29885.43
1297.371, 29906.56
1299.300, 29912.68
1301.228, 29956.37
1303.157, 30056.75
1305.085, 30139.65
1307.014, 30168.80
1308.942, 30184.22
1310.870, 30234.40
1312.799, 30321.81
1314.727, 30402.39
1316.656, 30470.01
1318.584, 30524.26
1320.513, 30524.24
1322.441, 30498.01
1324.370, 30525.35
1326.298, 30654.65
1328.227, 30778.37
1330.155, 30796.66
1332.084, 30800.84
1334.012, 30868.91
1335.941, 30988.56
1337.869, 31061.74
1339.797, 31033.92
1341.726, 31054.24
1343.654, 31135.90
1345.583, 31220.44
1347.511, 31288.59
1349.440, 31345.76
1351.368, 31368.01
1353.297, 31300.61
1355.225, 31296.21
1357.154, 31403.90
1359.082, 31539.28
1361.011, 31647.59
1362.939, 31743.62
1364.868, 31820.68
1366.796, 31857.35
1368.724, 31884.13
1370.653, 31903.71
1372.581, 31934.47
1374.510, 31992.31
1376.438, 32075.11
1378.367, 32138.78
1380.295, 32171.63
1382.224, 32207.02
1384.152, 32272.27
1386.081, 32355.78
1388.009, 32419.35
1389.938, 32446.42
1391.866, 32494.91
1393.795, 32591.81
1395.723, 32689.25
1397.651, 32740.70
1399.580, 32744.17
1401.508, 32766.71
1403.437, 32849.45
1405.365, 32921.07
1407.294, 32930.53
1409.222, 32925.45
1411.151, 32985.73
1413.079, 33121.05
1415.008, 33215.26
1416.936, 33228.79
1418.865, 33240.98
1420.793, 33289.08
1422.722, 33341.65
1424.650, 33380.98
1426.578, 33421.40
1428.507, 33493.66
1430.435, 33611.61
1432.364, 33711.31
1434.292, 33782.33
1436.221, 33828.09
1438.149, 33834.64
1440.078, 33814.34
1442.006, 33846.06
1443.935, 33970.29
1445.863, 34064.61
1447.792, 34062.55
1449.720, 34042.98
1451.649, 34079.66
1453.577, 34173.71
1455.505, 34239.23
1457.434, 34234.78
1459.362, 34265.15
1461.291, 34382.55
1463.219, 34528.91
1465.148, 34640.75
1467.076, 34713.66
1469.005, 34761.83
1470.933, 34744.77
1472.862, 34761.76
1474.790, 34862.24
1476.719, 34982.81
1478.647, 35050.75
1480.576, 35057.14
1482.504, 35077.47
1484.432, 35100.91
1486.361, 35154.89
1488.289, 35271.41
1490.218, 35393.92
1492.146, 35470.12
1494.075, 35500.44
1496.003, 35534.55
1497.932, 35567.75
1499.860, 35615.32
1501.789, 35694.44
1503.717, 35777.77
1505.646, 35844.72
1507.574, 35897.36
1509.503, 35942.33
1511.431, 35978.52
1513.359, 36010.48
1515.288, 36018.14
1517.216, 36041.48
1519.145, 36126.36
1521.073, 36248.30
1523.002, 36338.46
1524.930, 36391.07
1526.859, 36430.38
1528.787, 36431.76
1530.716, 36453.94
1532.644, 36551.43
1534.573, 36694.75
1536.501, 36812.32
1538.430, 36900.82
1540.358, 36956.01
1542.286, 36933.81
1544.215, 36945.16
1546.143, 37085.09
1548.072, 37263.44
1550.000, 37316.14
1551.929, 37222.88
1553.857, 37191.41
1555.786, 37267.75
1557.714, 37366.84
1559.643, 37485.13
1561.571, 37596.09
1563.500, 37657.95
1565.428, 37665.72
1567.357, 37733.72
1569.285, 37944.80
1571.214, 38069.13
1573.142, 37979.35
1575.070, 37873.83
1576.999, 37908.03
1578.927, 38051.93
1580.856, 38143.90
1582.784, 38136.67
1584.713, 38173.77
1586.641, 38309.53
1588.570, 38442.16
1590.498, 38519.36
1592.427, 38559.89
1594.355, 38605.05
1596.284, 38659.08
1598.212, 38707.61
1600.141, 38720.32
1602.069, 38764.34
1603.997, 38901.86
1605.926, 39051.85
1607.854, 39112.66
1609.783, 39078.00
1611.711, 39078.83
1613.640, 39157.30
1615.568, 39227.51
1617.497, 39258.52
1619.425, 39295.22
1621.354, 39383.78
1623.282, 39504.92
1625.211, 39588.18
1627.139, 39603.47
1629.068, 39648.76
1630.996, 39787.09
1632.924, 39878.54
1634.853, 39816.12
1636.781, 39724.02
1638.710, 39767.62
1640.638, 39946.52
1642.567, 40050.18
1644.495, 39998.82
1646.424, 40008.65
1648.352, 40164.09
1650.281, 40323.82
1652.209, 40401.36
1654.138, 40419.76
1656.066, 40432.83
1657.995, 40427.11
1659.923, 40468.72
1661.851, 40611.53
1663.780, 40730.80
1665.708, 40776.60
1667.637, 40797.01
1669.565, 40827.43
1671.494, 40870.28
1673.422, 40951.55
1675.351, 41101.29
1677.279, 41220.55
1679.208, 41297.77
1681.136, 41347.38
1683.065, 41353.19
1684.993, 41346.58
1686.922, 41375.25
1688.850, 41441.47
1690.778, 41519.73
1692.707, 41625.65
1694.635, 41719.24
1696.564, 41792.81
1698.492, 41854.66
1700.421, 41897.27
1702.349, 41934.30
1704.278, 42004.20
1706.206, 42123.71
1708.135, 42212.21
1710.063, 42250.97
1711.992, 42285.14
1713.920, 42318.36
1715.849, 42356.84
1717.777, 42399.21
1719.705, 42450.64
1721.634, 42536.99
1723.562, 42694.63
1725.491, 42800.05
1727.419, 42806.46
1729.348, 42822.83
1731.276, 42887.72
1733.205, 42972.13
1735.133, 43054.48
1737.062, 43132.88
1738.990, 43194.43
1740.919, 43229.41
1742.847, 43265.39
1744.776, 43289.96
1746.704, 43331.58
1748.632, 43417.05
1750.561, 43511.66
1752.489, 43574.02
1754.418, 43608.02
1756.346, 43655.90
1758.275, 43728.25
1760.203, 43790.90
1762.132, 43807.94
1764.060, 43858.29
1765.989, 44015.43
1767.917, 44184.25
1769.846, 44243.44
1771.774, 44207.13
1773.703, 44235.61
1775.631, 44353.75
1777.559, 44463.90
1779.488, 44559.77
1781.416, 44640.59
1783.345, 44717.58
1785.273, 44770.71
1787.202, 44756.71
1789.130, 44693.68
1791.059, 44701.50
1792.987, 44791.38
1794.916, 44900.41
1796.844, 45040.80
1798.773, 45163.86
1800.701, 45253.97
1802.630, 45315.73
1804.558, 45335.23
1806.486, 45330.55
1808.415, 45349.49
1810.343, 45391.25
1812.272, 45489.93
1814.200, 45693.81
1816.129, 45854.25
1818.057, 45881.36
1819.986, 45886.06
1821.914, 45966.83
1823.843, 46074.34
1825.771, 46094.61
1827.700, 46030.80
1829.628, 46052.65
1831.557, 46221.63
1833.485, 46346.36
1835.413, 46329.54
1837.342, 46307.46
1839.270, 46356.84
1841.199, 46442.16
1843.127, 46516.05
1845.056, 46579.45
1846.984, 46642.29
1848.913, 46696.29
1850.841, 46774.09
1852.770, 46913.17
1854.698, 47032.31
1856.627, 47092.52
1858.555, 47129.95
1860.484, 47177.69
1862.412, 47230.91
1864.340, 47268.03
1866.269, 47274.25
1868.197, 47317.65
1870.126, 47447.46
1872.054, 47541.11
1873.983, 47527.68
1875.911, 47534.36
1877.840, 47676.67
1879.768, 47857.92
1881.697, 47910.58
1883.625, 47837.22
1885.554, 47852.42
1887.482, 47990.06
1889.411, 48088.55
1891.339, 48094.04
1893.267, 48111.04
1895.196, 48189.73
1897.124, 48283.12
1899.053, 48357.17
1900.981, 48420.50
1902.910, 48484.81
1904.838, 48551.57
1906.767, 48656.31
1908.695, 48823.13
1910.624, 48950.77
1912.552, 49011.67
1914.481, 49032.64
1916.409, 48985.34
1918.338, 48937.92
1920.266, 48971.23
1922.194, 49060.61
1924.123, 49125.30
1926.051, 49161.85
1927.980, 49199.11
1929.908, 49222.87
1931.837, 49272.37
1933.765, 49379.45
1935.694, 49481.14
1937.622, 49540.89
1939.551, 49584.42
1941.479, 49632.22
1943.408, 49688.46
1945.336, 49784.25
1947.265, 49945.93
1949.193, 50024.34
1951.121, 49944.92
1953.050, 49927.33
1954.978, 50069.61
1956.907, 50215.75
1958.835, 50291.21
1960.764, 50338.20
1962.692, 50397.80
1964.621, 50465.86
1966.549, 50536.54
1968.478, 50609.88
1970.406, 50641.02
1972.335, 50592.42
1974.263, 50608.80
1976.192, 50787.11
1978.120, 50956.93
1980.048, 51028.61
1981.977, 51064.37
1983.905, 51127.54
1985.834, 51201.55
1987.762, 51235.21
1989.691, 51221.57
1991.619, 51233.88
1993.548, 51295.41
1995.476, 51344.52
1997.405, 51355.29
1999.333, 51387.00
2001.262, 51479.26
2003.190, 51576.51
2005.119, 51613.88
2007.047, 51640.96
2008.975, 51775.90
2010.904, 51997.31
2012.832, 52101.04
2014.761, 52062.59
2016.689, 52061.50
2018.618, 52132.52
2020.546, 52217.36
2022.475, 52330.84
2024.403, 52408.50
2026.332, 52370.23
2028.260, 52313.63
2030.189, 52361.02
2032.117, 52473.28
2034.046, 52518.78
2035.974, 52482.31
2037.902, 52533.84
2039.831, 52804.39
2041.759, 52935.76
2043.688, 52787.13
2045.616, 52686.73
2047.545, 52735.73
2049.473, 52846.05
2051.402, 53008.88
2053.330, 53167.75
2055.259, 53227.29
2057.187, 53214.09
2059.116, 53249.95
2061.044, 53337.46
2062.973, 53378.70
2064.901, 53342.71
2066.829, 53349.91
2068.758, 53457.54
2070.686, 53560.58
2072.615, 53611.52
2074.543, 53648.99
2076.472, 53702.29
2078.400, 53757.55
2080.329, 53781.45
2082.257, 53787.05
2084.186, 53852.11
2086.114, 54002.94
2088.042, 54079.12
2089.971, 54026.56
2091.899, 54028.93
2093.828, 54149.04
2095.756, 54257.09
2097.685, 54295.18
2099.613, 54328.62
2101.542, 54406.39
2103.470, 54493.91
2105.399, 54539.92
2107.327, 54566.98
2109.256, 54651.56
2111.184, 54791.74
2113.113, 54859.04
2115.041, 54826.75
2116.969, 54789.41
2118.898, 54692.36
2120.826, 54687.77
2122.755, 54871.77
2124.683, 55069.14
2126.612, 55242.39
2128.540, 55350.84
2130.469, 55307.94
2132.397, 55199.82
2134.326, 55199.54
2136.254, 55284.47
2138.183, 55335.63
2140.111, 55348.42
2142.040, 55389.67
2143.968, 55482.50
2145.896, 55540.19
2147.825, 55488.14
2149.753, 55488.25
2151.682, 55651.48
2153.610, 55807.10
2155.539, 55831.80
2157.467, 55820.50
2159.396, 55877.21
2161.324, 55972.96
2163.253, 56041.60
2165.181, 56085.71
2167.110, 56130.92
2169.038, 56176.23
2170.967, 56249.69
2172.895, 56368.85
2174.823, 56450.90
2176.752, 56465.91
2178.680, 56465.62
2180.609, 56445.81
2182.537, 56444.19
2184.466, 56469.83
2186.394, 56534.56
2188.323, 56697.70
2190.251, 56883.16
2192.180, 56926.80
2194.108, 56854.05
2196.037, 56838.73
2197.965, 56882.92
2199.894, 56937.78
2201.822, 57000.84
2203.750, 57079.25
2205.679, 57195.80
2207.607, 57265.99
2209.536, 57193.70
2211.464, 57174.20
2213.393, 57366.68
2215.321, 57556.13
2217.250, 57567.74
2219.178, 57506.30
2221.107, 57470.52
2223.035, 57473.81
2224.964, 57589.28
2226.892, 57798.67
2228.821, 57834.59
2230.749, 57685.47
2232.677, 57642.41
2234.606, 57750.08
2236.534, 57853.13
2238.463, 57921.82
2240.391, 57985.56
2242.320, 58074.29
2244.248, 58129.57
2246.177, 58099.29
2248.105, 58059.95
2250.034, 58073.20
2251.962, 58098.35
2253.891, 58067.81
2255.819, 58024.00
2257.748, 58076.58
2259.676, 58198.00
2261.604, 58258.91
2263.533, 58260.74
2265.461, 58304.33
2267.390, 58407.88
2269.318, 58486.65
2271.247, 58519.84
2273.175, 58548.23
2275.104, 58559.22
2277.032, 58593.17
2278.961, 58698.65
2280.889, 58780.37
2282.818, 58769.73
2284.746, 58743.66
2286.675, 58728.89
2288.603, 58755.66
2290.531, 58907.78
2292.460, 59105.18
2294.388, 59169.98
2296.317, 59128.66
2298.245, 59135.23
2300.174, 59195.96
2302.102, 59230.63
2304.031, 59228.25
2305.959, 59232.89
2307.888, 59239.12
2309.816, 59274.36
2311.745, 59356.50
2313.673, 59434.63
2315.602, 59489.12
2317.530, 59542.70
2319.458, 59628.86
2321.387, 59689.32
2323.315, 59671.98
2325.244, 59624.95
2327.172, 59562.07
2329.101, 59523.18
2331.029, 59591.43
2332.958, 59727.36
2334.886, 59823.83
2336.815, 59884.70
2338.743, 59925.59
2340.672, 59948.21
2342.600, 59982.92
2344.529, 60036.84
2346.457, 60071.87
2348.385, 60058.36
2350.314, 60076.44
2352.242, 60165.65
2354.171, 60229.90
2356.099, 60243.13
2358.028, 60247.83
2359.956, 60223.79
2361.885, 60245.38
2363.813, 60396.23
2365.742, 60557.84
2367.670, 60683.13
2369.599, 60735.09
2371.527, 60616.73
2373.456, 60434.35
2375.384, 60361.19
2377.313, 60374.13
2379.241, 60407.93
2381.169, 60464.38
2383.098, 60578.63
2385.026, 60740.06
2386.955, 60783.57
2388.883, 60683.09
2390.812, 60679.41
2392.740, 60843.64
2394.669, 60965.52
2396.597, 61013.25
2398.526, 61050.11
2400.454, 61105.43
2402.383, 61100.02
2404.311, 60963.19
2406.240, 60861.65
2408.168, 60867.06
2410.096, 60920.00
2412.025, 61007.27
2413.953, 61106.70
2415.882, 61244.61
2417.810, 61343.99
2419.739, 61278.57
2421.667, 61165.48
2423.596, 61162.01
2425.524, 61236.89
2427.453, 61365.66
2429.381, 61508.00
2431.310, 61510.66
2433.238, 61407.74
2435.167, 61477.80
2437.095, 61733.46
2439.023, 61770.11
2440.952, 61508.17
2442.880, 61432.00
2444.809, 61585.07
2446.737, 61689.66
2448.666, 61704.97
2450.594, 61738.45
2452.523, 61830.41
2454.451, 61886.43
2456.380, 61848.24
2458.308, 61829.93
2460.237, 61877.11
2462.165, 61919.95
2464.094, 61917.91
2466.022, 61931.82
2467.950, 61993.57
2469.879, 62070.32
2471.807, 62166.00
2473.736, 62239.94
2475.664, 62256.79
2477.593, 62238.41
2479.521, 62174.69
2481.450, 62117.02
2483.378, 62152.60
2485.307, 62233.68
2487.235, 62272.10
2489.164, 62288.01
2491.092, 62329.37
2493.021, 62387.52
2494.949, 62432.97
2496.877, 62466.00
2498.806, 62485.82
2500.734, 62491.82
2502.663, 62508.94
2504.591, 62537.23
2506.520, 62587.94
2508.448, 62665.68
2510.377, 62655.02
2512.305, 62505.08
2514.234, 62461.41
2516.162, 62690.50
2518.091, 62742.25
2520.019, 62476.48
2521.948, 62374.47
2523.876, 62576.97
2525.804, 62689.40
2527.733, 62532.80
2529.661, 62484.09
2531.590, 62785.37
2533.518, 63026.35
2535.447, 63054.50
2537.375, 63033.79
2539.304, 63002.68
2541.232, 62969.40
2543.161, 62928.09
2545.089, 62899.18
2547.018, 62891.53
2548.946, 62904.59
2550.875, 62932.93
2552.803, 62987.81
2554.731, 63111.63
2556.660, 63232.07
2558.588, 63283.12
2560.517, 63286.97
2562.445, 63226.73
2564.374, 63170.04
2566.302, 63203.64
2568.231, 63294.68
2570.159, 63439.85
2572.088, 63574.16
2574.016, 63531.55
2575.945, 63389.64
2577.873, 63334.37
2579.802, 63345.75
2581.730, 63383.24
2583.658, 63438.51
2585.587, 63481.93
2587.515, 63517.51
2589.444, 63572.96
2591.372, 63645.68
2593.301, 63708.14
2595.229, 63758.55
2597.158, 63781.49
2599.086, 63777.16
2601.015, 63742.57
2602.943, 63670.10
2604.872, 63700.39
2606.800, 63864.79
2608.729, 63936.98
2610.657, 63910.45
2612.585, 63879.50
2614.514, 63845.98
2616.442, 63890.90
2618.371, 64051.28
2620.299, 64146.93
2622.228, 64138.13
2624.156, 64140.86
2626.085, 64155.24
2628.013, 64184.13
2629.942, 64226.57
2631.870, 64297.38
2633.799, 64427.08
2635.727, 64490.93
2637.656, 64416.18
2639.584, 64380.48
2641.512, 64423.91
2643.441, 64407.65
2645.369, 64274.31
2647.298, 64227.15
2649.226, 64353.35
2651.155, 64457.47
2653.083, 64449.82
2655.012, 64503.96
2656.940, 64719.56
2658.869, 64826.94
2660.797, 64741.09
2662.726, 64648.28
2664.654, 64571.58
2666.583, 64556.58
2668.511, 64652.67
2670.439, 64751.06
2672.368, 64836.23
2674.296, 64907.52
2676.225, 64971.36
2678.153, 65002.85
2680.082, 64964.37
2682.010, 64951.69
2683.939, 65008.66
2685.867, 65074.72
2687.796, 65144.79
2689.724, 65203.73
2691.653, 65259.14
2693.581, 65277.01
2695.510, 65218.65
2697.438, 65169.88
2699.366, 65138.83
2701.295, 65156.41
2703.223, 65269.14
2705.152, 65370.65
2707.080, 65439.01
2709.009, 65481.36
2710.937, 65495.88
2712.866, 65492.51
2714.794, 65433.99
2716.723, 65425.59
2718.651, 65557.96
2720.580, 65626.98
2722.508, 65527.68
2724.437, 65471.69
2726.365, 65599.93
2728.293, 65678.48
2730.222, 65545.59
2732.150, 65516.54
2734.079, 65747.82
2736.007, 65903.48
2737.936, 65861.04
2739.864, 65811.45
2741.793, 65786.78
2743.721, 65817.67
2745.650, 65996.48
2747.578, 66078.31
2749.507, 65986.41
2751.435, 65881.82
2753.364, 65761.60
2755.292, 65749.21
2757.220, 66002.07
2759.149, 66139.89
2761.077, 66023.52
2763.006, 65980.17
2764.934, 66078.09
2766.863, 66170.07
2768.791, 66213.62
2770.720, 66280.99
2772.648, 66456.15
2774.577, 66506.20
2776.505, 66364.58
2778.434, 66293.58
2780.362, 66335.04
2782.291, 66404.63
2784.219, 66509.28
2786.147, 66573.49
2788.076, 66582.80
2790.004, 66579.45
2791.933, 66560.58
2793.861, 66565.41
2795.790, 66598.73
2797.718, 66646.28
2799.647, 66701.45
2801.575, 66814.12
2803.504, 67002.19
2805.432, 67049.88
2807.361, 66954.34
2809.289, 66874.82
2811.218, 66821.59
2813.146, 66868.33
2815.074, 67016.80
2817.003, 67023.17
2818.931, 66914.95
2820.860, 66939.09
2822.788, 67072.90
2824.717, 67156.34
2826.645, 67196.00
2828.574, 67230.82
2830.502, 67257.25
2832.431, 67231.70
2834.359, 67199.52
2836.288, 67315.30
2838.216, 67488.34
2840.145, 67507.81
2842.073, 67449.16
2844.001, 67434.98
2845.930, 67463.22
2847.858, 67574.04
2849.787, 67680.75
2851.715, 67624.40
2853.644, 67557.86
2855.572, 67702.23
2857.501, 67869.98
2859.429, 67906.44
2861.358, 67866.67
2863.286, 67701.18
2865.215, 67597.31
2867.143, 67740.34
2869.072, 67910.42
2871.000, 68035.65
2872.928, 68077.20
2874.857, 67921.16
2876.785, 67835.10
2878.714, 67993.95
2880.642, 68121.69
2882.571, 68131.42
2884.499, 68142.10
2886.428, 68179.36
2888.356, 68226.61
2890.285, 68307.80
2892.213, 68337.06
2894.142, 68284.47
2896.070, 68283.39
2897.999, 68358.02
2899.927, 68355.39
2901.855, 68221.25
2903.784, 68246.96
2905.712, 68467.89
2907.641, 68575.59
2909.569, 68577.78
2911.498, 68569.90
2913.426, 68559.90
2915.355, 68577.47
2917.283, 68616.23
2919.212, 68642.46
2921.140, 68666.23
2923.069, 68714.66
2924.997, 68782.80
2926.926, 68890.48
2928.854, 68987.16
2930.782, 68971.48
2932.711, 68928.37
2934.639, 68940.30
2936.568, 68983.73
2938.496, 69058.84
2940.425, 69131.17
2942.353, 69189.33
2944.282, 69215.55
2946.210, 69184.81
2948.139, 69156.55
2950.067, 69162.49
2951.996, 69164.48
2953.924, 69081.23
2955.853, 69162.17
2957.781, 69516.80
2959.709, 69723.36
2961.638, 69649.98
2963.566, 69613.11
2965.495, 69648.16
2967.423, 69638.79
2969.352, 69584.49
2971.280, 69644.92
2973.209, 69817.48
2975.137, 69912.38
2977.066, 69932.98
2978.994, 69870.91
2980.923, 69766.11
2982.851, 69730.62
2984.780, 69730.20
2986.708, 69694.11
2988.636, 69666.84
2990.565, 69720.43
2992.493, 69800.97
2994.422, 69846.27
2996.350, 69918.49
2998.279, 70134.96
3000.207, 70274.23
3002.136, 70161.88
3004.064, 70094.63
3005.993, 70210.27
3007.921, 70291.32
3009.850, 70204.54
3011.778, 70247.80
3013.707, 70491.33
3015.635, 70564.09
3017.563, 70407.64
3019.492, 70310.24
3021.420, 70286.32
3023.349, 70324.14
3025.277, 70409.09
3027.206, 70438.26
3029.134, 70436.95
3031.063, 70476.70
3032.991, 70549.68
3034.920, 70691.51
3036.848, 70802.77
3038.777, 70723.22
3040.705, 70620.62
3042.634, 70651.17
3044.562, 70691.43
3046.490, 70646.12
3048.419, 70633.80
3050.347, 70711.86
3052.276, 70799.25
3054.204, 70882.02
3056.133, 70947.18
3058.061, 70985.13
3059.990, 71071.12
3061.918, 71221.56
3063.847, 71296.14
3065.775, 71291.38
3067.704, 71237.44
3069.632, 71156.39
3071.561, 71127.22
3073.489, 71155.65
3075.417, 71308.51
3077.346, 71477.23
3079.274, 71508.55
3081.203, 71465.77
3083.131, 71319.31
3085.060, 71243.34
3086.988, 71409.51
3088.917, 71566.74
3090.845, 71633.85
3092.774, 71689.70
3094.702, 71787.42
3096.631, 71773.75
3098.559, 71592.92
3100.488, 71551.19
3102.416, 71653.86
3104.344, 71683.07
3106.273, 71655.36
3108.201, 71770.40
3110.130, 71955.91
3112.058, 72009.59
3113.987, 71988.33
3115.915, 71930.08
3117.844, 71889.63
3119.772, 71970.27
3121.701, 72008.47
3123.629, 71831.56
3125.558, 71764.13
3127.486, 72046.90
3129.415, 72238.08
3131.343, 72271.32
3133.271, 72245.72
3135.200, 72164.34
3137.128, 72124.22
3139.057, 72127.70
3140.985, 72114.02
3142.914, 72114.96
3144.842, 72276.05
3146.771, 72490.07
3148.699, 72581.60
3150.628, 72608.54
3152.556, 72628.77
3154.485, 72614.45
3156.413, 72486.24
3158.342, 72427.46
3160.270, 72556.35
3162.198, 72632.76
3164.127, 72604.33
3166.055, 72582.88
3167.984, 72572.90
3169.912, 72647.07
3171.841, 72791.63
3173.769, 72911.01
3175.698, 72985.96
3177.626, 72934.83
3179.555, 72844.93
3181.483, 72857.46
3183.412, 72890.93
3185.340, 72868.63
3187.269, 72865.24
3189.197, 72968.50
3191.125, 72991.61
3193.054, 72850.81
3194.982, 72837.13
3196.911, 73085.84
3198.839, 73108.43
3200.768, 72930.37
3202.696, 72991.86
3204.625, 73213.28
3206.553, 73320.98
3208.482, 73362.60
3210.410, 73397.67
3212.339, 73431.20
3214.267, 73461.78
3216.196, 73500.86
3218.124, 73555.58
3220.052, 73629.54
3221.981, 73755.59
3223.909, 73734.68
3225.838, 73463.03
3227.766, 73428.98
3229.695, 73593.15
3231.623, 73554.85
3233.552, 73424.38
3235.480, 73526.98
3237.409, 73691.30
3239.337, 73663.86
3241.266, 73623.98
3243.194, 73683.74
3245.123, 73774.95
3247.051, 73907.02
3248.979, 73970.31
3250.908, 73936.00
3252.836, 73920.66
3254.765, 73933.12
3256.693, 74003.12
3258.622, 74108.99
3260.550, 74195.16
3262.479, 74239.48
3264.407, 74144.81
3266.336, 74076.77
3268.264, 74188.34
3270.193, 74315.45
3272.121, 74429.85
3274.050, 74432.68
3275.978, 74277.73
3277.906, 74257.27
3279.835, 74399.71
3281.763, 74433.64
3283.692, 74386.90
3285.620, 74392.97
3287.549, 74420.32
3289.477, 74386.86
3291.406, 74401.00
3293.334, 74622.98
3295.263, 74798.88
3297.191, 74822.77
3299.120, 74843.73
3301.048, 74915.55
3302.977, 74849.91
3304.905, 74669.18
3306.833, 74705.70
3308.762, 74875.90
3310.690, 74931.95
3312.619, 74956.32
3314.547, 75075.91
3316.476, 75164.48
3318.404, 75092.60
3320.333, 75060.19
3322.261, 75114.60
3324.190, 75216.89
3326.118, 75387.30
3328.047, 75378.23
3329.975, 75237.07
3331.904, 75260.69
3333.832, 75344.23
3335.760, 75283.38
3337.689, 75233.55
3339.617, 75334.45
3341.546, 75454.31
3343.474, 75571.22
3345.403, 75619.80
3347.331, 75590.66
3349.260, 75526.95
3351.188, 75443.05
3353.117, 75449.45
3355.045, 75501.68
3356.974, 75494.52
3358.902, 75475.80
3360.831, 75443.73
3362.759, 75500.78
3364.688, 75740.87
3366.616, 75906.93
3368.544, 75933.52
3370.473, 75939.30
3372.401, 75933.33
3374.330, 76014.62
3376.258, 76104.34
3378.187, 75951.66
3380.115, 75830.70
3382.044, 76121.14
3383.972, 76343.85
3385.901, 76185.41
3387.829, 76154.77
3389.758, 76340.46
3391.686, 76365.00
3393.615, 76247.59
3395.543, 76337.97
3397.471, 76532.98
3399.400, 76676.91
3401.328, 76723.20
3403.257, 76550.66
3405.185, 76416.11
3407.114, 76399.66
3409.042, 76448.39
3410.971, 76566.63
3412.899, 76613.16
3414.828, 76614.92
3416.756, 76774.22
3418.685, 76965.67
3420.613, 77044.29
3422.542, 77027.28
3424.470, 76850.16
3426.398, 76792.39
3428.327, 77000.88
3430.255, 77187.47
3432.184, 77338.38
3434.112, 77325.26
3436.041, 77232.74
3437.969, 77292.63
3439.898, 77351.05
3441.826, 77200.15
3443.755, 77128.27
3445.683, 77373.41
3447.612, 77464.17
3449.540, 77357.43
3451.469, 77293.72
3453.397, 77286.41
3455.325, 77372.44
3457.254, 77470.42
3459.182, 77438.70
3461.111, 77439.16
3463.039, 77629.32
3464.968, 77742.57
3466.896, 77726.74
3468.825, 77727.38
3470.753, 77752.66
3472.682, 77791.65
3474.610, 77833.93
3476.539, 77853.83
3478.467, 77883.58
3480.396, 77958.95
3482.324, 78020.26
3484.252, 78065.11
3486.181, 78018.59
3488.109, 77888.81
3490.038, 77795.47
3491.966, 77776.98
3493.895, 78006.63
3495.823, 78186.58
3497.752, 78044.96
3499.680, 77943.58
3501.609, 78025.96
3503.537, 78145.13
3505.466, 78291.70
3507.394, 78389.80
3509.323, 78459.25
3511.251, 78573.25
3513.179, 78634.73
3515.108, 78532.57
3517.036, 78442.79
3518.965, 78421.68
3520.893, 78340.32
3522.822, 78214.52
3524.750, 78354.66
3526.679, 78619.52
3528.607, 78768.37
3530.536, 78811.15
3532.464, 78657.93
3534.393, 78595.59
3536.321, 78696.29
3538.250, 78738.07
3540.178, 78708.23
3542.106, 78621.84
3544.035, 78566.69
3545.963, 78702.71
3547.892, 78862.43
3549.820, 78968.70
3551.749, 79004.17
3553.677, 78949.73
3555.606, 78959.19
3557.534, 79026.45
3559.463, 79133.92
3561.391, 79205.81
3563.320, 79079.59
3565.248, 79025.59
3567.177, 79187.90
3569.105, 79239.23
3571.033, 79114.45
3572.962, 79042.84
3574.890, 79034.15
3576.819, 79150.59
3578.747, 79256.18
3580.676, 79195.40
3582.604, 79182.13
3584.533, 79312.99
3586.461, 79360.09
3588.390, 79334.73
3590.318, 79444.48
3592.247, 79546.36
3594.175, 79333.97
3596.104, 79181.41
3598.032, 79307.17
3599.960, 79405.97
3601.889, 79425.77
3603.817, 79488.69
3605.746, 79570.12
3607.674, 79588.98
3609.603, 79598.91
3611.531, 79670.20
3613.460, 79682.93
3615.388, 79540.23
3617.317, 79503.39
3619.245, 79565.54
3621.174, 79705.85
3623.102, 79822.23
3625.031, 79720.18
3626.959, 79620.53
3628.887, 79615.20
3630.816, 79660.61
3632.744, 79748.51
3634.673, 79787.08
3636.601, 79802.24
3638.530, 79865.18
3640.458, 79907.98
3642.387, 79852.84
3644.315, 79854.84
3646.244, 79941.95
3648.172, 79965.37
3650.101, 79970.29
3652.029, 80153.38
3653.958, 80351.63
3655.886, 80476.35
3657.814, 80455.63
3659.743, 80213.39
3661.671, 80160.77
3663.600, 80261.38
3665.528, 80231.10
3667.457, 80168.37
3669.385, 80166.53
3671.314, 80209.88
3673.242, 80349.61
3675.171, 80333.50
3677.099, 80184.01
3679.028, 80135.12
3680.956, 80112.43
3682.885, 79933.66
3684.813, 79890.47
3686.741, 80257.36
3688.670, 80453.91
3690.598, 80454.84
3692.527, 80230.73
3694.455, 79975.18
3696.384, 79980.19
3698.312, 80108.60
3700.241, 80409.04
3702.169, 80529.13
3704.098, 80476.01
3706.026, 80604.86
3707.955, 80749.12
3709.883, 80510.82
3711.812, 80337.95
3713.740, 80533.65
3715.668, 80619.39
3717.597, 80577.38
3719.525, 80583.16
3721.454, 80607.97
3723.382, 80622.48
3725.311, 80585.68
3727.239, 80385.64
3729.168, 80418.16
3731.096, 80668.41
3733.025, 80731.41
3734.953, 80716.35
3736.882, 80819.78
3738.810, 80861.50
3740.739, 80696.23
3742.667, 80707.85
3744.595, 80876.37
3746.524, 80857.15
3748.452, 80781.70
3750.381, 80842.98
3752.309, 80878.36
3754.238, 80809.48
3756.166, 80792.44
3758.095, 80823.45
3760.023, 80874.91
3761.952, 80887.66
3763.880, 80722.63
3765.809, 80639.99
3767.737, 80707.77
3769.666, 80985.67
3771.594, 81346.16
3773.522, 81316.06
3775.451, 81165.41
3777.379, 81074.06
3779.308, 81036.64
3781.236, 81066.77
3783.165, 81018.02
3785.093, 80962.04
3787.022, 81108.91
3788.950, 81229.78
3790.879, 81158.47
3792.807, 81174.59
3794.736, 81314.20
3796.664, 81282.20
3798.593, 81201.47
3800.521, 81266.42
3802.449, 81310.30
3804.378, 81257.98
3806.306, 81306.16
3808.235, 81426.16
3810.163, 81304.42
3812.092, 81157.41
3814.020, 81187.83
3815.949, 81282.39
3817.877, 81420.79
3819.806, 81430.01
3821.734, 81376.03
3823.663, 81432.26
3825.591, 81526.73
3827.520, 81653.65
3829.448, 81713.73
3831.376, 81703.09
3833.305, 81624.66
3835.233, 81576.55
3837.162, 81761.28
3839.090, 81859.48
3841.019, 81695.33
3842.947, 81591.30
3844.876, 81575.80
3846.804, 81790.30
3848.733, 81948.38
3850.661, 81816.98
3852.590, 81729.98
3854.518, 81744.97
3856.447, 81785.51
3858.375, 81852.70
3860.303, 81949.34
3862.232, 81901.83
3864.160, 81601.73
3866.089, 81623.63
3868.017, 81863.73
3869.946, 81769.18
3871.874, 81598.55
3873.803, 81502.69
3875.731, 81496.86
3877.660, 81582.04
3879.588, 81518.32
3881.517, 81418.46
3883.445, 81451.39
3885.374, 81475.75
3887.302, 81457.69
3889.230, 81331.05
3891.159, 81163.25
3893.087, 81249.95
3895.016, 81338.56
3896.944, 81217.45
3898.873, 81216.66
3900.801, 81311.87
3902.730, 81163.68
3904.658, 80956.54
3906.587, 80855.29
3908.515, 80887.84
3910.444, 81116.09
3912.372, 81151.73
3914.301, 81062.45
3916.229, 80972.41
3918.157, 80944.36
3920.086, 80977.23
3922.014, 80936.02
3923.943, 80865.44
3925.871, 80784.30
3927.800, 80750.91
3929.728, 80891.45
3931.657, 80865.04
3933.585, 80657.08
3935.514, 80673.29
3937.442, 80746.85
3939.371, 80688.87
3941.299, 80615.66
3943.228, 80614.22
3945.156, 80585.01
3947.084, 80513.34
3949.013, 80626.61
3950.941, 80703.01
3952.870, 80587.53
3954.798, 80493.05
3956.727, 80426.70
3958.655, 80398.80
3960.584, 80425.76
3962.512, 80482.88
3964.441, 80437.24
3966.369, 80252.66
3968.298, 80224.24
3970.226, 80263.66
3972.155, 80168.85
3974.083, 80108.02
3976.011, 80121.98
3977.940, 80146.05
3979.868, 80133.39
3981.797, 80092.20
3983.725, 80108.34
3985.654, 80124.32
3987.582, 80059.70
3989.511, 80069.52
3991.439, 80115.31
3993.368, 80042.77
3995.296, 79912.23
3997.225, 79922.25
3999.153, 79953.30
4001.082, 79909.83
4003.010, 79874.70
4004.938, 79845.34
4006.867, 79870.32
4008.795, 79883.23
4010.724, 79887.57
4012.652, 79913.90
4014.581, 79842.29
4016.509, 79793.19
4018.438, 79795.95
4020.366, 79649.74
4022.295, 79528.00
4024.223, 79609.63
4026.152, 79693.70
4028.080, 79708.27
4030.009, 79702.72
4031.937, 79702.90
4033.865, 79613.10
4035.794, 79522.70
4037.722, 79537.64
4039.651, 79623.59
4041.579, 79601.37
4043.508, 79456.95
4045.436, 79453.78
4047.365, 79501.48
4049.293, 79332.02
4051.222, 79214.32
4053.150, 79316.91
4055.079, 79319.08
4057.007, 79265.34
4058.936, 79332.70
4060.864, 79398.38
4062.792, 79465.49
4064.721, 79386.89
4066.649, 79238.66
4068.578, 79219.46
4070.506, 79260.65
4072.435, 79378.30
4074.363, 79321.13
4076.292, 79128.53
4078.220, 79062.09
4080.149, 79028.96
4082.077, 78960.84
4084.006, 78982.61
4085.934, 79081.55
4087.863, 79008.63
4089.791, 78933.14
4091.719, 79040.13
4093.648, 79112.53
4095.576, 79121.33
4097.505, 79050.99
4099.433, 78978.30
4101.362, 78953.76
4103.290, 78960.03
4105.219, 79025.20
4107.147, 78968.09
4109.076, 78868.37
4111.004, 78918.95
4112.933, 78991.96
4114.861, 79070.01
4116.790, 78984.09
4118.718, 78840.06
4120.646, 78815.88
4122.575, 78801.49
4124.503, 78771.59
4126.432, 78734.43
4128.360, 78690.45
4130.289, 78754.22
4132.217, 78795.23
4134.146, 78772.08
4136.074, 78741.05
4138.002, 78682.43
4139.931, 78815.73
4141.859, 78897.97
4143.788, 78712.30
4145.716, 78580.52
4147.645, 78527.67
4149.573, 78531.13
4151.502, 78503.90
4153.430, 78495.55
4155.359, 78558.67
4157.287, 78585.24
4159.216, 78513.24
4161.144, 78504.44
4163.073, 78527.13
4165.001, 78541.26
4166.930, 78540.58
4168.858, 78514.26
4170.787, 78481.50
4172.715, 78435.82
4174.644, 78461.12
4176.572, 78499.09
4178.500, 78537.38
4180.429, 78524.76
4182.357, 78431.05
4184.286, 78455.49
4186.214, 78551.56
4188.143, 78536.82
4190.071, 78514.34
4192.000, 78503.82
4193.928, 78380.38
4195.856, 78197.82
4197.785, 78242.67
4199.713, 78357.17
4201.642, 78492.42
4203.570, 78523.92
4205.499, 78446.63
4207.427, 78437.91
4209.356, 78450.39
4211.284, 78397.00
4213.213, 78395.43
4215.141, 78412.35
4217.070, 78197.42
4218.998, 78048.45
4220.927, 78108.47
4222.855, 78301.91
4224.784, 78533.38
4226.712, 78349.80
4228.641, 78154.52
4230.569, 78161.37
4232.498, 78262.87
4234.426, 78359.15
4236.354, 78142.80
4238.283, 78077.30
4240.211, 78459.15
4242.140, 78385.55
4244.068, 78135.44
4245.997, 78373.80
4247.925, 78478.22
4249.854, 78214.23
4251.782, 78294.09
4253.710, 78499.39
4255.639, 78540.97
4257.567, 78498.72
4259.496, 78382.42
4261.424, 78322.87
4263.353, 78338.10
4265.281, 78475.80
4267.210, 78667.27
4269.138, 78882.30
4271.067, 78844.09
4272.995, 78720.54
4274.924, 78581.56
4276.852, 78626.31
4278.781, 78824.51
4280.709, 79000.84
4282.638, 79089.25
4284.566, 79011.23
4286.495, 79025.97
4288.423, 79091.00
4290.352, 79028.98
4292.280, 79016.45
4294.208, 79129.23
4296.137, 79234.23
4298.065, 79278.52
4299.994, 79078.94
4301.922, 79111.77
4303.851, 79495.52
4305.779, 79403.34
4307.708, 79202.12
4309.636, 79216.74
4311.564, 79303.41
4313.493, 79429.16
4315.421, 79561.02
4317.350, 79636.27
4319.278, 79599.78
4321.207, 79651.64
4323.135, 79751.36
4325.064, 79732.70
4326.992, 79754.11
4328.921, 79867.78
4330.849, 79905.23
4332.778, 79925.41
4334.706, 80053.95
4336.635, 80092.05
4338.563, 80030.97
4340.492, 80066.37
4342.420, 80132.13
4344.349, 80156.74
4346.277, 80296.10
4348.206, 80493.40
4350.134, 80548.19
4352.063, 80526.89
4353.991, 80450.41
4355.919, 80369.97
4357.848, 80350.52
4359.776, 80563.62
4361.705, 80636.02
4363.633, 80503.77
4365.562, 80543.45
4367.490, 80614.59
4369.418, 80561.04
4371.347, 80659.45
4373.275, 80821.85
4375.204, 80571.72
4377.132, 80479.32
4379.061, 80827.66
4380.989, 80926.99
4382.918, 80885.05
4384.846, 80803.45
4386.775, 80855.65
4388.703, 81041.48
4390.632, 81040.36
4392.560, 81010.09
4394.489, 81045.01
4396.417, 81039.45
4398.346, 81040.98
4400.274, 81212.09
4402.203, 81318.90
4404.131, 81314.25
4406.060, 81478.04
4407.988, 81602.51
4409.917, 81431.49
4411.845, 81351.87
4413.773, 81360.61
4415.702, 81242.02
4417.630, 81312.75
4419.559, 81817.02
4421.487, 81887.70
4423.416, 81767.47
4425.344, 81713.30
4427.272, 81725.96
4429.201, 81803.55
4431.129, 82017.76
4433.058, 82102.29
4434.986, 81912.00
4436.915, 81918.02
4438.843, 82023.86
4440.772, 82049.01
4442.700, 82109.21
4444.629, 82207.99
4446.557, 82238.34
4448.486, 82290.49
4450.414, 82424.88
4452.343, 82587.25
4454.271, 82707.01
4456.200, 82620.49
4458.128, 82611.51
4460.057, 82707.94
4461.985, 82540.98
4463.914, 82410.10
4465.842, 82505.16
4467.771, 82580.99
4469.699, 82628.59
4471.627, 82612.90
4473.556, 82753.74
4475.484, 83020.38
4477.413, 82974.21
4479.341, 82909.84
4481.270, 82996.54
4483.198, 83129.40
4485.126, 83207.82
4487.055, 83001.13
4488.983, 82966.79
4490.912, 83139.22
4492.840, 83212.45
4494.769, 83318.37
4496.697, 83539.34
4498.626, 83565.95
4500.554, 83523.23
4502.483, 83598.63
4504.411, 83512.10
4506.340, 83322.41
4508.268, 83380.94
4510.197, 83476.95
4512.125, 83527.27
4514.054, 83620.44
4515.982, 83749.27
4517.911, 83948.04
4519.839, 84021.82
4521.768, 84008.94
4523.696, 84048.55
4525.625, 84058.28
4527.553, 84028.09
4529.481, 84153.14
4531.410, 84251.97
4533.338, 84198.95
4535.267, 84168.30
4537.195, 84214.34
4539.124, 84505.16
4541.052, 84518.27
4542.980, 84262.49
4544.909, 84238.87
4546.837, 84372.01
4548.766, 84652.48
4550.694, 84602.49
4552.623, 84515.17
4554.551, 84687.22
4556.480, 84744.55
4558.408, 84749.48
4560.337, 84977.16
4562.265, 85114.45
4564.194, 85083.25
4566.122, 84825.64
4568.051, 84655.49
4569.979, 84750.88
4571.908, 85008.73
4573.836, 85226.27
4575.765, 85156.16
4577.693, 85112.82
4579.622, 85139.50
4581.550, 85305.16
4583.479, 85297.75
4585.407, 85071.41
4587.335, 85357.39
4589.264, 85591.71
4591.192, 85416.16
4593.121, 85339.20
4595.049, 85385.02
4596.978, 85632.16
4598.906, 85597.39
4600.834, 85401.38
4602.763, 85470.02
4604.691, 85589.06
4606.620, 85700.00
4608.548, 85783.07
4610.477, 85878.46
4612.405, 86018.56
4614.334, 85833.84
4616.262, 85719.38
4618.191, 86146.78
4620.119, 86256.04
4622.048, 86130.67
4623.976, 86066.04
4625.905, 86035.35
4627.833, 86061.16
4629.762, 86422.72
4631.690, 86608.84
4633.619, 86460.48
4635.547, 86432.01
4637.476, 86466.97
4639.404, 86520.34
4641.333, 86571.80
4643.261, 86620.14
4645.189, 86671.26
4647.118, 86701.25
4649.046, 86706.48
4650.975, 86616.99
4652.903, 86744.63
4654.832, 87038.83
4656.760, 86827.92
4658.688, 86701.25
4660.617, 86957.84
4662.545, 86968.09
4664.474, 86923.05
4666.402, 86956.36
4668.331, 87011.29
4670.259, 87078.63
4672.188, 87167.73
4674.116, 87212.12
4676.045, 87226.21
4677.973, 87285.20
4679.902, 87229.61
4681.830, 87091.22
4683.759, 87289.77
4685.687, 87387.46
4687.616, 87282.96
4689.544, 87385.58
4691.473, 87584.63
4693.401, 87854.96
4695.330, 87920.90
4697.258, 87869.59
4699.187, 87767.20
4701.115, 87629.77
4703.043, 87536.98
4704.972, 87638.23
4706.900, 87671.34
4708.829, 87654.36
4710.757, 87727.00
4712.686, 87782.07
4714.614, 87836.99
4716.542, 88262.02
4718.471, 88303.73
4720.399, 87809.08
4722.328, 88036.27
4724.256, 88352.08
4726.185, 88428.27
4728.113, 88304.56
4730.042, 88137.48
4731.970, 88015.34
4733.899, 88180.88
4735.827, 88436.58
4737.756, 88550.93
4739.684, 88596.77
4741.613, 88576.51
4743.541, 88443.88
4745.470, 88434.17
4747.398, 88516.70
4749.327, 88566.96
4751.255, 88515.05
4753.184, 88392.89
4755.112, 88408.95
4757.041, 88477.80
4758.969, 88560.37
4760.897, 88574.43
4762.826, 88558.52
4764.754, 88526.96
4766.683, 88665.23
4768.611, 88764.38
4770.540, 88716.64
4772.468, 88788.30
4774.396, 88845.96
4776.325, 88737.22
4778.253, 88776.20
4780.182, 88812.38
4782.110, 88666.80
4784.039, 88714.06
4785.967, 88843.31
4787.896, 88854.24
4789.824, 88959.91
4791.753, 89086.08
4793.681, 89046.48
4795.610, 89091.10
4797.538, 89158.66
4799.467, 88971.40
4801.395, 88937.95
4803.324, 89057.66
4805.252, 89110.70
4807.181, 89108.37
4809.109, 89065.88
4811.038, 89008.47
4812.966, 88994.62
4814.895, 89040.16
4816.823, 89158.55
4818.751, 89271.96
4820.680, 89347.45
4822.608, 89325.67
4824.537, 89251.19
4826.465, 89145.24
4828.394, 89201.41
4830.322, 89257.76
4832.250, 89246.23
4834.179, 89310.41
4836.107, 89334.21
4838.036, 89227.01
4839.964, 89222.66
4841.893, 89266.62
4843.821, 89326.04
4845.750, 89316.02
4847.678, 89299.30
4849.607, 89322.56
4851.535, 89399.31
4853.464, 89492.06
4855.392, 89577.41
4857.321, 89508.17
4859.249, 89443.48
4861.178, 89600.58
4863.106, 89446.64
4865.035, 89345.13
4866.963, 89694.68
4868.892, 89676.81
4870.820, 89507.59
4872.749, 89483.81
4874.677, 89449.33
4876.605, 89444.00
4878.534, 89528.66
4880.462, 89633.23
4882.391, 89678.11
4884.319, 89532.95
4886.248, 89616.92
4888.176, 89755.33
4890.104, 89682.13
4892.033, 89738.09
4893.961, 89802.90
4895.890, 89673.57
4897.818, 89765.06
4899.747, 89858.91
4901.675, 89567.13
4903.604, 89559.45
4905.532, 89641.18
4907.461, 89513.84
4909.389, 89538.31
4911.318, 89663.03
4913.246, 89842.50
4915.175, 89775.25
4917.103, 89695.26
4919.032, 89905.58
4920.960, 89907.06
4922.889, 89782.84
4924.817, 89626.20
4926.746, 89738.98
4928.674, 89877.59
4930.603, 89765.84
4932.531, 89834.66
4934.459, 89896.23
4936.388, 89737.03
4938.316, 89835.20
4940.245, 89964.05
4942.173, 89879.05
4944.102, 89782.23
4946.030, 89796.16
4947.958, 90010.03
4949.887, 90005.96
4951.815, 89921.65
4953.744, 89868.44
4955.672, 89785.04
4957.601, 89731.40
4959.529, 89740.13
4961.458, 89786.45
4963.386, 89854.54
4965.315, 89927.82
4967.243, 89776.45
4969.172, 89710.57
4971.100, 89855.99
4973.029, 89778.73
4974.957, 89685.96
4976.886, 89663.97
4978.814, 89826.59
4980.743, 89918.94
4982.671, 89878.59
4984.600, 89800.60
4986.528, 89763.80
4988.457, 89773.41
4990.385, 89832.50
4992.313, 89629.81
4994.242, 89347.53
4996.170, 89762.94
4998.099, 89839.80
5000.027, 89655.21
5001.956, 89697.23
5003.884, 89843.76
5005.813, 89923.59
5007.741, 89598.06
5009.669, 89688.36
5011.598, 89870.79
5013.526, 89657.16
5015.455, 89709.54
5017.383, 89766.90
5019.312, 89565.77
5021.240, 89629.59
5023.169, 89778.96
5025.097, 89881.54
5027.026, 89839.45
5028.954, 89733.24
5030.883, 89613.65
5032.811, 89605.66
5034.740, 89744.94
5036.668, 89967.05
5038.597, 89805.76
5040.525, 89638.73
5042.454, 89594.47
5044.382, 89813.38
5046.311, 89889.77
5048.239, 89790.52
5050.167, 89565.34
5052.096, 89436.16
5054.024, 89387.76
5055.953, 89363.00
5057.881, 89370.30
5059.810, 89427.96
5061.738, 89557.40
5063.667, 89633.61
5065.595, 89673.00
5067.523, 89698.38
5069.452, 89310.38
5071.380, 89117.12
5073.309, 89362.53
5075.237, 89322.48
5077.166, 89325.73
5079.094, 89445.10
5081.023, 89636.78
5082.951, 89660.40
5084.880, 89526.41
5086.808, 89309.57
5088.737, 89311.09
5090.665, 89378.37
5092.594, 89228.18
5094.522, 89396.89
5096.451, 89525.45
5098.379, 89219.80
5100.308, 89135.57
5102.236, 89172.63
5104.165, 89259.23
5106.093, 89147.13
5108.021, 88969.75
5109.950, 88841.34
5111.878, 89147.07
5113.807, 89175.49
5115.735, 88960.80
5117.664, 88954.63
5119.592, 88873.04
5121.521, 88869.48
5123.449, 89220.37
5125.377, 89121.24
5127.306, 88874.90
5129.234, 88755.67
5131.163, 88914.01
5133.091, 89097.76
5135.020, 89176.95
5136.948, 88956.21
5138.877, 88876.70
5140.805, 88948.93
5142.734, 88860.17
5144.662, 88835.39
5146.591, 88868.48
5148.519, 88914.10
5150.448, 88965.97
5152.376, 88940.29
5154.305, 88777.94
5156.233, 88950.02
5158.162, 89035.63
5160.090, 88893.28
5162.019, 88906.15
5163.947, 88927.96
5165.875, 88937.09
5167.804, 89007.55
5169.732, 88987.23
5171.661, 88981.70
5173.589, 89149.47
5175.518, 89351.30
5177.446, 89454.96
5179.375, 89381.74
5181.303, 89199.32
5183.231, 89054.51
5185.160, 89006.06
5187.088, 89094.48
5189.017, 89200.13
5190.945, 89235.99
5192.874, 89041.32
5194.802, 89174.34
5196.731, 89305.18
5198.659, 89041.80
5200.588, 89200.52
5202.516, 89359.91
5204.445, 89367.06
5206.373, 89456.90
5208.302, 89224.27
5210.230, 88866.44
5212.159, 88927.63
5214.087, 89149.27
5216.016, 89341.66
5217.944, 89360.41
5219.873, 89172.31
5221.801, 89131.12
5223.729, 89305.87
5225.658, 89216.41
5227.586, 89128.14
5229.515, 89065.21
5231.443, 88908.16
5233.372, 88995.63
5235.300, 89062.31
5237.229, 88853.15
5239.157, 88853.77
5241.085, 88985.13
5243.014, 89134.93
5244.942, 88946.30
5246.871, 88894.65
5248.799, 88967.88
5250.728, 89033.80
5252.656, 88875.66
5254.585, 88849.55
5256.513, 89172.06
5258.442, 89111.38
5260.370, 88918.65
5262.299, 88744.71
5264.227, 88782.09
5266.156, 88843.34
5268.084, 88825.24
5270.013, 88563.34
5271.941, 88640.76
5273.870, 88714.24
5275.798, 88651.49
5277.727, 88730.46
5279.655, 88773.08
5281.583, 88795.05
5283.512, 88922.75
5285.440, 88844.99
5287.369, 88783.73
5289.297, 88910.56
5291.226, 88650.31
5293.154, 88651.89
5295.083, 88879.72
5297.011, 88692.47
5298.939, 88672.89
5300.868, 88733.22
5302.796, 88720.81
5304.725, 88614.89
5306.653, 88529.86
5308.582, 88508.48
5310.510, 88557.47
5312.439, 88566.23
5314.367, 88492.97
5316.296, 88309.22
5318.224, 88266.13
5320.153, 88308.28
5322.081, 88391.82
5324.010, 88539.75
5325.938, 88435.66
5327.867, 88232.59
5329.795, 88240.97
5331.724, 88163.51
5333.652, 88135.22
5335.581, 88211.48
5337.509, 88304.92
5339.438, 88212.71
5341.366, 88023.72
5343.294, 87907.07
5345.223, 87879.51
5347.151, 88000.30
5349.080, 88247.20
5351.008, 88131.14
5352.937, 88051.90
5354.865, 88022.17
5356.793, 87931.55
5358.722, 87827.59
5360.650, 87746.34
5362.579, 87721.04
5364.507, 87917.69
5366.436, 87942.94
5368.364, 87839.76
5370.293, 87776.29
5372.221, 87719.47
5374.150, 87654.60
5376.078, 87597.00
5378.007, 87669.67
5379.935, 87685.88
5381.864, 87659.26
5383.792, 87636.09
5385.721, 87713.52
5387.649, 87599.20
5389.578, 87327.66
5391.506, 87584.16
5393.435, 87467.61
5395.363, 87203.85
5397.292, 87118.10
5399.220, 87263.40
5401.148, 87271.38
5403.077, 87150.34
5405.005, 87191.13
5406.934, 87407.45
5408.862, 87517.39
5410.791, 87347.10
5412.719, 87212.60
5414.647, 86959.52
5416.576, 86759.05
5418.504, 86937.77
5420.433, 86936.80
5422.361, 86875.18
5424.290, 86831.75
5426.218, 86754.02
5428.147, 86809.79
5430.075, 86873.22
5432.004, 86786.45
5433.932, 86619.55
5435.861, 86732.07
5437.789, 86951.24
5439.718, 86599.95
5441.646, 86469.98
5443.575, 86418.84
5445.503, 86337.29
5447.432, 86531.85
5449.360, 86435.68
5451.289, 86295.06
5453.217, 86642.47
5455.146, 86442.11
5457.074, 86245.53
5459.002, 86219.85
5460.931, 86230.45
5462.859, 86299.05
5464.788, 86287.83
5466.716, 86150.61
5468.645, 86247.03
5470.573, 86079.34
5472.501, 85866.71
5474.430, 85996.17
5476.358, 86181.72
5478.287, 86200.34
5480.215, 86025.23
5482.144, 85719.44
5484.072, 85758.52
5486.001, 85837.99
5487.929, 85765.98
5489.858, 85662.41
5491.786, 85583.33
5493.715, 85493.23
5495.643, 85351.13
5497.572, 85187.77
5499.500, 85248.63
5501.429, 85473.77
5503.357, 85689.40
5505.286, 85454.31
5507.214, 85255.23
5509.143, 85247.64
5511.071, 85162.41
5513.000, 85177.95
5514.928, 85168.52
5516.856, 85053.50
5518.785, 85032.08
5520.713, 84881.48
5522.642, 84803.01
5524.570, 85070.34
5526.499, 85059.85
5528.427, 84903.60
5530.355, 84741.23
5532.284, 84751.39
5534.212, 84665.36
5536.141, 84581.88
5538.069, 84563.86
5539.998, 84667.56
5541.926, 84625.06
5543.855, 84529.97
5545.783, 84437.15
5547.712, 84129.04
5549.640, 84249.72
5551.569, 84497.98
5553.497, 84546.41
5555.426, 84403.72
5557.354, 84166.12
5559.283, 84037.16
5561.211, 84233.12
5563.140, 84019.69
5565.068, 83939.09
5566.997, 83968.78
5568.925, 83807.84
5570.854, 83719.95
5572.782, 83795.50
5574.710, 83935.48
5576.639, 83852.38
5578.567, 83684.21
5580.496, 83528.15
5582.424, 83412.80
5584.353, 83203.71
5586.281, 83544.56
5588.209, 83749.73
5590.138, 83469.91
5592.066, 83135.21
5593.995, 83076.13
5595.923, 83181.45
5597.852, 83299.19
5599.780, 83277.00
5601.709, 83096.27
5603.637, 82927.98
5605.566, 82903.08
5607.494, 82828.11
5609.423, 82990.61
5611.351, 83097.41
5613.280, 82779.59
5615.208, 82880.90
5617.137, 82698.28
5619.065, 82402.87
5620.994, 82390.50
5622.922, 82478.75
5624.851, 82425.59
5626.779, 82248.36
5628.708, 82059.97
5630.636, 82312.72
5632.564, 82313.02
5634.493, 82068.20
5636.421, 81878.52
5638.350, 81514.90
5640.278, 81548.53
5642.207, 81751.02
5644.135, 81372.49
5646.063, 81438.23
5647.992, 81653.81
5649.920, 81720.06
5651.849, 81309.22
5653.777, 81484.95
5655.706, 81416.67
5657.634, 81164.27
5659.563, 81243.77
5661.491, 80992.49
5663.420, 80991.96
5665.348, 81095.57
5667.277, 80787.09
5669.205, 80848.98
5671.134, 81125.74
5673.062, 81267.49
5674.991, 80774.52
5676.919, 80792.79
5678.848, 80843.52
5680.776, 80759.38
5682.705, 80511.32
5684.633, 80543.94
5686.562, 80507.37
5688.490, 80418.68
5690.418, 80412.98
5692.347, 80082.02
5694.275, 80193.52
5696.204, 80397.25
5698.132, 80147.08
5700.061, 79813.44
5701.989, 79834.01
5703.917, 79936.13
5705.846, 79804.18
5707.774, 79636.48
5709.703, 79493.81
5711.631, 79494.22
5713.560, 79674.19
5715.488, 79543.82
5717.417, 79431.80
5719.345, 79424.61
5721.274, 79493.54
5723.202, 79411.80
5725.131, 79183.41
5727.059, 79051.48
5728.988, 79048.21
5730.916, 78811.14
5732.845, 78945.17
5734.773, 79143.17
5736.702, 79152.38
5738.630, 78819.20
5740.559, 78763.95
5742.487, 78771.54
5744.416, 78727.19
5746.344, 78618.63
5748.272, 78428.92
5750.201, 78366.73
5752.129, 78394.91
5754.058, 78397.60
5755.986, 78252.79
5757.915, 78082.72
5759.843, 78053.80
5761.771, 78227.21
5763.700, 78030.54
5765.628, 77870.04
5767.557, 77713.62
5769.485, 77574.05
5771.414, 77746.89
5773.342, 77736.73
5775.271, 77633.45
5777.199, 77513.93
5779.128, 77383.52
5781.056, 77224.59
5782.985, 77215.86
5784.913, 77210.30
5786.842, 76965.25
5788.770, 77097.42
5790.699, 77001.63
5792.627, 76897.12
5794.556, 77042.19
5796.484, 76816.08
5798.413, 76804.56
5800.341, 76672.26
5802.270, 76330.63
5804.198, 76294.65
5806.126, 76438.62
5808.055, 76432.38
5809.983, 76273.43
5811.912, 76160.55
5813.840, 76236.79
5815.769, 76102.89
5817.697, 75860.28
5819.625, 75736.55
5821.554, 75983.98
5823.482, 75637.84
5825.411, 75436.77
5827.339, 75638.50
5829.268, 75415.74
5831.196, 75431.01
5833.125, 75407.98
5835.053, 75303.59
5836.982, 75245.27
5838.910, 75305.88
5840.839, 75211.65
5842.767, 75069.14
5844.696, 75000.45
5846.624, 74917.72
5848.553, 74823.84
5850.481, 74803.98
5852.410, 74822.09
5854.338, 74715.57
5856.267, 74468.20
5858.195, 74425.12
5860.124, 74434.14
5862.052, 74261.28
5863.980, 74249.70
5865.909, 74203.67
5867.837, 74042.79
5869.766, 73867.26
5871.694, 73982.21
5873.623, 73907.68
5875.551, 73860.42
5877.479, 73856.09
5879.408, 73801.28
5881.336, 73473.08
5883.265, 73477.52
5885.193, 73498.91
5887.122, 73311.04
5889.050, 72978.54
5890.979, 73173.92
5892.907, 73171.84
5894.836, 73077.39
5896.764, 73183.90
5898.693, 72903.40
5900.621, 72829.39
5902.550, 72719.38
5904.478, 72488.51
5906.407, 72343.13
5908.335, 72455.33
5910.264, 72466.50
5912.192, 72411.84
5914.121, 72400.55
5916.049, 72282.45
5917.978, 72094.49
5919.906, 71927.02
5921.834, 71862.43
5923.763, 72040.98
5925.691, 71745.25
5927.620, 71599.81
5929.548, 71524.86
5931.477, 71394.23
5933.405, 71334.01
5935.333, 71263.72
5937.262, 71074.95
5939.190, 70936.13
5941.119, 71046.38
5943.047, 70984.41
5944.976, 70764.16
5946.904, 70705.37
5948.833, 70733.61
5950.761, 70457.88
5952.690, 70529.69
5954.618, 70406.63
5956.547, 70248.72
5958.475, 70226.27
5960.404, 70195.38
5962.332, 70154.16
5964.261, 69984.77
5966.189, 69826.34
5968.118, 69803.91
5970.046, 69635.63
5971.975, 69614.05
5973.903, 69426.22
5975.832, 69151.16
5977.760, 69093.60
5979.688, 69093.80
5981.617, 69173.98
5983.545, 69235.94
5985.474, 69197.36
5987.402, 69027.11
5989.331, 68655.98
5991.259, 68587.32
5993.188, 68626.69
5995.116, 68579.59
5997.044, 68506.92
5998.973, 68489.51
6000.901, 68351.29
6002.830, 68181.13
6004.758, 68100.33
6006.687, 68165.78
6008.615, 67955.65
6010.544, 67755.58
6012.472, 67638.07
6014.401, 67562.41
6016.329, 67573.77
6018.258, 67604.33
6020.186, 67399.59
6022.115, 67153.07
6024.043, 67155.30
6025.972, 66884.61
6027.900, 66883.48
6029.829, 66848.10
6031.757, 66759.79
6033.686, 66799.40
6035.614, 66770.31
6037.542, 66560.70
6039.471, 66461.65
6041.399, 66578.41
6043.328, 66851.25
6045.256, 66184.93
6047.185, 66054.48
6049.113, 65979.97
6051.042, 65872.95
6052.970, 66111.21
6054.898, 65911.30
6056.827, 65531.20
6058.755, 65320.52
6060.684, 65302.71
6062.612, 65297.08
6064.541, 65268.51
6066.469, 65127.77
6068.398, 64990.94
6070.326, 64935.77
6072.255, 64981.42
6074.183, 64972.53
6076.112, 64782.18
6078.040, 64590.32
6079.969, 64417.88
6081.897, 64193.19
6083.826, 64015.99
6085.754, 64076.77
6087.683, 64167.61
6089.611, 64057.35
6091.540, 63681.42
6093.468, 63709.21
6095.396, 63515.79
6097.325, 63472.16
6099.253, 63493.20
6101.182, 63368.25
6103.110, 63112.70
6105.039, 63001.01
6106.967, 63110.31
6108.896, 63112.26
6110.824, 62819.69
6112.752, 62378.70
6114.681, 62293.92
6116.609, 62372.55
6118.538, 62354.33
6120.466, 62192.43
6122.395, 62038.46
6124.323, 62105.91
6126.252, 61945.44
6128.180, 61774.27
6130.109, 61675.74
6132.037, 61550.72
6133.966, 61394.17
6135.894, 61452.99
6137.823, 61443.09
6139.751, 61188.08
6141.680, 60765.73
6143.608, 60886.12
6145.537, 60624.13
6147.465, 60580.95
6149.394, 60612.76
6151.322, 60488.57
6153.250, 60215.18
6155.179, 60211.30
6157.107, 60145.62
6159.036, 59937.94
6160.964, 59734.24
6162.893, 59738.95
6164.821, 59868.23
6166.750, 59494.04
6168.678, 59309.55
6170.606, 59295.89
6172.535, 59218.36
6174.463, 59290.38
6176.392, 59204.44
6178.320, 59156.75
6180.249, 59027.39
6182.177, 58774.36
6184.106, 58526.79
6186.034, 58569.40
6187.963, 58717.75
6189.891, 58504.03
6191.820, 58237.56
6193.748, 58237.89
6195.677, 57979.80
6197.605, 57871.04
6199.534, 57689.45
6201.462, 57748.81
6203.391, 57859.68
6205.319, 57475.78
6207.248, 57261.77
6209.176, 57008.37
6211.104, 57024.61
6213.033, 57075.72
6214.961, 56908.32
6216.890, 56694.66
6218.818, 56767.38
6220.747, 56724.63
6222.675, 56539.91
6224.604, 56370.99
6226.532, 56306.89
6228.460, 56026.86
6230.389, 56078.03
6232.317, 56048.59
6234.246, 55832.43
6236.174, 55658.28
6238.103, 55812.51
6240.031, 55405.10
6241.960, 55326.75
6243.888, 55169.56
6245.817, 54922.38
6247.745, 54811.45
6249.674, 54993.98
6251.602, 54938.78
6253.531, 54736.32
6255.459, 54334.73
6257.388, 54200.79
6259.316, 54555.99
6261.245, 54042.71
6263.173, 54185.15
6265.102, 53992.95
6267.030, 53824.55
6268.958, 53899.68
6270.887, 54028.33
6272.815, 53702.42
6274.744, 53564.83
6276.672, 53476.42
6278.601, 53368.77
6280.529, 53180.23
6282.458, 52912.39
6284.386, 53057.91
6286.314, 52893.78
6288.243, 52681.70
6290.171, 52567.55
6292.100, 52536.89
6294.028, 52481.02
6295.957, 52181.99
6297.885, 52245.64
6299.814, 52134.66
6301.742, 52072.23
6303.671, 51961.45
6305.599, 51513.80
6307.528, 51733.46
6309.456, 51582.41
6311.385, 51542.62
6313.313, 51342.15
6315.242, 51058.02
6317.170, 51086.09
6319.099, 51021.35
6321.027, 50885.44
6322.956, 50620.57
6324.884, 50559.38
6326.813, 50603.52
6328.741, 50444.20
6330.669, 50321.54
6332.598, 50137.47
6334.526, 50277.65
6336.455, 50164.33
6338.383, 50031.43
6340.312, 50228.72
6342.240, 49956.47
6344.168, 49718.97
6346.097, 49524.54
6348.025, 49507.51
6349.954, 49481.50
6351.882, 49318.25
6353.811, 49195.30
6355.739, 49241.65
6357.668, 48833.77
6359.596, 48741.02
6361.525, 48883.18
6363.453, 48813.38
6365.382, 48394.16
6367.310, 48503.27
6369.239, 48355.52
6371.167, 48146.11
6373.096, 48026.18
6375.024, 48004.14
6376.953, 47992.97
6378.881, 47821.69
6380.810, 47483.21
6382.738, 47359.05
6384.667, 47444.89
6386.595, 47477.28
6388.523, 47380.88
6390.452, 47329.93
6392.380, 47040.79
6394.309, 46875.69
6396.237, 46719.49
6398.166, 46772.16
6400.094, 46779.38
6402.022, 46486.13
6403.951, 46331.20
6405.879, 46250.22
6407.808, 46187.30
6409.736, 46032.14
6411.665, 46100.74
6413.593, 46154.80
6415.522, 45664.00
6417.450, 45687.57
6419.379, 45536.62
6421.307, 45602.91
6423.236, 45540.13
6425.164, 45305.05
6427.093, 45109.61
6429.021, 45119.49
6430.950, 45083.96
6432.878, 44856.96
6434.807, 44827.17
6436.735, 44739.11
6438.664, 44662.29
6440.592, 44693.37
6442.521, 44466.43
6444.449, 44290.79
6446.377, 44326.67
6448.306, 44061.29
6450.234, 44006.67
6452.163, 44045.30
6454.091, 43762.72
6456.020, 43608.82
6457.948, 43619.19
6459.876, 43471.95
6461.805, 43459.64
6463.733, 43481.97
6465.662, 43374.38
6467.590, 43167.84
6469.519, 43155.12
6471.447, 43182.80
6473.376, 42802.21
6475.304, 42602.93
6477.233, 42543.76
6479.161, 42571.01
6481.090, 42607.56
6483.018, 42312.33
6484.947, 42194.57
6486.875, 41949.91
6488.804, 41944.04
6490.732, 42011.44
6492.661, 41928.06
6494.589, 41691.90
6496.518, 41501.56
6498.446, 41538.63
6500.375, 41673.09
6502.303, 41423.49
6504.231, 41265.22
6506.160, 41250.72
6508.088, 41123.91
6510.017, 40850.48
6511.945, 41023.00
6513.874, 40744.36
6515.802, 40582.29
6517.730, 40747.86
6519.659, 40780.64
6521.587, 40614.10
6523.516, 40573.87
6525.444, 40618.61
6527.373, 40218.21
6529.301, 40087.95
6531.230, 40016.24
6533.158, 40036.13
6535.087, 39968.17
6537.015, 39776.59
6538.944, 39732.47
6540.872, 39578.50
6542.801, 39528.80
6544.729, 39313.07
6546.658, 39419.45
6548.586, 39314.48
6550.515, 39074.90
6552.443, 39123.13
6554.372, 39045.52
6556.300, 39095.96
6558.229, 38864.55
6560.157, 38627.20
6562.085, 38571.29
6564.014, 38589.01
6565.942, 38521.88
6567.871, 38343.84
6569.799, 38172.16
6571.728, 38019.68
6573.656, 38199.89
6575.584, 37933.99
6577.513, 37874.98
6579.441, 37826.79
6581.370, 37645.84
6583.298, 37647.16
6585.227, 37478.33
6587.155, 37387.94
6589.084, 37289.61
6591.012, 37284.36
6592.941, 37120.80
##END=



