##NAMES=Wodginite
##RRUFFID=R130047
##IDEAL CHEMISTRY=Mn^2+^Sn^4+^Ta_2_O_8_
##LOCALITY=Tanco mine (Bernic Lake mine), Bernic Lake, Lac-du-Bonnet area, Manitoba, Canada
##OWNER=RRUFF
##SOURCE=Royal Ontario Museum
##DESCRIPTION=Black blocky crystals in white microcline
##STATUS=The identification of this mineral has been confirmed only by single crystal X-ray diffraction
##URL=https://www.rruff.net/odr/rruff_sample/R130047
##DIFFRACTION SAMPLE DESCRIPTION=Single crystal, powder profile is calculated
##CELL PARAMETERS=a: 9.511 b: 11.475 c: 5.119 alpha: 90 beta: 91.04 gamma: 90 volume: 558.6 crystal system: monoclinic
##FILETYPE=Raman Processed
##RAMAN WAVELENGTH=532

196.2519, 331.7569
198.1804, 346.9636
200.1089, 357.1531
202.0373, 368.8259
203.9658, 381.3771
205.8943, 396.2837
207.8227, 414.7904
209.7512, 439.2087
211.6797, 461.2046
213.6081, 478.7062
215.5366, 493.4882
217.4651, 509.0587
219.3935, 523.9833
221.3220, 540.8220
223.2505, 562.1002
225.1789, 588.7810
227.1074, 614.1711
229.0359, 639.8728
230.9643, 664.8496
232.8928, 679.6292
234.8213, 681.6463
236.7497, 677.3793
238.6782, 669.1849
240.6067, 656.0462
242.5351, 643.3061
244.4636, 631.1992
246.3921, 619.9615
248.3205, 611.1444
250.2490, 605.5643
252.1775, 601.4677
254.1059, 597.6331
256.0344, 593.5118
257.9629, 591.1008
259.8913, 590.6968
261.8198, 592.4083
263.7483, 595.5690
265.6767, 601.6896
267.6052, 608.0400
269.5337, 613.1277
271.4621, 615.9648
273.3906, 618.8918
275.3191, 621.0350
277.2475, 623.3248
279.1760, 627.9719
281.1045, 637.8399
283.0329, 647.7800
284.9614, 655.4636
286.8899, 661.4679
288.8183, 663.5864
290.7468, 658.3683
292.6753, 648.9479
294.6037, 641.7721
296.5322, 635.0169
298.4607, 632.6700
300.3891, 637.0966
302.3176, 648.7670
304.2461, 664.8800
306.1745, 691.6647
308.1030, 722.7784
310.0315, 744.4740
311.9599, 759.1987
313.8884, 762.7664
315.8169, 748.5001
317.7453, 716.3629
319.6738, 683.6072
321.6023, 649.9811
323.5307, 618.0984
325.4592, 592.9551
327.3877, 575.9518
329.3161, 563.5385
331.2446, 555.8691
333.1731, 552.3298
335.1015, 551.8619
337.0300, 554.8420
338.9585, 560.4982
340.8869, 568.7302
342.8154, 580.6097
344.7439, 593.2413
346.6723, 607.2286
348.6008, 622.3314
350.5292, 634.3572
352.4577, 644.0567
354.3862, 650.2450
356.3146, 650.4262
358.2431, 643.3140
360.1716, 635.7635
362.1000, 627.8914
364.0285, 620.1948
365.9570, 616.8783
367.8854, 617.5266
369.8139, 622.2558
371.7424, 632.3484
373.6708, 647.4667
375.5993, 664.9393
377.5278, 685.2651
379.4562, 707.3904
381.3847, 729.6512
383.3132, 750.5810
385.2416, 773.2755
387.1701, 798.8759
389.0986, 827.1747
391.0270, 858.1007
392.9555, 891.9784
394.8840, 928.3832
396.8124, 967.5099
398.7409, 1010.562
400.6694, 1053.799
402.5978, 1099.606
404.5263, 1145.830
406.4548, 1182.945
408.3832, 1212.081
410.3117, 1230.484
412.2402, 1233.487
414.1686, 1219.434
416.0971, 1201.563
418.0256, 1177.857
419.9540, 1152.328
421.8825, 1131.245
423.8110, 1122.053
425.7394, 1109.921
427.6679, 1091.831
429.5964, 1067.770
431.5248, 1038.379
433.4533, 998.2496
435.3818, 956.2548
437.3102, 918.4369
439.2387, 885.0684
441.1672, 856.3858
443.0956, 833.7291
445.0241, 816.1246
446.9526, 800.7886
448.8810, 788.0129
450.8095, 777.2863
452.7380, 768.4206
454.6664, 761.7825
456.5949, 756.0389
458.5234, 751.4633
460.4518, 747.6556
462.3803, 744.2207
464.3088, 741.3455
466.2372, 738.6102
468.1657, 736.1324
470.0942, 733.8312
472.0226, 731.2377
473.9511, 729.0137
475.8796, 725.8900
477.8080, 720.9398
479.7365, 713.6979
481.6650, 707.6692
483.5934, 703.4326
485.5219, 700.3057
487.4504, 697.5576
489.3788, 695.0267
491.3073, 693.0792
493.2358, 692.1392
495.1642, 691.9057
497.0927, 691.1074
499.0212, 689.2377
500.9496, 687.1553
502.8781, 685.1825
504.8066, 683.3070
506.7350, 681.3463
508.6635, 679.1059
510.5920, 676.8923
512.5204, 674.9700
514.4489, 672.9233
516.3774, 671.7595
518.3058, 672.0334
520.2343, 673.2637
522.1628, 674.1517
524.0912, 673.7213
526.0197, 674.3255
527.9482, 676.8504
529.8766, 681.6400
531.8051, 687.3087
533.7336, 693.1495
535.6620, 700.3998
537.5905, 709.5803
539.5190, 720.3524
541.4474, 733.9365
543.3759, 750.7988
545.3044, 770.2415
547.2328, 791.2394
549.1613, 813.2864
551.0898, 837.0750
553.0182, 863.1582
554.9467, 891.1854
556.8752, 920.7540
558.8036, 952.4027
560.7321, 985.3410
562.6606, 1019.749
564.5891, 1056.025
566.5175, 1092.691
568.4460, 1129.688
570.3745, 1167.238
572.3029, 1205.445
574.2314, 1244.959
576.1599, 1283.690
578.0883, 1322.047
580.0168, 1359.194
581.9453, 1393.014
583.8737, 1424.067
585.8022, 1451.102
587.7307, 1474.275
589.6591, 1493.824
591.5876, 1506.906
593.5161, 1511.035
595.4445, 1511.263
597.3729, 1509.337
599.3014, 1505.271
601.2299, 1500.191
603.1583, 1491.927
605.0868, 1484.117
607.0153, 1479.390
608.9437, 1476.404
610.8722, 1479.653
612.8007, 1490.533
614.7291, 1507.833
616.6576, 1528.500
618.5861, 1552.204
620.5145, 1579.583
622.4430, 1611.473
624.3715, 1647.337
626.2999, 1684.096
628.2284, 1723.200
630.1569, 1761.307
632.0853, 1798.311
634.0138, 1833.635
635.9423, 1862.866
637.8707, 1885.193
639.7992, 1900.563
641.7277, 1909.342
643.6561, 1910.553
645.5846, 1906.931
647.5131, 1897.953
649.4415, 1885.471
651.3700, 1871.844
653.2985, 1857.845
655.2269, 1841.514
657.1554, 1821.576
659.0839, 1799.131
661.0123, 1776.060
662.9408, 1754.650
664.8693, 1729.430
666.7977, 1698.901
668.7262, 1663.067
670.6547, 1623.443
672.5831, 1578.113
674.5116, 1531.297
676.4401, 1484.095
678.3685, 1436.401
680.2970, 1390.311
682.2255, 1345.889
684.1539, 1302.670
686.0824, 1260.274
688.0109, 1218.526
689.9393, 1178.785
691.8678, 1141.632
693.7963, 1106.625
695.7247, 1073.722
697.6532, 1043.534
699.5817, 1015.029
701.5101, 987.9936
703.4386, 962.9901
705.3671, 940.3536
707.2955, 919.9470
709.2240, 901.9949
711.1525, 886.2740
713.0809, 872.9968
715.0094, 862.8018
716.9379, 855.5306
718.8663, 851.7062
720.7948, 851.9341
722.7233, 855.9057
724.6517, 862.0859
726.5802, 870.6107
728.5087, 881.1667
730.4371, 894.4842
732.3656, 909.8909
734.2941, 924.0441
736.2225, 937.6149
738.1510, 949.3087
740.0795, 958.6464
742.0079, 965.6863
743.9364, 970.9765
745.8649, 974.5593
747.7933, 976.3184
749.7218, 975.8531
751.6503, 972.8943
753.5787, 970.8959
755.5072, 970.4664
757.4357, 970.2139
759.3641, 969.3005
761.2926, 967.6920
763.2211, 966.1620
765.1495, 964.4452
767.0780, 963.1099
769.0065, 962.6957
770.9349, 963.7823
772.8634, 963.9602
774.7919, 962.5245
776.7203, 961.0614
778.6488, 960.9607
780.5773, 962.3339
782.5057, 963.4088
784.4342, 963.2830
786.3627, 963.0770
788.2911, 963.4492
790.2196, 964.2757
792.1481, 965.4985
794.0765, 967.5165
796.0050, 969.4572
797.9335, 970.1361
799.8619, 969.2701
801.7904, 969.9260
803.7189, 973.2282
805.6473, 978.3318
807.5758, 984.3485
809.5043, 990.8250
811.4327, 999.7393
813.3612, 1011.555
815.2897, 1025.295
817.2181, 1040.009
819.1466, 1055.356
821.0751, 1072.391
823.0035, 1092.421
824.9320, 1113.659
826.8605, 1134.451
828.7889, 1154.570
830.7174, 1175.473
832.6459, 1199.368
834.5743, 1223.160
836.5028, 1243.017
838.4313, 1258.065
840.3597, 1272.200
842.2882, 1287.407
844.2167, 1300.512
846.1451, 1308.600
848.0736, 1310.235
850.0021, 1311.513
851.9305, 1311.689
853.8590, 1313.050
855.7875, 1317.899
857.7159, 1326.925
859.6444, 1338.378
861.5729, 1355.024
863.5013, 1372.503
865.4298, 1390.361
867.3583, 1411.092
869.2867, 1416.486
871.2152, 1405.602
873.1437, 1376.318
875.0721, 1324.781
877.0006, 1243.224
878.9291, 1154.486
880.8575, 1049.699
882.7860, 944.0636
884.7145, 847.0367
886.6429, 757.9886
888.5714, 679.9933
890.4999, 616.2654
892.4283, 562.3104
894.3568, 516.1536
896.2853, 478.6370
898.2137, 446.4614
900.1422, 420.4944
902.0707, 398.5435
903.9991, 380.3676
905.9276, 365.7708
907.8561, 352.2697
909.7845, 339.1689
911.7130, 327.9404
913.6415, 319.2790
915.5699, 313.2662
917.4984, 308.1086
919.4269, 304.7851
921.3553, 301.2335
923.2838, 296.2107
925.2123, 290.0181
927.1407, 285.1971
929.0692, 282.4037
930.9976, 279.9406
932.9261, 277.2249
934.8546, 274.3278
936.7830, 271.4396
938.7115, 268.5944
940.6400, 265.7888
942.5684, 262.9456
944.4969, 260.1823
946.4254, 257.7694
948.3538, 255.7098
950.2823, 253.9658
952.2108, 252.8330
954.1392, 251.8826
956.0677, 250.4769
957.9962, 248.3954
959.9246, 246.5996
961.8531, 245.3866
963.7816, 244.4938
965.7100, 243.7287
967.6385, 243.2874
969.5670, 242.5237
971.4954, 241.0293
973.4239, 239.4931
975.3524, 238.6302
977.2808, 238.4052
979.2093, 237.7627
981.1378, 236.2430
983.0662, 234.6501
984.9947, 233.4487
986.9232, 232.6796
988.8516, 231.8389
990.7801, 230.7915
992.7086, 229.8521
994.6370, 229.1344
996.5655, 228.6042
998.4940, 228.0954
1000.422, 227.4692
1002.351, 226.9970
1004.279, 227.0151
1006.208, 227.1196
1008.136, 226.6288
1010.065, 225.2536
1011.993, 223.9924
1013.922, 223.2109
1015.850, 222.6189
1017.779, 221.8904
1019.707, 220.9106
1021.636, 220.1749
1023.564, 219.9778
1025.493, 219.8347
1027.421, 219.2131
1029.349, 218.1637
1031.278, 217.5588
1033.206, 217.5734
1035.135, 217.9415
1037.063, 218.7332
1038.992, 219.8718
1040.920, 220.4351
1042.849, 219.8568
1044.777, 219.3591
1046.706, 219.2452
1048.634, 219.3879
1050.563, 219.4825
1052.491, 219.4942
1054.420, 219.5770
1056.348, 219.7711
1058.276, 220.0627
1060.205, 220.5480
1062.133, 221.3339
1064.062, 221.6700
1065.990, 220.9575
1067.919, 220.2193
1069.847, 220.0430
1071.776, 220.4727
1073.704, 220.7524
1075.633, 220.6884
1077.561, 220.6533
1079.490, 220.8473
1081.418, 221.1136
1083.347, 221.0822
1085.275, 220.6167
1087.203, 220.2259
1089.132, 220.3023
1091.060, 220.4695
1092.989, 220.2683
1094.917, 219.4950
1096.846, 219.0964
1098.774, 219.4861
1100.703, 219.9196
1102.631, 219.8864
1104.560, 219.3327
1106.488, 218.8139
1108.417, 218.2206
1110.345, 217.7098
1112.273, 217.4051
1114.202, 217.2124
1116.130, 216.9935
1118.059, 216.8294
1119.987, 216.5127
1121.916, 216.0455
1123.844, 215.4436
1125.773, 214.6500
1127.701, 213.4765
1129.630, 212.7273
1131.558, 212.5633
1133.487, 212.5881
1135.415, 212.6468
1137.344, 212.7155
1139.272, 212.6721
1141.200, 212.1672
1143.129, 212.1744
1145.057, 213.7708
1146.986, 215.7121
1148.914, 216.3362
1150.843, 215.3714
1152.771, 214.2117
1154.700, 212.5809
1156.628, 211.3072
1158.557, 211.2007
1160.485, 212.3679
1162.414, 212.5664
1164.342, 210.7514
1166.271, 209.3900
1168.199, 209.5626
1170.127, 210.5389
1172.056, 210.8182
1173.984, 210.2061
1175.913, 209.9015
1177.841, 210.5702
1179.770, 211.2932
1181.698, 211.3974
1183.627, 210.8865
1185.555, 210.3260
1187.484, 209.4400
1189.412, 208.8872
1191.341, 208.9961
1193.269, 209.5304
1195.198, 209.9882
1197.126, 210.5378
1199.054, 210.7169
1200.983, 210.1630
1202.911, 209.5283
1204.840, 209.3803
1206.768, 209.6718
1208.697, 209.9216
1210.625, 210.2410
1212.554, 210.2695
1214.482, 209.6165
1216.411, 208.6360
1218.339, 207.9221
1220.268, 207.5539
1222.196, 207.1689
1224.125, 206.6107
1226.053, 206.1197
1227.981, 205.8931
1229.910, 205.9396
1231.838, 205.8900
1233.767, 205.5611
1235.695, 205.3967
1237.624, 205.6895
1239.552, 206.1012
1241.481, 206.0889
1243.409, 205.6083
1245.338, 205.1949
1247.266, 204.9198
1249.195, 204.7411
1251.123, 204.7281
1253.052, 204.8057
1254.980, 204.6494
1256.908, 203.9585
1258.837, 203.7316
1260.765, 204.8144
1262.694, 205.9607
1264.622, 205.9586
1266.551, 204.5332
1268.479, 203.4709
1270.408, 202.8659
1272.336, 202.4884
1274.265, 202.4666
1276.193, 202.6103
1278.122, 202.4644
1280.050, 201.9278
1281.979, 201.6789
1283.907, 201.9917
1285.835, 202.4337
1287.764, 202.8479
1289.692, 203.1555
1291.621, 203.0600
1293.549, 202.3166
1295.478, 201.7104
1297.406, 201.6184
1299.335, 201.6550
1301.263, 201.4780
1303.192, 201.0424
1305.120, 200.8164
1307.049, 201.0332
1308.977, 201.2126
1310.906, 201.1989
1312.834, 201.1023
1314.762, 201.1137
1316.691, 201.3038
1318.619, 201.3731
1320.548, 201.5331
1322.476, 201.3252
1324.405, 200.1180
1326.333, 198.4175
1328.262, 197.5112
1330.190, 197.5513
1332.119, 197.8108
1334.047, 198.4949
1335.976, 198.9680
1337.904, 198.5996
1339.833, 197.6027
1341.761, 197.2492
1343.689, 197.9434
1345.618, 198.5085
1347.546, 198.6751
1349.475, 198.5760
1351.403, 198.2687
1353.332, 197.7289
1355.260, 197.3100
1357.189, 197.0979
1359.117, 196.9385
1361.046, 196.8345
1362.974, 196.7493
1364.903, 196.6058
1366.831, 196.3561
1368.760, 196.1487
1370.688, 195.9837
1372.616, 195.7986
1374.545, 195.5503
1376.473, 195.2891
1378.402, 195.1867
1380.330, 195.3059
1382.259, 195.0817
1384.187, 194.1777
1386.116, 193.3414
1388.044, 192.8789
1389.973, 192.7399
1391.901, 192.9050
1393.830, 193.4434
1395.758, 193.8559
1397.687, 194.0437
1399.615, 194.0679
1401.543, 193.9118
1403.472, 193.6137
1405.400, 193.2735
1407.329, 192.7963
1409.257, 192.5049
1411.186, 192.6608
1413.114, 192.7607
1415.043, 192.4148
1416.971, 191.8093
1418.900, 191.5876
1420.828, 191.9538
1422.757, 192.1411
1424.685, 191.7941
1426.614, 191.5138
1428.542, 191.6402
1430.470, 192.1114
1432.399, 192.8293
1434.327, 193.9888
1436.256, 194.5374
1438.184, 193.5710
1440.113, 192.7113
1442.041, 193.3159
1443.970, 194.6662
1445.898, 194.9327
1447.827, 193.6776
1449.755, 193.1050
1451.684, 194.3801
1453.612, 195.6245
1455.541, 195.9156
1457.469, 195.4614
1459.397, 194.7762
1461.326, 193.7361
1463.254, 192.9958
1465.183, 192.6266
1467.111, 192.6145
1469.040, 193.1484
1470.968, 193.9927
1472.897, 194.5781
1474.825, 194.7759
1476.754, 194.9480
1478.682, 194.9484
1480.611, 195.0865
1482.539, 195.6803
1484.468, 196.4367
1486.396, 196.7145
1488.324, 196.2475
1490.253, 196.2717
1492.181, 197.3895
1494.110, 198.2346
1496.038, 198.1522
1497.967, 197.5958
1499.895, 197.2365
1501.824, 197.0847
1503.752, 196.7279
1505.681, 195.9586
1507.609, 195.4039
1509.538, 195.4730
1511.466, 195.7908
1513.395, 196.0574
1515.323, 196.2578
1517.251, 196.1815
1519.180, 195.5885
1521.108, 195.2426
1523.037, 195.4274
1524.965, 195.8343
1526.894, 196.4295
1528.822, 197.0466
1530.751, 197.0024
1532.679, 196.1147
1534.608, 195.2080
1536.536, 194.5079
1538.465, 193.9126
1540.393, 193.2563
1542.322, 192.7377
1544.250, 192.8988
1546.178, 193.9167
1548.107, 194.8423
1550.035, 195.6919
1551.964, 196.1345
1553.892, 195.6521
1555.821, 194.8261
1557.749, 194.5240
1559.678, 194.8584
1561.606, 195.0806
1563.535, 195.2089
1565.463, 195.2765
1567.392, 195.3661
1569.320, 195.3737
1571.249, 194.9329
1573.177, 194.1667
1575.105, 194.3291
1577.034, 196.9772
1578.962, 198.1276
1580.891, 196.4954
1582.819, 194.6696
1584.748, 194.0304
1586.676, 194.2059
1588.605, 194.4058
1590.533, 194.6866
1592.462, 194.8882
1594.390, 194.9861
1596.319, 195.0054
1598.247, 194.6590
1600.176, 194.3767
1602.104, 194.6821
1604.032, 195.5223
1605.961, 196.2347
1607.889, 196.6077
1609.818, 197.3328
1611.746, 199.6086
1613.675, 201.1986
1615.603, 200.2936
1617.532, 197.9135
1619.460, 196.2014
1621.389, 195.1824
1623.317, 194.6069
1625.246, 194.6331
1627.174, 194.7889
1629.103, 194.9392
1631.031, 195.0865
1632.959, 195.2572
1634.888, 195.4211
1636.816, 195.4651
1638.745, 195.3640
1640.673, 195.2296
1642.602, 195.1645
1644.530, 195.0090
1646.459, 194.6335
1648.387, 194.1580
1650.316, 193.7513
1652.244, 193.4107
1654.173, 193.0481
1656.101, 192.6027
1658.030, 192.2104
1659.958, 191.8038
1661.886, 191.5349
1663.815, 191.6514
1665.743, 191.9702
1667.672, 192.1148
1669.600, 192.1077
1671.529, 191.7890
1673.457, 190.9546
1675.386, 190.1890
1677.314, 189.7509
1679.243, 189.4900
1681.171, 189.3267
1683.100, 189.1943
1685.028, 188.8444
1686.957, 188.2019
1688.885, 187.5422
1690.813, 186.7467
1692.742, 186.1975
1694.670, 186.4042
1696.599, 186.7686
1698.527, 186.5253
1700.456, 185.7686
1702.384, 185.1798
1704.313, 184.8927
1706.241, 184.4828
1708.170, 183.8890
1710.098, 183.1123
1712.027, 182.0294
1713.955, 180.8571
1715.884, 179.8926
1717.812, 179.1271
1719.740, 178.3661
1721.669, 177.4951
1723.597, 176.8917
1725.526, 176.6736
1727.454, 176.6839
1729.383, 177.2257
1731.311, 177.7130
1733.240, 177.0239
1735.168, 175.2444
1737.097, 174.0165
1739.025, 173.6872
1740.954, 173.4027
1742.882, 173.1924
1744.811, 172.6588
1746.739, 171.1184
1748.667, 169.3074
1750.596, 168.4986
1752.524, 168.6279
1754.453, 168.4354
1756.381, 167.7186
1758.310, 166.9680
1760.238, 166.1256
1762.167, 165.5075
1764.095, 165.4856
1766.024, 165.6894
1767.952, 165.5563
1769.880, 165.0981
1771.809, 164.5688
1773.737, 163.9556
1775.666, 163.3529
1777.594, 162.7503
1779.523, 162.2365
1781.451, 161.8588
1783.380, 161.6204
1785.308, 161.5513
1787.237, 161.6355
1789.165, 161.7403
1791.094, 161.8983
1793.022, 161.9421
1794.951, 161.6681
1796.879, 161.4950
1798.807, 161.6437
1800.736, 161.9360
1802.664, 162.3374
1804.593, 162.7544
1806.521, 162.6053
1808.450, 161.6800
1810.378, 160.9627
1812.307, 160.5637
1814.235, 160.2749
1816.164, 160.1790
1818.092, 160.0213
1820.021, 159.4174
1821.949, 158.6390
1823.878, 158.4944
1825.806, 159.2049
1827.734, 159.4268
1829.663, 158.9910
1831.591, 158.3940
1833.520, 157.1384
1835.448, 156.3846
1837.377, 157.1649
1839.305, 158.5343
1841.234, 159.1764
1843.162, 159.0990
1845.091, 158.8451
1847.019, 158.1111
1848.948, 157.9297
1850.876, 158.7827
1852.805, 159.6848
1854.733, 160.8263
1856.661, 161.5193
1858.590, 160.8886
1860.518, 159.4412
1862.447, 158.5423
1864.375, 158.2099
1866.304, 158.1145
1868.232, 158.2796
1870.161, 158.5478
1872.089, 159.0770
1874.018, 159.4272
1875.946, 159.1490
1877.875, 158.7546
1879.803, 159.0217
1881.732, 159.6570
1883.660, 159.3083
1885.589, 157.7749
1887.517, 157.2830
1889.445, 158.7150
1891.374, 159.8239
1893.302, 159.5934
1895.231, 159.0989
1897.159, 158.8954
1899.088, 158.9323
1901.016, 159.2489
1902.945, 159.7835
1904.873, 160.0766
1906.802, 160.1373
1908.730, 159.8775
1910.659, 158.7360
1912.587, 158.0421
1914.516, 158.5877
1916.444, 159.2498
1918.372, 159.0051
1920.301, 158.4414
1922.229, 158.8625
1924.158, 160.2631
1926.086, 160.6051
1928.015, 158.9180
1929.943, 158.0577
1931.872, 158.7097
1933.800, 159.2529
1935.729, 159.2928
1937.657, 159.0728
1939.586, 158.5096
1941.514, 157.9460
1943.443, 158.0870
1945.371, 158.8918
1947.299, 159.5271
1949.228, 160.0253
1951.156, 160.0698
1953.085, 159.3774
1955.013, 158.7173
1956.942, 158.2166
1958.870, 157.9976
1960.799, 158.3051
1962.727, 158.8485
1964.656, 159.2712
1966.584, 159.5878
1968.513, 159.9193
1970.441, 160.2969
1972.370, 160.2777
1974.298, 159.4469
1976.226, 158.9276
1978.155, 159.3654
1980.083, 159.7524
1982.012, 159.3744
1983.940, 158.8532
1985.869, 158.9744
1987.797, 159.5447
1989.726, 159.9149
1991.654, 160.1183
1993.583, 159.8402
1995.511, 158.3762
1997.440, 157.7728
1999.368, 159.0513
2001.297, 160.0796
2003.225, 159.9959
2005.153, 159.6764
2007.082, 159.8394
2009.010, 160.1690
2010.939, 159.9389
2012.867, 159.3270
2014.796, 159.5905
2016.724, 160.9420
2018.653, 161.0770
2020.581, 158.9594
2022.510, 157.5562
2024.438, 158.2100
2026.367, 159.1640
2028.295, 159.8955
2030.224, 160.1902
2032.152, 159.4627
2034.080, 158.2548
2036.009, 157.9639
2037.937, 158.6253
2039.866, 158.9897
2041.794, 158.8826
2043.723, 158.8346
2045.651, 158.7133
2047.580, 158.8525
2049.508, 159.6691
2051.437, 160.3240
2053.365, 160.3649
2055.294, 160.0577
2057.222, 159.4538
2059.151, 158.7739
2061.079, 158.7171
2063.008, 159.2161
2064.936, 159.4129
2066.865, 159.2055
2068.793, 159.1490
2070.721, 159.4716
2072.650, 159.6414
2074.578, 159.2769
2076.507, 158.9660
2078.435, 158.9957
2080.364, 159.1972
2082.292, 159.5505
2084.220, 159.8914
2086.149, 159.7965
2088.077, 159.2899
2090.006, 159.0164
2091.934, 159.1229
2093.863, 159.0166
2095.791, 158.4845
2097.720, 158.1712
2099.648, 158.1150
2101.577, 158.4019
2103.505, 159.6145
2105.434, 160.5750
2107.362, 160.0972
2109.291, 159.0972
2111.219, 158.7977
2113.147, 159.0415
2115.076, 159.3099
2117.004, 159.5995
2118.933, 159.6679
2120.861, 159.3150
2122.790, 159.1036
2124.718, 159.1310
2126.647, 159.1460
2128.575, 159.1437
2130.504, 159.0564
2132.432, 158.7557
2134.361, 158.5190
2136.289, 158.7813
2138.218, 159.2343
2140.146, 159.3113
2142.074, 159.0341
2144.003, 158.2155
2145.931, 156.8349
2147.860, 156.6633
2149.788, 158.2586
2151.717, 159.1879
2153.645, 158.0481
2155.574, 157.8896
2157.502, 161.2769
2159.431, 163.7699
2161.359, 162.1917
2163.288, 159.6019
2165.216, 158.6225
2167.145, 158.6599
2169.073, 158.8522
2171.001, 159.1332
2172.930, 159.0147
2174.858, 158.4752
2176.787, 158.6633
2178.715, 159.8475
2180.644, 160.3536
2182.572, 159.5995
2184.501, 159.0547
2186.429, 159.4508
2188.358, 159.7356
2190.286, 159.3878
2192.215, 158.8809
2194.143, 158.3815
2196.072, 158.0547
2198.000, 158.2688
2199.928, 158.7633
2201.857, 158.8381
2203.785, 158.5103
2205.714, 158.1831
2207.642, 157.8363
2209.571, 157.8763
2211.499, 158.4367
2213.428, 158.9508
2215.356, 159.4392
2217.285, 159.5620
2219.213, 158.7813
2221.142, 158.1588
2223.070, 157.9070
2224.999, 158.2591
2226.927, 160.3183
2228.855, 162.3425
2230.784, 161.6326
2232.712, 159.3315
2234.641, 158.2673
2236.569, 158.3491
2238.498, 158.7156
2240.426, 159.3685
2242.355, 159.4444
2244.283, 158.6980
2246.212, 158.5569
2248.140, 159.7528
2250.069, 160.2634
2251.997, 158.6755
2253.926, 157.6125
2255.854, 158.6316
2257.782, 159.6530
2259.711, 159.3946
2261.639, 158.6122
2263.568, 157.6090
2265.496, 156.8036
2267.425, 157.2038
2269.353, 158.2799
2271.282, 158.4150
2273.210, 157.7430
2275.139, 157.0670
2277.067, 156.4034
2278.996, 156.3577
2280.924, 157.2706
2282.853, 157.8849
2284.781, 157.9091
2286.709, 157.8607
2288.638, 157.8888
2290.566, 157.7161
2292.495, 156.7148
2294.423, 156.2021
2296.352, 157.4752
2298.280, 158.8019
2300.209, 158.7441
2302.137, 158.1006
2304.066, 157.6409
2305.994, 157.3948
2307.923, 157.5643
2309.851, 158.0189
2311.780, 157.9788
2313.708, 157.3719
2315.636, 157.4989
2317.565, 158.5758
2319.493, 159.2244
2321.422, 159.1830
2323.350, 159.7052
2325.279, 161.4129
2327.207, 162.4618
2329.136, 162.2195
2331.064, 161.4741
2332.993, 160.1355
2334.921, 158.8644
2336.850, 157.9111
2338.778, 157.2308
2340.707, 156.7343
2342.635, 156.5356
2344.563, 157.0909
2346.492, 157.8509
2348.420, 157.7594
2350.349, 157.1357
2352.277, 156.6761
2354.206, 156.4329
2356.134, 156.7230
2358.063, 157.6030
2359.991, 158.0282
2361.920, 157.7330
2363.848, 157.7443
2365.777, 158.3683
2367.705, 158.4638
2369.634, 157.6908
2371.562, 157.0793
2373.490, 156.8671
2375.419, 156.8631
2377.347, 157.1863
2379.276, 157.4136
2381.204, 157.1607
2383.133, 156.9649
2385.061, 157.3300
2386.990, 157.7295
2388.918, 157.6407
2390.847, 157.3682
2392.775, 157.2149
2394.704, 157.1887
2396.632, 157.4744
2398.561, 157.8289
2400.489, 157.4206
2402.417, 156.4616
2404.346, 156.3759
2406.274, 157.2081
2408.203, 157.5155
2410.131, 157.1775
2412.060, 156.9142
2413.988, 156.6856
2415.917, 156.7785
2417.845, 157.2979
2419.774, 157.7191
2421.702, 157.9209
2423.631, 158.0175
2425.559, 157.9579
2427.488, 157.9266
2429.416, 157.8607
2431.344, 158.0200
2433.273, 158.7986
2435.201, 159.4534
2437.130, 159.5415
2439.058, 159.4049
2440.987, 159.3391
2442.915, 159.0840
2444.844, 158.0584
2446.772, 157.0371
2448.701, 157.2748
2450.629, 158.0259
2452.558, 157.8799
2454.486, 157.2045
2456.415, 156.9213
2458.343, 156.9748
2460.271, 157.2066
2462.200, 157.5581
2464.128, 157.7535
2466.057, 157.7823
2467.985, 158.0168
2469.914, 158.6331
2471.842, 158.4391
2473.771, 156.9441
2475.699, 156.2492
2477.628, 156.6341
2479.556, 156.8498
2481.485, 156.6854
2483.413, 156.6360
2485.342, 156.7784
2487.270, 157.0612
2489.198, 157.8959
2491.127, 158.1683
2493.055, 156.8920
2494.984, 156.1109
2496.912, 156.5572
2498.841, 157.5952
2500.769, 159.9669
2502.698, 161.3824
2504.626, 159.7356
2506.555, 157.6468
2508.483, 156.7954
2510.412, 156.4087
2512.340, 155.9052
2514.269, 155.4863
2516.197, 155.4262
2518.125, 155.5368
2520.054, 155.5532
2521.982, 155.5876
2523.911, 155.9687
2525.839, 156.3612
2527.768, 156.0000
2529.696, 155.2093
2531.625, 154.8891
2533.553, 154.9332
2535.482, 154.8135
2537.410, 154.6284
2539.339, 155.0222
2541.267, 155.8349
2543.196, 155.9340
2545.124, 155.2924
2547.052, 155.0184
2548.981, 155.1506
2550.909, 155.1288
2552.838, 154.9196
2554.766, 154.7426
2556.695, 154.6054
2558.623, 154.6957
2560.552, 155.0774
2562.480, 155.5081
2564.409, 156.1721
2566.337, 156.2453
2568.266, 155.1349
2570.194, 154.4675
2572.123, 154.3709
2574.051, 154.5635
2575.979, 155.1613
2577.908, 155.4857
2579.836, 155.2685
2581.765, 154.9914
2583.693, 154.8619
2585.622, 154.5402
2587.550, 153.4802
2589.479, 152.9878
2591.407, 153.7672
2593.336, 154.3299
2595.264, 154.0162
2597.193, 153.6414
2599.121, 153.6019
2601.050, 153.5367
2602.978, 153.1511
2604.906, 152.9209
2606.835, 153.2612
2608.763, 153.5943
2610.692, 153.7182
2612.620, 153.6518
2614.549, 153.0867
2616.477, 152.7357
2618.406, 153.3814
2620.334, 154.0145
2622.263, 153.8311
2624.191, 153.4243
2626.120, 153.0868
2628.048, 152.9337
2629.977, 153.2951
2631.905, 153.6055
2633.833, 153.0600
2635.762, 152.5105
2637.690, 152.9240
2639.619, 153.6223
2641.547, 154.1213
2643.476, 154.3008
2645.404, 154.0603
2647.333, 153.4628
2649.261, 152.0307
2651.190, 150.8085
2653.118, 151.4426
2655.047, 152.7852
2656.975, 153.4875
2658.904, 153.7111
2660.832, 153.4185
2662.760, 153.0073
2664.689, 153.1035
2666.617, 153.3590
2668.546, 153.2879
2670.474, 153.0035
2672.403, 152.4653
2674.331, 152.0104
2676.260, 152.3547
2678.188, 153.0484
2680.117, 153.4415
2682.045, 153.6596
2683.974, 153.8967
2685.902, 154.1100
2687.831, 154.1190
2689.759, 154.1104
2691.688, 154.7364
2693.616, 155.3715
2695.544, 154.6619
2697.473, 153.5017
2699.401, 153.6263
2701.330, 154.3903
2703.258, 154.6614
2705.187, 154.6108
2707.115, 154.5035
2709.044, 154.3212
2710.972, 153.9943
2712.901, 153.5994
2714.829, 153.0645
2716.758, 152.7137
2718.686, 153.5266
2720.615, 154.6605
2722.543, 154.2712
2724.471, 153.4944
2726.400, 154.3530
2728.328, 155.7228
2730.257, 155.6768
2732.185, 155.0236
2734.114, 155.0542
2736.042, 155.3640
2737.971, 155.1585
2739.899, 155.0612
2741.828, 156.4181
2743.756, 157.8912
2745.685, 157.4902
2747.613, 156.2611
2749.542, 155.1759
2751.470, 154.4373
2753.398, 154.4313
2755.327, 154.7103
2757.255, 154.8761
2759.184, 154.9995
2761.112, 155.2478
2763.041, 155.4152
2764.969, 154.5518
2766.898, 154.3891
2768.826, 157.8365
2770.755, 160.8848
2772.683, 159.2767
2774.612, 156.7178
2776.540, 156.0174
2778.469, 155.8696
2780.397, 155.4670
2782.325, 155.0880
2784.254, 154.8733
2786.182, 154.8120
2788.111, 155.0106
2790.039, 155.2356
2791.968, 155.4881
2793.896, 155.5675
2795.825, 155.2092
2797.753, 154.9905
2799.682, 155.6190
2801.610, 155.7832
2803.539, 153.9844
2805.467, 153.2195
2807.396, 155.0374
2809.324, 156.3885
2811.252, 155.9944
2813.181, 155.4595
2815.109, 155.2212
2817.038, 155.0005
2818.966, 154.7243
2820.895, 154.5963
2822.823, 154.7283
2824.752, 154.7942
2826.680, 154.6403
2828.609, 154.6708
2830.537, 155.1774
2832.466, 155.0972
2834.394, 154.2123
2836.323, 153.6519
2838.251, 153.5265
2840.179, 153.8892
2842.108, 154.9285
2844.036, 155.6883
2845.965, 156.1720
2847.893, 156.3374
2849.822, 156.2014
2851.750, 156.1453
2853.679, 156.1697
2855.607, 156.0238
2857.536, 155.7447
2859.464, 155.9267
2861.393, 156.3901
2863.321, 156.2626
2865.250, 155.7635
2867.178, 155.4400
2869.106, 155.3576
2871.035, 155.8424
2872.963, 156.5490
2874.892, 156.7611
2876.820, 156.7364
2878.749, 156.8409
2880.677, 156.9362
2882.606, 156.7146
2884.534, 156.5638
2886.463, 157.1638
2888.391, 157.6738
2890.320, 157.2123
2892.248, 156.7483
2894.177, 157.1143
2896.105, 157.4350
2898.033, 157.1644
2899.962, 156.8570
2901.890, 156.7439
2903.819, 156.6125
2905.747, 156.3024
2907.676, 156.0931
2909.604, 156.0346
2911.533, 156.0963
2913.461, 156.3021
2915.390, 156.5218
2917.318, 156.7187
2919.247, 157.0222
2921.175, 157.5420
2923.104, 157.6387
2925.032, 157.2689
2926.960, 157.3997
2928.889, 158.0969
2930.817, 158.0338
2932.746, 157.2684
2934.674, 156.8757
2936.603, 156.8218
2938.531, 157.0746
2940.460, 157.4732
2942.388, 157.7522
2944.317, 157.7509
2946.245, 156.7728
2948.174, 155.6339
2950.102, 155.5512
2952.031, 155.8883
2953.959, 156.0158
2955.887, 156.2591
2957.816, 157.2636
2959.744, 157.9076
2961.673, 157.1049
2963.601, 156.6524
2965.530, 158.2149
2967.458, 158.9821
2969.387, 157.2366
2971.315, 156.1835
2973.244, 156.5198
2975.172, 156.9678
2977.101, 157.3130
2979.029, 157.6162
2980.958, 157.8912
2982.886, 158.0665
2984.814, 158.1247
2986.743, 157.7624
2988.671, 157.0152
2990.600, 156.9277
2992.528, 157.2897
2994.457, 156.7218
2996.385, 155.7124
2998.314, 155.4527
3000.242, 155.6585
3002.171, 156.0712
3004.099, 156.4608
3006.028, 156.5117
3007.956, 156.4264
3009.885, 156.0618
3011.813, 156.0532
3013.741, 157.4411
3015.670, 158.1839
3017.598, 156.9331
3019.527, 156.2320
3021.455, 157.0249
3023.384, 157.8184
3025.312, 158.4550
3027.241, 158.6308
3029.169, 158.3061
3031.098, 157.8120
3033.026, 157.1873
3034.955, 157.1220
3036.883, 157.5602
3038.812, 157.4138
3040.740, 156.9195
3042.668, 156.7880
3044.597, 157.0635
3046.525, 158.3163
3048.454, 159.5315
3050.382, 159.0396
3052.311, 158.1838
3054.239, 157.8416
3056.168, 157.8975
3058.096, 158.6134
3060.025, 159.1606
3061.953, 159.2074
3063.882, 159.1553
3065.810, 159.0702
3067.739, 159.0036
3069.667, 159.0772
3071.595, 158.6080
3073.524, 157.5397
3075.452, 158.5755
3077.381, 161.5179
3079.309, 161.9068
3081.238, 160.4273
3083.166, 159.8534
3085.095, 159.8047
3087.023, 159.6740
3088.952, 159.4820
3090.880, 159.2146
3092.809, 158.9881
3094.737, 159.0425
3096.666, 158.9636
3098.594, 158.2484
3100.522, 157.8788
3102.451, 158.4047
3104.379, 158.8372
3106.308, 159.0678
3108.236, 159.1115
3110.165, 158.9409
3112.093, 158.5665
3114.022, 158.0058
3115.950, 158.3244
3117.879, 159.1987
3119.807, 159.5882
3121.736, 159.6404
3123.664, 159.2874
3125.593, 159.1708
3127.521, 160.5344
3129.449, 161.6358
3131.378, 161.0198
3133.306, 160.1383
3135.235, 159.2080
3137.163, 159.0703
3139.092, 160.2767
3141.020, 160.8504
3142.949, 160.1931
3144.877, 159.6370
3146.806, 159.2048
3148.734, 159.6641
3150.663, 160.7055
3152.591, 160.8183
3154.520, 160.3801
3156.448, 160.2002
3158.376, 159.9682
3160.305, 159.0540
3162.233, 158.3701
3164.162, 158.6852
3166.090, 159.2621
3168.019, 160.0284
3169.947, 160.3607
3171.876, 159.5933
3173.804, 159.6689
3175.733, 160.8306
3177.661, 161.0306
3179.590, 160.3362
3181.518, 160.1280
3183.447, 160.3429
3185.375, 160.8519
3187.303, 161.3978
3189.232, 161.4625
3191.160, 161.5383
3193.089, 162.2734
3195.017, 162.7907
3196.946, 162.6772
3198.874, 162.3353
3200.803, 161.5399
3202.731, 161.5829
3204.660, 162.7943
3206.588, 163.1446
3208.517, 162.6387
3210.445, 162.1773
3212.374, 161.8880
3214.302, 162.6292
3216.230, 163.3271
3218.159, 161.8650
3220.087, 160.2892
3222.016, 160.5875
3223.944, 160.8871
3225.873, 160.1586
3227.801, 160.0062
3229.730, 161.2705
3231.658, 161.9458
3233.587, 161.8516
3235.515, 161.7103
3237.444, 161.5635
3239.372, 161.3896
3241.301, 161.3078
3243.229, 161.7108
3245.157, 162.2609
3247.086, 162.6768
3249.014, 162.8961
3250.943, 162.7711
3252.871, 162.5796
3254.800, 162.3161
3256.728, 162.4293
3258.657, 163.2922
3260.585, 163.3838
3262.514, 162.7602
3264.442, 162.6465
3266.371, 162.9017
3268.299, 162.9733
3270.228, 163.1295
3272.156, 164.0471
3274.084, 164.7722
3276.013, 164.5195
3277.941, 164.1536
3279.870, 163.5408
3281.798, 164.3916
3283.727, 167.2918
3285.655, 167.5488
3287.584, 164.9880
3289.512, 164.3764
3291.441, 165.0392
3293.369, 165.3212
3295.298, 165.2652
3297.226, 164.5429
3299.155, 164.1051
3301.083, 164.8372
3303.011, 165.1912
3304.940, 164.0555
3306.868, 163.8143
3308.797, 164.7399
3310.725, 164.5963
3312.654, 163.5334
3314.582, 163.7412
3316.511, 164.5543
3318.439, 164.4801
3320.368, 164.1303
3322.296, 164.1651
3324.225, 163.8849
3326.153, 162.0195
3328.082, 162.5379
3330.010, 167.1653
3331.938, 169.7825
3333.867, 169.9606
3335.795, 168.5206
3337.724, 166.2678
3339.652, 165.7487
3341.581, 165.8064
3343.509, 164.8218
3345.438, 163.8301
3347.366, 163.3622
3349.295, 163.2508
3351.223, 163.6280
3353.152, 163.9568
3355.080, 164.2122
3357.009, 163.9648
3358.937, 163.5084
3360.865, 164.6495
3362.794, 166.0437
3364.722, 165.4480
3366.651, 164.7148
3368.579, 165.3488
3370.508, 165.9385
3372.436, 166.1586
3374.365, 166.0598
3376.293, 165.6004
3378.222, 165.1376
3380.150, 164.7279
3382.079, 164.6008
3384.007, 164.6602
3385.936, 164.7212
3387.864, 164.9927
3389.792, 165.8965
3391.721, 166.3505
3393.649, 165.3056
3395.578, 165.7726
3397.506, 167.8266
3399.435, 167.8118
3401.363, 166.3701
3403.292, 165.8792
3405.220, 166.0091
3407.148, 166.5426
3409.077, 167.0678
3411.005, 167.2300
3412.934, 167.5556
3414.862, 168.2310
3416.791, 168.2912
3418.719, 167.6882
3420.648, 167.4119
3422.576, 167.3823
3424.505, 167.4098
3426.433, 167.5129
3428.362, 167.8369
3430.290, 167.9956
3432.219, 167.7447
3434.147, 167.6036
3436.075, 167.7186
3438.004, 167.1265
3439.932, 166.1859
3441.861, 166.8367
3443.789, 167.9501
3445.718, 167.5835
3447.646, 167.1643
3449.575, 167.8802
3451.503, 168.0722
3453.432, 167.2319
3455.360, 166.7929
3457.289, 166.8495
3459.217, 167.1850
3461.146, 167.6437
3463.074, 167.8862
3465.002, 168.0709
3466.931, 168.4125
3468.859, 168.5829
3470.788, 168.4716
3472.716, 168.3111
3474.645, 168.1133
3476.573, 168.0320
3478.502, 168.0736
3480.430, 168.4867
3482.359, 168.7929
3484.287, 168.2966
3486.216, 167.9088
3488.144, 167.9807
3490.073, 168.1929
3492.001, 168.5126
3493.929, 168.3141
3495.858, 168.1448
3497.786, 170.9239
3499.715, 173.5174
3501.643, 171.0112
3503.572, 168.6344
3505.500, 168.8998
3507.429, 169.1416
3509.357, 169.0154
3511.286, 168.7473
3513.214, 168.4703
3515.143, 168.9096
3517.071, 169.2856
3519.000, 168.3013
3520.928, 167.5701
3522.856, 167.9612
3524.785, 168.7712
3526.713, 169.9493
3528.642, 170.5651
3530.570, 170.6654
3532.499, 170.2609
3534.427, 169.8424
3536.356, 169.7827
3538.284, 170.1367
3540.213, 171.2891
3542.141, 171.6327
3544.070, 170.9755
3545.998, 169.8682
3547.927, 168.7494
3549.855, 169.1724
3551.783, 169.8885
3553.712, 169.7639
3555.640, 169.6446
3557.569, 169.7684
3559.497, 169.7733
3561.426, 169.6265
3563.354, 170.1406
3565.283, 170.6779
3567.211, 169.5608
3569.140, 168.7471
3571.068, 169.9696
3572.997, 171.2308
3574.925, 172.2617
3576.854, 171.9967
3578.782, 170.7410
3580.710, 170.7417
3582.639, 171.3914
3584.567, 172.5835
3586.496, 172.8441
3588.424, 171.0444
3590.353, 170.3016
3592.281, 171.1901
3594.210, 172.9335
3596.138, 174.7149
3598.067, 174.4182
3599.995, 173.3914
3601.924, 172.4780
3603.852, 171.9437
3605.781, 172.1365
3607.709, 171.8098
3609.637, 171.1487
3611.566, 171.7303
3613.494, 172.5769
3615.423, 172.0146
3617.351, 171.5529
3619.280, 172.0250
3621.208, 172.2851
3623.137, 172.2027
3625.065, 172.4651
3626.994, 172.9977
3628.922, 173.9827
3630.851, 174.4375
3632.779, 173.2328
3634.708, 172.6720
3636.636, 173.5366
3638.564, 173.9768
3640.493, 174.0239
3642.421, 174.1634
3644.350, 174.1719
3646.278, 173.6208
3648.207, 173.2786
3650.135, 173.7082
3652.064, 173.6594
3653.992, 173.2555
3655.921, 173.9887
3657.849, 174.9034
3659.778, 174.1315
3661.706, 173.4020
3663.635, 173.6146
3665.563, 173.9659
3667.491, 174.3633
3669.420, 174.4155
3671.348, 174.2456
3673.277, 174.0144
3675.205, 173.8471
3677.134, 173.5234
3679.062, 174.2733
3680.991, 176.2910
3682.919, 175.8487
3684.848, 174.2269
3686.776, 175.2393
3688.705, 176.5724
3690.633, 176.4664
3692.562, 176.4110
3694.490, 176.6846
3696.418, 176.8748
3698.347, 176.9290
3700.275, 176.5846
3702.204, 176.3670
3704.132, 176.8258
3706.061, 177.1778
3707.989, 177.2620
3709.918, 177.1116
3711.846, 176.8017
3713.775, 176.4261
3715.703, 176.2703
3717.632, 176.5974
3719.560, 177.1111
3721.489, 177.8546
3723.417, 177.8098
3725.345, 177.3564
3727.274, 178.2189
3729.202, 178.9263
3731.131, 178.1099
3733.059, 177.1923
3734.988, 176.3958
3736.916, 176.4577
3738.845, 177.1879
3740.773, 178.4529
3742.702, 179.0070
3744.630, 177.3327
3746.559, 176.6545
3748.487, 177.9890
3750.416, 178.9124
3752.344, 179.3803
3754.272, 179.3886
3756.201, 179.0125
3758.129, 178.0144
3760.058, 177.6793
3761.986, 178.3120
3763.915, 179.6589
3765.843, 180.9133
3767.772, 179.8269
3769.700, 179.0104
3771.629, 180.1543
3773.557, 180.4391
3775.486, 179.3975
3777.414, 179.2149
3779.343, 179.5920
3781.271, 180.4162
3783.199, 180.8350
3785.128, 180.3796
3787.056, 180.2991
3788.985, 180.6318
3790.913, 180.0332
3792.842, 179.4412
3794.770, 180.3522
3796.699, 180.8028
3798.627, 180.0793
3800.556, 180.3161
3802.484, 181.2703
3804.413, 181.2795
3806.341, 180.9792
3808.270, 180.6712
3810.198, 180.6706
3812.126, 181.0381
3814.055, 182.3607
3815.983, 183.7136
3817.912, 182.3706
3819.840, 181.2095
3821.769, 182.1358
3823.697, 182.8108
3825.626, 183.0430
3827.554, 183.7202
3829.483, 184.2303
3831.411, 183.6267
3833.340, 182.9311
3835.268, 182.3830
3837.197, 182.6477
3839.125, 183.3426
3841.053, 182.2773
3842.982, 181.8487
3844.910, 184.9586
3846.839, 186.3783
3848.767, 185.5009
3850.696, 184.2339
3852.624, 183.2087
3854.553, 183.7844
3856.481, 184.3964
3858.410, 184.1136
3860.338, 184.9249
3862.267, 186.4418
3864.195, 186.4707
3866.124, 186.1234
3868.052, 186.3297
3869.980, 186.2948
3871.909, 185.4325
3873.837, 189.4261
3875.766, 195.1732
3877.694, 198.9075
3879.623, 197.9566
3881.551, 190.3598
3883.480, 186.6293
3885.408, 186.8406
3887.337, 187.9688
3889.265, 188.8487
3891.194, 188.0436
3893.122, 187.6566
3895.051, 187.9848
3896.979, 187.6419
3898.907, 187.2168
3900.836, 187.8492
3902.764, 188.4902
3904.693, 188.7416
3906.621, 189.2565
3908.550, 189.8177
3910.478, 189.4470
3912.407, 188.8132
3914.335, 187.9679
3916.264, 188.2768
3918.192, 189.6295
3920.121, 190.0034
3922.049, 190.0133
3923.978, 190.5708
3925.906, 190.5017
3927.834, 189.0627
3929.763, 189.4704
3931.691, 190.8910
3933.620, 192.1191
3935.548, 192.4641
3937.477, 191.4450
3939.405, 191.3104
3941.334, 191.9420
3943.262, 192.2635
3945.191, 192.2940
3947.119, 191.8741
3949.048, 191.5625
3950.976, 191.4754
3952.905, 192.0894
3954.833, 192.9065
3956.761, 193.3309
3958.690, 193.9620
3960.618, 194.8922
3962.547, 194.5436
3964.475, 193.8364
3966.404, 193.6830
3968.332, 195.6617
3970.261, 202.6209
3972.189, 201.9384
3974.118, 196.8427
3976.046, 195.7303
3977.975, 195.9360
3979.903, 196.2721
3981.832, 196.5797
3983.760, 196.8788
3985.688, 197.4673
3987.617, 197.9217
3989.545, 197.9459
3991.474, 197.5727
3993.402, 196.9386
3995.331, 197.6243
3997.259, 198.6050
3999.188, 199.0611
4001.116, 198.8735
4003.045, 198.1797
4004.973, 199.2139
4006.902, 200.4451
4008.830, 199.7598
4010.759, 199.0551
4012.687, 198.7619
4014.615, 199.1728
4016.544, 199.7877
4018.472, 199.5125
4020.401, 199.8613
4022.329, 201.6894
4024.258, 201.8345
4026.186, 201.1412
4028.115, 201.3013
4030.043, 201.2712
4031.972, 200.6392
4033.900, 200.4855
4035.829, 200.9413
4037.757, 202.7042
4039.686, 204.1004
4041.614, 204.4190
4043.542, 203.8112
4045.471, 202.8675
4047.399, 203.3572
4049.328, 204.0284
4051.256, 204.1172
4053.185, 204.7956
4055.113, 205.7717
4057.042, 206.0280
4058.970, 206.1078
4060.899, 206.2515
4062.827, 206.4444
4064.756, 206.6753
4066.684, 207.1201
4068.613, 207.2727
4070.541, 206.7642
4072.469, 206.4602
4074.398, 206.4491
4076.326, 206.7845
4078.255, 207.3063
4080.183, 208.2696
4082.112, 208.1070
4084.040, 207.3163
4085.969, 207.9165
4087.897, 208.8332
4089.826, 209.5805
4091.754, 209.6573
4093.683, 209.3606
4095.611, 209.4311
4097.540, 210.5383
4099.468, 213.4429
4101.396, 213.4848
4103.325, 211.6524
4105.253, 211.8982
4107.182, 212.4081
4109.110, 212.2228
4111.039, 212.5857
4112.967, 213.5484
4114.896, 216.0882
4116.824, 217.1627
4118.752, 214.2305
4120.681, 214.2335
4122.609, 215.9060
4124.538, 216.5231
4126.466, 216.7700
4128.395, 216.8246
4130.323, 217.8729
4132.252, 219.1892
4134.180, 219.1087
4136.109, 219.7415
4138.037, 221.5914
4139.966, 221.8752
4141.894, 221.4973
4143.823, 221.5395
4145.751, 222.3376
4147.680, 223.9629
4149.608, 224.8561
4151.537, 225.4512
4153.465, 225.9858
4155.394, 227.3010
4157.322, 229.3664
4159.250, 229.0248
4161.179, 228.5192
4163.107, 230.0003
4165.036, 231.2721
4166.964, 232.5219
4168.893, 236.4350
4170.821, 239.6292
4172.750, 239.8656
4174.678, 238.5127
4176.606, 236.7577
4178.535, 237.7001
4180.463, 238.9957
4182.392, 239.6487
4184.320, 240.4926
4186.249, 241.6348
4188.177, 243.3764
4190.106, 244.9189
4192.034, 246.0860
4193.963, 247.3107
4195.891, 248.4244
4197.820, 248.9688
4199.748, 250.2801
4201.677, 252.4376
4203.605, 253.4100
4205.534, 254.0299
4207.462, 254.9109
4209.391, 255.2478
4211.319, 255.4698
4213.248, 258.6560
4215.176, 261.5367
4217.104, 262.3047
4219.033, 263.7769
4220.961, 265.5190
4222.890, 266.1534
4224.818, 266.8521
4226.747, 267.8962
4228.675, 270.0824
4230.604, 272.9796
4232.532, 276.8278
4234.460, 278.9115
4236.389, 279.2244
4238.317, 282.0277
4240.246, 283.9667
4242.174, 281.2366
4244.103, 280.3859
##END=



