##NAMES=Wollastonite
##RRUFFID=R120016
##IDEAL CHEMISTRY=CaSiO_3_
##LOCALITY=Saint-Sauveur Graphite occurrence, Saint-Sauveur, Les Pays-d'en-Haut RCM, Laurentides, Québec, Canada
##OWNER=RRUFF
##SOURCE=Donald Doell
##DESCRIPTION=Massive aggregate of colorless parallel acicular crystals
##STATUS=The identification of this mineral has been confirmed by single-crystal X-ray diffraction
##URL=https://www.rruff.net/odr/rruff_sample/R120016
##DIFFRACTION SAMPLE DESCRIPTION=Single crystal, powder profile is calculated
##CELL PARAMETERS=a: 7.933 b: 7.323 c: 7.072 alpha: 90.06 beta: 95.19 gamma: 103.42 volume: 397.9 crystal system: triclinic
##FILETYPE=Raman Processed
##RAMAN WAVELENGTH=780

83.17554, 4597.270
85.10400, 4683.959
87.03247, 5268.071
88.96094, 6039.169
90.88940, 6970.530
92.81787, 8094.092
94.74634, 9185.718
96.67480, 9700.190
98.60327, 10405.14
100.5317, 11389.45
102.4602, 12052.83
104.3887, 12609.88
106.3171, 12711.34
108.2456, 12085.60
110.1741, 11139.11
112.1025, 10080.97
114.0310, 8883.058
115.9595, 7838.320
117.8879, 6891.539
119.8164, 6138.372
121.7449, 5637.345
123.6733, 5308.281
125.6018, 5110.340
127.5303, 5048.580
129.4587, 5085.308
131.3872, 5232.139
133.3157, 5434.130
135.2441, 5687.744
137.1726, 5975.757
139.1011, 6292.675
141.0295, 6638.075
142.9580, 7002.346
144.8865, 7402.635
146.8149, 7755.587
148.7434, 8032.993
150.6719, 8256.652
152.6003, 8399.572
154.5288, 8492.780
156.4573, 8648.694
158.3857, 8860.470
160.3142, 9163.085
162.2427, 9588.686
164.1711, 10087.41
166.0996, 10721.14
168.0281, 11394.64
169.9565, 11936.69
171.8850, 12363.19
173.8135, 12511.56
175.7419, 12175.52
177.6704, 11737.08
179.5989, 11236.23
181.5273, 10734.98
183.4558, 10301.34
185.3843, 9934.783
187.3127, 9704.582
189.2412, 9688.358
191.1697, 9714.353
193.0981, 9780.927
195.0266, 9844.925
196.9551, 9854.752
198.8835, 9826.686
200.8120, 9805.447
202.7405, 9783.514
204.6689, 9797.425
206.5974, 9851.662
208.5259, 9939.441
210.4543, 10053.07
212.3828, 10201.17
214.3113, 10399.38
216.2397, 10652.18
218.1682, 10935.13
220.0967, 11259.81
222.0251, 11593.36
223.9536, 11974.16
225.8821, 12321.19
227.8105, 12570.21
229.7390, 12721.79
231.6675, 12789.65
233.5959, 12743.28
235.5244, 12652.88
237.4529, 12498.61
239.3813, 12324.80
241.3098, 12142.59
243.2383, 11963.79
245.1667, 11812.20
247.0952, 11679.03
249.0237, 11606.95
250.9521, 11620.05
252.8806, 11652.63
254.8091, 11698.41
256.7375, 11742.37
258.6660, 11759.87
260.5945, 11755.69
262.5229, 11799.30
264.4514, 11910.90
266.3799, 12017.02
268.3083, 12109.30
270.2368, 12195.79
272.1653, 12268.47
274.0938, 12345.25
276.0222, 12444.55
277.9507, 12565.40
279.8792, 12753.55
281.8076, 13022.63
283.7361, 13314.90
285.6646, 13618.53
287.5930, 13937.75
289.5215, 14269.73
291.4500, 14617.74
293.3784, 14988.00
295.3069, 15378.65
297.2354, 15805.50
299.1638, 16268.22
301.0923, 16771.80
303.0208, 17385.89
304.9492, 17978.40
306.8777, 18462.32
308.8062, 18850.68
310.7346, 19155.34
312.6631, 19371.95
314.5916, 19658.38
316.5200, 20020.07
318.4485, 20491.52
320.3770, 21093.17
322.3054, 21786.38
324.2339, 22556.22
326.1624, 23395.45
328.0908, 24287.56
330.0193, 25233.68
331.9477, 26178.81
333.8762, 27325.90
335.8047, 28056.95
337.7331, 28282.67
339.6616, 27980.71
341.5901, 27058.15
343.5185, 25574.47
345.4470, 23699.21
347.3755, 21415.89
349.3039, 19197.18
351.2324, 16985.52
353.1609, 15080.53
355.0893, 13544.40
357.0178, 12328.26
358.9463, 11441.67
360.8747, 10846.94
362.8032, 10452.97
364.7317, 10258.60
366.6601, 10202.64
368.5886, 10321.58
370.5171, 10513.63
372.4455, 10767.72
374.3740, 11082.14
376.3025, 11454.83
378.2309, 11891.06
380.1594, 12380.26
382.0879, 12926.41
384.0163, 13575.21
385.9448, 14386.06
387.8733, 15192.73
389.8017, 16023.30
391.7302, 16796.59
393.6587, 17454.72
395.5871, 18059.16
397.5156, 18694.14
399.4441, 19330.43
401.3725, 19862.65
403.3010, 20355.55
405.2295, 20531.62
407.1579, 20360.90
409.0864, 19948.63
411.0149, 19220.09
412.9433, 18359.49
414.8718, 17419.63
416.8003, 16465.69
418.7287, 15590.53
420.6572, 14791.49
422.5857, 14127.35
424.5141, 13603.76
426.4426, 13192.63
428.3711, 12902.67
430.2995, 12706.88
432.2280, 12617.02
434.1565, 12599.11
436.0849, 12654.10
438.0134, 12756.52
439.9419, 12835.10
441.8703, 12891.93
443.7988, 12897.46
445.7273, 12851.08
447.6557, 12754.13
449.5842, 12580.86
451.5127, 12396.62
453.4411, 12202.83
455.3696, 12040.17
457.2981, 11944.22
459.2265, 11915.04
461.1550, 11968.70
463.0835, 12107.42
465.0119, 12251.21
466.9404, 12417.43
468.8689, 12506.40
470.7973, 12457.59
472.7258, 12363.63
474.6543, 12229.11
476.5827, 12101.80
478.5112, 12023.96
480.4397, 11997.28
482.3681, 12025.51
484.2966, 12106.63
486.2251, 12238.35
488.1535, 12423.50
490.0820, 12647.20
492.0105, 12930.87
493.9389, 13219.42
495.8674, 13497.97
497.7959, 13768.38
499.7243, 14044.09
501.6528, 14309.17
503.5813, 14546.60
505.5097, 14750.04
507.4382, 14867.93
509.3667, 14907.78
511.2951, 14811.65
513.2236, 14516.95
515.1521, 14151.50
517.0806, 13695.28
519.0090, 13229.18
520.9375, 12792.03
522.8660, 12386.37
524.7944, 12015.27
526.7229, 11676.60
528.6514, 11367.35
530.5798, 11088.83
532.5083, 10830.94
534.4368, 10604.94
536.3652, 10381.54
538.2937, 10148.79
540.2222, 9930.764
542.1506, 9737.184
544.0791, 9562.084
546.0076, 9406.004
547.9360, 9261.386
549.8645, 9113.787
551.7930, 8965.080
553.7214, 8843.209
555.6499, 8755.437
557.5784, 8676.386
559.5068, 8588.561
561.4353, 8536.745
563.3638, 8527.838
565.2922, 8555.562
567.2207, 8623.758
569.1492, 8721.818
571.0776, 8838.677
573.0061, 8977.773
574.9345, 9154.396
576.8630, 9364.305
578.7914, 9563.887
580.7199, 9768.062
582.6484, 9900.408
584.5768, 9956.520
586.5053, 9951.893
588.4338, 9853.803
590.3622, 9763.182
592.2907, 9682.175
594.2192, 9678.994
596.1476, 9775.669
598.0761, 9988.881
600.0046, 10347.04
601.9330, 10840.85
603.8615, 11455.66
605.7900, 12201.61
607.7184, 12925.21
609.6469, 13628.90
611.5754, 14278.94
613.5038, 14831.47
615.4323, 15439.30
617.3608, 16060.92
619.2892, 16897.94
621.2177, 18000.50
623.1462, 19380.80
625.0746, 21072.33
627.0031, 23031.87
628.9316, 25314.46
630.8600, 27811.07
632.7885, 30279.25
634.7170, 32651.39
636.6454, 33881.15
638.5739, 33897.26
640.5024, 32637.50
642.4308, 29698.84
644.3593, 26412.64
646.2878, 22728.96
648.2162, 19330.22
650.1447, 16347.82
652.0732, 13869.15
654.0016, 12025.91
655.9301, 10681.73
657.8586, 9762.206
659.7870, 9175.654
661.7155, 8732.021
663.6440, 8416.502
665.5724, 8156.527
667.5009, 7947.921
669.4294, 7790.710
671.3578, 7678.982
673.2863, 7635.841
675.2148, 7674.142
677.1432, 7761.788
679.0717, 7892.760
681.0002, 8070.001
682.9286, 8332.978
684.8571, 8603.064
686.7856, 8873.583
688.7141, 9064.978
690.6425, 9090.614
692.5710, 8967.607
694.4995, 8711.514
696.4279, 8332.737
698.3564, 7944.699
700.2849, 7534.564
702.2133, 7181.622
704.1418, 6896.949
706.0703, 6653.685
707.9987, 6463.649
709.9272, 6293.370
711.8557, 6144.438
713.7841, 6001.003
715.7126, 5848.182
717.6411, 5710.107
719.5695, 5605.243
721.4980, 5519.747
723.4265, 5439.392
725.3549, 5372.651
727.2834, 5337.750
729.2119, 5326.465
731.1403, 5312.208
733.0688, 5295.278
734.9973, 5281.605
736.9257, 5270.661
738.8542, 5267.897
740.7827, 5274.845
742.7111, 5281.528
744.6396, 5287.388
746.5681, 5290.501
748.4965, 5292.004
750.4250, 5286.441
752.3535, 5270.731
754.2819, 5249.320
756.2104, 5221.442
758.1389, 5192.951
760.0673, 5170.895
761.9958, 5147.489
763.9243, 5116.001
765.8527, 5076.780
767.7812, 5027.455
769.7097, 4971.269
771.6381, 4917.021
773.5666, 4864.375
775.4951, 4814.470
777.4235, 4766.556
779.3520, 4712.741
781.2805, 4652.278
783.2089, 4592.327
785.1374, 4533.478
787.0659, 4477.389
788.9943, 4425.158
790.9228, 4374.241
792.8513, 4323.017
794.7797, 4274.926
796.7082, 4235.722
798.6367, 4192.760
800.5651, 4130.710
802.4936, 4076.156
804.4221, 4053.058
806.3505, 4036.765
808.2790, 4003.622
810.2075, 3967.069
812.1359, 3941.952
814.0644, 3925.175
815.9929, 3912.812
817.9213, 3904.080
819.8498, 3897.777
821.7783, 3893.408
823.7067, 3887.859
825.6352, 3881.479
827.5637, 3885.263
829.4921, 3901.479
831.4206, 3910.159
833.3491, 3906.495
835.2775, 3908.570
837.2060, 3926.838
839.1345, 3932.958
841.0629, 3920.708
842.9914, 3907.710
844.9199, 3890.264
846.8483, 3883.204
848.7768, 3894.243
850.7053, 3908.081
852.6337, 3916.852
854.5622, 3930.732
856.4907, 3960.195
858.4191, 3987.611
860.3476, 3993.847
862.2761, 4003.832
864.2045, 4042.214
866.1330, 4085.316
868.0615, 4106.733
869.9899, 4125.148
871.9184, 4169.936
873.8469, 4223.325
875.7753, 4252.689
877.7038, 4268.793
879.6323, 4295.088
881.5607, 4330.056
883.4892, 4370.604
885.4177, 4415.094
887.3461, 4457.045
889.2746, 4495.204
891.2031, 4513.509
893.1315, 4512.341
895.0600, 4498.944
896.9885, 4473.427
898.9169, 4442.772
900.8454, 4407.036
902.7739, 4376.018
904.7023, 4350.709
906.6308, 4330.694
908.5593, 4316.986
910.4877, 4301.937
912.4162, 4282.208
914.3447, 4271.711
916.2731, 4277.113
918.2016, 4281.362
920.1301, 4276.105
922.0585, 4279.424
923.9870, 4296.003
925.9155, 4320.511
927.8439, 4339.087
929.7724, 4384.168
931.7009, 4435.159
933.6293, 4559.856
935.5578, 4745.377
937.4863, 5066.886
939.4147, 5590.017
941.3432, 6216.066
943.2717, 6984.263
945.2001, 7715.907
947.1286, 8286.807
949.0571, 8798.183
950.9855, 9169.508
952.9140, 9694.373
954.8425, 10486.71
956.7709, 11680.29
958.6994, 13401.66
960.6279, 15577.77
962.5563, 18285.67
964.4848, 21256.96
966.4133, 24730.59
968.3417, 27810.80
970.2702, 29953.13
972.1987, 30703.79
974.1271, 29086.27
976.0556, 26039.36
977.9841, 22435.65
979.9125, 18693.81
981.8410, 15312.85
983.7695, 12420.50
985.6979, 10267.28
987.6264, 8778.796
989.5549, 7921.738
991.4833, 7542.583
993.4118, 7383.941
995.3403, 7372.124
997.2687, 7371.726
999.1972, 7344.942
1001.126, 7165.929
1003.054, 6879.997
1004.983, 6589.021
1006.911, 6318.210
1008.840, 6125.131
1010.768, 6029.741
1012.696, 6108.787
1014.625, 6344.045
1016.553, 6705.828
1018.482, 7158.337
1020.410, 7598.646
1022.339, 8006.653
1024.267, 8281.205
1026.196, 8459.097
1028.124, 8637.098
1030.053, 8853.088
1031.981, 9233.957
1033.910, 9785.010
1035.838, 10553.66
1037.767, 11504.31
1039.695, 12582.99
1041.624, 13709.17
1043.552, 14715.17
1045.480, 15490.46
1047.409, 15625.56
1049.337, 15233.63
1051.266, 14534.77
1053.194, 13653.94
1055.123, 12878.63
1057.051, 12241.34
1058.980, 11817.05
1060.908, 11599.39
1062.837, 11594.59
1064.765, 11769.86
1066.694, 12067.74
1068.622, 12471.75
1070.550, 12959.27
1072.479, 13516.18
1074.407, 14125.89
1076.336, 14774.17
1078.264, 15444.44
1080.193, 16124.66
1082.121, 16809.47
1084.050, 17477.70
1085.978, 18102.62
1087.907, 18678.59
1089.835, 19196.00
1091.764, 19659.37
1093.692, 20076.51
1095.620, 20442.70
1097.549, 20753.25
1099.477, 21006.25
1101.406, 21198.68
1103.334, 21332.63
1105.263, 21392.21
1107.191, 21413.17
1109.120, 21428.80
1111.048, 21423.32
1112.977, 21392.39
1114.905, 21323.18
1116.834, 21193.65
1118.762, 21038.84
1120.691, 20889.43
1122.619, 20712.59
1124.547, 20488.03
1126.476, 20228.91
1128.404, 19936.06
1130.333, 19619.48
1132.261, 19291.33
1134.190, 18923.93
1136.118, 18492.72
1138.047, 18048.91
1139.975, 17601.49
1141.904, 17170.30
1143.832, 16767.17
1145.761, 16365.11
1147.689, 15957.85
1149.618, 15543.62
1151.546, 15116.99
1153.474, 14701.75
1155.403, 14299.18
1157.331, 13927.63
1159.260, 13590.46
1161.188, 13289.49
1163.117, 13026.36
1165.045, 12774.06
1166.974, 12529.16
1168.902, 12340.16
1170.831, 12208.83
1172.759, 12112.59
1174.688, 12048.99
1176.616, 12012.81
1178.545, 12004.92
1180.473, 12027.42
1182.401, 12083.92
1184.330, 12185.38
1186.258, 12329.26
1188.187, 12500.71
1190.115, 12713.92
1192.044, 12991.39
1193.972, 13331.55
1195.901, 13734.34
1197.829, 14194.38
1199.758, 14708.12
1201.686, 15271.32
1203.615, 15884.88
1205.543, 16541.33
1207.472, 17227.12
1209.400, 17970.96
1211.328, 18813.61
1213.257, 19680.39
1215.185, 20553.09
1217.114, 21420.09
1219.042, 22306.44
1220.971, 23120.96
1222.899, 23843.21
1224.828, 24484.98
1226.756, 25053.28
1228.685, 25517.47
1230.613, 25870.89
1232.542, 26125.83
1234.470, 26271.28
1236.399, 26402.39
1238.327, 26519.67
1240.255, 26639.22
1242.184, 26767.92
1244.112, 26954.67
1246.041, 27189.28
1247.969, 27440.73
1249.898, 27712.62
1251.826, 28021.04
1253.755, 28346.29
1255.683, 28654.65
1257.612, 28969.66
1259.540, 29318.21
1261.469, 29672.65
1263.397, 30011.26
1265.326, 30351.57
1267.254, 30670.01
1269.182, 31053.36
1271.111, 31539.91
1273.039, 32062.32
1274.968, 32596.81
1276.896, 33210.23
1278.825, 33908.70
1280.753, 34718.48
1282.682, 35639.47
1284.610, 36651.62
1286.539, 37742.07
1288.467, 38847.04
1290.396, 39961.57
1292.324, 41084.34
1294.253, 42213.96
1296.181, 43344.40
1298.109, 44482.22
1300.038, 45648.62
1301.966, 46812.98
1303.895, 47980.23
1305.823, 49078.63
1307.752, 50076.43
1309.680, 50960.76
1311.609, 51730.25
1313.537, 52374.35
1315.466, 52889.28
1317.394, 53281.32
1319.323, 53539.92
1321.251, 53701.17
1323.180, 53758.78
1325.108, 53747.75
1327.036, 53666.07
1328.965, 53476.40
1330.893, 53199.74
1332.822, 52912.74
1334.750, 52602.82
1336.679, 52265.19
1338.607, 51865.68
1340.536, 51332.65
1342.464, 50766.21
1344.393, 50214.67
1346.321, 49668.47
1348.250, 49108.36
1350.178, 48604.45
1352.107, 48176.77
1354.035, 47825.04
1355.964, 47555.59
1357.892, 47338.80
1359.820, 47173.39
1361.749, 46976.94
1363.677, 46745.71
1365.606, 46443.62
1367.534, 46112.60
1369.463, 45808.97
1371.391, 45582.70
1373.320, 45473.23
1375.248, 45504.75
1377.177, 45672.16
1379.105, 46026.62
1381.034, 46607.71
1382.962, 47316.54
1384.891, 48139.46
1386.819, 49056.38
1388.747, 50067.20
1390.676, 51198.42
1392.604, 52465.26
1394.533, 53917.41
1396.461, 55570.16
1398.390, 57416.82
1400.318, 59493.55
1402.247, 61910.19
1404.175, 64500.68
1406.104, 67164.17
1408.032, 69851.74
1409.961, 72559.76
1411.889, 75237.35
1413.818, 77878.08
1415.746, 80471.73
1417.674, 83019.76
1419.603, 85537.08
1421.531, 88035.38
1423.460, 90546.22
1425.388, 93195.91
1427.317, 96338.98
1429.245, 99893.80
1431.174, 103715.7
1433.102, 107930.1
1435.031, 112580.1
1436.959, 117757.2
1438.888, 123545.7
1440.816, 129773.0
1442.745, 136475.4
1444.673, 143413.9
1446.601, 150610.7
1448.530, 157506.0
1450.458, 163953.3
1452.387, 169512.6
1454.315, 173887.2
1456.244, 176759.8
1458.172, 177866.1
1460.101, 176928.8
1462.029, 174315.5
1463.958, 170023.6
1465.886, 164461.8
1467.815, 157589.6
1469.743, 150394.2
1471.672, 142997.2
1473.600, 136150.0
1475.528, 129911.9
1477.457, 124541.2
1479.385, 119886.8
1481.314, 115919.6
1483.242, 112273.2
1485.171, 108750.0
1487.099, 105318.2
1489.028, 101976.1
1490.956, 98698.17
1492.885, 95488.37
1494.813, 92199.48
1496.742, 88852.49
1498.670, 85620.09
1500.599, 82521.89
1502.527, 79577.83
1504.455, 76744.01
1506.384, 73947.89
1508.312, 71286.70
1510.241, 68867.77
1512.169, 66482.66
1514.098, 64078.26
1516.026, 61746.71
1517.955, 59487.29
1519.883, 57309.03
1521.812, 55175.71
1523.740, 52953.42
1525.669, 50757.42
1527.597, 48683.93
1529.526, 46747.57
1531.454, 44925.28
1533.382, 43306.02
1535.311, 41914.57
1537.239, 40744.09
1539.168, 39795.46
1541.096, 38883.88
1543.025, 38037.82
1544.953, 37350.40
1546.882, 36798.80
1548.810, 36392.43
1550.739, 36043.81
1552.667, 35716.18
1554.596, 35424.20
1556.524, 35170.12
1558.453, 34943.74
1560.381, 34742.91
1562.309, 34600.04
1564.238, 34500.95
1566.166, 34406.68
1568.095, 34351.54
1570.023, 34346.20
1571.952, 34442.89
1573.880, 34675.43
1575.809, 34940.68
1577.737, 35222.73
1579.666, 35619.94
1581.594, 36130.35
1583.523, 36707.34
1585.451, 37382.52
1587.380, 38210.44
1589.308, 39138.77
1591.236, 40131.91
1593.165, 41220.81
1595.093, 42399.93
1597.022, 43752.45
1598.950, 45274.12
1600.879, 46887.53
1602.807, 48632.46
1604.736, 50560.50
1606.664, 52702.76
1608.593, 55095.77
1610.521, 57698.49
1612.450, 60491.27
1614.378, 63510.70
1616.307, 66763.30
1618.235, 70263.67
1620.163, 73993.91
1622.092, 77916.22
1624.020, 82012.60
1625.949, 86323.89
1627.877, 90710.90
1629.806, 95137.73
1631.734, 99613.16
1633.663, 104139.9
1635.591, 108620.4
1637.520, 112968.1
1639.448, 116986.1
1641.377, 120684.7
1643.305, 124096.8
1645.234, 127177.6
1647.162, 129894.1
1649.090, 132372.3
1651.019, 134619.1
1652.947, 136527.1
1654.876, 138149.9
1656.804, 139583.0
1658.733, 140840.9
1660.661, 141902.8
1662.590, 142925.0
1664.518, 143958.3
1666.447, 145011.6
1668.375, 146081.5
1670.304, 147033.5
1672.232, 147926.7
1674.161, 148835.7
1676.089, 149738.4
1678.017, 150691.3
1679.946, 151368.6
1681.874, 151705.1
1683.803, 151782.1
1685.731, 151546.0
1687.660, 150824.0
1689.588, 149715.6
1691.517, 148361.6
1693.445, 146608.7
1695.374, 144410.5
1697.302, 141828.1
1699.231, 138866.6
1701.159, 135527.6
1703.088, 131899.0
1705.016, 128114.3
1706.944, 124212.1
1708.873, 120192.7
1710.801, 116136.8
1712.730, 112026.4
1714.658, 108145.2
1716.587, 104531.5
1718.515, 101244.6
1720.444, 98330.73
1722.372, 95847.18
1724.301, 93736.05
1726.229, 91972.05
1728.158, 90625.28
1730.086, 89673.87
1732.015, 88905.84
1733.943, 88381.02
1735.871, 88202.13
1737.800, 88275.25
1739.728, 88621.72
1741.657, 89003.79
1743.585, 89390.45
1745.514, 89821.90
1747.442, 90305.07
1749.371, 90841.34
1751.299, 91457.89
1753.228, 92216.76
1755.156, 92866.22
1757.085, 93346.02
1759.013, 93822.42
1760.942, 94272.42
1762.870, 94594.87
1764.798, 94876.09
1766.727, 95206.60
1768.655, 95453.14
1770.584, 95590.35
1772.512, 95631.93
1774.441, 95589.89
1776.369, 95514.59
1778.298, 95336.34
1780.226, 94951.63
1782.155, 94532.46
1784.083, 94119.74
1786.012, 93450.30
1787.940, 92567.52
1789.869, 91730.27
1791.797, 90776.97
1793.725, 89519.80
1795.654, 88180.81
1797.582, 86813.78
1799.511, 85297.43
1801.439, 83661.64
1803.368, 82017.70
1805.296, 80320.55
1807.225, 78524.46
1809.153, 76681.82
1811.082, 74794.38
1813.010, 72947.02
1814.939, 71131.28
1816.867, 69335.70
1818.796, 67563.33
1820.724, 65785.30
1822.652, 64110.00
1824.581, 62562.23
1826.509, 60991.71
1828.438, 59448.48
1830.366, 58043.76
1832.295, 56721.42
1834.223, 55443.02
1836.152, 54300.13
1838.080, 53301.83
1840.009, 52322.68
1841.937, 51403.06
1843.866, 50633.99
1845.794, 49910.30
1847.723, 49189.82
1849.651, 48597.59
1851.579, 48129.65
1853.508, 47690.43
1855.436, 47314.27
1857.365, 47055.20
1859.293, 46835.95
1861.222, 46642.01
1863.150, 46424.41
1865.079, 46194.73
1867.007, 45999.11
1868.936, 45791.86
1870.864, 45533.48
1872.793, 45306.58
1874.721, 45106.97
1876.650, 44796.98
1878.578, 44410.48
1880.506, 43996.90
1882.435, 43518.57
1884.363, 42962.23
1886.292, 42381.15
1888.220, 41750.22
1890.149, 40971.11
1892.077, 40108.80
1894.006, 39180.94
1895.934, 38253.09
1897.863, 37334.92
1899.791, 36435.79
1901.720, 35562.19
1903.648, 34697.43
1905.577, 33895.67
1907.505, 33197.03
1909.433, 32501.91
1911.362, 31843.06
1913.290, 31388.07
1915.219, 31022.65
1917.147, 30661.10
1919.076, 30409.24
1921.004, 30281.91
1922.933, 30155.62
1924.861, 30080.01
1926.790, 30127.79
1928.718, 30226.46
1930.647, 30355.93
1932.575, 30524.47
1934.504, 30722.79
1936.432, 30922.82
1938.360, 31154.38
1940.289, 31425.78
1942.217, 31771.44
1944.146, 32181.41
1946.074, 32558.00
1948.003, 32958.59
1949.931, 33453.61
1951.860, 33939.65
1953.788, 34403.84
1955.717, 34879.29
1957.645, 35379.69
1959.574, 35935.98
1961.502, 36500.10
1963.431, 37059.83
1965.359, 37574.77
1967.287, 38072.97
1969.216, 38632.79
1971.144, 39178.26
1973.073, 39669.50
1975.001, 40144.28
1976.930, 40609.00
1978.858, 41094.90
1980.787, 41557.10
1982.715, 41946.07
1984.644, 42367.68
1986.572, 42814.88
1988.501, 43156.59
1990.429, 43446.12
1992.358, 43727.00
1994.286, 43973.98
1996.214, 44184.41
1998.143, 44302.37
2000.071, 44422.65
2002.000, 44656.95
2003.928, 44871.59
2005.857, 45028.02
2007.785, 45188.11
2009.714, 45373.84
2011.642, 45633.43
2013.571, 45885.20
2015.499, 46108.06
2017.428, 46308.02
2019.356, 46507.84
2021.285, 46741.05
2023.213, 47002.34
2025.141, 47290.51
2027.070, 47621.54
2028.998, 47979.04
2030.927, 48350.67
2032.855, 48700.93
2034.784, 49020.05
2036.712, 49245.02
2038.641, 49371.20
2040.569, 49383.71
2042.498, 49326.75
2044.426, 49223.85
2046.355, 49038.14
2048.283, 48783.09
2050.212, 48456.36
2052.140, 48143.45
2054.068, 47864.73
2055.997, 47714.15
2057.925, 47656.21
2059.854, 47604.17
2061.782, 47595.98
2063.711, 47646.43
2065.639, 47782.13
2067.568, 47953.05
2069.496, 48051.03
2071.425, 48154.21
2073.353, 48286.24
2075.281, 48415.71
2077.210, 48589.52
2079.138, 48882.24
2081.067, 49265.04
2082.995, 49735.65
2084.924, 50347.47
2086.852, 51041.32
2088.781, 51737.25
2090.709, 52437.02
2092.638, 53140.43
2094.566, 53814.85
2096.495, 54413.43
2098.423, 54913.21
2100.352, 55205.23
2102.280, 55265.09
2104.208, 55324.61
2106.137, 55312.04
2108.065, 55158.61
2109.994, 54916.08
2111.922, 54592.91
2113.851, 54183.54
2115.779, 53800.30
2117.708, 53531.36
2119.636, 53275.87
2121.565, 53037.46
2123.493, 52847.68
2125.422, 52714.01
2127.350, 52626.54
2129.279, 52673.84
2131.207, 52863.05
2133.135, 53200.22
2135.064, 53618.18
2136.992, 54090.10
2138.921, 54666.27
2140.849, 55300.42
2142.778, 55945.89
2144.706, 56569.18
2146.635, 57160.06
2148.563, 57625.28
2150.492, 57960.89
2152.420, 58194.52
2154.349, 58226.26
2156.277, 58053.73
2158.206, 57644.01
2160.134, 56995.18
2162.063, 56102.12
2163.991, 54876.43
2165.919, 53363.64
2167.848, 51624.51
2169.776, 49727.66
2171.705, 47679.80
2173.633, 45465.56
2175.562, 43129.46
2177.490, 40693.53
2179.419, 38302.75
2181.347, 35981.61
2183.276, 33641.07
2185.204, 31397.70
2187.133, 29307.61
2189.061, 27335.71
2190.990, 25495.34
2192.918, 23856.59
2194.846, 22324.84
2196.775, 20869.82
2198.703, 19552.82
2200.632, 18375.46
2202.560, 17379.73
2204.489, 16464.40
2206.417, 15624.18
2208.346, 14885.77
2210.274, 14231.76
2212.203, 13667.85
2214.131, 13078.72
2216.060, 12508.53
2217.988, 12049.87
2219.917, 11612.47
2221.845, 11177.22
2223.773, 10779.33
2225.702, 10419.77
2227.630, 10104.98
2229.559, 9819.599
2231.487, 9549.372
2233.416, 9256.464
2235.344, 8976.490
2237.273, 8723.564
2239.201, 8498.963
2241.130, 8283.790
2243.058, 8058.562
2244.987, 7828.548
2246.915, 7605.466
2248.844, 7439.979
2250.772, 7287.272
2252.700, 7131.327
2254.629, 6974.731
2256.557, 6820.990
2258.486, 6671.452
2260.414, 6544.161
2262.343, 6431.600
2264.271, 6281.756
2266.200, 6144.978
2268.128, 6038.830
2270.057, 5961.846
2271.985, 5887.806
2273.914, 5781.112
2275.842, 5686.958
2277.771, 5609.091
2279.699, 5540.312
2281.627, 5473.943
2283.556, 5407.612
2285.484, 5317.222
2287.413, 5232.682
2289.341, 5195.851
2291.270, 5149.045
2293.198, 5089.450
2295.127, 5023.227
2297.055, 4956.810
2298.984, 4892.479
2300.912, 4823.354
2302.841, 4757.993
2304.769, 4705.679
2306.698, 4655.100
2308.626, 4602.591
2310.554, 4539.594
2312.483, 4481.106
2314.411, 4430.517
2316.340, 4384.351
2318.268, 4338.600
2320.197, 4289.849
2322.125, 4255.598
2324.054, 4220.699
2325.982, 4163.734
2327.911, 4105.117
2329.839, 4048.005
2331.768, 3986.307
2333.696, 3940.293
2335.625, 3914.585
2337.553, 3860.956
2339.481, 3804.167
2341.410, 3764.913
2343.338, 3716.663
2345.267, 3665.421
2347.195, 3625.527
2349.124, 3591.979
2351.052, 3562.922
2352.981, 3533.093
2354.909, 3505.109
2356.838, 3479.485
2358.766, 3458.868
2360.695, 3429.670
2362.623, 3368.710
2364.552, 3337.191
2366.480, 3321.274
2368.408, 3288.324
2370.337, 3264.465
2372.265, 3248.698
2374.194, 3214.012
2376.122, 3179.027
2378.051, 3151.726
2379.979, 3107.903
2381.908, 3068.415
2383.836, 3054.381
2385.765, 3021.423
2387.693, 2981.304
2389.622, 2954.369
2391.550, 2922.276
2393.479, 2886.644
2395.407, 2866.945
2397.335, 2835.708
2399.264, 2788.571
2401.192, 2770.486
2403.121, 2760.891
2405.049, 2749.451
2406.978, 2728.170
2408.906, 2706.855
2410.835, 2694.759
2412.763, 2682.876
2414.692, 2669.104
2416.620, 2653.418
2418.549, 2625.840
2420.477, 2591.539
2422.406, 2574.328
2424.334, 2553.354
2426.262, 2522.911
2428.191, 2478.101
2430.119, 2442.699
2432.048, 2427.392
2433.976, 2398.956
2435.905, 2370.674
2437.833, 2356.902
2439.762, 2339.834
2441.690, 2318.347
2443.619, 2289.780
2445.547, 2263.898
2447.476, 2241.430
2449.404, 2220.991
2451.333, 2204.839
2453.261, 2192.644
2455.189, 2181.633
2457.118, 2178.059
2459.046, 2182.088
2460.975, 2160.205
2462.903, 2149.802
2464.832, 2170.112
2466.760, 2150.344
2468.689, 2125.055
2470.617, 2117.488
2472.546, 2120.851
2474.474, 2118.033
2476.403, 2091.507
2478.331, 2077.920
2480.260, 2071.258
2482.188, 2058.331
2484.116, 2041.144
2486.045, 2024.129
2487.973, 2018.088
2489.902, 2011.963
2491.830, 2006.010
2493.759, 2001.401
2495.687, 2014.822
2497.616, 2048.452
2499.544, 2091.187
2501.473, 2149.824
2503.401, 2228.033
2505.330, 2353.586
2507.258, 2508.207
2509.187, 2683.452
2511.115, 2887.714
2513.043, 3118.471
2514.972, 3381.696
2516.900, 3644.439
2518.829, 3884.263
2520.757, 4086.565
2522.686, 4255.276
2524.614, 4348.231
2526.543, 4327.393
2528.471, 4237.151
2530.400, 4082.347
2532.328, 3864.552
2534.257, 3612.468
2536.185, 3340.948
2538.114, 3058.486
2540.042, 2797.862
2541.970, 2565.218
2543.899, 2363.491
2545.827, 2199.969
2547.756, 2078.557
2549.684, 2017.376
2551.613, 1982.733
2553.541, 1959.522
2555.470, 1923.895
2557.398, 1879.065
2559.327, 1829.266
2561.255, 1783.757
2563.184, 1741.346
2565.112, 1701.982
2567.041, 1662.775
2568.969, 1638.625
2570.897, 1625.984
2572.826, 1603.413
2574.754, 1579.114
2576.683, 1556.048
2578.611, 1537.228
2580.540, 1519.670
2582.468, 1502.222
2584.397, 1483.706
2586.325, 1464.484
2588.254, 1445.207
2590.182, 1430.325
2592.111, 1412.852
2594.039, 1393.015
2595.968, 1386.411
2597.896, 1378.173
2599.824, 1365.230
2601.753, 1355.049
2603.681, 1339.451
2605.610, 1318.454
2607.538, 1300.517
2609.467, 1298.986
2611.395, 1312.196
2613.324, 1319.066
2615.252, 1307.328
2617.181, 1280.634
2619.109, 1268.521
2621.038, 1255.018
2622.966, 1237.654
2624.895, 1223.036
2626.823, 1203.632
2628.751, 1183.680
2630.680, 1178.769
2632.608, 1186.126
2634.537, 1197.579
2636.465, 1197.610
2638.394, 1181.563
2640.322, 1160.547
2642.251, 1163.086
2644.179, 1156.724
2646.108, 1141.978
2648.036, 1124.768
2649.965, 1131.079
2651.893, 1138.623
2653.822, 1101.345
2655.750, 1093.676
2657.678, 1097.854
2659.607, 1079.575
2661.535, 1070.639
2663.464, 1065.899
2665.392, 1057.385
2667.321, 1038.362
2669.249, 1021.111
2671.178, 1015.495
2673.106, 1019.111
2675.035, 1014.994
2676.963, 994.1218
2678.892, 997.3633
2680.820, 989.9756
2682.749, 958.3361
2684.677, 953.9313
2686.605, 956.7203
2688.534, 955.9500
2690.462, 943.1548
2692.391, 930.0743
2694.319, 921.0558
2696.248, 919.2014
2698.176, 914.8033
2700.105, 905.5817
2702.033, 887.7760
2703.962, 885.4946
2705.890, 890.1561
2707.819, 876.3373
2709.747, 866.0812
2711.676, 861.0746
2713.604, 864.2551
2715.532, 842.3267
2717.461, 821.6512
2719.389, 832.4380
2721.318, 817.1173
2723.246, 798.4592
2725.175, 793.0906
2727.103, 801.9684
2729.032, 796.2097
2730.960, 767.4881
2732.889, 771.2902
2734.817, 774.4163
2736.746, 767.3708
2738.674, 746.5858
2740.603, 750.4587
2742.531, 765.5052
2744.459, 742.4543
2746.388, 724.9882
2748.316, 717.9251
2750.245, 724.1520
2752.173, 706.3809
2754.102, 686.4764
2756.030, 682.4013
2757.959, 665.0426
2759.887, 659.1980
2761.816, 671.6039
2763.744, 654.7271
2765.673, 654.0263
2767.601, 670.9380
2769.530, 673.0529
2771.458, 646.5944
2773.386, 613.0595
2775.315, 616.4344
2777.243, 603.6498
2779.172, 589.2563
2781.100, 593.8711
2783.029, 592.3815
2784.957, 588.8215
2786.886, 585.8160
2788.814, 573.1640
2790.743, 563.1346
2792.671, 560.3208
2794.600, 574.2626
2796.528, 560.5786
2798.457, 533.3485
2800.385, 530.9747
2802.313, 524.6426
2804.242, 513.8240
2806.170, 500.8355
2808.099, 492.6310
2810.027, 500.1681
2811.956, 520.4965
2813.884, 512.4248
2815.813, 503.3709
2817.741, 498.0755
2819.670, 487.0527
2821.598, 480.3378
2823.527, 476.2488
2825.455, 471.3329
2827.384, 461.5946
2829.312, 462.9568
2831.240, 483.7861
2833.169, 471.0228
2835.097, 459.1992
2837.026, 457.7673
2838.954, 466.2958
2840.883, 461.7114
2842.811, 456.8208
2844.740, 473.3244
2846.668, 453.3305
2848.597, 432.6233
2850.525, 435.2403
2852.454, 451.9281
2854.382, 451.8654
2856.311, 436.2142
2858.239, 434.6473
2860.167, 433.7963
2862.096, 431.1035
2864.024, 425.7616
2865.953, 440.1529
2867.881, 444.5152
2869.810, 431.1616
2871.738, 435.5606
2873.667, 442.6155
2875.595, 447.5375
2877.524, 451.1021
2879.452, 437.0233
2881.381, 427.7760
2883.309, 441.6624
2885.238, 437.8075
2887.166, 432.7647
2889.094, 429.7018
2891.023, 413.7890
2892.951, 423.5192
2894.880, 437.2888
2896.808, 424.3647
2898.737, 398.9234
2900.665, 381.9775
2902.594, 382.4762
2904.522, 399.2685
2906.451, 393.5524
2908.379, 378.2376
2910.308, 383.2385
2912.236, 365.7708
2914.165, 366.7123
2916.093, 401.1096
2918.021, 379.6924
2919.950, 366.9968
2921.878, 369.9295
2923.807, 371.0532
2925.735, 368.7090
2927.664, 363.4893
2929.592, 357.0242
2931.521, 357.9792
2933.449, 364.8836
2935.378, 369.9907
2937.306, 356.8499
2939.235, 346.9202
2941.163, 346.1643
2943.092, 355.6468
2945.020, 341.2599
2946.948, 346.8948
2948.877, 364.5392
2950.805, 356.9539
2952.734, 353.8078
2954.662, 354.0054
2956.591, 354.7708
2958.519, 347.9461
2960.448, 343.0710
2962.376, 344.4259
2964.305, 355.9522
2966.233, 358.6455
2968.162, 360.1297
2970.090, 364.9273
2972.019, 367.7783
2973.947, 367.5002
2975.875, 365.2173
2977.804, 362.5895
2979.732, 378.4985
2981.661, 396.4372
2983.589, 406.2735
2985.518, 397.9082
2987.446, 395.1326
2989.375, 397.2805
2991.303, 400.4014
2993.232, 399.3851
2995.160, 405.5941
2997.089, 418.2895
2999.017, 428.9124
3000.946, 440.5943
3002.874, 451.2874
3004.802, 460.0471
3006.731, 472.2078
3008.659, 486.6201
3010.588, 498.6078
3012.516, 502.3160
3014.445, 512.8505
3016.373, 517.0501
3018.302, 523.1149
3020.230, 576.2438
3022.159, 591.1469
3024.087, 604.0293
3026.016, 643.7111
3027.944, 676.4557
3029.873, 698.0538
3031.801, 719.0845
3033.729, 754.0151
3035.658, 801.5385
3037.586, 860.0026
3039.515, 918.7594
3041.443, 944.9369
3043.372, 1000.816
3045.300, 1050.746
3047.229, 1074.336
3049.157, 1100.051
3051.086, 1145.563
3053.014, 1198.698
3054.943, 1243.873
3056.871, 1258.327
3058.800, 1269.939
3060.728, 1277.345
3062.656, 1253.183
3064.585, 1287.709
3066.513, 1314.654
3068.442, 1309.784
3070.370, 1319.872
3072.299, 1316.943
3074.227, 1302.911
3076.156, 1284.610
3078.084, 1289.569
3080.013, 1293.878
3081.941, 1288.700
3083.870, 1271.905
3085.798, 1268.573
3087.727, 1264.746
3089.655, 1254.350
3091.583, 1234.597
3093.512, 1232.302
3095.440, 1230.648
3097.369, 1221.726
3099.297, 1198.962
3101.226, 1206.484
3103.154, 1215.816
3105.083, 1213.710
3107.011, 1210.441
3108.940, 1212.006
3110.868, 1200.214
3112.797, 1172.380
3114.725, 1213.748
3116.654, 1246.082
3118.582, 1259.846
3120.510, 1258.958
3122.439, 1244.166
3124.367, 1237.844
3126.296, 1239.906
3128.224, 1247.358
3130.153, 1307.766
3132.081, 1356.933
3134.010, 1421.926
3135.938, 1546.510
3137.867, 1522.867
3139.795, 1505.051
3141.724, 1529.044
3143.652, 1569.195
3145.581, 1614.188
3147.509, 1637.979
3149.438, 1647.064
3151.366, 1667.063
3153.294, 1684.999
3155.223, 1702.734
3157.151, 1718.915
3159.080, 1724.437
3161.008, 1752.824
3162.937, 1808.487
3164.865, 1878.549
3166.794, 1931.711
3168.722, 2017.142
3170.651, 2105.475
3172.579, 2189.248
3174.508, 2279.010
3176.436, 2405.306
3178.365, 2524.598
3180.293, 2636.063
3182.221, 2774.350
3184.150, 2890.567
3186.078, 3017.590
3188.007, 3171.640
3189.935, 3356.479
3191.864, 3506.497
3193.792, 3637.220
3195.721, 3767.012
3197.649, 3911.624
3199.578, 4050.768
3201.506, 4197.323
3203.435, 4351.706
3205.363, 4508.987
3207.292, 4629.036
3209.220, 4710.922
3211.148, 4777.917
3213.077, 4861.319
3215.005, 4914.541
3216.934, 4905.981
3218.862, 4863.377
3220.791, 4825.417
3222.719, 4714.983
3224.648, 4590.271
3226.576, 4462.440
3228.505, 4326.489
3230.433, 4141.340
3232.362, 3976.155
3234.290, 3815.829
3236.219, 3647.792
3238.147, 3502.083
3240.075, 3368.577
3242.004, 3241.851
3243.932, 3129.290
3245.861, 3065.841
3247.789, 2976.163
3249.718, 2882.440
3251.646, 2810.913
3253.575, 2791.958
3255.503, 2731.179
3257.432, 2686.188
3259.360, 2667.368
3261.289, 2662.988
3263.217, 2630.868
3265.146, 2606.918
3267.074, 2584.346
3269.002, 2549.983
3270.931, 2527.953
3272.859, 2478.394
3274.788, 2441.121
3276.716, 2433.619
3278.645, 2409.388
3280.573, 2400.726
3282.502, 2387.657
3284.430, 2364.025
3286.359, 2340.321
3288.287, 2393.277
3290.216, 2404.149
3292.144, 2389.588
3294.073, 2405.155
3296.001, 2409.794
3297.929, 2444.134
3299.858, 2513.787
3301.786, 2607.205
3303.715, 2698.453
3305.643, 2764.684
3307.572, 2832.971
3309.500, 2893.177
3311.429, 2909.946
3313.357, 2876.477
3315.286, 2833.518
3317.214, 2800.796
3319.143, 2782.352
3321.071, 2733.496
3323.000, 2702.708
3324.928, 2751.655
3326.856, 2872.325
3328.785, 2975.092
3330.713, 3074.867
3332.642, 3198.186
3334.570, 3362.693
3336.499, 3558.266
3338.427, 3639.762
3340.356, 3686.375
3342.284, 3708.473
3344.213, 3706.419
3346.141, 3684.587
3348.070, 3660.074
3349.998, 3654.009
3351.927, 3675.682
3353.855, 3721.777
3355.783, 3753.917
3357.712, 3697.777
3359.640, 3636.175
3361.569, 3602.073
3363.497, 3538.743
3365.426, 3442.513
3367.354, 3327.057
3369.283, 3203.445
3371.211, 3082.961
3373.140, 3010.283
3375.068, 2942.588
3376.997, 2902.218
3378.925, 2902.106
3380.854, 2938.472
3382.782, 2988.805
3384.710, 3076.014
3386.639, 3153.563
3388.567, 3202.177
3390.496, 3286.733
3392.424, 3360.404
3394.353, 3459.793
3396.281, 3606.227
3398.210, 3793.599
3400.138, 3934.654
3402.067, 4095.243
3403.995, 4258.970
3405.924, 4425.028
3407.852, 4614.148
3409.781, 4832.646
3411.709, 5024.931
3413.637, 5180.345
3415.566, 5317.781
3417.494, 5487.757
3419.423, 5702.741
3421.351, 5853.385
3423.280, 5950.025
3425.208, 6031.467
3427.137, 6107.960
3429.065, 6065.287
3430.994, 5955.513
3432.922, 5801.435
3434.851, 5608.391
3436.779, 5411.765
3438.708, 5189.620
3440.636, 4951.571
3442.564, 4690.813
3444.493, 4395.180
3446.421, 4072.856
3448.350, 3861.357
3450.278, 3658.454
3452.207, 3443.956
3454.135, 3292.300
3456.064, 3151.943
##END=



