##NAMES=Wulfenite
##RRUFFID=R050501
##IDEAL CHEMISTRY=PbMoO_4_
##LOCALITY=Los Lamentos, Chihuahua, Mexico
##OWNER=RRUFF
##SOURCE=California Institute of Technology
##DESCRIPTION=Orange tabular crystal
##STATUS=The identification of this mineral has been confirmed by X-ray diffraction and chemical analysis
##URL=https://www.rruff.net/odr/rruff_sample/R050501
##MEASURED CHEMISTRY=Pb_1.00_Mo_1.00_O_4_
##DIFFRACTION SAMPLE DESCRIPTION=Powder
##CELL PARAMETERS=a: 5.4357 b: 5.4357 c: 12.1147 alpha: 90 beta: 90 gamma: 90 volume: 357.95 crystal system: tetragonal
##FILETYPE=Raman Processed
##RAMAN WAVELENGTH=780

118.7092, 1550.451
120.6377, 1605.036
122.5661, 1681.742
124.4946, 1786.378
126.4231, 1904.705
128.3515, 2043.600
130.2800, 2188.336
132.2085, 2319.310
134.1369, 2437.060
136.0654, 2537.772
137.9939, 2612.032
139.9223, 2679.723
141.8508, 2732.735
143.7793, 2790.063
145.7077, 2870.705
147.6362, 2974.170
149.5647, 3098.407
151.4931, 3262.338
153.4216, 3422.201
155.3501, 3581.417
157.2785, 3723.028
159.2070, 3839.995
161.1355, 3931.681
163.0639, 3977.513
164.9924, 3981.710
166.9209, 3929.211
168.8493, 3805.009
170.7778, 3633.179
172.7063, 3412.867
174.6348, 3158.028
176.5632, 2926.469
178.4917, 2714.394
180.4202, 2536.977
182.3486, 2401.172
184.2771, 2292.856
186.2056, 2217.004
188.1340, 2158.443
190.0625, 2093.719
191.9910, 2026.094
193.9194, 1935.915
195.8479, 1814.451
197.7764, 1686.884
199.7048, 1552.119
201.6333, 1424.481
203.5618, 1317.335
205.4902, 1231.348
207.4187, 1162.524
209.3471, 1111.755
211.2756, 1071.665
213.2041, 1042.637
215.1325, 1021.846
217.0610, 1009.057
218.9895, 1002.790
220.9179, 998.3826
222.8464, 995.4276
224.7749, 996.6375
226.7033, 1004.364
228.6318, 1012.793
230.5603, 1018.650
232.4887, 1024.541
234.4172, 1033.709
236.3457, 1046.226
238.2741, 1059.598
240.2026, 1072.880
242.1311, 1090.532
244.0595, 1115.683
245.9880, 1143.761
247.9165, 1171.233
249.8449, 1200.150
251.7734, 1234.774
253.7019, 1274.718
255.6303, 1320.573
257.5588, 1369.070
259.4873, 1430.240
261.4157, 1498.029
263.3442, 1586.090
265.2727, 1696.208
267.2011, 1839.229
269.1296, 2038.709
271.0581, 2283.963
272.9865, 2643.148
274.9150, 3122.552
276.8435, 3721.273
278.7719, 4497.560
280.7004, 5360.698
282.6289, 6247.589
284.5573, 7133.734
286.4858, 7853.275
288.4143, 8365.058
290.3427, 8748.894
292.2712, 8910.730
294.1997, 9073.005
296.1281, 9279.603
298.0566, 9606.685
299.9851, 10166.09
301.9135, 10964.65
303.8420, 11812.64
305.7705, 12788.10
307.6989, 13675.45
309.6274, 14494.14
311.5559, 15174.19
313.4843, 15805.36
315.4128, 16208.92
317.3413, 16073.33
319.2697, 15389.24
321.1982, 14164.73
323.1267, 12079.75
325.0551, 10065.57
326.9836, 8139.770
328.9121, 6492.049
330.8405, 5247.490
332.7690, 4333.002
334.6975, 3656.347
336.6259, 3241.919
338.5544, 2929.226
340.4829, 2732.315
342.4113, 2587.931
344.3398, 2502.961
346.2683, 2440.494
348.1967, 2399.604
350.1252, 2355.270
352.0537, 2264.621
353.9821, 2125.260
355.9106, 1971.054
357.8391, 1797.894
359.7675, 1626.064
361.6960, 1452.313
363.6245, 1294.080
365.5529, 1155.109
367.4814, 1037.353
369.4099, 945.4269
371.3383, 878.7237
373.2668, 824.8748
375.1953, 784.3508
377.1237, 750.9114
379.0522, 724.9309
380.9807, 703.2659
382.9091, 685.5120
384.8376, 670.2561
386.7661, 656.7485
388.6945, 644.6682
390.6230, 633.0300
392.5515, 621.8491
394.4799, 611.0761
396.4084, 600.6867
398.3369, 590.8137
400.2654, 580.9861
402.1938, 572.1842
404.1223, 565.2375
406.0508, 559.4783
407.9792, 554.2273
409.9077, 549.2814
411.8362, 543.4988
413.7646, 536.2508
415.6931, 530.5963
417.6216, 528.7601
419.5500, 526.2346
421.4785, 521.2952
423.4070, 515.6317
425.3354, 510.2141
427.2639, 505.2402
429.1924, 501.2577
431.1208, 498.2746
433.0493, 495.3013
434.9778, 491.9842
436.9062, 489.1026
438.8347, 487.3296
440.7632, 485.1950
442.6916, 481.2525
444.6201, 477.3901
446.5486, 475.8138
448.4770, 475.6659
450.4055, 474.1570
452.3340, 470.8371
454.2624, 468.0258
456.1909, 465.5997
458.1194, 463.7990
460.0478, 462.9683
461.9763, 462.3392
463.9048, 461.6508
465.8332, 460.7441
467.7617, 459.4233
469.6902, 457.7976
471.6186, 456.2309
473.5471, 454.7496
475.4756, 453.3112
477.4040, 451.8951
479.3325, 450.5926
481.2610, 449.6291
483.1894, 448.5200
485.1179, 446.7607
487.0464, 444.9511
488.9748, 443.7180
490.9033, 442.7712
492.8318, 441.1845
494.7602, 440.3047
496.6887, 439.4364
498.6172, 437.9718
500.5456, 437.6890
502.4741, 435.9248
504.4026, 434.3434
506.3310, 433.8633
508.2595, 433.5464
510.1880, 433.3449
512.1164, 432.6320
514.0449, 429.3354
515.9733, 424.0873
517.9018, 421.9501
519.8303, 423.1922
521.7587, 423.3711
523.6872, 421.2167
525.6157, 419.5274
527.5441, 419.6026
529.4726, 419.5647
531.4011, 418.1683
533.3295, 416.6898
535.2580, 416.7021
537.1865, 417.4766
539.1149, 417.3249
541.0434, 416.4147
542.9719, 415.8124
544.9003, 415.7806
546.8288, 415.3475
548.7573, 414.3612
550.6857, 412.9212
552.6142, 410.5869
554.5427, 408.2695
556.4711, 406.0801
558.3996, 404.5819
560.3281, 405.0552
562.2565, 406.3425
564.1850, 405.9065
566.1135, 403.8087
568.0419, 402.5688
569.9704, 402.4987
571.8989, 402.8564
573.8273, 404.3744
575.7558, 405.0012
577.6843, 403.4927
579.6127, 402.0422
581.5412, 401.9446
583.4697, 402.1612
585.3981, 401.8941
587.3266, 401.3697
589.2551, 400.9402
591.1835, 400.5524
593.1120, 399.9239
595.0405, 398.9995
596.9689, 398.3434
598.8974, 397.6413
600.8259, 397.7885
602.7543, 399.4492
604.6828, 401.1731
606.6113, 402.4162
608.5397, 403.3431
610.4682, 403.8769
612.3967, 404.3046
614.3251, 405.3901
616.2536, 406.6465
618.1821, 405.8896
620.1105, 403.0222
622.0390, 403.0775
623.9675, 406.5493
625.8959, 409.2036
627.8244, 410.4308
629.7529, 411.3337
631.6813, 411.7885
633.6098, 412.9967
635.5383, 415.6195
637.4667, 418.8395
639.3952, 422.9379
641.3237, 426.7907
643.2521, 428.8877
645.1806, 429.7586
647.1091, 430.0998
649.0375, 430.0997
650.9660, 431.6619
652.8945, 434.8561
654.8229, 438.0328
656.7514, 440.9534
658.6799, 443.9620
660.6083, 447.3943
662.5368, 450.5812
664.4653, 453.0148
666.3937, 455.5234
668.3222, 457.9854
670.2507, 461.1910
672.1791, 466.4170
674.1076, 472.5651
676.0361, 478.3234
677.9645, 483.4969
679.8930, 487.0850
681.8215, 489.4584
683.7499, 493.1379
685.6784, 498.2468
687.6069, 504.7062
689.5353, 511.5210
691.4638, 522.0311
693.3923, 534.8893
695.3207, 553.8900
697.2492, 577.2927
699.1777, 610.3757
701.1061, 649.1003
703.0346, 705.8803
704.9631, 786.7083
706.8915, 895.3411
708.8200, 1044.044
710.7485, 1216.381
712.6769, 1388.216
714.6054, 1554.839
716.5339, 1680.583
718.4623, 1761.960
720.3908, 1829.240
722.3193, 1862.555
724.2477, 1936.578
726.1762, 2051.062
728.1047, 2210.141
730.0331, 2435.553
731.9616, 2661.952
733.8901, 2884.318
735.8185, 3077.716
737.7470, 3235.027
739.6755, 3349.665
741.6039, 3442.337
743.5324, 3469.915
745.4609, 3378.813
747.3893, 3195.160
749.3178, 2936.005
751.2463, 2629.601
753.1747, 2372.425
755.1032, 2165.219
757.0317, 2013.342
758.9601, 1917.062
760.8886, 1841.501
762.8171, 1788.941
764.7455, 1733.612
766.6740, 1674.817
768.6025, 1600.105
770.5309, 1502.347
772.4594, 1398.259
774.3879, 1281.849
776.3163, 1179.717
778.2448, 1100.405
780.1733, 1038.875
782.1017, 994.1249
784.0302, 964.0573
785.9587, 950.1226
787.8871, 946.8555
789.8156, 949.3932
791.7441, 957.4722
793.6725, 970.3355
795.6010, 988.0016
797.5295, 1010.402
799.4579, 1037.900
801.3864, 1071.275
803.3149, 1110.120
805.2433, 1153.424
807.1718, 1201.318
809.1003, 1253.388
811.0287, 1308.140
812.9572, 1371.934
814.8857, 1442.253
816.8141, 1529.240
818.7426, 1627.672
820.6711, 1752.553
822.5995, 1888.473
824.5280, 2080.016
826.4565, 2304.551
828.3849, 2639.020
830.3134, 3065.552
832.2419, 3684.771
834.1703, 4586.785
836.0988, 5678.346
838.0273, 7034.544
839.9557, 8387.384
841.8842, 9560.537
843.8127, 10491.66
845.7411, 11002.78
847.6696, 11267.92
849.5981, 11528.06
851.5266, 11878.95
853.4550, 12662.93
855.3835, 13838.03
857.3120, 15161.89
859.2404, 16624.86
861.1689, 17690.55
863.0974, 18340.28
865.0258, 18742.39
866.9543, 18953.72
868.8828, 18721.65
870.8112, 18078.99
872.7397, 16693.01
874.6682, 14370.64
876.5966, 11953.31
878.5251, 9474.162
880.4536, 7336.110
882.3820, 5639.288
884.3105, 4295.018
886.2390, 3326.045
888.1674, 2588.990
890.0959, 2088.478
892.0244, 1712.404
893.9528, 1454.282
895.8813, 1256.969
897.8098, 1113.661
899.7382, 1001.559
901.6667, 916.0954
903.5952, 847.4650
905.5236, 793.7720
907.4521, 748.8662
909.3806, 709.2785
911.3090, 674.4100
913.2375, 643.4855
915.1660, 616.1388
917.0944, 592.9066
919.0229, 572.8817
920.9514, 555.2893
922.8798, 539.4460
924.8083, 523.9562
926.7368, 509.4883
928.6652, 497.8501
930.5937, 488.2681
932.5222, 478.4980
934.4506, 468.6991
936.3791, 460.1774
938.3076, 452.8544
940.2360, 445.9033
942.1645, 439.2931
944.0930, 433.4331
946.0214, 428.0721
947.9499, 421.3630
949.8784, 413.3488
951.8068, 405.0179
953.7353, 396.3208
955.6638, 389.2990
957.5922, 384.1206
959.5207, 378.5635
961.4492, 372.5427
963.3776, 366.7906
965.3061, 361.1120
967.2346, 356.8766
969.1630, 354.3439
971.0915, 351.6776
973.0200, 348.8398
974.9484, 347.5496
976.8769, 345.3049
978.8054, 343.2256
980.7338, 342.4232
982.6623, 339.5935
984.5908, 338.9666
986.5192, 338.1261
988.4477, 336.8970
990.3762, 335.5201
992.3046, 333.7119
994.2331, 332.2216
996.1616, 331.4348
998.0900, 330.6942
1000.018, 329.6937
1001.947, 328.9555
1003.875, 328.9128
1005.804, 328.5766
1007.732, 327.5561
1009.661, 325.7226
1011.589, 322.8345
1013.518, 321.1919
1015.446, 321.4627
1017.375, 321.5367
1019.303, 321.1497
1021.232, 320.4098
1023.160, 318.9519
1025.089, 317.8927
1027.017, 317.8273
1028.945, 317.4140
1030.874, 316.0594
1032.802, 315.2298
1034.731, 315.2804
1036.659, 315.4715
1038.588, 316.1725
1040.516, 316.1133
1042.445, 314.9322
1044.373, 313.3044
1046.302, 311.0799
1048.230, 308.9499
1050.159, 306.1190
1052.087, 304.7693
1054.016, 306.6360
1055.944, 307.5051
1057.872, 306.4409
1059.801, 305.1835
1061.729, 303.4496
1063.658, 302.2685
1065.586, 301.8629
1067.515, 302.0752
1069.443, 303.4311
1071.372, 303.8294
1073.300, 302.6393
1075.229, 301.9474
1077.157, 301.8692
1079.086, 302.3141
1081.014, 303.6563
1082.943, 304.3555
1084.871, 304.0074
1086.799, 303.6345
1088.728, 303.4647
1090.656, 303.0815
1092.585, 302.2776
1094.513, 302.3838
1096.442, 303.6815
1098.370, 304.0142
1100.299, 303.2048
1102.227, 302.7643
1104.156, 302.7464
1106.084, 302.3567
1108.013, 301.7022
1109.941, 301.4242
1111.870, 301.1456
1113.798, 299.9009
1115.726, 299.0808
1117.655, 296.9778
1119.583, 296.0960
1121.512, 294.0754
1123.440, 291.4631
1125.369, 289.8649
1127.297, 289.0044
1129.226, 289.5448
1131.154, 290.8880
1133.083, 290.3034
1135.011, 288.3860
1136.940, 286.4326
1138.868, 285.1297
1140.797, 286.1997
1142.725, 288.3077
1144.653, 289.3080
1146.582, 289.4391
1148.510, 288.9101
1150.439, 288.4996
1152.367, 288.9995
1154.296, 289.6567
1156.224, 289.6610
1158.153, 289.7272
1160.081, 290.7621
1162.010, 291.6517
1163.938, 291.5057
1165.867, 291.5156
1167.795, 292.5699
1169.724, 292.9955
1171.652, 291.6057
1173.580, 290.5229
1175.509, 290.8940
1177.437, 290.8496
1179.366, 289.4643
1181.294, 288.7494
1183.223, 289.3710
1185.151, 289.4940
1187.080, 288.6362
1189.008, 288.5365
1190.937, 289.9222
1192.865, 289.8597
1194.794, 287.8282
1196.722, 286.1884
1198.651, 284.8158
1200.579, 284.4081
1202.507, 284.9710
1204.436, 284.2842
1206.364, 285.0609
1208.293, 283.6476
1210.221, 285.8637
1212.150, 286.2230
1214.078, 285.4702
1216.007, 283.8819
1217.935, 282.1593
1219.864, 282.1518
1221.792, 282.5366
1223.721, 282.1724
1225.649, 282.0767
1227.578, 282.3251
1229.506, 281.8449
1231.434, 280.1651
1233.363, 279.1035
1235.291, 280.0963
1237.220, 280.5112
1239.148, 278.8820
1241.077, 278.0072
1243.005, 278.6761
1244.934, 279.2286
1246.862, 279.2247
1248.791, 279.3747
1250.719, 280.2670
1252.648, 281.2321
1254.576, 281.8062
1256.505, 281.6279
1258.433, 282.6774
1260.361, 283.2991
1262.290, 283.9252
1264.218, 285.1883
1266.147, 285.5297
1268.075, 286.5017
1270.004, 288.0228
1271.932, 289.9761
1273.861, 292.1475
1275.789, 294.1801
1277.718, 296.0312
1279.646, 297.1584
1281.575, 298.5816
1283.503, 301.7902
1285.432, 305.0154
1287.360, 306.6578
1289.288, 308.9872
1291.217, 313.0938
1293.145, 316.7496
1295.074, 319.3992
1297.002, 322.6894
1298.931, 326.8090
1300.859, 330.8467
1302.788, 334.9669
1304.716, 339.2551
1306.645, 343.4253
1308.573, 348.1746
1310.502, 354.0413
1312.430, 361.1437
1314.359, 368.2657
1316.287, 374.6938
1318.215, 381.5874
1320.144, 389.1092
1322.072, 397.2972
1324.001, 406.4915
1325.929, 416.6387
1327.858, 427.5832
1329.786, 439.4312
1331.715, 452.4302
1333.643, 466.2615
1335.572, 480.5395
1337.500, 494.3881
1339.429, 508.0587
1341.357, 522.8527
1343.286, 539.1610
1345.214, 556.4346
1347.142, 573.1504
1349.071, 587.1149
1350.999, 599.5119
1352.928, 611.8040
1354.856, 623.1967
1356.785, 632.8695
1358.713, 640.9656
1360.642, 648.0202
1362.570, 651.8073
1364.499, 651.7708
1366.427, 649.1318
1368.356, 643.7668
1370.284, 634.9504
1372.213, 622.7391
1374.141, 608.7438
1376.069, 593.4869
1377.998, 578.2172
1379.926, 562.8401
1381.855, 547.5387
1383.783, 533.0003
1385.712, 519.9602
1387.640, 507.6934
1389.569, 496.0094
1391.497, 486.2080
1393.426, 478.8586
1395.354, 472.2098
1397.283, 465.5879
1399.211, 460.4361
1401.140, 456.8027
1403.068, 454.4942
1404.996, 453.5389
1406.925, 453.8722
1408.853, 454.4549
1410.782, 452.4858
1412.710, 450.3933
1414.639, 450.5388
1416.567, 451.3611
1418.496, 452.9410
1420.424, 453.5722
1422.353, 451.8192
1424.281, 450.5821
1426.210, 450.9587
1428.138, 449.7111
1430.067, 446.1175
1431.995, 443.5725
1433.923, 442.0951
1435.852, 440.5465
1437.780, 439.4706
1439.709, 438.6400
1441.637, 437.7953
1443.566, 438.1703
1445.494, 438.4315
1447.423, 436.8156
1449.351, 435.7834
1451.280, 436.2472
1453.208, 436.2402
1455.137, 435.5641
1457.065, 433.7616
1458.994, 432.9193
1460.922, 431.3808
1462.850, 429.6533
1464.779, 427.8631
1466.707, 425.6495
1468.636, 422.8305
1470.564, 419.6557
1472.493, 416.4424
1474.421, 413.9589
1476.350, 412.4785
1478.278, 410.7912
1480.207, 408.9076
1482.135, 406.6067
1484.064, 404.1276
1485.992, 401.8327
1487.921, 399.5252
1489.849, 398.1459
1491.777, 396.4621
1493.706, 392.6783
1495.634, 389.7783
1497.563, 389.4107
1499.491, 387.4346
1501.420, 382.5197
1503.348, 379.0363
1505.277, 377.4257
1507.205, 375.6092
1509.134, 373.5350
1511.062, 371.6601
1512.991, 370.3393
1514.919, 370.3074
1516.848, 370.1749
1518.776, 369.2299
1520.704, 368.0167
1522.633, 366.9109
1524.561, 365.4931
1526.490, 362.9854
1528.418, 362.7118
1530.347, 364.7982
1532.275, 366.7631
1534.204, 368.1848
1536.132, 368.3781
1538.061, 369.2148
1539.989, 371.7697
1541.918, 374.8294
1543.846, 378.3947
1545.775, 381.3589
1547.703, 383.3775
1549.631, 385.2366
1551.560, 387.7610
1553.488, 392.2640
1555.417, 397.0308
1557.345, 401.2263
1559.274, 404.2645
1561.202, 404.7519
1563.131, 406.3886
1565.059, 409.0532
1566.988, 410.6771
1568.916, 412.3882
1570.845, 414.4055
1572.773, 415.5506
1574.702, 414.6255
1576.630, 412.7422
1578.558, 411.5737
1580.487, 410.8054
1582.415, 409.6050
1584.344, 407.6060
1586.272, 405.2734
1588.201, 402.7479
1590.129, 399.1675
1592.058, 394.9162
1593.986, 392.5656
1595.915, 389.3600
1597.843, 386.5544
1599.772, 385.0751
1601.700, 381.7700
1603.629, 381.4989
1605.557, 379.9564
1607.485, 377.6068
1609.414, 374.1947
1611.342, 370.0744
1613.271, 367.4566
1615.199, 364.8648
1617.128, 361.8132
1619.056, 358.6431
1620.985, 354.1773
1622.913, 350.0392
1624.842, 347.4821
1626.770, 344.8114
1628.699, 341.8883
1630.627, 338.9635
1632.556, 336.2843
1634.484, 333.7327
1636.412, 330.9480
1638.341, 328.3896
1640.269, 326.0192
1642.198, 323.1031
1644.126, 320.2439
1646.055, 317.5425
1647.983, 314.1737
1649.912, 311.5000
1651.840, 308.6056
1653.769, 305.6906
1655.697, 303.1640
1657.626, 300.6958
1659.554, 298.3770
1661.483, 295.5949
1663.411, 292.7794
1665.339, 291.1947
1667.268, 289.5160
1669.196, 286.3749
1671.125, 283.7304
1673.053, 281.8493
1674.982, 280.6634
1676.910, 279.9810
1678.839, 278.4144
1680.767, 277.0715
1682.696, 276.2515
1684.624, 275.5741
1686.553, 274.9116
1688.481, 273.7094
1690.410, 272.6063
1692.338, 273.2545
1694.266, 272.9977
1696.195, 274.2666
1698.123, 274.3085
1700.052, 275.9232
1701.980, 277.2005
1703.909, 277.7228
1705.837, 278.3656
1707.766, 278.4131
1709.694, 279.4777
1711.623, 281.8767
1713.551, 283.9290
1715.480, 285.3726
1717.408, 287.1917
1719.337, 288.4773
1721.265, 288.1847
1723.193, 289.6237
1725.122, 291.8091
1727.050, 291.8649
1728.979, 290.5963
1730.907, 289.3880
1732.836, 288.2848
1734.764, 286.1093
1736.693, 282.9453
1738.621, 279.5125
1740.550, 275.9789
1742.478, 272.8526
1744.407, 271.1326
1746.335, 269.2071
1748.264, 265.4056
1750.192, 261.6876
1752.120, 258.8336
1754.049, 255.9245
1755.977, 253.6906
1757.906, 252.0657
1759.834, 250.9835
1761.763, 250.2273
1763.691, 249.6290
1765.620, 249.5785
1767.548, 249.0108
1769.477, 247.7027
1771.405, 246.0959
1773.334, 244.9446
1775.262, 243.5498
1777.191, 242.1421
1779.119, 240.9821
1781.047, 239.0116
1782.976, 237.7358
1784.904, 235.3780
1786.833, 232.0104
1788.761, 228.3781
1790.690, 225.5153
1792.618, 222.0408
1794.547, 219.8230
1796.475, 215.8916
1798.404, 213.1911
1800.332, 210.9484
1802.261, 207.2475
1804.189, 203.8450
1806.118, 201.8033
1808.046, 199.1956
1809.974, 196.1169
1811.903, 194.2119
1813.831, 192.7810
1815.760, 190.3599
1817.688, 188.2660
1819.617, 187.1245
1821.545, 185.1390
1823.474, 182.6649
1825.402, 181.1947
1827.331, 179.6759
1829.259, 178.3239
1831.188, 177.0359
1833.116, 175.9335
1835.045, 174.7019
1836.973, 173.8123
1838.901, 172.7140
1840.830, 171.3484
1842.758, 170.9364
1844.687, 169.9847
1846.615, 168.0939
1848.544, 166.7017
1850.472, 166.0875
1852.401, 165.3779
1854.329, 163.7070
1856.258, 161.6586
1858.186, 160.6323
1860.115, 160.3138
1862.043, 160.1661
1863.972, 159.8507
1865.900, 158.9578
1867.828, 158.2258
1869.757, 156.8771
1871.685, 156.0857
1873.614, 154.8564
1875.542, 153.7039
1877.471, 152.6696
1879.399, 151.8606
1881.328, 150.9565
1883.256, 150.2027
1885.185, 149.5138
1887.113, 148.5356
1889.042, 147.4785
1890.970, 147.0987
1892.899, 147.2272
1894.827, 147.0992
1896.755, 146.1261
1898.684, 144.3869
1900.612, 143.3073
1902.541, 142.9621
1904.469, 142.7490
1906.398, 142.9447
1908.326, 142.4898
1910.255, 141.0491
1912.183, 140.0266
1914.112, 139.9715
1916.040, 140.0681
1917.969, 139.9265
1919.897, 139.5844
1921.826, 138.7549
1923.754, 137.7395
1925.682, 136.9557
1927.611, 136.8471
1929.539, 136.5417
1931.468, 135.6441
1933.396, 134.9575
1935.325, 134.3401
1937.253, 133.6530
1939.182, 133.0437
1941.110, 132.4908
1943.039, 132.0818
1944.967, 131.5597
1946.896, 131.4704
1948.824, 130.8235
1950.753, 130.7029
1952.681, 129.8435
1954.609, 129.4724
1956.538, 129.2115
1958.466, 128.2630
1960.395, 127.7235
1962.323, 127.4559
1964.252, 127.1983
1966.180, 126.8742
1968.109, 126.2065
1970.037, 125.6091
1971.966, 125.2542
1973.894, 124.1617
1975.823, 124.3980
1977.751, 123.9169
1979.680, 123.3776
1981.608, 123.5674
1983.536, 122.5425
1985.465, 121.3745
1987.393, 121.4899
1989.322, 121.7562
1991.250, 121.4759
1993.179, 120.5966
1995.107, 119.8206
1997.036, 119.2327
1998.964, 118.6746
2000.893, 118.9064
2002.821, 118.5492
2004.750, 117.9164
2006.678, 117.3833
2008.607, 116.6587
2010.535, 117.0843
2012.464, 116.4708
2014.392, 115.4220
2016.320, 115.4028
2018.249, 114.5910
2020.177, 113.8972
2022.106, 113.9824
2024.034, 114.2421
2025.963, 114.1117
2027.891, 113.7811
2029.820, 113.4073
2031.748, 112.8846
2033.677, 112.3672
2035.605, 112.1018
2037.534, 111.9902
2039.462, 111.0784
2041.391, 110.1709
2043.319, 110.2664
2045.247, 110.4418
2047.176, 109.5053
2049.104, 108.9043
2051.033, 108.9723
2052.961, 108.9792
2054.890, 109.0438
2056.818, 108.1162
2058.747, 108.0382
2060.675, 107.4903
2062.604, 107.8233
2064.532, 106.5721
2066.460, 106.6094
2068.389, 106.4409
2070.317, 105.8000
2072.246, 105.5768
2074.174, 105.1243
2076.103, 105.0529
2078.031, 106.1129
2079.960, 106.2110
2081.888, 105.3779
2083.817, 105.3224
2085.745, 105.0117
2087.674, 103.6952
2089.602, 103.3459
2091.531, 103.1999
2093.459, 102.3176
2095.387, 102.0983
2097.316, 101.8651
2099.244, 101.2390
2101.173, 101.3043
2103.101, 101.3996
2105.030, 100.1671
2106.958, 98.93644
2108.887, 99.10369
2110.815, 99.03765
2112.744, 98.62896
2114.672, 98.88514
2116.601, 98.58714
2118.529, 97.48830
2120.458, 96.79133
2122.386, 96.87469
2124.314, 96.22430
2126.243, 95.67099
2128.171, 95.61600
2130.100, 95.54032
2132.028, 95.73001
2133.957, 95.08813
2135.885, 94.85139
2137.814, 95.03176
2139.742, 94.29656
2141.671, 93.21313
2143.599, 93.28725
2145.528, 93.89271
2147.456, 93.68591
2149.385, 92.47350
2151.313, 91.73073
2153.241, 92.25780
2155.170, 92.14527
2157.098, 91.19847
2159.027, 90.61480
2160.955, 89.98335
2162.884, 90.62507
2164.812, 92.12112
2166.741, 92.14748
2168.669, 91.59365
2170.598, 90.98925
2172.526, 89.30495
2174.455, 87.89651
2176.383, 87.57143
2178.312, 87.93018
2180.240, 88.06715
2182.168, 87.48260
2184.097, 86.73564
2186.025, 86.42009
2187.954, 86.21391
2189.882, 86.30981
2191.811, 86.35598
2193.739, 86.18066
2195.668, 85.75068
2197.596, 85.75623
2199.525, 85.40205
2201.453, 84.15251
2203.382, 83.26276
2205.310, 83.02321
2207.239, 82.87481
2209.167, 82.54244
2211.095, 83.09212
2213.024, 82.57478
2214.952, 82.66495
2216.881, 83.16677
2218.809, 82.17467
2220.738, 82.36850
2222.666, 80.70291
2224.595, 81.63748
2226.523, 81.17070
2228.452, 80.33904
2230.380, 80.19798
2232.309, 80.11076
2234.237, 79.75303
2236.166, 79.40979
2238.094, 79.79057
2240.022, 79.62595
2241.951, 78.87281
2243.879, 79.21528
2245.808, 78.79053
2247.736, 78.13188
2249.665, 77.65205
2251.593, 77.51738
2253.522, 77.29694
2255.450, 77.90119
2257.379, 77.28293
2259.307, 77.46223
2261.236, 77.44129
2263.164, 76.34726
2265.093, 75.46977
2267.021, 74.39439
2268.949, 75.11648
2270.878, 76.41098
2272.806, 76.09886
2274.735, 75.69341
2276.663, 75.21158
2278.592, 74.19817
2280.520, 74.37473
2282.449, 74.54188
2284.377, 74.08481
2286.306, 73.17847
2288.234, 72.01900
2290.163, 71.69573
2292.091, 72.26169
2294.020, 73.04420
2295.948, 72.70142
2297.876, 72.84351
2299.805, 72.18917
2301.733, 72.25862
2303.662, 71.50429
2305.590, 71.13223
2307.519, 71.00464
2309.447, 71.20595
2311.376, 70.58926
2313.304, 69.97575
2315.233, 69.61759
2317.161, 69.94887
2319.090, 70.51229
2321.018, 68.93560
2322.947, 68.53791
2324.875, 69.56383
2326.803, 68.85314
2328.732, 67.87843
2330.660, 68.06599
2332.589, 67.71503
2334.517, 66.96024
2336.446, 67.56730
2338.374, 67.82019
2340.303, 66.84322
2342.231, 65.90432
2344.160, 66.09078
2346.088, 66.09171
2348.017, 65.23536
2349.945, 65.02538
2351.874, 65.23973
2353.802, 64.53175
2355.730, 64.29975
2357.659, 64.24213
2359.587, 63.82206
2361.516, 63.93829
2363.444, 63.50877
2365.373, 63.13551
2367.301, 63.24006
2369.230, 62.95259
2371.158, 62.49974
2373.087, 62.92302
2375.015, 62.44149
2376.944, 61.66751
2378.872, 61.94658
2380.801, 61.87175
2382.729, 61.55919
2384.657, 61.30551
2386.586, 60.78334
2388.514, 60.48262
2390.443, 60.71305
2392.371, 60.58243
2394.300, 60.90928
2396.228, 60.28341
2398.157, 59.59156
2400.085, 59.50530
2402.014, 58.69058
2403.942, 58.06686
2405.871, 58.56019
2407.799, 58.21251
2409.728, 57.16800
2411.656, 57.37017
2413.584, 57.43140
2415.513, 56.81516
2417.441, 56.62725
2419.370, 56.70165
2421.298, 56.65827
2423.227, 56.07672
2425.155, 55.58871
2427.084, 55.57824
2429.012, 55.74505
2430.941, 55.99112
2432.869, 54.60952
2434.798, 54.00249
2436.726, 54.58855
2438.655, 54.42443
2440.583, 53.95091
2442.511, 54.18760
2444.440, 54.39194
2446.368, 53.96740
2448.297, 52.92418
2450.225, 51.93010
2452.154, 51.84023
2454.082, 52.08684
2456.011, 51.65057
2457.939, 51.28974
2459.868, 51.24767
2461.796, 51.09678
2463.725, 51.06125
2465.653, 50.88191
2467.582, 50.56353
2469.510, 50.60590
2471.438, 50.85170
2473.367, 50.68742
2475.295, 50.09758
2477.224, 49.44703
2479.152, 49.10968
2481.081, 49.40210
2483.009, 48.96706
2484.938, 48.53030
2486.866, 48.58274
2488.795, 48.25032
2490.723, 48.32195
2492.652, 48.02431
2494.580, 47.87346
2496.509, 47.86961
2498.437, 47.19466
2500.365, 46.59976
2502.294, 47.03896
2504.222, 46.64792
2506.151, 46.77962
2508.079, 46.94883
2510.008, 46.91736
2511.936, 46.88887
2513.865, 46.60933
2515.793, 46.58479
2517.722, 45.88058
2519.650, 45.52127
2521.579, 45.21118
2523.507, 45.48035
2525.436, 44.91570
2527.364, 45.48394
2529.292, 44.52146
2531.221, 44.26966
2533.149, 44.80580
2535.078, 44.87814
2537.006, 44.09715
2538.935, 44.02018
2540.863, 43.58891
2542.792, 43.45750
2544.720, 43.14671
2546.649, 43.44579
2548.577, 43.49750
2550.506, 43.62249
2552.434, 43.54813
2554.363, 43.07463
2556.291, 43.21258
2558.219, 42.91553
2560.148, 42.64023
2562.076, 42.44272
2564.005, 41.89022
2565.933, 41.95977
2567.862, 41.73466
2569.790, 41.84553
2571.719, 40.92173
2573.647, 40.06975
2575.576, 40.12642
2577.504, 39.84594
2579.433, 39.79893
2581.361, 39.61579
2583.290, 39.79137
2585.218, 39.42151
2587.146, 39.57849
2589.075, 39.29967
2591.003, 38.99916
2592.932, 38.85457
2594.860, 38.53041
2596.789, 38.23703
2598.717, 38.00463
2600.646, 37.77348
2602.574, 37.57341
2604.503, 37.41759
2606.431, 37.08911
2608.360, 37.19646
2610.288, 36.82621
2612.217, 36.84605
2614.145, 36.38276
2616.073, 36.46572
2618.002, 36.48838
2619.930, 36.25321
2621.859, 36.20910
2623.787, 35.90061
2625.716, 36.01694
2627.644, 35.84811
2629.573, 36.06026
2631.501, 34.54380
2633.430, 36.06833
2635.358, 34.93360
2637.287, 34.59985
2639.215, 36.04950
2641.144, 35.50773
2643.072, 34.54189
2645.000, 33.79744
2646.929, 33.51890
2648.857, 33.65905
2650.786, 33.55043
2652.714, 33.66361
2654.643, 33.74360
2656.571, 33.29441
2658.500, 31.96800
2660.428, 31.65503
2662.357, 32.61758
2664.285, 33.37365
2666.214, 33.43465
2668.142, 33.06156
2670.071, 31.49940
2671.999, 30.83676
2673.927, 31.16833
2675.856, 30.93732
2677.784, 30.90391
2679.713, 31.05371
2681.641, 31.03762
2683.570, 30.82984
2685.498, 30.46728
2687.427, 29.74795
2689.355, 30.43830
2691.284, 31.12701
2693.212, 29.78960
2695.141, 29.57836
2697.069, 30.11359
2698.998, 30.32701
2700.926, 29.44191
2702.854, 29.12511
2704.783, 29.69652
2706.711, 30.41745
2708.640, 30.11464
2710.568, 29.01525
2712.497, 27.95788
2714.425, 27.98389
2716.354, 27.55123
2718.282, 28.42152
2720.211, 27.79815
2722.139, 27.62136
2724.068, 27.99079
2725.996, 27.75858
2727.925, 27.58355
2729.853, 27.56330
2731.781, 27.08851
2733.710, 27.16376
2735.638, 27.10493
2737.567, 26.79922
2739.495, 26.41083
2741.424, 25.41466
2743.352, 27.87948
2745.281, 30.58797
2747.209, 27.99179
2749.138, 27.44464
2751.066, 26.86984
2752.995, 26.49356
2754.923, 25.65058
2756.852, 24.93168
2758.780, 24.70781
2760.708, 24.69380
2762.637, 24.71771
2764.565, 24.41985
2766.494, 24.28598
2768.422, 24.03289
2770.351, 23.93656
2772.279, 24.17551
2774.208, 23.68524
2776.136, 23.56523
2778.065, 24.50654
2779.993, 24.26044
2781.922, 23.44643
2783.850, 22.49176
2785.779, 22.40332
2787.707, 22.42465
2789.635, 22.23894
2791.564, 22.40826
2793.492, 22.37076
2795.421, 22.09945
2797.349, 21.97875
2799.278, 22.54363
2801.206, 23.38427
2803.135, 23.30974
2805.063, 21.26769
2806.992, 20.45393
2808.920, 21.84223
2810.849, 21.84432
2812.777, 21.84594
2814.706, 22.20326
2816.634, 21.80446
2818.563, 22.19669
2820.491, 21.25892
2822.419, 20.95497
2824.348, 20.87703
2826.276, 20.67923
2828.205, 20.32731
2830.133, 20.58098
2832.062, 19.57545
2833.990, 20.79633
2835.919, 20.81318
2837.847, 20.44958
2839.776, 20.05116
2841.704, 19.79882
2843.633, 20.21609
2845.561, 20.78061
2847.490, 20.57864
2849.418, 21.26695
2851.346, 21.24887
2853.275, 19.95394
2855.203, 20.49500
2857.132, 20.78498
2859.060, 20.70850
2860.989, 21.00698
2862.917, 21.34026
2864.846, 21.41646
2866.774, 20.90429
2868.703, 20.23218
2870.631, 20.03436
2872.560, 20.47602
2874.488, 20.54122
2876.417, 21.02067
2878.345, 21.54549
2880.273, 20.63915
2882.202, 20.28722
2884.130, 20.18223
2886.059, 19.97449
2887.987, 19.92561
2889.916, 19.96860
2891.844, 19.92803
2893.773, 19.11036
2895.701, 19.48169
2897.630, 20.14716
2899.558, 19.36729
2901.487, 19.17682
2903.415, 19.42768
2905.344, 20.00877
2907.272, 19.41087
2909.200, 19.11086
2911.129, 19.29968
2913.057, 19.21746
2914.986, 18.64471
2916.914, 18.50166
2918.843, 18.95147
2920.771, 19.37657
2922.700, 19.71397
2924.628, 19.77524
2926.557, 19.85339
2928.485, 19.52847
2930.414, 19.02470
2932.342, 18.61691
2934.271, 18.70354
2936.199, 18.77793
2938.127, 18.72557
2940.056, 18.65748
2941.984, 18.86976
2943.913, 18.65208
2945.841, 18.31683
2947.770, 17.34182
2949.698, 17.25525
2951.627, 16.68278
2953.555, 15.88382
2955.484, 16.57826
2957.412, 17.63626
2959.341, 17.42883
2961.269, 17.27418
2963.198, 16.85045
2965.126, 16.18375
2967.054, 16.90458
2968.983, 16.92225
2970.911, 16.20168
2972.840, 15.16526
2974.768, 14.29508
2976.697, 14.27426
2978.625, 14.89709
2980.554, 14.56214
2982.482, 14.51359
2984.411, 14.51840
2986.339, 14.27732
2988.268, 14.14122
2990.196, 14.26799
2992.125, 14.38489
2994.053, 13.49887
2995.981, 12.28358
2997.910, 11.70318
2999.838, 12.46031
3001.767, 12.14413
3003.695, 12.40278
3005.624, 12.91401
3007.552, 12.39376
3009.481, 11.49055
3011.409, 10.89865
3013.338, 10.81340
3015.266, 10.42375
3017.195, 10.76090
3019.123, 11.16443
3021.052, 10.82199
3022.980, 9.734522
3024.908, 9.477572
3026.837, 9.992458
3028.765, 10.00658
3030.694, 10.56344
3032.622, 10.26862
3034.551, 10.49219
3036.479, 10.06977
3038.408, 10.55439
3040.336, 10.42783
3042.265, 10.37556
3044.193, 10.71848
3046.122, 11.15755
3048.050, 11.38670
3049.979, 10.05093
3051.907, 9.422398
3053.835, 9.473614
3055.764, 9.860033
3057.692, 10.13648
3059.621, 9.955673
3061.549, 9.736657
3063.478, 9.854566
3065.406, 9.625885
3067.335, 8.898488
3069.263, 8.257385
3071.192, 9.106844
3073.120, 9.308804
3075.049, 9.984251
3076.977, 11.13617
3078.906, 8.896612
3080.834, 9.167095
3082.762, 10.09072
3084.691, 9.664227
3086.619, 10.02492
3088.548, 9.406694
3090.476, 8.565988
3092.405, 9.174920
3094.333, 9.771255
3096.262, 9.318378
3098.190, 8.132742
3100.119, 7.815752
3102.047, 8.250172
3103.976, 8.476182
3105.904, 8.273274
3107.833, 8.398000
3109.761, 8.020823
3111.689, 8.036530
3113.618, 8.681154
3115.546, 8.652388
3117.475, 8.115420
3119.403, 7.473762
3121.332, 7.261932
3123.260, 8.228293
3125.189, 8.574313
3127.117, 8.198047
3129.046, 7.661616
3130.974, 8.056767
3132.903, 7.298668
3134.831, 6.089985
3136.760, 7.041369
3138.688, 6.528243
3140.616, 6.484437
3142.545, 6.857646
3144.473, 6.491279
3146.402, 5.773868
3148.330, 5.698530
3150.259, 6.351511
3152.187, 5.778469
3154.116, 6.839673
3156.044, 7.567688
3157.973, 7.254811
3159.901, 6.993271
3161.830, 6.669593
3163.758, 6.719755
3165.687, 6.631453
3167.615, 6.403420
3169.543, 6.704919
3171.472, 6.850493
3173.400, 6.798657
3175.329, 7.192696
3177.257, 7.409122
3179.186, 7.168382
3181.114, 6.211701
3183.043, 6.605158
3184.971, 6.382446
3186.900, 6.232410
3188.828, 6.921507
3190.757, 7.074522
3192.685, 7.971983
3194.614, 7.718076
3196.542, 5.468749
3198.470, 6.257917
3200.399, 6.441813
3202.327, 6.368397
3204.256, 6.754405
3206.184, 7.065018
3208.113, 5.317713
3210.041, 4.288226
3211.970, 5.367959
3213.898, 5.521742
3215.827, 6.137271
3217.755, 6.598272
3219.684, 6.490709
3221.612, 6.283805
3223.541, 6.399115
3225.469, 6.179906
3227.397, 5.513277
3229.326, 5.719771
3231.254, 6.382688
3233.183, 5.965304
3235.111, 4.839257
3237.040, 5.611814
3238.968, 5.508603
3240.897, 5.729939
3242.825, 6.385013
3244.754, 6.296985
3246.682, 6.077682
3248.611, 6.245757
3250.539, 6.454169
3252.468, 6.065578
3254.396, 5.729887
3256.324, 6.580834
3258.253, 7.612899
3260.181, 7.409156
3262.110, 7.041596
3264.038, 6.797628
3265.967, 7.102860
3267.895, 8.172281
3269.824, 7.522702
3271.752, 6.019512
3273.681, 5.867903
3275.609, 7.412178
3277.538, 6.011329
3279.466, 6.523158
3281.395, 6.944520
3283.323, 6.383197
3285.251, 6.422698
3287.180, 7.306012
3289.108, 8.094798
3291.037, 8.395700
3292.965, 7.822899
3294.894, 7.534452
3296.822, 7.344544
3298.751, 7.632149
3300.679, 8.640229
3302.608, 8.879973
3304.536, 9.332259
3306.465, 9.245989
3308.393, 9.366770
3310.322, 9.108812
3312.250, 9.367017
3314.178, 9.424500
3316.107, 9.646689
3318.035, 10.67662
3319.964, 10.57284
3321.892, 11.40497
3323.821, 12.50991
3325.749, 12.48764
3327.678, 12.60130
3329.606, 13.07801
3331.535, 13.12074
3333.463, 13.20564
3335.392, 12.98133
3337.320, 13.07143
3339.249, 12.69079
3341.177, 12.32283
3343.105, 12.32681
3345.034, 11.89155
3346.962, 12.14661
3348.891, 13.44382
3350.819, 12.92148
3352.748, 13.56018
3354.676, 14.57652
3356.605, 14.70109
3358.533, 14.57368
3360.462, 15.35740
##END=



