##NAMES=Xanthoconite
##RRUFFID=R080013
##IDEAL CHEMISTRY=Ag_3_AsS_3_
##LOCALITY=Imiter mine, Djebel Sarhro, 20 km. from Quarzazate, Anti Atlas Mountains, Morocco
##OWNER=RRUFF
##SOURCE=William W. Pinch
##DESCRIPTION=Brown to orange tabular crystals, in groups and singles, associated with red elongated prisms of proustite
##STATUS=The identification of this mineral is confirmed by single-crystal X-ray diffraction and chemical analysis
##URL=https://www.rruff.net/odr/rruff_sample/R080013
##MEASURED CHEMISTRY=Ag_2.54_Sb_0.05_As_1.03_S_3_
##DIFFRACTION SAMPLE DESCRIPTION=Single crystal, powder profile is calculated
##CELL PARAMETERS=a: 12.005 b: 6.257 c: 17.062 alpha: 90 beta: 111.01 gamma: 90 volume: 1196.4 crystal system: monoclinic
##FILETYPE=Raman RAW
##RAMAN WAVELENGTH=532

164.6698, 480.0651
166.5982, 481.4306
168.5267, 480.4189
170.4552, 477.7700
172.3836, 475.0359
174.3121, 472.6107
176.2406, 469.6634
178.1690, 465.1772
180.0975, 458.0001
182.0260, 452.9998
183.9544, 452.4971
185.8829, 454.5774
187.8114, 455.5386
189.7398, 455.2589
191.6683, 454.3433
193.5968, 452.4332
195.5252, 449.1506
197.4537, 447.0980
199.3822, 448.0140
201.3106, 450.7237
203.2391, 451.2267
205.1676, 447.6421
207.0960, 443.7743
209.0245, 441.2061
210.9530, 440.2326
212.8814, 439.8102
214.8099, 439.8627
216.7384, 440.4123
218.6668, 441.3143
220.5953, 443.4511
222.5238, 444.8009
224.4522, 444.4860
226.3807, 440.9806
228.3092, 438.4294
230.2376, 437.2945
232.1661, 437.0352
234.0946, 436.7118
236.0230, 435.1049
237.9515, 434.6677
239.8800, 437.1272
241.8084, 443.1616
243.7369, 447.3272
245.6654, 447.1477
247.5938, 445.0140
249.5223, 444.4041
251.4508, 445.7407
253.3792, 448.3453
255.3077, 453.2860
257.2362, 460.4255
259.1646, 465.4362
261.0931, 464.6672
263.0216, 462.1377
264.9500, 463.6357
266.8785, 471.9198
268.8070, 480.1523
270.7354, 485.8698
272.6639, 489.1034
274.5924, 493.3227
276.5208, 498.6729
278.4493, 505.1003
280.3778, 512.6346
282.3062, 521.0104
284.2347, 530.8536
286.1632, 542.0303
288.0916, 554.2023
290.0201, 569.1056
291.9486, 587.6537
293.8770, 608.0021
295.8055, 629.2266
297.7340, 652.2511
299.6624, 673.3727
301.5909, 691.9559
303.5194, 708.0742
305.4478, 722.7238
307.3763, 733.8319
309.3048, 746.0617
311.2332, 760.5862
313.1617, 776.4711
315.0902, 798.1532
317.0186, 827.6351
318.9471, 862.6566
320.8756, 898.3797
322.8040, 934.1789
324.7325, 971.6709
326.6610, 1011.369
328.5894, 1053.450
330.5179, 1096.302
332.4464, 1137.281
334.3748, 1180.407
336.3033, 1229.747
338.2318, 1291.983
340.1602, 1347.421
342.0887, 1395.637
344.0172, 1434.220
345.9456, 1456.865
347.8741, 1455.287
349.8026, 1445.400
351.7310, 1433.874
353.6595, 1410.546
355.5880, 1407.476
357.5164, 1430.227
359.4449, 1474.075
361.3734, 1528.069
363.3018, 1601.852
365.2303, 1670.934
367.1588, 1726.949
369.0872, 1767.724
371.0157, 1805.694
372.9442, 1854.640
374.8727, 1890.766
376.8011, 1899.860
378.7296, 1871.838
380.6581, 1837.669
382.5865, 1804.669
384.5150, 1767.229
386.4435, 1714.523
388.3719, 1641.896
390.3004, 1557.294
392.2289, 1464.596
394.1573, 1355.663
396.0858, 1258.734
398.0143, 1174.359
399.9427, 1103.215
401.8712, 1048.446
403.7997, 1020.388
405.7281, 986.2454
407.6566, 937.8932
409.5851, 876.1473
411.5135, 805.7045
413.4420, 712.0069
415.3705, 622.6715
417.2989, 549.2738
419.2274, 491.8415
421.1559, 446.2550
423.0843, 413.2710
425.0128, 389.6484
426.9413, 371.2152
428.8697, 358.6459
430.7982, 348.4011
432.7267, 339.8148
434.6551, 332.9296
436.5836, 326.5950
438.5121, 320.6775
440.4405, 314.9190
442.3690, 309.8955
444.2975, 305.7518
446.2259, 301.3658
448.1544, 295.6523
450.0829, 289.9371
452.0113, 285.7466
453.9398, 284.0471
455.8683, 282.4586
457.7967, 280.8327
459.7252, 278.9787
461.6537, 276.7790
463.5821, 273.1730
465.5106, 270.3297
467.4391, 269.1756
469.3675, 269.8717
471.2960, 268.8344
473.2245, 264.3506
475.1529, 259.3215
477.0814, 255.9258
479.0099, 255.2348
480.9383, 254.6674
482.8668, 253.9644
484.7953, 253.0164
486.7237, 252.3645
488.6522, 252.6862
490.5807, 252.7709
492.5091, 251.3607
494.4376, 247.8101
496.3661, 244.7755
498.2945, 242.6868
500.2230, 240.9112
502.1515, 239.7783
504.0799, 239.7053
506.0084, 239.9545
507.9369, 240.0235
509.8653, 239.7329
511.7938, 238.8638
513.7223, 236.6551
515.6508, 234.8934
517.5792, 235.3951
519.5077, 237.5676
521.4362, 238.3282
523.3646, 235.4651
525.2931, 232.5761
527.2216, 231.3035
529.1500, 231.7563
531.0785, 231.7633
533.0070, 230.6975
534.9354, 229.5666
536.8639, 229.1487
538.7924, 229.8827
540.7208, 230.6425
542.6493, 231.5676
544.5778, 232.6396
546.5062, 233.1268
548.4347, 232.5575
550.3632, 231.7909
552.2916, 231.7866
554.2201, 232.6137
556.1486, 233.0905
558.0770, 232.6035
560.0055, 232.0427
561.9340, 231.9869
563.8624, 232.4773
565.7909, 232.9223
567.7194, 233.0827
569.6478, 232.6850
571.5763, 232.1514
573.5048, 231.6173
575.4332, 231.5401
577.3617, 231.3242
579.2902, 230.8844
581.2186, 230.9256
583.1471, 232.1839
585.0756, 232.9916
587.0040, 232.2464
588.9325, 230.4980
590.8610, 230.2702
592.7894, 232.7470
594.7179, 235.8304
596.6464, 237.0490
598.5748, 236.0362
600.5033, 234.7257
602.4318, 233.7640
604.3602, 233.9672
606.2887, 235.0950
608.2172, 236.9400
610.1456, 238.2616
612.0741, 238.7126
614.0026, 237.9896
615.9310, 237.5152
617.8595, 238.0431
619.7880, 239.1835
621.7164, 238.9872
623.6449, 238.2107
625.5734, 238.9509
627.5018, 242.1360
629.4303, 245.1425
631.3588, 245.5452
633.2872, 244.3841
635.2157, 244.2547
637.1442, 246.6596
639.0726, 249.0396
641.0011, 251.0981
642.9296, 252.8725
644.8580, 254.2436
646.7865, 254.6843
648.7150, 255.0781
650.6434, 255.7336
652.5719, 256.3256
654.5004, 256.5751
656.4288, 256.7756
658.3573, 258.9491
660.2858, 262.1711
662.2142, 265.4171
664.1427, 266.0008
666.0712, 263.9022
667.9996, 260.9904
669.9281, 258.5964
671.8566, 257.2246
673.7850, 257.3265
675.7135, 258.8701
677.6420, 259.0271
679.5704, 257.0391
681.4989, 252.6398
683.4274, 250.2308
685.3558, 250.8586
687.2843, 252.6532
689.2128, 253.3216
691.1412, 252.4398
693.0697, 250.9678
694.9982, 249.4950
696.9266, 248.5794
698.8551, 247.9714
700.7836, 246.5480
702.7120, 244.4434
704.6405, 243.4878
706.5690, 243.2985
708.4974, 242.8763
710.4259, 242.0515
712.3544, 241.9345
714.2828, 242.5082
716.2113, 243.2314
718.1398, 243.2267
720.0682, 241.2985
721.9967, 238.9837
723.9252, 237.9172
725.8536, 238.3765
727.7821, 239.1744
729.7106, 239.3060
731.6390, 238.3490
733.5675, 236.8949
735.4960, 235.7150
737.4244, 236.3215
739.3529, 238.6252
741.2814, 239.9339
743.2098, 239.4420
745.1383, 237.7464
747.0668, 236.2770
748.9952, 235.2280
750.9237, 233.3534
752.8522, 230.4665
754.7806, 226.9853
756.7091, 224.2952
758.6376, 223.5826
760.5660, 223.5216
762.4945, 222.4789
764.4230, 219.8949
766.3514, 216.8436
768.2799, 215.0433
770.2084, 213.5389
772.1368, 211.5417
774.0653, 208.9382
775.9938, 207.4059
777.9222, 206.6644
779.8507, 205.7874
781.7792, 205.2027
783.7076, 205.4388
785.6361, 206.1646
787.5646, 205.8162
789.4930, 204.2889
791.4215, 202.1161
793.3500, 200.2048
795.2784, 199.1585
797.2069, 198.1365
799.1354, 197.6160
801.0638, 198.0624
802.9923, 199.0791
804.9208, 199.6944
806.8492, 199.2472
808.7777, 198.0812
810.7062, 196.5485
812.6346, 195.3994
814.5631, 195.3071
816.4916, 196.0133
818.4200, 196.5327
820.3485, 196.6208
822.2770, 196.5866
824.2054, 196.8024
826.1339, 196.8436
828.0624, 196.7245
829.9908, 196.6045
831.9193, 196.7593
833.8478, 197.4764
835.7762, 198.3681
837.7047, 198.0183
839.6332, 195.9318
841.5616, 193.9488
843.4901, 194.0349
845.4186, 195.5886
847.3470, 195.7068
849.2755, 193.9204
851.2040, 192.1563
853.1324, 193.0146
855.0609, 194.9426
856.9894, 195.7140
858.9178, 195.6088
860.8463, 195.6071
862.7748, 195.5765
864.7032, 194.0606
866.6317, 192.4955
868.5602, 192.5944
870.4886, 194.2683
872.4171, 196.3905
874.3456, 196.0999
876.2740, 195.1252
878.2025, 194.2226
880.1310, 194.4094
882.0594, 196.4492
883.9879, 198.4092
885.9164, 197.4974
887.8448, 193.8457
889.7733, 191.3126
891.7018, 191.8334
893.6302, 193.7060
895.5587, 194.9479
897.4872, 196.0234
899.4156, 196.9372
901.3441, 197.4306
903.2726, 197.0852
905.2010, 196.8149
907.1295, 197.1803
909.0580, 197.4839
910.9865, 197.3024
912.9149, 196.6915
914.8434, 195.8654
916.7719, 195.0555
918.7003, 194.6516
920.6288, 194.9283
922.5573, 195.1708
924.4857, 195.2575
926.4142, 195.6679
928.3427, 196.0350
930.2711, 196.1125
932.1996, 196.4767
934.1281, 198.1539
936.0565, 199.6346
937.9850, 200.2025
939.9135, 199.8115
941.8419, 199.4765
943.7704, 199.2203
945.6989, 198.4043
947.6273, 197.2737
949.5558, 196.2645
951.4843, 196.2120
953.4127, 197.0300
955.3412, 197.8218
957.2697, 198.6210
959.1981, 199.1503
961.1266, 199.1513
963.0551, 198.3817
964.9835, 198.1105
966.9120, 198.2336
968.8405, 198.4037
970.7689, 198.2332
972.6974, 197.5441
974.6259, 196.9181
976.5543, 196.8180
978.4828, 197.1749
980.4113, 197.5654
982.3397, 198.1430
984.2682, 198.7897
986.1967, 198.7710
988.1251, 198.4089
990.0536, 198.4265
991.9821, 198.9122
993.9105, 198.9237
995.8390, 198.8078
997.7675, 199.7914
999.6959, 200.7509
1001.624, 201.0137
1003.553, 200.7037
1005.481, 200.3316
1007.410, 200.0744
1009.338, 199.4950
1011.267, 199.1993
1013.195, 199.0954
1015.124, 198.7469
1017.052, 197.8691
1018.981, 197.8397
1020.909, 199.0794
1022.838, 200.0905
1024.766, 200.2964
1026.694, 200.3548
1028.623, 200.7154
1030.551, 201.0046
1032.480, 200.8891
1034.408, 200.3289
1036.337, 200.2444
1038.265, 201.1813
1040.194, 201.9977
1042.122, 202.4809
1044.051, 202.7314
1045.979, 203.1456
1047.908, 203.2014
1049.836, 203.0803
1051.765, 203.7133
1053.693, 205.1005
1055.621, 205.7645
1057.550, 205.2318
1059.478, 204.6428
1061.407, 204.2934
1063.335, 203.9386
1065.264, 203.3696
1067.192, 202.0824
1069.121, 201.4253
1071.049, 202.3423
1072.978, 204.2977
1074.906, 205.4849
1076.835, 205.3033
1078.763, 205.3337
1080.692, 206.2105
1082.620, 207.1410
1084.548, 207.2535
1086.477, 206.4562
1088.405, 205.5175
1090.334, 204.3201
1092.262, 203.4657
1094.191, 203.4671
1096.119, 203.9878
1098.048, 203.6151
1099.976, 200.3983
1101.905, 198.9524
1103.833, 201.4645
1105.762, 205.7388
1107.690, 207.3811
1109.619, 205.0593
1111.547, 203.5168
1113.475, 204.1594
1115.404, 205.5164
1117.332, 205.9157
1119.261, 205.1907
1121.189, 204.8418
1123.118, 205.7371
1125.046, 206.5745
1126.975, 206.4145
1128.903, 205.3931
1130.832, 204.9297
1132.760, 206.0749
1134.689, 206.5162
1136.617, 205.1946
1138.546, 203.6227
1140.474, 203.4629
1142.402, 204.4609
1144.331, 205.5136
1146.259, 206.9604
1148.188, 208.0470
1150.116, 207.6819
1152.045, 206.2141
1153.973, 205.9783
1155.902, 208.5456
1157.830, 210.0955
1159.759, 208.8974
1161.687, 206.4224
1163.616, 204.9553
1165.544, 204.7809
1167.473, 205.0433
1169.401, 206.0160
1171.329, 207.1563
1173.258, 208.2535
1175.186, 209.2487
1177.115, 209.6350
1179.043, 209.1285
1180.972, 208.4435
1182.900, 207.6170
1184.829, 206.9185
1186.757, 206.6332
1188.686, 206.5837
1190.614, 207.3991
1192.543, 210.5016
1194.471, 213.3416
1196.400, 214.0422
1198.328, 212.4697
1200.256, 211.0577
1202.185, 208.9319
1204.113, 208.1201
1206.042, 210.5935
1207.970, 214.2534
1209.899, 215.4668
1211.827, 213.8521
1213.756, 212.2070
1215.684, 210.5784
1217.613, 209.8289
1219.541, 210.5371
1221.470, 212.1695
1223.398, 213.6740
1225.327, 215.7267
1227.255, 216.8023
1229.183, 215.4179
1231.112, 213.0546
1233.040, 211.9553
1234.969, 212.7585
1236.897, 213.4851
1238.826, 214.2124
1240.754, 214.5956
1242.683, 214.3627
1244.611, 213.9960
1246.540, 213.8479
1248.468, 213.7596
1250.397, 214.1121
1252.325, 215.5158
1254.254, 216.9043
1256.182, 217.7706
1258.110, 218.6189
1260.039, 218.6299
1261.967, 216.5954
1263.896, 214.5790
1265.824, 213.4430
1267.753, 213.7674
1269.681, 215.1524
1271.610, 218.5251
1273.538, 220.2091
1275.467, 218.7983
1277.395, 216.9318
1279.324, 216.3191
1281.252, 217.0545
1283.181, 217.7142
1285.109, 218.0979
1287.037, 218.3599
1288.966, 218.3805
1290.894, 218.7843
1292.823, 220.1980
1294.751, 222.2799
1296.680, 223.1846
1298.608, 221.9124
1300.537, 220.5344
1302.465, 219.5965
1304.394, 219.6204
1306.322, 220.1571
1308.251, 220.6212
1310.179, 221.2716
1312.108, 223.0802
1314.036, 224.6147
1315.964, 224.4348
1317.893, 222.4188
1319.821, 221.1405
1321.750, 220.8975
1323.678, 221.1246
1325.607, 221.9264
1327.535, 223.1594
1329.464, 224.7511
1331.392, 226.2941
1333.321, 227.3255
1335.249, 227.8096
1337.178, 227.7267
1339.106, 226.0663
1341.035, 224.5026
1342.963, 225.0253
1344.891, 227.7431
1346.820, 229.4148
1348.748, 228.8058
1350.677, 228.2126
1352.605, 229.0338
1354.534, 230.4442
1356.462, 230.2157
1358.391, 226.6184
1360.319, 224.7570
1362.248, 225.7454
1364.176, 227.4169
1366.105, 228.8687
1368.033, 229.8583
1369.962, 229.9715
1371.890, 228.6127
1373.818, 227.9705
1375.747, 229.2230
1377.675, 230.7929
1379.604, 231.4335
1381.532, 231.4276
1383.461, 231.5449
1385.389, 231.3195
1387.318, 230.7818
1389.246, 230.1369
1391.175, 230.1258
1393.103, 230.5972
1395.032, 230.7211
1396.960, 230.8073
1398.889, 230.8535
1400.817, 231.7282
1402.745, 234.8459
1404.674, 237.7476
1406.602, 237.7165
1408.531, 234.3173
1410.459, 232.7390
1412.388, 234.1880
1414.316, 235.4656
1416.245, 235.6174
1418.173, 235.6195
1420.102, 236.7179
1422.030, 239.1910
1423.959, 240.2793
1425.887, 238.9270
1427.816, 237.6772
1429.744, 237.0553
1431.672, 236.9015
1433.601, 237.4501
1435.529, 238.4421
1437.458, 238.7397
1439.386, 238.9747
1441.315, 238.9894
1443.243, 237.1303
1445.172, 235.0116
1447.100, 235.5686
1449.029, 239.0665
1450.957, 241.3038
1452.886, 241.1498
1454.814, 240.4621
1456.743, 239.8554
1458.671, 239.4056
1460.599, 238.6831
1462.528, 237.3507
1464.456, 237.6247
1466.385, 241.6201
1468.313, 244.5124
1470.242, 244.7614
1472.170, 243.6863
1474.099, 242.1978
1476.027, 240.1038
1477.956, 239.3653
1479.884, 241.6414
1481.813, 243.0015
1483.741, 242.0026
1485.670, 240.4792
1487.598, 240.1101
1489.526, 240.8582
1491.455, 241.2795
1493.383, 241.0750
1495.312, 241.4691
1497.240, 243.0053
1499.169, 244.4137
1501.097, 244.9395
1503.026, 245.0528
1504.954, 245.0909
1506.883, 244.2154
1508.811, 243.7854
1510.740, 245.5945
1512.668, 247.4817
1514.597, 247.3002
1516.525, 245.4595
1518.453, 243.9179
1520.382, 243.0435
1522.310, 243.4789
1524.239, 246.9689
1526.167, 249.7458
1528.096, 248.9288
1530.024, 246.1178
1531.953, 244.0027
1533.881, 242.6854
1535.810, 241.7915
1537.738, 241.6780
1539.667, 242.4962
1541.595, 243.9881
1543.524, 245.6764
1545.452, 247.7503
1547.380, 250.4740
1549.309, 251.9377
1551.237, 251.2968
1553.166, 250.4187
1555.094, 249.6756
1557.023, 249.1180
1558.951, 248.5338
1560.880, 247.9817
1562.808, 248.5175
1564.737, 251.1953
1566.665, 252.5970
1568.594, 251.6731
1570.522, 251.0647
1572.451, 252.1098
1574.379, 253.7281
1576.307, 254.0830
1578.236, 252.9176
1580.164, 252.2677
1582.093, 251.8701
1584.021, 252.2769
1585.950, 255.0673
1587.878, 257.7508
1589.807, 256.7372
1591.735, 251.9012
1593.664, 249.4937
1595.592, 251.7756
1597.521, 252.8911
1599.449, 251.0902
1601.378, 248.9541
1603.306, 248.1635
1605.234, 248.5393
1607.163, 249.4568
1609.091, 251.0849
1611.020, 252.1340
1612.948, 252.1842
1614.877, 251.9590
1616.805, 250.9808
1618.734, 250.3479
1620.662, 252.0237
1622.591, 255.8400
1624.519, 257.8720
1626.448, 257.1802
1628.376, 256.7120
1630.305, 258.1753
1632.233, 259.1956
1634.161, 257.2289
1636.090, 253.7958
1638.018, 253.2320
1639.947, 256.0850
1641.875, 257.2227
1643.804, 254.5465
1645.732, 252.3561
1647.661, 252.5012
1649.589, 253.7717
1651.518, 255.4741
1653.446, 257.2594
1655.375, 256.9612
1657.303, 253.3322
1659.232, 251.8717
1661.160, 255.9495
1663.089, 260.0153
1665.017, 260.7012
1666.945, 259.5936
1668.874, 259.2170
1670.802, 259.5494
1672.731, 259.0695
1674.659, 256.8541
1676.588, 255.7634
1678.516, 257.8035
1680.445, 260.2343
1682.373, 261.1135
1684.302, 260.8799
1686.230, 260.2187
1688.159, 259.0396
1690.087, 258.8782
1692.016, 260.5764
1693.944, 262.1461
1695.872, 263.2326
1697.801, 263.5036
1699.729, 261.9744
1701.658, 259.4212
1703.586, 258.6443
1705.515, 260.1081
1707.443, 260.9577
1709.372, 260.0155
1711.300, 259.4165
1713.229, 261.0511
1715.157, 262.8449
1717.086, 261.4767
1719.014, 258.0795
1720.943, 258.9470
1722.871, 265.7205
1724.799, 270.2259
1726.728, 269.6478
1728.656, 268.0197
1730.585, 266.9472
1732.513, 266.2629
1734.442, 265.7914
1736.370, 265.5508
1738.299, 265.6274
1740.227, 266.2106
1742.156, 266.2676
1744.084, 264.6819
1746.013, 263.6569
1747.941, 265.2335
1749.870, 267.3862
1751.798, 267.1100
1753.726, 264.9268
1755.655, 264.1838
1757.583, 265.3176
1759.512, 266.9360
1761.440, 269.3149
1763.369, 271.3834
1765.297, 272.9555
1767.226, 273.7031
1769.154, 272.5858
1771.083, 270.0363
1773.011, 268.9939
1774.940, 269.9940
1776.868, 270.7344
1778.797, 269.6452
1780.725, 269.7164
1782.653, 273.9617
1784.582, 278.5870
1786.510, 279.0957
1788.439, 276.1573
1790.367, 273.3947
1792.296, 270.0851
1794.224, 269.6925
1796.153, 275.9268
1798.081, 280.6266
1800.010, 281.0359
1801.938, 279.0993
1803.867, 274.9597
1805.795, 269.9043
1807.724, 268.7451
1809.652, 273.1362
1811.580, 275.5136
1813.509, 274.0875
1815.437, 273.3201
1817.366, 275.0786
1819.294, 276.7596
1821.223, 276.4206
1823.151, 274.8320
1825.080, 273.2994
1827.008, 271.6686
1828.937, 271.1198
1830.865, 271.6905
1832.794, 273.2523
1834.722, 277.5692
1836.651, 280.7302
1838.579, 280.3728
1840.507, 278.4468
1842.436, 276.9707
1844.364, 275.9891
1846.293, 275.7547
1848.221, 276.3098
1850.150, 277.5128
1852.078, 280.3442
1854.007, 282.2167
1855.935, 281.8665
1857.864, 280.8705
1859.792, 279.7461
1861.721, 278.9611
1863.649, 280.1350
1865.578, 283.2559
1867.506, 284.6192
1869.434, 283.4117
1871.363, 282.4017
1873.291, 282.3065
1875.220, 282.4951
1877.148, 282.9389
1879.077, 283.2957
1881.005, 282.8736
1882.934, 282.0626
1884.862, 282.4138
1886.791, 284.0695
1888.719, 284.7790
1890.648, 283.7722
1892.576, 282.9085
1894.505, 282.4826
1896.433, 282.7640
1898.361, 284.2710
1900.290, 286.4455
1902.218, 289.1090
1904.147, 291.9863
1906.075, 292.1162
1908.004, 288.2748
1909.932, 285.6916
1911.861, 284.7930
1913.789, 285.0570
1915.718, 287.4246
1917.646, 289.7000
1919.575, 290.2618
1921.503, 289.7391
1923.432, 288.9907
1925.360, 288.0352
1927.288, 288.2762
1929.217, 290.7814
1931.145, 292.1052
1933.074, 291.0190
1935.002, 290.2710
1936.931, 290.6910
1938.859, 291.5419
1940.788, 292.6461
1942.716, 293.6631
1944.645, 293.8073
1946.573, 293.1455
1948.502, 292.8805
1950.430, 293.1957
1952.359, 292.7074
1954.287, 290.2431
1956.216, 288.9551
1958.144, 291.0026
1960.073, 293.5387
1962.001, 295.5832
1963.929, 296.4298
1965.858, 293.9224
1967.786, 289.0178
1969.715, 287.1264
1971.643, 288.8577
1973.572, 290.8340
1975.500, 292.8996
1977.429, 294.7377
1979.357, 297.4302
1981.286, 298.4531
1983.214, 294.2525
1985.143, 289.2429
1987.071, 289.9926
1989.000, 294.8752
1990.928, 296.0830
1992.856, 292.1998
1994.785, 290.5817
1996.713, 292.1082
1998.642, 294.0534
2000.570, 297.5498
2002.499, 299.2388
2004.427, 295.8174
2006.356, 292.1529
2008.284, 292.7999
2010.213, 295.6912
2012.141, 296.5096
2014.070, 295.5936
2015.998, 295.9775
2017.927, 298.1400
2019.855, 299.1717
2021.783, 298.2585
2023.712, 296.9154
2025.640, 294.1121
2027.569, 292.8315
2029.497, 296.7239
2031.426, 301.4525
2033.354, 301.2645
2035.283, 297.7685
2037.211, 296.2627
2039.140, 296.9330
2041.068, 298.3310
2042.997, 300.9874
2044.925, 303.3621
2046.854, 305.8367
2048.782, 307.3059
2050.710, 307.0267
2052.639, 306.1139
2054.567, 304.3504
2056.496, 302.9173
2058.424, 303.6367
2060.353, 305.9118
2062.281, 308.2093
2064.210, 310.4687
2066.138, 311.3410
2068.067, 310.6870
2069.995, 308.7943
2071.924, 304.2914
2073.852, 301.0304
2075.781, 300.7436
2077.709, 301.6221
2079.637, 303.1507
2081.566, 304.7246
2083.494, 305.0266
2085.423, 304.7369
2087.351, 306.8789
2089.280, 312.0511
2091.208, 313.8552
2093.137, 310.7330
2095.065, 309.2267
2096.994, 311.6277
2098.922, 312.3595
2100.851, 308.4238
2102.779, 304.5281
2104.708, 303.0726
2106.636, 303.0139
2108.564, 304.2879
2110.493, 305.8967
2112.421, 305.1580
2114.350, 302.5794
2116.278, 302.9639
2118.207, 307.3685
2120.135, 310.1372
2122.064, 310.3430
2123.992, 309.9430
2125.921, 308.1958
2127.849, 307.0561
2129.778, 307.0476
2131.706, 307.9283
2133.635, 310.7360
2135.563, 313.4286
2137.491, 312.8357
2139.420, 310.1888
2141.348, 308.9987
2143.277, 309.2241
2145.205, 309.7248
2147.134, 310.4139
2149.062, 311.7108
2150.991, 314.3468
2152.919, 315.8742
2154.848, 314.6838
2156.776, 313.6141
2158.705, 313.7885
2160.633, 314.4496
2162.562, 315.1708
2164.490, 316.0080
2166.418, 317.7563
2168.347, 319.5796
2170.275, 317.7452
2172.204, 312.5706
2174.132, 311.2578
2176.061, 314.5509
2177.989, 316.3881
2179.918, 315.6209
2181.846, 314.6786
2183.775, 313.9186
2185.703, 313.4823
2187.632, 313.5059
2189.560, 313.7602
2191.489, 314.4177
2193.417, 314.9621
2195.345, 314.3737
2197.274, 313.5047
2199.202, 314.4573
2201.131, 316.9495
2203.059, 318.5093
2204.988, 319.1134
2206.916, 318.5815
2208.845, 316.4979
2210.773, 315.3298
2212.702, 315.7700
2214.630, 316.2477
2216.559, 316.1106
2218.487, 316.2202
2220.416, 317.7474
2222.344, 318.8446
2224.272, 317.1225
2226.201, 315.2275
2228.129, 317.1959
2230.058, 321.0314
2231.986, 321.7667
2233.915, 319.7686
2235.843, 319.2940
2237.772, 320.3607
2239.700, 320.8264
2241.629, 320.4180
2243.557, 320.3139
2245.486, 320.9200
2247.414, 321.2711
2249.343, 320.6335
2251.271, 320.3643
2253.199, 321.6823
2255.128, 322.5808
2257.056, 321.5790
2258.985, 319.8616
2260.913, 317.7229
2262.842, 316.2244
2264.770, 317.8520
2266.699, 321.5273
2268.627, 323.8079
2270.556, 324.6836
2272.484, 323.6628
2274.413, 320.4404
2276.341, 320.2025
2278.270, 325.0095
2280.198, 327.9789
2282.126, 327.4821
2284.055, 326.2000
2285.983, 322.8238
2287.912, 321.2625
2289.840, 324.9361
2291.769, 328.3393
2293.697, 327.7045
2295.626, 326.0460
2297.554, 325.9388
2299.483, 326.4964
2301.411, 326.4258
2303.340, 326.0956
2305.268, 326.5345
2307.197, 327.6639
2309.125, 328.5939
2311.053, 329.3531
2312.982, 329.5710
2314.910, 328.6088
2316.839, 329.3995
2318.767, 333.0960
2320.696, 335.3655
2322.624, 334.9295
2324.553, 334.0370
2326.481, 332.9362
2328.410, 332.3510
2330.338, 333.0285
2332.267, 333.8395
2334.195, 333.8118
2336.124, 333.8027
2338.052, 335.7481
2339.980, 337.4552
2341.909, 334.4946
2343.837, 329.0797
2345.766, 326.9560
2347.694, 327.6768
2349.623, 330.0152
2351.551, 333.6946
2353.480, 334.9767
2355.408, 333.0807
2357.337, 332.7252
2359.265, 335.7496
2361.194, 337.0594
2363.122, 335.0809
2365.051, 333.9659
2366.979, 334.8698
2368.907, 335.4871
2370.836, 335.0021
2372.764, 334.4189
2374.693, 333.2775
2376.621, 333.3462
2378.550, 337.2486
2380.478, 341.2023
2382.407, 341.3696
2384.335, 339.8842
2386.264, 339.4846
2388.192, 339.5808
2390.121, 338.6944
2392.049, 337.3275
2393.978, 336.9963
2395.906, 337.7768
2397.834, 340.9195
2399.763, 346.2827
2401.691, 347.4594
2403.620, 342.7936
2405.548, 339.9202
2407.477, 340.6315
2409.405, 339.7449
2411.334, 335.8966
2413.262, 333.7719
2415.191, 334.6544
2417.119, 335.9644
2419.048, 336.8556
2420.976, 338.2575
2422.905, 341.0909
2424.833, 343.6795
2426.761, 345.6993
2428.690, 346.4420
2430.618, 344.0633
2432.547, 341.6189
2434.475, 342.6638
2436.404, 344.6305
2438.332, 344.6010
2440.261, 343.3759
2442.189, 341.6012
2444.118, 339.8469
2446.046, 339.4534
2447.975, 340.1999
2449.903, 341.4008
2451.832, 342.9657
2453.760, 343.2850
2455.688, 342.2484
2457.617, 343.5753
2459.545, 347.6292
2461.474, 347.2011
2463.402, 340.4864
2465.331, 338.0497
2467.259, 343.6783
2469.188, 347.3633
2471.116, 346.7123
2473.045, 346.0876
2474.973, 345.8013
2476.902, 345.7570
2478.830, 345.8995
2480.759, 346.3417
2482.687, 347.6095
2484.615, 348.4165
2486.544, 347.7341
2488.472, 347.0301
2490.401, 347.7399
2492.329, 348.0430
2494.258, 345.7023
2496.186, 343.3597
2498.115, 342.8769
2500.043, 344.0006
2501.972, 347.4443
2503.900, 351.4562
2505.829, 354.5255
2507.757, 356.0314
2509.686, 353.7999
2511.614, 349.5388
2513.542, 347.4305
2515.471, 347.1885
2517.399, 348.3204
2519.328, 350.2521
2521.256, 349.6320
2523.185, 346.9714
2525.113, 347.8847
2527.042, 352.7081
2528.970, 354.3003
2530.899, 351.8315
2532.827, 350.5251
2534.756, 350.3997
2536.684, 351.5754
2538.613, 354.3755
2540.541, 355.8147
2542.469, 355.4119
2544.398, 354.1819
2546.326, 351.1758
2548.255, 349.5754
2550.183, 350.3261
2552.112, 351.0925
2554.040, 351.4401
2555.969, 352.1535
2557.897, 353.6889
2559.826, 354.8418
2561.754, 354.6704
2563.683, 354.8425
2565.611, 356.7627
2567.540, 357.8522
2569.468, 356.4974
2571.396, 355.0778
2573.325, 354.3482
2575.253, 354.1395
2577.182, 354.0614
2579.110, 354.8740
2581.039, 358.7371
2582.967, 361.5458
2584.896, 359.0461
2586.824, 355.8054
2588.753, 355.3692
2590.681, 356.0313
2592.610, 356.9995
2594.538, 357.5554
2596.467, 356.3470
2598.395, 354.9471
2600.323, 354.7404
2602.252, 355.8854
2604.180, 359.8659
2606.109, 364.3833
2608.037, 366.0205
2609.966, 365.6747
2611.894, 364.4063
2613.823, 362.4514
2615.751, 359.0911
2617.680, 355.9156
2619.608, 357.4889
2621.537, 361.8451
2623.465, 363.6390
2625.394, 363.6789
2627.322, 364.3463
2629.250, 365.2177
2631.179, 364.4919
2633.107, 362.8195
2635.036, 363.3392
2636.964, 365.4948
2638.893, 366.1415
2640.821, 365.3441
2642.750, 362.0981
2644.678, 357.5770
2646.607, 359.8813
2648.535, 367.9601
2650.464, 368.1269
2652.392, 360.7296
2654.321, 359.0143
2656.249, 362.5643
2658.177, 362.3252
2660.106, 358.8524
2662.034, 361.6386
2663.963, 371.0966
2665.891, 374.5609
2667.820, 371.4420
2669.748, 368.6547
2671.677, 366.1600
2673.605, 365.1494
2675.534, 365.7127
2677.462, 369.9947
2679.391, 378.6052
2681.319, 380.0739
2683.248, 372.7223
2685.176, 369.6997
2687.104, 371.4777
2689.033, 370.5164
2690.961, 366.5110
2692.890, 366.1390
2694.818, 370.3069
2696.747, 371.5638
2698.675, 368.7544
2700.604, 368.3065
2702.532, 370.4685
2704.461, 372.6605
2706.389, 374.8199
2708.318, 376.0288
2710.246, 376.3643
2712.175, 373.5066
2714.103, 366.0097
2716.031, 363.7025
2717.960, 367.0628
2719.888, 369.9167
2721.817, 371.9893
2723.745, 370.3336
2725.674, 364.0875
2727.602, 362.0417
2729.531, 364.8703
2731.459, 369.2016
2733.388, 375.2227
2735.316, 378.1601
2737.245, 377.8899
2739.173, 375.6045
2741.102, 370.9891
2743.030, 371.6528
2744.958, 378.5748
2746.887, 378.2062
2748.815, 370.8448
2750.744, 369.2841
2752.672, 373.6161
2754.601, 378.4959
2756.529, 383.6798
2758.458, 385.8004
2760.386, 384.9042
2762.315, 382.2973
2764.243, 378.3585
2766.172, 376.1028
2768.100, 375.4955
2770.029, 375.3589
2771.957, 375.8297
2773.885, 379.2563
2775.814, 384.8251
2777.742, 385.0735
2779.671, 381.8891
2781.599, 383.8352
2783.528, 388.7135
2785.456, 386.9936
2787.385, 380.8692
2789.313, 378.4783
2791.242, 378.7221
2793.170, 377.9315
2795.099, 377.3074
2797.027, 380.4608
2798.956, 385.1984
2800.884, 387.2485
2802.813, 386.9749
2804.741, 383.8494
2806.669, 379.8253
2808.598, 378.1410
2810.526, 377.6373
2812.455, 376.1496
2814.383, 375.4411
2816.312, 379.2848
2818.240, 383.8917
2820.169, 384.1906
2822.097, 383.5716
2824.026, 385.1092
2825.954, 387.2749
2827.883, 390.0782
2829.811, 391.1031
2831.740, 386.6568
2833.668, 381.9367
2835.596, 379.0557
2837.525, 378.7948
2839.453, 383.2401
2841.382, 388.2022
2843.310, 392.6393
2845.239, 395.0963
2847.167, 394.6553
2849.096, 392.8137
2851.024, 388.3187
2852.953, 385.5609
2854.881, 387.0791
2856.810, 388.6117
2858.738, 389.5980
2860.667, 389.8223
2862.595, 389.0175
2864.523, 388.3492
2866.452, 388.2476
2868.380, 387.8710
2870.309, 386.5322
2872.237, 387.5884
2874.166, 391.8371
2876.094, 394.0780
2878.023, 393.3864
2879.951, 391.4148
2881.880, 387.6279
2883.808, 387.3852
2885.737, 390.5858
2887.665, 392.6667
2889.594, 393.5642
2891.522, 395.6624
2893.450, 398.6206
2895.379, 399.1082
2897.307, 397.8658
2899.236, 398.5412
2901.164, 399.8810
2903.093, 397.6963
2905.021, 394.4702
2906.950, 396.9354
2908.878, 400.7478
2910.807, 396.8832
2912.735, 392.2234
2914.664, 396.4111
2916.592, 401.6310
2918.521, 399.1844
2920.449, 395.3742
2922.377, 393.9904
2924.306, 394.6982
2926.234, 400.1779
2928.163, 403.3230
2930.091, 398.0199
2932.020, 393.8174
2933.948, 394.2268
2935.877, 395.2684
2937.805, 396.1049
2939.734, 396.7519
2941.662, 397.5225
2943.591, 397.3039
2945.519, 395.4313
2947.448, 395.6686
2949.376, 398.7311
2951.304, 400.8013
2953.233, 401.7460
2955.161, 398.7784
2957.090, 391.9012
2959.018, 391.6564
2960.947, 396.6926
2962.875, 398.2632
2964.804, 397.2335
2966.732, 396.4463
2968.661, 396.6800
2970.589, 402.2995
2972.518, 408.2906
2974.446, 406.2125
2976.375, 401.3505
2978.303, 399.2281
2980.231, 398.6180
2982.160, 399.2758
2984.088, 399.7842
2986.017, 398.3826
2987.945, 397.8162
2989.874, 401.0029
2991.802, 402.3657
2993.731, 398.9377
2995.659, 397.4297
2997.588, 400.9953
2999.516, 402.8544
3001.445, 401.2039
3003.373, 399.1382
3005.302, 396.5460
3007.230, 396.5808
3009.158, 399.5391
3011.087, 400.0850
3013.015, 398.3447
3014.944, 399.9035
3016.872, 403.6167
3018.801, 405.7469
3020.729, 405.9295
3022.658, 401.5255
3024.586, 396.4393
3026.515, 397.4717
3028.443, 400.5978
3030.372, 402.4334
3032.300, 403.7455
3034.229, 405.0943
3036.157, 406.1646
3038.085, 407.8374
3040.014, 406.8285
3041.942, 399.3279
3043.871, 395.4972
3045.799, 401.1363
3047.728, 404.4177
3049.656, 404.3295
3051.585, 404.1748
3053.513, 404.2607
3055.442, 405.9308
3057.370, 409.1449
3059.299, 411.0100
3061.227, 411.6339
3063.156, 411.6219
3065.084, 410.7678
3067.012, 407.8085
3068.941, 404.5664
3070.869, 403.8186
3072.798, 404.2592
3074.726, 404.9085
3076.655, 406.0096
3078.583, 408.6464
3080.512, 410.0910
3082.440, 408.7557
3084.369, 407.6649
3086.297, 407.4130
3088.226, 408.1896
3090.154, 410.3070
3092.083, 412.5948
3094.011, 415.0324
3095.939, 417.4037
3097.868, 419.3542
3099.796, 416.0549
3101.725, 409.5569
3103.653, 408.3157
3105.582, 409.9081
3107.510, 411.0363
3109.439, 411.2679
3111.367, 408.2095
3113.296, 406.7999
3115.224, 412.0685
3117.153, 416.8063
3119.081, 418.1120
3121.010, 416.6405
3122.938, 411.0502
3124.866, 407.1348
3126.795, 405.7630
3128.723, 405.8789
3130.652, 407.9927
3132.580, 404.8480
3134.509, 397.8719
3136.437, 400.1384
3138.366, 407.3886
3140.294, 406.6241
3142.223, 403.2105
3144.151, 406.7902
3146.080, 411.2615
3148.008, 410.8745
3149.937, 409.8829
3151.865, 410.9582
3153.793, 411.7752
3155.722, 411.4063
3157.650, 411.6705
3159.579, 413.3525
3161.507, 414.3504
3163.436, 414.3174
3165.364, 417.3907
3167.293, 422.5143
3169.221, 420.6867
3171.150, 414.7741
3173.078, 413.3880
3175.007, 413.9245
3176.935, 411.8556
3178.864, 410.5442
3180.792, 414.3131
3182.720, 417.6248
3184.649, 417.3762
3186.577, 417.0294
3188.506, 417.2664
3190.434, 418.6769
3192.363, 422.5247
3194.291, 421.0122
3196.220, 414.4646
3198.148, 413.5687
3200.077, 416.8638
3202.005, 417.0657
3203.934, 415.5439
3205.862, 413.7249
3207.791, 413.2382
3209.719, 417.6830
3211.647, 421.0734
3213.576, 419.1378
3215.504, 417.0099
3217.433, 415.9549
3219.361, 415.9124
3221.290, 417.1749
3223.218, 418.0668
3225.147, 418.5785
3227.075, 420.4726
3229.004, 422.8579
3230.932, 421.0148
3232.861, 417.9701
3234.789, 419.6812
3236.718, 422.4727
3238.646, 423.5833
3240.574, 423.8268
3242.503, 422.7248
3244.431, 423.2778
3246.360, 427.2363
3248.288, 430.1013
3250.217, 431.6292
3252.145, 430.4448
3254.074, 426.7571
3256.002, 421.0020
3257.931, 415.4029
3259.859, 416.8389
3261.788, 420.6256
3263.716, 421.7964
3265.645, 421.9741
3267.573, 421.1037
3269.501, 421.7383
3271.430, 425.1932
3273.358, 427.7469
3275.287, 428.9189
3277.215, 427.0071
3279.144, 422.2916
3281.072, 420.9245
3283.001, 421.8495
3284.929, 422.1988
3286.858, 422.0535
3288.786, 420.7444
3290.715, 420.0552
3292.643, 421.4986
3294.572, 423.2256
3296.500, 425.1311
3298.428, 425.5315
3300.357, 423.9821
3302.285, 423.8756
3304.214, 425.2839
3306.142, 425.1013
3308.071, 424.3597
3309.999, 426.1503
3311.928, 428.4291
3313.856, 429.7949
3315.785, 428.9601
3317.713, 423.8423
3319.642, 420.3234
3321.570, 421.8005
3323.499, 422.2917
3325.427, 421.5102
3327.355, 420.6554
3329.284, 420.0796
3331.212, 421.2947
3333.141, 423.9435
3335.069, 428.2206
3336.998, 432.3671
3338.926, 435.9336
3340.855, 436.8605
3342.783, 433.6664
3344.712, 430.4504
3346.640, 428.0125
3348.569, 425.9333
3350.497, 424.2986
3352.426, 424.3787
3354.354, 425.4894
3356.282, 425.7416
3358.211, 426.0233
3360.139, 427.2166
3362.068, 428.8530
3363.996, 431.8502
3365.925, 432.2558
3367.853, 428.2475
3369.782, 428.3592
3371.710, 432.9665
3373.639, 431.7685
3375.567, 427.2971
3377.496, 428.9249
3379.424, 431.8554
3381.353, 429.9520
3383.281, 428.0683
3385.209, 429.0620
3387.138, 430.1289
3389.066, 430.3681
3390.995, 432.6909
3392.923, 437.4656
3394.852, 435.1693
3396.780, 429.4536
3398.709, 430.8227
3400.637, 434.2763
3402.566, 433.5212
3404.494, 432.7708
3406.423, 435.1352
3408.351, 435.3950
3410.280, 431.7922
3412.208, 432.4669
3414.136, 437.4313
3416.065, 440.2147
3417.993, 440.3865
3419.922, 433.7105
3421.850, 428.2239
3423.779, 432.4486
3425.707, 438.5178
3427.636, 445.6716
3429.564, 445.0676
3431.493, 432.8394
3433.421, 432.0752
3435.350, 440.6961
3437.278, 439.3831
3439.207, 434.5750
3441.135, 435.5413
3443.063, 438.3338
3444.992, 441.9367
3446.920, 442.6217
3448.849, 436.0559
3450.777, 434.1382
3452.706, 436.8840
3454.634, 439.8309
3456.563, 442.3564
3458.491, 444.7563
3460.420, 444.1248
3462.348, 433.5085
3464.277, 427.3233
3466.205, 436.8489
3468.134, 441.5252
3470.062, 439.4469
3471.990, 435.8802
3473.919, 432.5563
3475.847, 438.8912
3477.776, 446.5767
3479.704, 444.6973
3481.633, 440.6822
3483.561, 437.0222
3485.490, 437.0840
3487.418, 442.5362
3489.347, 444.4294
3491.275, 442.8321
3493.204, 441.0055
3495.132, 439.5433
3497.061, 439.2358
3498.989, 439.8288
3500.917, 441.2978
3502.846, 443.0076
3504.774, 445.2598
3506.703, 446.0515
3508.631, 445.4965
3510.560, 443.9990
3512.488, 442.6757
3514.417, 444.4154
3516.345, 445.8315
3518.274, 443.6149
3520.202, 443.0697
3522.131, 446.3946
3524.059, 448.8317
3525.988, 450.0659
3527.916, 449.5955
3529.844, 448.0703
3531.773, 445.7363
3533.701, 444.5055
3535.630, 446.8456
3537.558, 448.2152
3539.487, 447.5986
3541.415, 448.2375
3543.344, 450.0724
3545.272, 448.5422
3547.201, 446.4093
3549.129, 449.1755
3551.058, 451.5634
3552.986, 448.8796
3554.915, 447.3330
3556.843, 448.0040
3558.771, 448.7632
3560.700, 449.2396
3562.628, 446.7946
3564.557, 444.3505
3566.485, 447.0089
3568.414, 448.6249
3570.342, 445.9159
3572.271, 443.6622
3574.199, 442.4630
3576.128, 445.3185
3578.056, 450.2687
3579.985, 451.3942
3581.913, 450.8638
3583.842, 450.5373
3585.770, 449.8121
3587.698, 447.2917
3589.627, 450.1799
3591.555, 458.4478
3593.484, 459.0051
3595.412, 454.5655
3597.341, 447.5505
3599.269, 443.1445
3601.198, 445.2934
3603.126, 448.0131
3605.055, 450.2485
3606.983, 450.6090
3608.912, 449.4306
3610.840, 447.4190
3612.769, 446.2939
3614.697, 448.9468
3616.625, 451.5844
3618.554, 452.9982
3620.482, 452.3910
3622.411, 449.9527
3624.339, 449.2475
3626.268, 450.0742
3628.196, 453.3896
3630.125, 455.6947
3632.053, 453.7805
3633.982, 452.0652
3635.910, 451.0606
3637.839, 453.3350
3639.767, 457.7027
3641.696, 460.7458
3643.624, 460.7859
3645.552, 453.1949
3647.481, 449.4012
3649.409, 454.8842
3651.338, 456.8481
3653.266, 454.9310
3655.195, 454.9907
3657.123, 456.2525
3659.052, 459.1641
3660.980, 459.7995
3662.909, 454.1349
3664.837, 450.0352
3666.766, 448.1830
3668.694, 447.9788
3670.623, 449.5841
3672.551, 456.3381
3674.479, 460.6668
3676.408, 454.0290
3678.336, 451.6471
3680.265, 455.6928
3682.193, 459.5426
3684.122, 462.1656
3686.050, 459.8810
3687.979, 457.5888
3689.907, 461.2587
3691.836, 461.0412
3693.764, 454.5964
3695.693, 452.0993
3697.621, 454.0499
3699.550, 464.7624
3701.478, 473.3718
3703.406, 467.0332
3705.335, 460.9568
3707.263, 458.6209
3709.192, 459.4132
3711.120, 462.1308
3713.049, 461.2424
3714.977, 459.0634
3716.906, 457.2364
3718.834, 456.7473
3720.763, 457.9212
3722.691, 460.0396
3724.620, 462.4368
3726.548, 461.5919
3728.477, 459.1810
3730.405, 455.9016
3732.333, 454.1048
3734.262, 454.2301
3736.190, 458.4814
3738.119, 465.0430
3740.047, 460.4606
3741.976, 454.4977
3743.904, 458.9436
3745.833, 462.2368
3747.761, 461.1187
3749.690, 457.7529
3751.618, 453.6509
3753.547, 455.9930
3755.475, 460.4163
3757.404, 463.8599
3759.332, 464.7384
3761.260, 462.2571
3763.189, 463.0577
3765.117, 466.4019
3767.046, 468.6579
3768.974, 469.2849
3770.903, 467.5756
3772.831, 464.5775
3774.760, 460.3216
3776.688, 459.4913
3778.617, 461.2047
3780.545, 464.2901
3782.474, 465.2105
3784.402, 458.6236
3786.331, 456.3357
3788.259, 459.7850
3790.188, 462.3917
3792.116, 464.5125
3794.044, 468.8105
3795.973, 470.8693
3797.901, 465.7120
3799.830, 464.6685
3801.758, 467.8337
3803.687, 465.0044
3805.615, 460.8935
3807.544, 465.5251
3809.472, 467.1748
3811.401, 456.4566
3813.329, 455.9380
3815.258, 463.0890
3817.186, 461.4362
3819.115, 458.6705
3821.043, 463.1015
3822.971, 468.0037
3824.900, 472.1233
3826.828, 472.5150
3828.757, 470.6178
3830.685, 469.6616
3832.614, 470.1042
3834.542, 472.7375
3836.471, 474.6657
3838.399, 475.4907
3840.328, 470.6412
3842.256, 464.3102
3844.185, 461.6791
3846.113, 463.1905
3848.042, 470.2920
3849.970, 470.4259
3851.898, 465.0074
3853.827, 467.6063
3855.755, 471.9641
3857.684, 473.1257
3859.612, 473.1424
3861.541, 472.3253
3863.469, 473.1750
3865.398, 474.0717
3867.326, 470.9454
3869.255, 467.3805
3871.183, 464.6080
3873.112, 463.9464
3875.040, 465.1307
3876.969, 467.2906
3878.897, 468.5793
3880.825, 465.4244
3882.754, 465.7352
3884.682, 470.6942
3886.611, 475.0958
3888.539, 477.3214
3890.468, 472.5890
3892.396, 468.7698
3894.325, 470.0330
3896.253, 472.5184
3898.182, 474.6596
3900.110, 473.3029
3902.039, 471.0524
3903.967, 469.5694
3905.896, 467.4907
3907.824, 463.2816
3909.752, 465.0886
3911.681, 470.0993
3913.609, 473.0021
3915.538, 475.3846
3917.466, 476.5333
3919.395, 474.4159
3921.323, 471.7528
3923.252, 472.0928
3925.180, 473.2437
3927.109, 475.1334
3929.037, 475.3530
3930.966, 473.5225
3932.894, 472.9830
3934.823, 473.1960
3936.751, 477.3842
3938.679, 479.3434
3940.608, 477.4646
3942.536, 474.0085
3944.465, 472.2804
3946.393, 475.1734
3948.322, 475.2744
3950.250, 473.9474
3952.179, 475.1878
3954.107, 478.8309
3956.036, 478.3166
3957.964, 475.5539
3959.893, 477.3966
3961.821, 475.9811
3963.750, 473.1615
3965.678, 472.7785
3967.606, 473.6045
3969.535, 476.3472
3971.463, 477.8041
3973.392, 479.3290
3975.320, 477.2300
3977.249, 473.2089
3979.177, 472.8395
3981.106, 474.1186
3983.034, 475.1305
3984.963, 475.8030
3986.891, 478.0282
3988.820, 479.6078
3990.748, 478.0427
3992.677, 475.3927
3994.605, 476.2874
3996.533, 478.2354
3998.462, 476.5191
4000.390, 475.2379
4002.319, 478.4233
4004.247, 478.0273
4006.176, 475.1679
4008.104, 478.4688
4010.033, 481.4780
4011.961, 476.9936
4013.890, 474.2542
4015.818, 478.2738
4017.747, 476.6303
4019.675, 472.9465
4021.604, 475.1613
4023.532, 475.7108
4025.460, 474.0401
4027.389, 477.6130
4029.317, 481.6195
4031.246, 481.9255
4033.174, 483.1026
4035.103, 483.3061
4037.031, 479.8727
4038.960, 476.6906
4040.888, 476.4612
4042.817, 477.2289
4044.745, 477.2657
4046.674, 478.7875
4048.602, 481.0313
4050.531, 482.1041
4052.459, 479.5411
4054.387, 476.2632
4056.316, 474.4157
4058.244, 474.9167
4060.173, 482.6665
4062.101, 486.9979
4064.030, 485.4938
4065.958, 483.1031
4067.887, 480.3245
4069.815, 478.7742
4071.744, 479.8244
4073.672, 483.4099
4075.601, 483.6592
4077.529, 481.8583
4079.458, 482.1571
4081.386, 484.9200
4083.314, 486.2562
4085.243, 484.9241
4087.171, 482.9256
4089.100, 480.7925
4091.028, 479.4341
4092.957, 479.0180
4094.885, 479.0295
4096.814, 479.4084
4098.742, 480.6248
4100.671, 483.5721
4102.599, 488.3219
4104.528, 490.8131
4106.456, 490.2377
4108.385, 480.4991
4110.313, 474.6445
4112.242, 479.7419
4114.170, 483.8701
4116.099, 485.7646
4118.027, 482.0076
4119.956, 479.2586
4121.884, 482.3266
4123.813, 481.4245
4125.741, 479.0250
4127.669, 482.5023
4129.598, 485.3837
4131.526, 484.4630
4133.455, 482.9040
4135.383, 481.2641
4137.312, 480.1169
4139.240, 481.5807
4141.168, 485.9245
4143.097, 486.4273
4145.025, 484.9940
4146.954, 487.7956
4148.882, 490.3106
4150.811, 489.6530
4152.739, 489.3991
4154.668, 489.7055
4156.596, 488.4024
4158.525, 488.2900
4160.453, 491.1628
4162.382, 485.9193
4164.310, 478.1031
4166.239, 482.9493
4168.167, 488.7028
4170.096, 491.9805
4172.024, 487.9437
4173.953, 481.2267
4175.881, 483.7397
4177.810, 486.4800
4179.738, 488.5604
4181.667, 486.4437
4183.595, 481.5901
4185.523, 479.3987
4187.452, 482.3857
4189.380, 492.5256
4191.309, 490.4792
4193.237, 482.5146
4195.166, 483.2553
4197.094, 485.4225
4199.022, 485.0722
4200.951, 485.5374
4202.879, 486.6290
4204.808, 484.6562
4206.736, 485.9954
4208.665, 492.7026
4210.593, 494.5624
4212.522, 493.1549
4214.450, 490.3881
4216.379, 486.4490
4218.307, 482.7672
4220.236, 482.5174
4222.164, 482.3479
4224.093, 476.8431
4226.021, 479.2821
4227.950, 489.7763
4229.878, 491.3047
4231.807, 490.7634
4233.735, 493.4123
4235.664, 491.0276
4237.592, 484.8911
4239.521, 486.5421
4241.449, 488.7128
4243.377, 486.9742
4245.306, 485.6266
4247.234, 485.3478
4249.163, 489.0928
4251.091, 488.8427
4253.020, 479.7481
4254.948, 486.3118
4256.876, 497.6044
4258.805, 488.3828
4260.733, 481.2449
4262.662, 482.5558
4264.590, 487.5974
4266.519, 491.3162
4268.447, 487.2067
4270.376, 480.5034
4272.304, 472.6326
4274.233, 473.6541
4276.161, 480.2049
4278.090, 492.7804
4280.018, 497.0867
4281.947, 493.4827
4283.875, 486.7504
4285.804, 483.4433
4287.732, 487.5797
4289.661, 490.5430
4291.589, 491.1219
4293.518, 478.5575
4295.446, 486.8461
4297.375, 491.5751
4299.303, 492.9356
4301.231, 480.8391
4303.160, 486.1196
4305.088, 484.4362
4307.017, 482.4673
4308.945, 490.1934
4310.874, 480.0543
4312.802, 487.6267
4314.730, 488.1290
4316.659, 491.8672
4318.587, 488.5984
4320.516, 487.4939
4322.444, 493.3985
4324.373, 495.4221
4326.301, 491.3467
4328.230, 492.4435
4330.158, 491.6745
4332.087, 487.0087
4334.015, 486.3436
4335.944, 487.8734
4337.872, 490.4695
4339.801, 494.6737
4341.729, 497.6883
4343.658, 488.8675
4345.586, 483.4215
4347.515, 486.2887
4349.443, 486.1132
4351.372, 484.9194
4353.300, 486.1881
4355.229, 486.3643
4357.157, 485.4255
4359.085, 486.6536
4361.014, 487.8871
4362.942, 487.5948
4364.871, 488.4041
4366.799, 488.9861
4368.728, 484.4553
4370.656, 483.7490
4372.584, 489.4842
4374.513, 488.9372
4376.441, 487.0793
4378.370, 490.0890
4380.298, 488.3241
4382.227, 483.6176
4384.155, 485.8882
4386.084, 488.8336
4388.012, 490.2111
4389.941, 488.5622
4391.869, 486.9173
4393.798, 489.1002
4395.726, 493.4395
4397.655, 498.2315
4399.583, 492.3365
4401.512, 487.3649
4403.440, 489.0968
4405.369, 486.6936
4407.297, 483.5165
4409.226, 487.8952
4411.154, 486.8805
4413.083, 480.7575
4415.011, 486.4447
4416.939, 492.1212
4418.868, 490.0080
4420.796, 489.2289
4422.725, 489.3669
4424.653, 488.3920
4426.582, 488.0013
4428.510, 488.5949
4430.438, 492.1566
4432.367, 492.7502
4434.295, 483.5560
4436.224, 480.8024
4438.152, 483.1705
4440.081, 488.9255
4442.009, 491.7638
4443.938, 490.4555
4445.866, 487.6853
4447.795, 486.9134
4449.723, 490.7813
4451.652, 492.0540
4453.580, 490.6816
4455.509, 486.3994
4457.437, 483.3188
4459.366, 482.3581
4461.294, 484.3368
4463.223, 486.7333
4465.151, 487.4243
4467.080, 492.7251
4469.008, 496.8437
4470.937, 486.3251
4472.865, 483.1664
4474.793, 488.9981
4476.722, 489.8780
4478.650, 488.1417
4480.579, 484.2448
4482.507, 485.8278
4484.436, 489.2001
4486.364, 490.1940
4488.292, 489.9346
4490.221, 488.7052
4492.149, 486.2264
4494.078, 483.8766
4496.006, 482.2669
4497.935, 488.7090
4499.863, 494.6300
4501.792, 490.5869
4503.720, 486.6603
4505.649, 484.2562
4507.577, 486.4441
4509.506, 487.4503
4511.434, 485.9903
4513.363, 481.6574
4515.291, 480.5373
4517.220, 486.5535
4519.148, 485.4218
4521.077, 482.6007
4523.005, 487.7266
4524.934, 491.1227
4526.862, 490.7445
4528.791, 480.2686
4530.719, 478.9268
4532.647, 495.6032
4534.576, 493.9993
4536.504, 487.0937
4538.433, 483.7170
4540.361, 487.8727
4542.290, 494.8145
4544.218, 496.3106
4546.146, 495.8179
4548.075, 494.4440
4550.003, 493.3986
4551.932, 493.3953
4553.860, 494.9212
4555.789, 491.3016
4557.717, 487.9552
4559.646, 490.7126
4561.574, 495.0675
4563.503, 498.8855
4565.431, 498.4990
4567.360, 494.4794
4569.288, 489.3282
4571.217, 499.9522
4573.145, 503.5258
4575.074, 490.9123
4577.002, 491.8324
4578.931, 494.3777
4580.859, 483.0221
4582.788, 483.0572
4584.716, 488.6454
4586.645, 485.8605
4588.573, 489.0396
4590.501, 497.2420
4592.430, 492.3188
4594.358, 489.3469
4596.287, 493.0381
4598.215, 498.7498
4600.144, 499.3987
4602.072, 484.0475
4604.000, 484.2937
4605.929, 491.3739
4607.857, 493.4709
4609.786, 495.2669
4611.714, 496.9551
4613.643, 498.0557
4615.571, 495.1393
4617.500, 488.8696
4619.428, 488.2350
4621.357, 488.6281
4623.285, 487.5170
4625.214, 487.8008
4627.142, 487.7487
4629.071, 485.5179
4630.999, 486.3962
4632.928, 488.8371
4634.856, 491.1201
4636.785, 488.8892
4638.713, 484.2698
4640.642, 485.5294
4642.570, 486.7766
4644.499, 486.3658
4646.427, 481.7136
4648.355, 479.8923
4650.284, 483.7350
4652.212, 487.0859
4654.141, 488.9388
4656.069, 488.7293
4657.998, 487.2856
4659.926, 485.8038
4661.854, 486.4062
4663.783, 484.6693
4665.711, 482.6824
4667.640, 488.1865
4669.568, 490.4460
4671.497, 488.2908
4673.425, 483.8137
4675.354, 482.6492
4677.282, 486.6584
4679.211, 490.0691
4681.139, 492.4518
4683.068, 493.7103
4684.996, 485.8473
4686.925, 479.2396
4688.853, 483.3655
4690.782, 484.9422
4692.710, 485.0030
4694.639, 487.4952
4696.567, 485.5093
4698.496, 480.2611
4700.424, 473.2944
4702.353, 474.9815
4704.281, 482.4889
4706.209, 480.5146
4708.138, 478.0627
4710.066, 477.8775
4711.995, 482.1903
4713.923, 481.9727
4715.852, 474.4188
4717.780, 482.8906
4719.708, 489.1732
4721.637, 481.7432
4723.565, 472.6219
4725.494, 468.6673
4727.422, 477.8326
4729.351, 482.0907
4731.279, 481.9561
4733.208, 476.9921
4735.136, 484.3815
4737.065, 495.0042
4738.993, 487.9050
4740.922, 480.9605
4742.850, 477.7480
4744.779, 482.9525
4746.707, 484.6877
4748.636, 482.3278
4750.564, 483.0283
4752.493, 481.2749
4754.421, 476.6559
4756.350, 484.1729
4758.278, 485.9498
4760.207, 477.0156
4762.135, 480.9318
4764.063, 484.8105
4765.992, 481.4941
4767.920, 480.6254
4769.849, 481.7081
4771.777, 484.7355
4773.706, 481.9543
4775.634, 479.6993
4777.563, 484.7982
4779.491, 475.9577
4781.419, 467.1292
4783.348, 477.5055
4785.276, 481.0347
4787.205, 481.0379
4789.133, 484.9237
4791.062, 485.8364
4792.990, 482.6353
4794.919, 471.0973
4796.847, 468.4009
4798.776, 472.7423
4800.704, 476.7125
4802.633, 482.0789
4804.561, 487.3210
4806.490, 488.8065
4808.418, 484.6453
4810.347, 477.7298
4812.275, 480.7292
4814.204, 481.7334
4816.132, 479.7347
4818.061, 481.8801
4819.989, 482.5911
4821.917, 480.9272
4823.846, 481.9287
4825.774, 480.3126
4827.703, 475.6508
4829.631, 472.3371
4831.560, 473.5538
4833.488, 479.8685
4835.417, 483.5965
4837.345, 486.7938
4839.273, 489.5247
4841.202, 484.2221
4843.130, 479.5760
4845.059, 479.4432
4846.987, 474.1365
4848.916, 472.6823
4850.844, 478.2375
4852.773, 484.7879
4854.701, 486.3978
4856.630, 479.5706
4858.558, 478.2062
4860.487, 478.4245
4862.415, 478.6071
4864.344, 486.0162
4866.272, 489.9931
4868.201, 483.7293
4870.129, 475.4409
4872.058, 483.0758
4873.986, 487.1514
4875.915, 487.8582
4877.843, 475.1084
4879.771, 479.7354
4881.700, 477.3983
4883.628, 474.7760
4885.557, 481.8485
4887.485, 471.0560
4889.414, 477.9748
4891.342, 477.8238
4893.271, 480.9082
4895.199, 476.9860
4897.127, 475.2281
4899.056, 480.4790
4900.984, 481.8493
4902.913, 477.1202
4904.841, 480.4107
4906.770, 469.3731
4908.698, 470.9085
4910.627, 477.8685
4912.555, 472.0242
4914.484, 474.0137
4916.412, 478.1651
4918.341, 478.3115
4920.269, 472.4261
4922.198, 476.3563
4924.126, 479.5422
4926.055, 478.7870
4927.983, 479.1951
4929.912, 478.9714
4931.840, 477.5077
4933.769, 475.3842
4935.697, 474.2757
4937.625, 474.3533
4939.554, 473.5045
4941.482, 474.9967
4943.411, 478.7004
4945.339, 480.9812
4947.268, 478.4244
4949.196, 472.4152
4951.125, 470.0836
4953.053, 467.8021
4954.981, 465.9419
4956.910, 467.7255
4958.838, 470.4235
4960.767, 472.5775
4962.695, 472.1307
4964.624, 469.0320
4966.552, 466.5414
4968.481, 472.5770
4970.409, 467.2934
4972.338, 462.0823
4974.266, 477.2542
4976.195, 474.9696
4978.123, 466.7350
4980.052, 469.9298
4981.980, 471.3729
4983.909, 470.7133
4985.837, 467.7455
4987.766, 470.9804
4989.694, 472.3971
4991.623, 466.6144
4993.551, 469.8046
4995.479, 471.9380
4997.408, 467.2048
4999.336, 471.2895
5001.265, 472.3408
5003.193, 467.2057
5005.122, 462.8277
5007.050, 464.8915
5008.979, 472.4223
5010.907, 471.9827
5012.835, 469.5480
5014.764, 467.2658
5016.692, 467.4995
5018.621, 465.4264
5020.549, 463.0412
5022.478, 466.7376
5024.406, 466.2540
5026.335, 465.1903
5028.263, 470.3128
5030.192, 473.8377
5032.120, 472.5933
5034.049, 462.0974
5035.977, 471.3298
5037.906, 476.6849
5039.834, 462.3553
5041.763, 460.4300
5043.691, 461.3863
5045.620, 460.8516
5047.548, 463.4158
5049.477, 462.3103
5051.405, 457.3069
5053.333, 459.5399
5055.262, 462.7169
5057.190, 465.1863
5059.119, 467.1366
5061.047, 467.1595
5062.976, 464.9511
5064.904, 458.5757
5066.833, 457.7742
5068.761, 458.4953
5070.689, 456.0229
5072.618, 454.2455
5074.546, 454.8788
5076.475, 458.9116
5078.403, 462.7752
5080.332, 462.1248
5082.260, 456.6252
5084.189, 461.4459
5086.117, 460.0689
5088.046, 453.1436
5089.974, 455.7527
5091.903, 457.3101
5093.831, 458.2996
5095.760, 464.6734
5097.688, 461.2361
5099.617, 454.8728
5101.545, 454.0181
5103.474, 450.2231
5105.402, 450.3862
5107.331, 459.9080
5109.259, 462.0560
5111.188, 459.0447
5113.116, 453.3515
5115.044, 453.3024
5116.973, 453.5528
5118.901, 454.5016
5120.830, 461.5016
5122.758, 465.4822
5124.687, 464.3536
5126.615, 455.9005
5128.543, 455.5766
5130.472, 456.3624
5132.400, 452.8688
5134.329, 459.5401
5136.257, 464.9946
5138.186, 464.0297
5140.114, 454.0056
5142.043, 449.6882
5143.971, 450.5227
5145.900, 445.8743
5147.828, 446.7581
5149.757, 451.4694
5151.685, 458.2794
5153.614, 456.5920
5155.542, 453.3407
5157.471, 452.8510
5159.399, 447.9783
5161.328, 454.2905
5163.256, 469.6273
5165.185, 462.1640
5167.113, 455.8845
5169.042, 453.5981
5170.970, 451.4249
5172.898, 450.5580
5174.827, 451.8425
5176.755, 455.7576
5178.684, 452.0714
5180.612, 452.1391
5182.541, 459.7572
5184.469, 456.5379
5186.397, 451.8039
5188.326, 449.6056
5190.254, 454.4391
5192.183, 457.4565
5194.111, 455.2052
5196.040, 443.8790
5197.968, 447.5757
5199.897, 452.1523
5201.825, 450.6695
5203.754, 456.5761
5205.682, 455.7569
5207.611, 450.1697
5209.539, 454.0217
5211.468, 454.2574
5213.396, 452.8770
5215.325, 453.5478
5217.253, 455.6729
5219.182, 454.6153
5221.110, 449.0007
5223.039, 444.0522
5224.967, 441.7668
5226.896, 442.8360
5228.824, 449.6003
5230.752, 451.4901
5232.681, 450.4323
5234.609, 449.0700
5236.538, 444.3733
5238.466, 443.2725
5240.395, 447.8168
5242.323, 457.3645
5244.251, 455.9190
5246.180, 447.9211
5248.108, 444.1663
5250.037, 448.6947
5251.965, 450.6863
5253.894, 443.7293
5255.822, 445.4844
5257.751, 446.2383
5259.679, 445.1524
5261.608, 450.2371
5263.536, 450.6499
5265.465, 448.4772
5267.393, 447.0286
5269.322, 449.8705
5271.250, 447.0799
5273.179, 438.7150
5275.107, 451.3074
5277.036, 450.3146
5278.964, 441.9247
5280.893, 448.3258
5282.821, 445.8978
5284.750, 441.8106
5286.678, 441.0836
5288.606, 444.4460
5290.535, 445.4813
5292.463, 444.2675
5294.392, 445.2852
5296.320, 439.2155
5298.249, 437.5359
5300.177, 451.7112
5302.105, 445.8327
5304.034, 442.2235
5305.962, 445.8544
5307.891, 450.1005
5309.819, 451.9972
5311.748, 449.1564
5313.676, 439.6879
5315.605, 434.5048
5317.533, 433.0643
5319.462, 434.5743
5321.390, 439.3304
5323.319, 437.3732
5325.247, 434.8315
5327.176, 439.3848
5329.104, 442.3649
5331.033, 443.2139
5332.961, 442.4190
5334.890, 442.1245
5336.818, 438.2880
5338.747, 435.1516
5340.675, 438.0006
5342.604, 442.8542
5344.532, 443.9194
5346.460, 440.9478
5348.389, 440.5543
5350.317, 441.9654
5352.246, 442.9630
5354.174, 441.2121
5356.103, 441.1060
5358.031, 437.1095
5359.959, 429.8587
5361.888, 427.6841
5363.816, 432.9019
5365.745, 437.6643
5367.673, 434.9203
5369.602, 431.5984
5371.530, 430.3808
5373.459, 431.6468
5375.387, 435.5355
5377.316, 433.8653
5379.244, 430.6922
5381.173, 429.5735
5383.101, 426.7822
5385.030, 425.1744
5386.958, 425.0908
5388.887, 425.1923
5390.815, 430.5488
5392.744, 431.9445
5394.672, 424.9780
5396.601, 423.5853
5398.529, 424.8348
5400.458, 426.2281
5402.386, 425.3833
5404.314, 427.2284
5406.243, 427.3032
5408.171, 424.8884
5410.100, 425.1626
5412.028, 426.5926
5413.957, 427.5097
5415.885, 426.4883
5417.813, 425.3619
5419.742, 422.3757
5421.670, 420.1514
5423.599, 425.8163
5425.527, 424.0075
5427.456, 424.5800
5429.384, 431.6389
5431.313, 425.2932
5433.241, 422.2287
5435.170, 421.3789
5437.098, 416.1059
5439.027, 425.9732
5440.955, 424.6571
5442.884, 412.6163
5444.812, 416.7644
5446.741, 418.0562
5448.669, 417.9010
5450.598, 418.8022
5452.526, 418.8391
5454.455, 422.9986
5456.383, 427.7556
5458.312, 427.4752
5460.240, 416.2704
5462.168, 416.8194
5464.097, 426.4221
5466.025, 413.7809
5467.954, 418.0400
5469.882, 422.7386
5471.811, 416.1180
5473.739, 415.3841
5475.667, 417.3674
5477.596, 417.3698
5479.524, 409.8884
5481.453, 406.3143
5483.381, 406.1965
5485.310, 409.5732
5487.238, 417.8407
5489.167, 416.9361
5491.095, 412.3770
5493.024, 408.9094
5494.952, 411.0931
5496.881, 409.1357
5498.809, 408.0212
5500.738, 413.2118
5502.666, 409.7816
5504.595, 409.1370
5506.523, 409.9976
5508.452, 406.4421
5510.380, 408.6826
5512.309, 408.5955
5514.237, 405.3479
5516.166, 403.5417
5518.094, 412.8843
5520.022, 419.5572
5521.951, 416.6219
5523.879, 409.9210
5525.808, 407.5435
5527.736, 409.1317
5529.665, 412.7093
5531.593, 408.0756
5533.521, 404.1961
5535.450, 401.5743
5537.378, 398.5597
5539.307, 400.0798
5541.235, 402.2943
5543.164, 403.4205
5545.092, 402.6898
5547.021, 398.8192
5548.949, 400.6693
5550.878, 407.5713
5552.806, 407.2179
5554.735, 401.7583
5556.663, 399.0434
5558.592, 401.5717
5560.520, 401.5238
5562.449, 404.8322
5564.377, 404.5560
5566.306, 397.0322
5568.234, 397.3084
5570.163, 397.7173
5572.091, 397.3058
5574.020, 396.5936
5575.948, 403.5428
5577.876, 399.4316
5579.805, 393.9109
5581.733, 403.3951
5583.662, 392.0318
5585.590, 390.7363
5587.519, 397.2241
5589.447, 394.7269
5591.375, 391.3191
5593.304, 393.2569
5595.232, 397.4477
5597.161, 391.9262
5599.089, 394.8830
5601.018, 394.4268
5602.946, 389.7808
5604.875, 392.9165
5606.803, 388.1880
5608.732, 388.0958
5610.660, 392.9503
5612.589, 384.7780
5614.517, 391.5384
5616.446, 394.6833
5618.374, 388.0434
5620.303, 392.1914
5622.231, 383.1317
5624.160, 379.0185
5626.088, 387.3865
5628.017, 389.7431
5629.945, 386.6934
5631.874, 383.1701
5633.802, 382.1181
5635.730, 383.6568
5637.659, 385.6304
5639.587, 387.3897
5641.516, 388.0613
5643.444, 383.7202
5645.373, 384.2440
5647.301, 387.4312
5649.229, 389.6070
5651.158, 382.8555
5653.086, 382.3462
5655.015, 381.7864
5656.943, 377.9645
5658.872, 385.7071
5660.800, 390.2607
5662.729, 386.6343
5664.657, 376.2718
5666.586, 373.1949
5668.514, 376.9747
5670.443, 380.6348
5672.371, 380.7971
5674.300, 381.0736
5676.228, 383.8664
5678.157, 383.9972
5680.085, 380.3527
5682.014, 380.9643
5683.942, 381.8405
5685.871, 380.6132
5687.799, 377.9763
5689.728, 381.2612
5691.656, 376.8498
5693.584, 374.4401
5695.513, 376.0149
5697.441, 373.2885
5699.370, 364.5689
5701.298, 365.2015
5703.227, 373.0160
5705.155, 370.5589
5707.083, 368.8730
5709.012, 374.0792
5710.940, 377.9520
5712.869, 363.4360
5714.797, 364.3056
5716.726, 366.6077
5718.654, 365.8654
5720.583, 362.6547
5722.511, 364.7881
5724.440, 367.7230
5726.368, 368.6341
5728.297, 365.8599
5730.225, 359.8235
5732.154, 361.5498
5734.082, 369.4363
5736.011, 377.6940
5737.939, 369.9581
5739.868, 367.6153
5741.796, 368.4584
5743.725, 368.8476
5745.653, 370.6765
5747.582, 371.2913
5749.510, 370.4885
5751.438, 368.1992
5753.367, 362.7576
5755.295, 364.0614
5757.224, 364.7553
5759.152, 362.5211
5761.081, 358.1382
5763.009, 361.2540
5764.938, 358.7552
5766.866, 356.3553
5768.794, 364.7045
5770.723, 367.0284
5772.651, 361.2958
5774.580, 358.5787
5776.508, 364.6854
5778.437, 359.6407
5780.365, 358.1313
5782.294, 361.0573
5784.222, 364.2609
5786.151, 357.4460
5788.079, 352.9627
5790.008, 352.6663
5791.936, 353.6065
5793.865, 349.4840
5795.793, 352.9926
5797.722, 354.6997
5799.650, 353.1653
5801.579, 350.1020
5803.507, 352.8520
5805.436, 347.0100
5807.364, 344.7354
5809.292, 350.9246
5811.221, 345.2618
5813.149, 348.2015
5815.078, 352.4211
5817.006, 351.7697
5818.935, 343.6515
5820.863, 353.1708
5822.792, 359.3899
5824.720, 358.7625
5826.648, 354.6314
5828.577, 350.0737
5830.505, 342.6196
5832.434, 337.3318
5834.362, 338.2019
5836.291, 350.4570
5838.219, 345.4621
5840.148, 344.9726
5842.076, 349.1642
5844.005, 342.7995
5845.933, 341.7455
5847.862, 338.4528
5849.790, 338.0075
5851.719, 344.4220
5853.647, 351.3259
5855.576, 345.4998
5857.504, 343.4723
5859.433, 345.0490
5861.361, 334.2816
5863.290, 336.3264
5865.218, 340.1797
5867.146, 342.3548
5869.075, 342.5377
5871.003, 338.8230
5872.932, 337.1041
5874.860, 336.6227
5876.789, 337.3437
5878.717, 340.8289
5880.646, 339.1115
5882.574, 343.4708
5884.502, 343.6711
5886.431, 330.9530
5888.359, 335.7940
5890.288, 332.7381
5892.216, 329.4907
5894.145, 331.3744
5896.073, 339.9136
5898.002, 329.9684
5899.930, 332.3723
5901.859, 337.7117
5903.787, 332.0991
5905.716, 333.0543
5907.644, 329.2548
5909.573, 331.5621
5911.501, 336.9558
5913.430, 331.0371
5915.358, 328.9594
5917.287, 334.1259
5919.215, 335.0649
5921.144, 327.5344
5923.072, 329.0826
5925.000, 333.4845
5926.929, 332.1722
5928.857, 327.3491
5930.786, 325.1572
5932.714, 326.9680
5934.643, 331.0577
5936.571, 329.2565
5938.500, 323.1064
5940.428, 324.6977
5942.356, 324.1117
5944.285, 321.9577
5946.213, 321.0876
5948.142, 322.9842
5950.070, 326.0276
5951.999, 325.5132
5953.927, 327.5834
5955.856, 327.9630
5957.784, 320.3104
5959.713, 330.2467
5961.641, 330.0844
5963.570, 323.5103
5965.498, 317.7697
5967.427, 319.7828
5969.355, 313.1537
5971.284, 316.7460
5973.212, 320.0526
5975.141, 317.1617
5977.069, 326.3259
5978.998, 323.0964
5980.926, 318.1370
5982.854, 316.0141
5984.783, 316.5909
5986.711, 313.0781
5988.640, 325.2381
5990.568, 327.9787
5992.497, 320.3158
5994.425, 314.6754
5996.354, 310.3583
5998.282, 312.7059
6000.210, 315.3891
6002.139, 314.9758
6004.067, 311.8339
6005.996, 312.2504
6007.924, 312.9224
6009.853, 313.2278
6011.781, 313.5093
6013.710, 314.4519
6015.638, 321.2064
6017.567, 318.5262
6019.495, 309.7868
6021.424, 305.1268
6023.352, 316.0018
6025.281, 306.0829
6027.209, 304.4977
6029.138, 307.3534
6031.066, 307.2150
6032.995, 308.3300
6034.923, 314.7245
6036.852, 314.1971
6038.780, 310.0164
6040.708, 307.4749
6042.637, 306.4759
6044.565, 302.7711
6046.494, 301.3450
6048.422, 304.3503
6050.351, 308.4377
6052.279, 300.8946
6054.208, 301.8133
6056.136, 296.4464
6058.064, 290.7797
6059.993, 292.2085
6061.921, 295.7868
6063.850, 295.9989
6065.778, 295.8980
6067.707, 297.4602
6069.635, 299.9816
6071.564, 298.7058
6073.492, 298.3749
6075.421, 303.9958
6077.349, 304.0753
6079.278, 295.4460
6081.206, 297.4172
6083.135, 292.6184
6085.063, 297.2852
6086.992, 298.5320
6088.920, 291.9240
6090.849, 296.6772
6092.777, 294.7902
6094.706, 291.2939
6096.634, 290.8600
6098.563, 292.8999
6100.491, 292.1649
6102.419, 291.8188
6104.348, 296.6181
6106.276, 293.4307
6108.205, 284.9078
6110.133, 286.3823
6112.062, 285.3910
6113.990, 289.8049
6115.918, 293.4415
6117.847, 291.0444
6119.775, 283.3063
6121.704, 292.4484
6123.632, 284.0474
6125.561, 281.8242
6127.489, 283.0480
6129.418, 279.0624
6131.346, 287.5891
6133.275, 289.5257
6135.203, 283.8407
6137.132, 280.0369
6139.060, 282.4673
6140.989, 285.0270
6142.917, 279.0775
6144.846, 284.1164
6146.774, 288.8721
6148.703, 286.6079
6150.631, 281.2241
6152.560, 283.6950
6154.488, 280.8790
6156.417, 281.7191
6158.345, 285.8639
6160.273, 287.0413
6162.202, 277.9482
6164.130, 279.3972
6166.059, 280.1576
6167.987, 283.4363
6169.916, 287.1956
6171.844, 276.8877
6173.772, 273.7817
6175.701, 273.9192
6177.629, 273.1201
6179.558, 274.5587
6181.486, 281.5345
6183.415, 278.8612
6185.343, 272.2618
6187.272, 270.9889
6189.200, 274.3920
6191.129, 276.7095
6193.057, 271.5567
6194.986, 278.7369
6196.914, 280.1088
6198.843, 274.7317
6200.771, 270.5613
6202.700, 273.6953
6204.628, 273.3924
6206.557, 266.7786
6208.485, 268.6241
6210.414, 272.8015
6212.342, 271.0101
6214.271, 265.1552
6216.199, 274.9588
6218.127, 270.0130
6220.056, 264.9917
6221.984, 267.1125
6223.913, 272.2058
6225.841, 273.3751
6227.770, 265.5434
6229.698, 274.4813
6231.626, 274.9617
6233.555, 263.2628
6235.483, 265.2734
6237.412, 263.8106
6239.340, 263.2320
6241.269, 263.1646
6243.197, 261.1671
6245.126, 259.9674
6247.054, 270.5599
6248.983, 269.2830
6250.911, 257.8255
6252.840, 256.2373
6254.768, 257.8341
6256.697, 251.8564
6258.625, 264.7758
6260.554, 263.2220
6262.482, 255.0671
6264.411, 254.5347
6266.339, 260.2281
6268.268, 261.6580
6270.196, 255.5600
6272.125, 249.5098
6274.053, 258.3944
6275.981, 261.9601
6277.910, 256.2993
6279.838, 257.6700
6281.767, 261.8220
6283.695, 254.7478
6285.624, 256.0291
6287.552, 256.4478
6289.480, 251.6635
6291.409, 251.6041
6293.337, 254.8024
6295.266, 249.7533
6297.194, 256.4775
6299.123, 257.2593
6301.051, 250.1998
6302.980, 257.5027
6304.908, 249.2263
6306.837, 250.2307
6308.765, 255.5492
6310.694, 257.9700
6312.622, 255.7400
6314.551, 252.8123
6316.479, 258.6903
6318.408, 254.1170
6320.336, 249.2399
6322.265, 247.2818
6324.193, 248.4541
6326.122, 252.7355
6328.050, 247.1912
6329.979, 246.0786
6331.907, 248.6316
6333.835, 247.9714
6335.764, 244.9377
6337.692, 246.1255
6339.621, 252.1246
6341.549, 254.6438
6343.478, 242.6259
6345.406, 241.2722
6347.334, 248.9518
6349.263, 248.1362
6351.191, 246.6347
6353.120, 244.9114
6355.048, 246.6819
6356.977, 242.7021
6358.905, 241.7897
6360.834, 246.7844
6362.762, 236.2731
6364.691, 236.7867
6366.619, 245.7288
6368.548, 243.9825
6370.476, 239.9643
6372.405, 241.6187
6374.333, 242.8230
6376.262, 241.4649
6378.190, 239.3468
6380.119, 234.0761
6382.047, 231.7928
6383.976, 235.6347
6385.904, 241.9183
6387.833, 236.6525
6389.761, 239.1927
6391.689, 236.4122
6393.618, 238.3106
6395.546, 241.3419
6397.475, 240.0875
6399.403, 237.9978
6401.332, 228.7081
6403.260, 232.9356
6405.188, 236.6103
6407.117, 235.9646
6409.045, 233.3143
6410.974, 231.7715
6412.902, 233.4054
6414.831, 230.9828
6416.759, 233.8750
6418.688, 231.0227
6420.616, 230.3237
6422.545, 232.9327
6424.473, 226.7967
6426.402, 226.8691
6428.330, 230.8584
6430.259, 232.8880
6432.187, 235.5475
6434.116, 235.1105
6436.044, 231.4585
6437.973, 237.1077
6439.901, 227.2091
6441.830, 227.6044
6443.758, 230.5219
6445.687, 228.1469
6447.615, 224.8994
6449.543, 227.2658
6451.472, 231.0000
6453.400, 225.3267
6455.329, 227.3984
6457.257, 224.4685
6459.186, 224.3156
6461.114, 227.2422
6463.042, 225.9579
6464.971, 226.8282
6466.899, 228.4851
6468.828, 232.6835
6470.756, 224.3779
6472.685, 218.6654
6474.613, 222.6591
6476.542, 227.5459
6478.470, 225.3942
6480.399, 218.5563
6482.327, 225.8886
6484.256, 225.1442
6486.184, 221.3094
6488.113, 220.3021
6490.041, 220.7176
6491.970, 224.7997
6493.898, 221.5446
6495.827, 222.9992
6497.755, 221.5959
6499.684, 223.8811
6501.612, 226.0668
6503.541, 222.1766
6505.469, 221.6073
6507.397, 213.2063
6509.326, 219.3604
6511.254, 213.6128
6513.183, 211.8686
6515.111, 212.6291
6517.040, 210.0875
6518.968, 213.7085
6520.896, 214.5094
6522.825, 215.7170
6524.753, 210.1351
6526.682, 211.1571
6528.610, 215.1869
6530.539, 215.4389
6532.467, 213.0698
6534.396, 213.4919
6536.324, 213.0241
6538.253, 211.5939
6540.181, 211.8138
6542.110, 210.0567
6544.038, 209.3025
6545.967, 210.7861
6547.895, 207.0034
6549.824, 206.6469
6551.752, 209.2221
6553.681, 213.3467
6555.609, 213.3275
6557.538, 209.6402
6559.466, 206.5985
6561.395, 206.4494
6563.323, 205.5590
6565.251, 210.8719
6567.180, 211.2277
6569.108, 209.4222
6571.037, 208.2480
6572.965, 208.8989
6574.894, 208.7928
6576.822, 204.5468
6578.750, 200.3055
6580.679, 212.7245
6582.607, 202.8085
6584.536, 203.0564
6586.464, 208.4579
6588.393, 206.6065
6590.321, 202.1326
6592.250, 207.0630
6594.178, 203.8766
6596.107, 206.3393
6598.035, 210.8410
6599.964, 200.1355
6601.892, 199.5897
6603.821, 204.3353
6605.749, 202.3291
6607.678, 203.2138
6609.606, 208.0825
6611.535, 198.7796
6613.463, 198.1396
6615.392, 199.1809
6617.320, 200.1615
6619.249, 199.6815
6621.177, 200.2419
6623.105, 204.6323
6625.034, 200.0492
6626.962, 195.0572
6628.891, 201.2973
6630.819, 195.8680
##END=



