##NAMES=Xenotime-(Y)
##RRUFFID=R050178
##IDEAL CHEMISTRY=Y(PO_4_)
##LOCALITY=Novo Horizonte, Bahia, Brazil
##OWNER=RRUFF
##SOURCE=Marcus Origlieri
##DESCRIPTION=Brown crystal fragments
##STATUS=The identification of this mineral has been confirmed by X-ray diffraction and chemical analysis
##URL=https://www.rruff.net/odr/rruff_sample/R050178
##MEASURED CHEMISTRY=(Y_0.74_Dy_0.09_Gd_0.06_Er_0.04_Yb_0.02_Ho_0.01_Tb_0.01_Sm_0.01_Eu_0.01_)(P_0.97_As_0.02_Si_0.01_)O_4_
##DIFFRACTION SAMPLE DESCRIPTION=Powder
##CELL PARAMETERS=a: 6.9042 b: 6.9042 c: 6.0355 alpha: 90 beta: 90 gamma: 90 volume: 287.7 crystal system: tetragonal
##FILETYPE=Raman RAW
##RAMAN WAVELENGTH=532

86.70190, 1267.936
88.63037, 1259.994
90.55884, 1354.150
92.48730, 1490.138
94.41577, 1643.539
96.34424, 1810.624
98.27271, 2009.133
100.2012, 2245.393
102.1296, 2513.975
104.0581, 2790.785
105.9866, 3048.923
107.9150, 3342.433
109.8435, 3695.422
111.7720, 4094.386
113.7004, 4578.741
115.6289, 5198.293
117.5574, 5924.619
119.4858, 6664.153
121.4143, 7484.004
123.3428, 8281.239
125.2712, 8945.143
127.1997, 9428.488
129.1282, 9579.612
131.0566, 9572.915
132.9851, 9596.719
134.9136, 9670.891
136.8420, 9841.045
138.7705, 10033.95
140.6990, 10174.82
142.6274, 10238.27
144.5559, 10288.10
146.4844, 10336.35
148.4128, 10373.86
150.3413, 10444.41
152.2698, 10575.21
154.1982, 10740.16
156.1267, 10886.27
158.0552, 11021.29
159.9836, 11133.17
161.9121, 11200.28
163.8406, 11212.27
165.7690, 11244.97
167.6975, 11320.26
169.6260, 11432.75
171.5544, 11545.26
173.4829, 11655.95
175.4114, 11767.99
177.3398, 11883.94
179.2683, 12009.48
181.1968, 12126.74
183.1252, 12220.50
185.0537, 12291.45
186.9822, 12388.13
188.9106, 12502.51
190.8391, 12648.12
192.7676, 12834.01
194.6960, 13065.61
196.6245, 13335.19
198.5530, 13651.51
200.4814, 14011.20
202.4099, 14393.46
204.3384, 14789.97
206.2668, 15210.67
208.1953, 15675.63
210.1238, 16177.80
212.0523, 16728.82
213.9807, 17335.37
215.9092, 17991.46
217.8377, 18710.98
219.7661, 19496.23
221.6946, 20338.81
223.6231, 21243.73
225.5515, 22253.36
227.4800, 23237.48
229.4085, 24172.70
231.3369, 25070.91
233.2654, 25843.10
235.1939, 26474.27
237.1223, 26983.40
239.0508, 27422.10
240.9793, 27761.13
242.9077, 28076.06
244.8362, 28405.44
246.7647, 28772.45
248.6931, 29084.66
250.6216, 29377.36
252.5501, 29595.45
254.4785, 29685.36
256.4070, 29569.52
258.3354, 29372.54
260.2639, 29117.38
262.1924, 28799.47
264.1208, 28408.94
266.0493, 27851.01
267.9778, 27244.80
269.9063, 26736.84
271.8347, 26321.78
273.7632, 26015.93
275.6917, 25840.75
277.6201, 25785.55
279.5486, 25841.91
281.4771, 25990.38
283.4055, 26251.96
285.3340, 26685.97
287.2625, 27324.41
289.1909, 28073.52
291.1194, 28980.64
293.0479, 30033.15
294.9763, 31012.25
296.9048, 31967.73
298.8333, 32820.62
300.7617, 33454.96
302.6902, 33840.54
304.6187, 34132.79
306.5471, 34335.06
308.4756, 34438.10
310.4041, 34620.72
312.3325, 34965.38
314.2610, 35325.46
316.1895, 35593.48
318.1179, 35774.54
320.0464, 35875.20
321.9749, 35921.96
323.9033, 35910.90
325.8318, 35775.79
327.7603, 35468.82
329.6887, 35090.18
331.6172, 34668.69
333.5457, 34165.38
335.4742, 33764.46
337.4026, 33479.35
339.3311, 33314.78
341.2596, 33261.58
343.1880, 33264.82
345.1165, 33437.57
347.0450, 33800.18
348.9734, 34348.07
350.9019, 35111.16
352.8304, 36063.68
354.7588, 37219.51
356.6873, 38578.24
358.6158, 40125.84
360.5442, 41884.67
362.4727, 43832.73
364.4012, 45977.96
366.3296, 48317.14
368.2581, 50962.19
370.1866, 53724.20
372.1150, 56553.99
374.0435, 59728.40
375.9720, 62243.97
377.9004, 63998.41
379.8289, 64955.92
381.7574, 65121.82
383.6858, 63942.22
385.6143, 62469.74
387.5428, 61106.81
389.4712, 59732.91
391.3997, 58913.36
393.3282, 58597.34
395.2566, 58849.93
397.1851, 59777.13
399.1136, 61404.21
401.0420, 63603.99
402.9705, 66471.04
404.8990, 70152.68
406.8274, 73507.92
408.7559, 76594.75
410.6844, 79326.32
412.6128, 81433.14
414.5413, 82534.75
416.4698, 84152.20
418.3982, 86422.45
420.3267, 89367.02
422.2552, 93702.03
424.1836, 101507.5
426.1121, 108730.8
428.0406, 113947.9
429.9690, 117546.9
431.8975, 117780.0
433.8260, 112722.2
435.7544, 104811.3
437.6829, 97042.28
439.6114, 88581.61
441.5398, 81242.73
443.4683, 75661.16
445.3968, 71566.20
447.3252, 68613.84
449.2537, 67016.86
451.1822, 66369.09
453.1106, 66655.09
455.0391, 67983.47
456.9676, 69762.24
458.8960, 72155.07
460.8245, 74925.30
462.7530, 77737.29
464.6814, 80305.09
466.6099, 83227.30
468.5384, 86583.20
470.4668, 90425.49
472.3953, 94812.64
474.3238, 100541.2
476.2522, 106184.3
478.1807, 110970.9
480.1092, 115332.9
482.0376, 117880.9
483.9661, 118055.9
485.8946, 116402.0
487.8230, 114026.5
489.7515, 110315.8
491.6800, 106942.3
493.6084, 104233.8
495.5369, 102210.5
497.4654, 101299.5
499.3938, 101411.7
501.3223, 102616.0
503.2508, 104990.3
505.1792, 108553.3
507.1077, 112885.8
509.0362, 118223.4
510.9646, 124158.8
512.8931, 130142.6
514.8215, 136949.7
516.7500, 142788.0
518.6785, 147461.7
520.6069, 150930.9
522.5354, 152115.3
524.4639, 150233.9
526.3923, 146490.3
528.3208, 140877.3
530.2493, 132995.4
532.1777, 125131.8
534.1062, 117179.7
536.0347, 109552.9
537.9631, 102644.0
539.8916, 96524.38
541.8201, 91076.59
543.7485, 86283.51
545.6770, 82174.38
547.6055, 78628.08
549.5339, 75638.63
551.4624, 73240.66
553.3909, 71403.27
555.3193, 70139.00
557.2478, 69353.16
559.1763, 69039.59
561.1047, 69128.48
563.0332, 69660.50
564.9617, 70626.18
566.8901, 71799.60
568.8186, 73348.25
570.7471, 75014.77
572.6755, 76472.32
574.6040, 77665.52
576.5325, 78719.54
578.4609, 79523.02
580.3894, 80189.24
582.3179, 81005.00
584.2464, 81865.73
586.1749, 83059.75
588.1033, 84621.96
590.0318, 86539.66
591.9603, 89019.06
593.8887, 92276.33
595.8172, 95877.38
597.7457, 99682.65
599.6741, 103784.0
601.6026, 107416.9
603.5311, 110674.6
605.4595, 113334.3
607.3880, 115019.1
609.3165, 115624.7
611.2449, 115510.8
613.1734, 114517.0
615.1019, 112825.1
617.0303, 110791.9
618.9588, 108250.5
620.8873, 105547.8
622.8157, 102690.9
624.7442, 99665.07
626.6727, 96837.87
628.6011, 94103.63
630.5296, 91648.30
632.4581, 89527.71
634.3865, 87726.66
636.3150, 86347.14
638.2435, 85391.48
640.1719, 84859.94
642.1004, 84820.23
644.0289, 85338.54
645.9573, 86150.04
647.8858, 87365.42
649.8143, 88813.23
651.7427, 90313.23
653.6712, 92006.45
655.5997, 93470.00
657.5281, 94674.01
659.4566, 95597.54
661.3851, 96203.88
663.3135, 96610.13
665.2420, 96587.95
667.1705, 96057.20
669.0989, 95055.48
671.0274, 93537.13
672.9559, 91297.62
674.8843, 88709.05
676.8128, 85779.30
678.7413, 82469.88
680.6697, 79292.21
682.5982, 76197.82
684.5267, 73322.99
686.4551, 70684.08
688.3836, 68288.63
690.3121, 66143.41
692.2405, 64277.80
694.1690, 62581.37
696.0975, 60991.28
698.0259, 59518.44
699.9544, 58013.62
701.8829, 56405.67
703.8113, 54762.15
705.7398, 53167.60
707.6683, 51623.31
709.5967, 50166.48
711.5252, 48803.55
713.4537, 47548.82
715.3821, 46409.37
717.3106, 45394.11
719.2391, 44462.73
721.1675, 43609.05
723.0960, 42818.39
725.0245, 42081.70
726.9529, 41412.97
728.8814, 40770.84
730.8099, 40148.46
732.7383, 39548.51
734.6668, 38974.45
736.5953, 38427.55
738.5237, 37921.37
740.4522, 37482.88
742.3807, 37109.77
744.3091, 36718.66
746.2376, 36263.42
748.1661, 35828.38
750.0945, 35453.98
752.0230, 35138.58
753.9515, 34804.37
755.8799, 34416.35
757.8084, 34034.62
759.7369, 33699.20
761.6653, 33419.09
763.5938, 33113.28
765.5223, 32742.55
767.4507, 32379.73
769.3792, 32076.89
771.3077, 31844.32
773.2361, 31607.81
775.1646, 31384.92
777.0931, 31128.95
779.0215, 30809.96
780.9500, 30417.87
782.8785, 29991.75
784.8069, 29501.09
786.7354, 29007.65
788.6639, 28573.80
790.5923, 28222.52
792.5208, 27849.56
794.4493, 27408.12
796.3777, 26965.74
798.3062, 26573.83
800.2347, 26239.47
802.1631, 25918.70
804.0916, 25604.93
806.0201, 25292.48
807.9485, 24974.02
809.8770, 24638.24
811.8055, 24331.09
813.7339, 24086.61
815.6624, 23866.46
817.5909, 23632.86
819.5193, 23379.63
821.4478, 23148.96
823.3763, 22953.05
825.3047, 22777.37
827.2332, 22605.09
829.1617, 22426.12
831.0901, 22259.36
833.0186, 22118.28
834.9471, 21978.69
836.8755, 21819.20
838.8040, 21635.85
840.7325, 21453.98
842.6609, 21286.75
844.5894, 21123.47
846.5179, 20955.51
848.4464, 20784.99
850.3748, 20610.15
852.3033, 20425.34
854.2318, 20239.61
856.1602, 20061.99
858.0887, 19893.88
860.0172, 19723.45
861.9456, 19534.57
863.8741, 19350.58
865.8026, 19191.28
867.7310, 19069.62
869.6595, 18945.06
871.5880, 18806.38
873.5164, 18667.63
875.4449, 18537.89
877.3734, 18414.50
879.3018, 18303.20
881.2303, 18219.04
883.1588, 18137.23
885.0872, 18040.21
887.0157, 17917.00
888.9442, 17819.26
890.8726, 17751.44
892.8011, 17707.91
894.7296, 17694.36
896.6580, 17710.29
898.5865, 17721.85
900.5150, 17732.85
902.4434, 17726.40
904.3719, 17688.58
906.3004, 17613.17
908.2288, 17542.15
910.1573, 17501.55
912.0858, 17438.01
914.0142, 17329.88
915.9427, 17174.22
917.8712, 16984.38
919.7996, 16752.42
921.7281, 16499.44
923.6566, 16226.81
925.5850, 15941.28
927.5135, 15666.70
929.4420, 15392.00
931.3704, 15147.83
933.2989, 14949.61
935.2274, 14790.12
937.1558, 14635.10
939.0843, 14464.35
941.0128, 14325.08
942.9412, 14234.13
944.8697, 14182.17
946.7982, 14152.76
948.7266, 14140.79
950.6551, 14163.58
952.5836, 14247.51
954.5120, 14356.87
956.4405, 14443.22
958.3690, 14515.27
960.2974, 14549.78
962.2259, 14519.90
964.1544, 14469.29
966.0828, 14417.97
968.0113, 14357.06
969.9398, 14393.24
971.8682, 14576.23
973.7967, 14847.17
975.7252, 15162.13
977.6536, 15501.85
979.5821, 15972.75
981.5106, 16573.12
983.4390, 17285.53
985.3675, 18103.18
987.2960, 19029.85
989.2244, 20030.28
991.1529, 20894.46
993.0814, 22151.15
995.0098, 24357.94
996.9383, 27159.18
998.8668, 29467.70
1000.795, 31763.50
1002.724, 32723.56
1004.652, 31594.32
1006.581, 29128.82
1008.509, 26631.46
1010.438, 23827.15
1012.366, 21610.45
1014.294, 20270.21
1016.223, 19518.69
1018.151, 19092.73
1020.080, 19009.09
1022.008, 19074.77
1023.937, 19442.44
1025.865, 19796.51
1027.794, 19966.58
1029.722, 19930.87
1031.651, 19844.45
1033.579, 19638.39
1035.508, 19455.45
1037.436, 19331.80
1039.365, 19276.88
1041.293, 19311.93
1043.221, 19462.07
1045.150, 19652.94
1047.078, 19783.13
1049.007, 19958.42
1050.935, 20381.89
1052.864, 21184.66
1054.792, 21968.89
1056.721, 23066.04
1058.649, 23880.88
1060.578, 23799.55
1062.506, 22685.34
1064.435, 21295.18
1066.363, 19345.95
1068.292, 17432.11
1070.220, 15848.77
1072.148, 14565.24
1074.077, 13503.58
1076.005, 12689.89
1077.934, 12055.90
1079.862, 11610.19
1081.791, 11310.33
1083.719, 11052.64
1085.648, 10850.21
1087.576, 10671.68
1089.505, 10526.51
1091.433, 10397.83
1093.362, 10265.54
1095.290, 10128.81
1097.219, 10007.65
1099.147, 9916.896
1101.076, 9831.655
1103.004, 9729.294
1104.932, 9614.475
1106.861, 9535.048
1108.789, 9520.282
1110.718, 9508.326
1112.646, 9486.155
1114.575, 9456.584
1116.503, 9424.446
1118.432, 9383.224
1120.360, 9353.397
1122.289, 9346.474
1124.217, 9345.970
1126.146, 9337.597
1128.074, 9321.474
1130.003, 9303.741
1131.931, 9280.319
1133.859, 9260.180
1135.788, 9249.282
1137.716, 9244.938
1139.645, 9234.308
1141.573, 9213.446
1143.502, 9191.174
1145.430, 9166.437
1147.359, 9142.914
1149.287, 9127.514
1151.216, 9123.565
1153.144, 9112.255
1155.073, 9091.048
1157.001, 9062.034
1158.930, 9027.648
1160.858, 8986.742
1162.786, 8932.606
1164.715, 8863.044
1166.643, 8782.346
1168.572, 8685.186
1170.500, 8581.552
1172.429, 8486.801
1174.357, 8403.465
1176.286, 8326.805
1178.214, 8267.053
1180.143, 8205.108
1182.071, 8123.722
1184.000, 8024.944
1185.928, 7938.071
1187.857, 7866.517
1189.785, 7800.979
1191.714, 7743.148
1193.642, 7686.521
1195.570, 7620.133
1197.499, 7539.718
1199.427, 7467.577
1201.356, 7422.334
1203.284, 7373.259
1205.213, 7301.173
1207.141, 7206.284
1209.070, 7112.707
1210.998, 7016.402
1212.927, 6926.866
1214.855, 6854.408
1216.784, 6786.993
1218.712, 6706.085
1220.641, 6611.126
1222.569, 6509.973
1224.497, 6394.767
1226.426, 6282.520
1228.354, 6183.572
1230.283, 6095.421
1232.211, 6011.220
1234.140, 5933.555
1236.068, 5854.003
1237.997, 5767.360
1239.925, 5680.304
1241.854, 5600.145
1243.782, 5528.896
1245.711, 5459.952
1247.639, 5389.504
1249.568, 5325.840
1251.496, 5272.056
1253.424, 5227.602
1255.353, 5192.824
1257.281, 5172.492
1259.210, 5144.368
1261.138, 5097.118
1263.067, 5044.576
1264.995, 4992.418
1266.924, 4941.679
1268.852, 4906.164
1270.781, 4897.775
1272.709, 4885.525
1274.638, 4858.317
1276.566, 4822.569
1278.495, 4786.811
1280.423, 4750.254
1282.351, 4716.581
1284.280, 4685.322
1286.208, 4657.371
1288.137, 4631.908
1290.065, 4609.728
1291.994, 4596.004
1293.922, 4597.751
1295.851, 4589.186
1297.779, 4549.752
1299.708, 4510.973
1301.636, 4505.218
1303.565, 4525.263
1305.493, 4527.220
1307.422, 4498.292
1309.350, 4470.836
1311.278, 4463.088
1313.207, 4458.722
1315.135, 4434.891
1317.064, 4384.462
1318.992, 4351.330
1320.921, 4354.216
1322.849, 4356.492
1324.778, 4344.788
1326.706, 4324.460
1328.635, 4307.662
1330.563, 4298.694
1332.492, 4286.151
1334.420, 4264.647
1336.349, 4245.520
1338.277, 4235.305
1340.205, 4233.197
1342.134, 4235.756
1344.062, 4246.425
1345.991, 4249.983
1347.919, 4237.703
1349.848, 4220.073
1351.776, 4204.606
1353.705, 4190.310
1355.633, 4171.922
1357.562, 4143.290
1359.490, 4122.847
1361.419, 4120.553
1363.347, 4126.003
1365.276, 4132.146
1367.204, 4140.727
1369.132, 4141.349
1371.061, 4127.170
1372.989, 4114.449
1374.918, 4106.186
1376.846, 4101.184
1378.775, 4097.429
1380.703, 4093.797
1382.632, 4094.013
1384.560, 4109.115
1386.489, 4114.205
1388.417, 4090.355
1390.346, 4056.059
1392.274, 4040.794
1394.203, 4045.241
1396.131, 4056.613
1398.059, 4076.591
1399.988, 4098.722
1401.916, 4121.958
1403.845, 4144.471
1405.773, 4159.488
1407.702, 4163.807
1409.630, 4185.555
1411.559, 4236.397
1413.487, 4297.828
1415.416, 4368.592
1417.344, 4442.167
1419.273, 4502.163
1421.201, 4541.609
1423.130, 4584.710
1425.058, 4633.139
1426.986, 4684.126
1428.915, 4736.122
1430.843, 4789.984
1432.772, 4846.973
1434.700, 4902.108
1436.629, 4974.153
1438.557, 5066.186
1440.486, 5173.181
1442.414, 5282.634
1444.343, 5407.350
1446.271, 5580.377
1448.200, 5805.402
1450.128, 6046.517
1452.057, 6312.212
1453.985, 6575.810
1455.913, 6854.551
1457.842, 7110.311
1459.770, 7288.318
1461.699, 7391.587
1463.627, 7383.604
1465.556, 7217.521
1467.484, 6997.948
1469.413, 6729.129
1471.341, 6456.455
1473.270, 6248.672
1475.198, 6105.875
1477.127, 6029.128
1479.055, 6040.045
1480.984, 6089.778
1482.912, 6156.605
1484.840, 6254.716
1486.769, 6415.733
1488.697, 6662.346
1490.626, 6864.458
1492.554, 7036.961
1494.483, 7137.770
1496.411, 7147.222
1498.340, 7081.075
1500.268, 6946.636
1502.197, 6737.168
1504.125, 6515.563
1506.054, 6251.711
1507.982, 6019.413
1509.911, 5837.385
1511.839, 5688.499
1513.767, 5568.445
1515.696, 5474.591
1517.624, 5365.790
1519.553, 5235.660
1521.481, 5106.932
1523.410, 4981.798
1525.338, 4860.472
1527.267, 4743.523
1529.195, 4629.590
1531.124, 4513.335
1533.052, 4392.298
1534.981, 4280.239
1536.909, 4179.698
1538.838, 4088.778
1540.766, 4009.021
1542.694, 3937.783
1544.623, 3870.197
1546.551, 3806.307
1548.480, 3748.099
1550.408, 3691.086
1552.337, 3648.352
1554.265, 3642.315
1556.194, 3641.563
1558.122, 3608.294
1560.051, 3545.076
1561.979, 3493.505
1563.908, 3458.113
1565.836, 3430.929
1567.765, 3419.219
1569.693, 3407.311
1571.621, 3381.829
1573.550, 3347.273
1575.478, 3325.288
1577.407, 3320.580
1579.335, 3314.023
1581.264, 3297.166
1583.192, 3283.092
1585.121, 3275.451
1587.049, 3273.443
1588.978, 3278.385
1590.906, 3294.314
1592.835, 3298.745
1594.763, 3284.033
1596.692, 3268.986
1598.620, 3253.823
1600.548, 3244.046
1602.477, 3245.311
1604.405, 3257.299
1606.334, 3273.578
1608.262, 3296.721
1610.191, 3319.727
1612.119, 3338.647
1614.048, 3359.996
1615.976, 3387.575
1617.905, 3418.573
1619.833, 3447.048
1621.762, 3470.745
1623.690, 3501.622
1625.619, 3548.767
1627.547, 3591.169
1629.475, 3627.056
1631.404, 3655.198
1633.332, 3671.557
1635.261, 3678.587
1637.189, 3689.176
1639.118, 3700.328
1641.046, 3721.914
1642.975, 3762.990
1644.903, 3804.181
1646.832, 3833.035
1648.760, 3858.152
1650.689, 3890.526
1652.617, 3929.908
1654.546, 3980.292
1656.474, 4045.430
1658.402, 4114.122
1660.331, 4182.402
1662.259, 4255.473
1664.188, 4336.911
1666.116, 4426.491
1668.045, 4531.211
1669.973, 4658.598
1671.902, 4748.937
1673.830, 4776.308
1675.759, 4798.505
1677.687, 4830.644
1679.616, 4866.642
1681.544, 4895.420
1683.473, 4922.194
1685.401, 4971.404
1687.329, 5046.957
1689.258, 5128.196
1691.186, 5197.896
1693.115, 5291.797
1695.043, 5421.683
1696.972, 5585.438
1698.900, 5784.622
1700.829, 6017.941
1702.757, 6269.402
1704.686, 6535.446
1706.614, 6832.312
1708.543, 7186.496
1710.471, 7546.375
1712.400, 7910.260
1714.328, 8253.544
1716.256, 8556.618
1718.185, 8815.257
1720.113, 8964.178
1722.042, 8981.997
1723.970, 8936.528
1725.899, 8822.488
1727.827, 8670.029
1729.756, 8455.344
1731.684, 8231.998
1733.613, 8082.039
1735.541, 8004.205
1737.470, 7978.255
1739.398, 7992.522
1741.327, 8085.207
1743.255, 8268.906
1745.183, 8527.444
1747.112, 8862.533
1749.040, 9259.888
1750.969, 9722.275
1752.897, 10248.52
1754.826, 10723.52
1756.754, 11206.83
1758.683, 11502.20
1760.611, 11502.53
1762.540, 11389.73
1764.468, 11192.15
1766.397, 10975.72
1768.325, 10847.25
1770.254, 10807.56
1772.182, 10774.00
1774.110, 10768.04
1776.039, 10720.76
1777.967, 10612.56
1779.896, 10473.40
1781.824, 10280.34
1783.753, 10087.47
1785.681, 9968.827
1787.610, 9921.395
1789.538, 9889.341
1791.467, 9893.487
1793.395, 9872.755
1795.324, 9820.714
1797.252, 9749.451
1799.181, 9680.102
1801.109, 9579.222
1803.037, 9393.743
1804.966, 9141.017
1806.894, 8914.669
1808.823, 8716.726
1810.751, 8539.546
1812.680, 8385.315
1814.608, 8249.053
1816.537, 8133.938
1818.465, 8035.110
1820.394, 7957.464
1822.322, 7892.628
1824.251, 7814.287
1826.179, 7713.631
1828.108, 7647.204
1830.036, 7630.598
1831.964, 7617.573
1833.893, 7595.812
1835.821, 7578.795
1837.750, 7568.533
1839.678, 7567.845
1841.607, 7588.851
1843.535, 7628.306
1845.464, 7639.525
1847.392, 7613.042
1849.321, 7598.794
1851.249, 7611.789
1853.178, 7627.582
1855.106, 7633.958
1857.035, 7644.018
1858.963, 7669.017
1860.891, 7704.559
1862.820, 7738.015
1864.748, 7769.033
1866.677, 7813.974
1868.605, 7877.329
1870.534, 7943.396
1872.462, 7989.680
1874.391, 8063.693
1876.319, 8204.019
1878.248, 8376.986
1880.176, 8546.432
1882.105, 8715.033
1884.033, 8890.054
1885.962, 9066.579
1887.890, 9289.581
1889.818, 9584.021
1891.747, 9889.948
1893.675, 10177.52
1895.604, 10484.39
1897.532, 10821.54
1899.461, 11200.79
1901.389, 11641.38
1903.318, 12141.83
1905.246, 12691.56
1907.175, 13306.36
1909.103, 13930.51
1911.032, 14578.68
1912.960, 15211.17
1914.889, 15836.14
1916.817, 16422.12
1918.745, 16978.67
1920.674, 17470.35
1922.602, 17834.93
1924.531, 18073.91
1926.459, 18183.25
1928.388, 18151.97
1930.316, 18025.64
1932.245, 17811.75
1934.173, 17496.38
1936.102, 17037.17
1938.030, 16513.37
1939.959, 15942.50
1941.887, 15360.24
1943.816, 14822.83
1945.744, 14333.37
1947.672, 13917.39
1949.601, 13580.70
1951.529, 13297.37
1953.458, 13052.20
1955.386, 12885.93
1957.315, 12840.62
1959.243, 12854.17
1961.172, 12889.59
1963.100, 12952.84
1965.029, 13044.92
1966.957, 13169.42
1968.886, 13362.46
1970.814, 13631.11
1972.743, 13937.23
1974.671, 14275.36
1976.599, 14652.89
1978.528, 15092.31
1980.456, 15547.22
1982.385, 15994.06
1984.313, 16441.20
1986.242, 16901.18
1988.170, 17372.36
1990.099, 17843.84
1992.027, 18317.66
1993.956, 18779.05
1995.884, 19213.04
1997.813, 19664.43
1999.741, 20139.55
2001.670, 20632.82
2003.598, 21154.35
2005.526, 21686.01
2007.455, 22211.82
2009.383, 22742.93
2011.312, 23322.68
2013.240, 23938.92
2015.169, 24493.54
2017.097, 24990.24
2019.026, 25363.85
2020.954, 25651.54
2022.883, 25703.50
2024.811, 25448.74
2026.740, 24966.02
2028.668, 24233.59
2030.597, 23351.36
2032.525, 22409.37
2034.453, 21419.68
2036.382, 20392.42
2038.310, 19309.48
2040.239, 18345.22
2042.167, 17514.83
2044.096, 16762.65
2046.024, 16091.67
2047.953, 15482.81
2049.881, 14920.79
2051.810, 14428.68
2053.738, 14027.96
2055.667, 13700.71
2057.595, 13432.02
2059.523, 13218.89
2061.452, 13064.39
2063.381, 12966.08
2065.309, 12846.45
2067.238, 12681.12
2069.166, 12566.29
2071.094, 12545.41
2073.023, 12537.15
2074.951, 12504.87
2076.880, 12491.94
2078.808, 12525.67
2080.737, 12594.10
2082.665, 12687.62
2084.594, 12801.97
2086.522, 12921.05
2088.451, 13040.89
2090.379, 13189.98
2092.308, 13360.46
2094.236, 13584.65
2096.165, 13871.65
2098.093, 14201.31
2100.021, 14574.68
2101.950, 14984.36
2103.878, 15413.30
2105.807, 15893.46
2107.735, 16458.31
2109.664, 17094.36
2111.592, 17771.34
2113.521, 18492.36
2115.449, 19275.71
2117.378, 20121.99
2119.306, 21014.76
2121.235, 21950.01
2123.163, 22932.21
2125.092, 23990.08
2127.020, 25057.73
2128.948, 26101.50
2130.877, 27175.16
2132.805, 28377.17
2134.734, 29583.35
2136.662, 30633.99
2138.591, 31573.05
2140.519, 32531.04
2142.448, 33496.07
2144.376, 34330.18
2146.305, 35011.28
2148.233, 35672.37
2150.162, 36377.45
2152.090, 36936.64
2154.019, 37275.15
2155.947, 37502.80
2157.875, 37659.24
2159.804, 37729.98
2161.732, 37674.99
2163.661, 37563.24
2165.589, 37494.62
2167.518, 37436.53
2169.446, 37273.56
2171.375, 37011.49
2173.303, 36773.95
2175.232, 36560.32
2177.160, 36338.06
2179.089, 36089.65
2181.017, 35857.23
2182.946, 35637.42
2184.874, 35456.56
2186.802, 35343.26
2188.731, 35252.82
2190.659, 35171.56
2192.588, 35095.83
2194.516, 35021.56
2196.445, 34951.35
2198.373, 34905.34
2200.302, 34868.78
2202.230, 34750.23
2204.159, 34546.73
2206.087, 34311.34
2208.016, 34069.11
2209.944, 33651.72
2211.873, 32994.98
2213.801, 32293.25
2215.729, 31631.51
2217.658, 30891.21
2219.586, 29982.15
2221.515, 29020.58
2223.443, 28088.17
2225.372, 27135.67
2227.300, 26088.61
2229.229, 24993.29
2231.157, 23959.22
2233.086, 22976.79
2235.014, 21963.36
2236.943, 20916.00
2238.871, 19942.40
2240.800, 19053.83
2242.728, 18183.97
2244.656, 17307.48
2246.585, 16491.68
2248.513, 15765.08
2250.442, 15091.56
2252.370, 14467.04
2254.299, 13886.34
2256.227, 13341.59
2258.156, 12844.60
2260.084, 12408.67
2262.013, 12023.30
2263.941, 11685.15
2265.870, 11382.11
2267.798, 11077.72
2269.727, 10776.62
2271.655, 10506.16
2273.583, 10268.02
2275.512, 10072.84
2277.440, 9930.280
2279.369, 9803.780
2281.297, 9701.554
2283.226, 9595.337
2285.154, 9476.517
2287.083, 9358.434
2289.011, 9241.226
2290.940, 9129.354
2292.868, 9024.587
2294.797, 8927.341
2296.725, 8840.752
2298.654, 8761.351
2300.582, 8691.353
2302.510, 8623.637
2304.439, 8536.581
2306.367, 8434.819
2308.296, 8342.373
2310.224, 8255.862
2312.153, 8207.021
2314.081, 8216.854
2316.010, 8187.771
2317.938, 8099.449
2319.867, 8024.054
2321.795, 7980.046
2323.724, 7932.646
2325.652, 7868.852
2327.581, 7809.043
2329.509, 7769.570
2331.438, 7729.587
2333.366, 7665.870
2335.294, 7607.011
2337.223, 7588.443
2339.151, 7579.996
2341.080, 7535.699
2343.008, 7471.883
2344.937, 7426.048
2346.865, 7394.640
2348.794, 7366.172
2350.722, 7340.508
2352.651, 7314.352
2354.579, 7289.044
2356.508, 7258.023
2358.436, 7208.223
2360.365, 7189.882
2362.293, 7248.848
2364.221, 7262.913
2366.150, 7199.199
2368.078, 7126.990
2370.007, 7051.907
2371.935, 6985.296
2373.864, 6933.204
2375.792, 6889.805
2377.721, 6860.212
2379.649, 6830.415
2381.578, 6779.686
2383.506, 6732.063
2385.435, 6717.624
2387.363, 6724.219
2389.292, 6728.048
2391.220, 6734.894
2393.148, 6766.538
2395.077, 6817.789
2397.005, 6859.377
2398.934, 6893.875
2400.862, 6966.068
2402.791, 7081.979
2404.719, 7201.513
2406.648, 7318.013
2408.576, 7451.030
2410.505, 7606.178
2412.433, 7766.469
2414.362, 7933.329
2416.290, 8097.441
2418.219, 8256.697
2420.147, 8411.681
2422.075, 8552.338
2424.004, 8705.752
2425.932, 8910.064
2427.861, 9100.219
2429.789, 9211.729
2431.718, 9320.253
2433.646, 9497.209
2435.575, 9694.362
2437.503, 9849.211
2439.432, 9994.282
2441.360, 10188.45
2443.289, 10403.18
2445.217, 10581.52
2447.146, 10736.68
2449.074, 10907.37
2451.002, 11094.61
2452.931, 11298.68
2454.859, 11520.13
2456.788, 11756.50
2458.716, 12007.12
2460.645, 12265.03
2462.573, 12532.06
2464.502, 12759.83
2466.430, 12923.80
2468.359, 13123.57
2470.287, 13385.21
2472.216, 13664.19
2474.144, 13945.94
2476.073, 14261.63
2478.001, 14582.12
2479.929, 15008.75
2481.858, 15636.60
2483.786, 16258.15
2485.715, 16787.20
2487.643, 17282.75
2489.572, 17832.04
2491.500, 18286.41
2493.429, 18569.04
2495.357, 18691.04
2497.286, 18640.42
2499.214, 18449.21
2501.143, 18100.21
2503.071, 17670.24
2505.000, 17234.78
2506.928, 16786.34
2508.856, 16309.45
2510.785, 15810.95
2512.713, 15285.62
2514.642, 14755.19
2516.570, 14293.20
2518.499, 13891.16
2520.427, 13520.33
2522.356, 13180.56
2524.284, 12866.22
2526.213, 12579.70
2528.141, 12364.76
2530.070, 12221.20
2531.998, 12160.13
2533.927, 12199.06
2535.855, 12205.32
2537.783, 12167.54
2539.712, 12175.02
2541.640, 12239.92
2543.569, 12333.74
2545.497, 12461.19
2547.426, 12593.77
2549.354, 12698.10
2551.283, 12865.61
2553.211, 13138.03
2555.140, 13385.50
2557.068, 13563.00
2558.997, 13771.10
2560.925, 14047.46
2562.854, 14340.19
2564.782, 14638.83
2566.710, 14942.44
2568.639, 15242.36
2570.567, 15561.96
2572.496, 15931.56
2574.424, 16293.76
2576.353, 16654.41
2578.281, 16951.96
2580.210, 17117.21
2582.138, 17244.46
2584.067, 17410.63
2585.995, 17539.27
2587.924, 17551.04
2589.852, 17525.29
2591.781, 17519.68
2593.709, 17517.06
2595.637, 17516.96
2597.566, 17501.48
2599.494, 17434.73
2601.423, 17360.38
2603.351, 17324.04
2605.280, 17317.31
2607.208, 17349.91
2609.137, 17386.12
2611.065, 17346.18
2612.994, 17290.78
2614.922, 17317.30
2616.851, 17396.54
2618.779, 17465.38
2620.708, 17548.42
2622.636, 17698.34
2624.564, 17911.42
2626.493, 18158.22
2628.421, 18465.90
2630.350, 18907.35
2632.278, 19474.80
2634.207, 20147.83
2636.135, 20924.37
2638.064, 21811.96
2639.992, 22788.91
2641.921, 23757.55
2643.849, 24689.21
2645.778, 25481.99
2647.706, 26119.63
2649.635, 26551.59
2651.563, 26775.73
2653.491, 26735.81
2655.420, 26436.06
2657.348, 26021.20
2659.277, 25491.14
2661.205, 24848.74
2663.134, 24102.29
2665.062, 23381.87
2666.991, 22694.75
2668.919, 21971.03
2670.848, 21210.23
2672.776, 20487.08
2674.705, 19806.11
2676.633, 19196.52
2678.562, 18659.97
2680.490, 18212.55
2682.418, 17858.40
2684.347, 17514.98
2686.275, 17176.74
2688.204, 16883.68
2690.132, 16637.07
2692.061, 16477.44
2693.989, 16407.35
2695.918, 16315.41
2697.846, 16189.61
2699.775, 16096.84
2701.703, 16037.70
2703.632, 15998.65
2705.560, 15978.26
2707.489, 15972.20
2709.417, 15979.87
2711.345, 16057.26
2713.274, 16217.20
2715.202, 16380.57
2717.131, 16547.95
2719.059, 16721.98
2720.988, 16903.40
2722.916, 17081.83
2724.845, 17257.57
2726.773, 17464.93
2728.702, 17714.56
2730.630, 17896.84
2732.559, 18004.78
2734.487, 18111.28
2736.416, 18214.47
2738.344, 18258.53
2740.272, 18241.15
2742.201, 18202.16
2744.129, 18144.57
2746.058, 18015.72
2747.986, 17812.18
2749.915, 17638.79
2751.843, 17491.45
2753.772, 17327.83
2755.700, 17146.54
2757.629, 16947.84
2759.557, 16735.99
2761.486, 16571.39
2763.414, 16456.08
2765.343, 16400.33
2767.271, 16396.93
2769.199, 16383.57
2771.128, 16379.22
2773.056, 16522.80
2774.985, 16786.16
2776.913, 16991.25
2778.842, 17166.84
2780.770, 17481.32
2782.699, 17860.15
2784.627, 18070.24
2786.556, 18144.44
2788.484, 18182.42
2790.413, 18174.27
2792.341, 18102.91
2794.270, 17963.12
2796.198, 17725.57
2798.126, 17425.50
2800.055, 17107.91
2801.983, 16786.69
2803.912, 16488.46
2805.840, 16202.85
2807.769, 15885.66
2809.697, 15596.56
2811.626, 15409.98
2813.554, 15295.00
2815.483, 15220.07
2817.411, 15186.26
2819.340, 15196.86
2821.268, 15248.68
2823.197, 15337.41
2825.125, 15466.46
2827.053, 15662.57
2828.982, 15873.33
2830.910, 16061.05
2832.839, 16244.51
2834.767, 16437.86
2836.696, 16625.81
2838.624, 16836.26
2840.553, 16978.53
2842.481, 17000.05
2844.410, 16940.97
2846.338, 16790.03
2848.267, 16613.67
2850.195, 16460.18
2852.124, 16229.62
2854.052, 15834.92
2855.980, 15449.42
2857.909, 15117.27
2859.837, 14790.88
2861.766, 14457.41
2863.694, 14156.26
2865.623, 13895.36
2867.551, 13672.44
2869.480, 13484.14
2871.408, 13340.39
2873.337, 13244.64
2875.265, 13162.80
2877.194, 13096.31
2879.122, 12976.45
2881.051, 12793.71
2882.979, 12607.99
2884.907, 12421.97
2886.836, 12140.54
2888.764, 11769.45
2890.693, 11356.77
2892.621, 10911.00
2894.550, 10454.33
2896.478, 9997.033
2898.407, 9590.344
2900.335, 9222.186
2902.264, 8867.493
2904.192, 8521.205
2906.121, 8159.605
2908.049, 7812.155
2909.978, 7529.005
2911.906, 7289.268
2913.834, 7069.609
2915.763, 6876.592
2917.691, 6728.072
2919.620, 6595.616
2921.548, 6452.130
2923.477, 6324.750
2925.405, 6236.654
2927.334, 6154.335
2929.262, 6051.415
2931.191, 5965.496
2933.119, 5917.519
2935.048, 5877.490
2936.976, 5840.879
2938.905, 5802.128
2940.833, 5755.923
2942.761, 5715.313
2944.690, 5683.589
2946.618, 5654.010
2948.547, 5626.765
2950.475, 5600.400
2952.404, 5574.714
2954.332, 5557.675
2956.261, 5550.086
2958.189, 5531.980
2960.118, 5505.088
2962.046, 5480.054
2963.975, 5458.556
2965.903, 5445.489
2967.832, 5438.744
2969.760, 5434.994
2971.688, 5430.972
2973.617, 5425.203
2975.545, 5410.668
2977.474, 5366.320
2979.402, 5323.912
2981.331, 5315.652
2983.259, 5319.938
2985.188, 5337.772
2987.116, 5338.464
2989.045, 5283.425
2990.973, 5244.865
2992.902, 5267.780
2994.830, 5271.880
2996.759, 5230.464
2998.687, 5212.325
3000.615, 5249.586
3002.544, 5266.105
3004.472, 5252.841
3006.401, 5241.539
3008.329, 5233.144
3010.258, 5235.609
3012.186, 5247.701
3014.115, 5242.335
3016.043, 5226.902
3017.972, 5246.355
3019.900, 5288.134
3021.829, 5331.734
3023.757, 5367.210
3025.686, 5358.447
3027.614, 5352.970
3029.542, 5417.375
3031.471, 5495.112
3033.399, 5546.318
3035.328, 5594.274
3037.256, 5657.972
3039.185, 5712.446
3041.113, 5752.887
3043.042, 5776.121
3044.970, 5763.115
3046.899, 5779.527
3048.827, 5840.751
3050.756, 5904.269
3052.684, 5967.773
3054.613, 6026.466
3056.541, 6079.740
3058.469, 6123.580
3060.398, 6163.224
3062.326, 6242.245
3064.255, 6339.687
3066.183, 6398.515
3068.112, 6446.762
3070.040, 6528.068
3071.969, 6623.500
3073.897, 6722.711
3075.826, 6812.924
3077.754, 6868.861
3079.683, 6939.568
3081.611, 7049.652
3083.540, 7182.670
3085.468, 7347.916
3087.396, 7493.497
3089.325, 7593.879
3091.253, 7705.682
3093.182, 7830.613
3095.110, 7962.833
3097.039, 8102.522
3098.967, 8255.464
3100.896, 8419.740
3102.824, 8585.690
3104.753, 8754.817
3106.681, 8932.134
3108.610, 9110.178
3110.538, 9273.162
3112.467, 9440.784
3114.395, 9637.657
3116.323, 9834.023
3118.252, 10005.21
3120.180, 10192.74
3122.109, 10438.03
3124.037, 10644.75
3125.966, 10791.95
3127.894, 10956.76
3129.823, 11150.51
3131.751, 11344.73
3133.680, 11538.83
3135.608, 11765.04
3137.537, 12004.79
3139.465, 12185.45
3141.394, 12342.71
3143.322, 12528.29
3145.250, 12743.29
3147.179, 13013.30
3149.107, 13275.01
3151.036, 13465.52
3152.964, 13671.87
3154.893, 13932.21
3156.821, 14206.54
3158.750, 14484.40
3160.678, 14785.99
3162.607, 15119.70
3164.535, 15451.82
3166.464, 15780.36
3168.392, 16085.92
3170.321, 16388.46
3172.249, 16750.88
3174.177, 17174.16
3176.106, 17670.20
3178.034, 18217.52
3179.963, 18785.29
3181.891, 19408.76
3183.820, 20116.29
3185.748, 20874.07
3187.677, 21639.16
3189.605, 22554.99
3191.534, 23659.41
3193.462, 24934.79
3195.391, 26381.77
3197.319, 27885.25
3199.248, 29482.14
3201.176, 31350.10
3203.104, 33455.61
3205.033, 35699.20
3206.961, 38145.02
3208.890, 40859.75
3210.818, 43774.93
3212.747, 46825.87
3214.675, 50112.82
3216.604, 53695.49
3218.532, 57431.28
3220.461, 61335.72
3222.389, 65285.49
3224.318, 69288.48
3226.246, 73179.41
3228.175, 76913.17
3230.103, 80388.31
3232.031, 83489.23
3233.960, 85919.04
3235.888, 87784.52
3237.817, 89249.45
3239.745, 90229.52
3241.674, 90487.80
3243.602, 90557.60
3245.531, 90561.38
3247.459, 90564.78
3249.388, 90539.91
3251.316, 90677.88
3253.245, 90953.20
3255.173, 91059.19
3257.102, 90931.84
3259.030, 90492.27
3260.958, 89710.67
3262.887, 88492.41
3264.815, 86998.89
3266.744, 85306.50
3268.672, 83489.04
3270.601, 81463.82
3272.529, 79589.35
3274.458, 77955.70
3276.386, 76273.05
3278.315, 74467.50
3280.243, 72935.90
3282.172, 71599.22
3284.100, 70086.30
3286.029, 68599.41
3287.957, 67478.27
3289.885, 66630.64
3291.814, 66006.80
3293.742, 65545.00
3295.671, 65243.27
3297.599, 65046.13
3299.528, 64924.95
3301.456, 64949.73
3303.385, 65132.11
3305.313, 65310.81
3307.242, 65496.27
3309.170, 65719.87
3311.099, 66050.48
3313.027, 66630.82
3314.956, 67322.12
3316.884, 68015.05
3318.813, 68788.64
3320.741, 69725.16
3322.669, 70631.04
3324.598, 71482.30
3326.526, 72235.33
3328.455, 72871.67
3330.383, 73300.38
3332.312, 73593.07
3334.240, 73953.84
3336.169, 74315.11
3338.097, 74707.91
3340.026, 74921.20
3341.954, 74773.24
3343.883, 74500.03
3345.811, 74173.17
3347.740, 73594.12
3349.668, 72736.07
3351.596, 71602.79
3353.525, 70188.79
3355.453, 68455.75
3357.382, 66500.65
3359.310, 64393.94
3361.239, 62227.11
3363.167, 60055.12
3365.096, 57862.56
3367.024, 55573.40
3368.953, 53406.79
3370.881, 51377.98
3372.810, 49531.70
3374.738, 47879.19
3376.667, 46425.59
3378.595, 45216.37
3380.523, 44290.86
3382.452, 43671.53
3384.380, 43425.56
3386.309, 43448.56
3388.237, 43687.17
3390.166, 44217.88
3392.094, 45071.50
3394.023, 46175.32
3395.951, 47521.53
3397.880, 49115.98
3399.808, 50909.54
3401.737, 52760.57
3403.665, 54923.59
3405.594, 57558.98
3407.522, 60525.59
3409.450, 63859.17
3411.379, 67382.23
3413.307, 71087.97
3415.236, 74687.28
3417.164, 78059.44
3419.093, 80883.80
3421.021, 83082.58
3422.950, 84478.36
3424.878, 85466.84
3426.807, 86297.20
3428.735, 86761.89
3430.664, 86787.70
3432.592, 86680.03
3434.521, 86480.02
3436.449, 85988.65
3438.377, 85347.87
3440.306, 84875.60
3442.234, 84542.45
3444.163, 84387.63
3446.091, 84237.37
3448.020, 83952.35
3449.948, 83856.90
3451.877, 83990.17
3453.805, 84439.41
3455.734, 85215.17
3457.662, 86231.59
3459.591, 87507.53
3461.519, 89116.00
3463.448, 90952.72
3465.376, 93105.14
3467.304, 95152.04
3469.233, 97016.41
3471.161, 98608.02
3473.090, 99898.12
3475.018, 101006.9
3476.947, 101860.9
3478.875, 102305.3
3480.804, 102340.4
3482.732, 101879.1
3484.661, 101104.8
3486.589, 100047.6
3488.518, 98908.00
3490.446, 97699.09
3492.375, 96517.89
3494.303, 95459.00
3496.231, 94750.09
3498.160, 94391.66
3500.088, 94367.99
3502.017, 94794.32
3503.945, 95848.62
3505.874, 96940.38
3507.802, 97992.54
3509.731, 99048.15
3511.659, 99978.96
3513.588, 100468.0
3515.516, 100474.7
3517.445, 99938.77
3519.373, 98899.25
3521.302, 97124.59
3523.230, 95274.95
3525.158, 93401.65
3527.087, 91744.13
3529.015, 90301.39
3530.944, 89099.45
3532.872, 88061.02
3534.801, 87116.65
3536.729, 86254.07
3538.658, 85459.23
3540.586, 84840.58
3542.515, 84427.83
3544.443, 83951.49
3546.372, 83492.81
3548.300, 83371.02
3550.229, 83557.82
3552.157, 83947.16
3554.085, 84803.38
3556.014, 86307.49
3557.942, 87800.01
3559.871, 89204.81
3561.799, 90320.14
3563.728, 91114.74
3565.656, 91478.52
3567.585, 91557.73
3569.513, 91173.56
3571.442, 91123.00
3573.370, 91654.09
3575.299, 92527.80
3577.227, 93705.95
3579.156, 95191.13
3581.084, 96714.81
3583.012, 97967.91
3584.941, 98691.85
3586.869, 98667.67
3588.798, 98367.21
3590.726, 97774.41
3592.655, 97310.34
3594.583, 97136.94
3596.512, 97853.62
3598.440, 99271.06
3600.369, 101544.0
3602.297, 103752.3
3604.226, 105655.1
3606.154, 106998.1
3608.083, 107794.1
3610.011, 108061.5
3611.939, 107954.0
3613.868, 107574.0
3615.796, 107303.3
3617.725, 107343.7
3619.653, 107739.0
3621.582, 108499.6
3623.510, 109495.1
3625.439, 110697.6
3627.367, 112036.0
3629.296, 113402.5
3631.224, 114647.9
3633.153, 115865.3
3635.081, 117118.0
3637.010, 118341.9
3638.938, 119508.0
3640.866, 120360.2
3642.795, 120770.0
3644.723, 120541.8
3646.652, 119471.2
3648.580, 117281.2
3650.509, 114288.6
3652.437, 110545.5
3654.366, 106252.9
3656.294, 101577.6
3658.223, 96959.88
3660.151, 92416.16
3662.080, 87989.69
3664.008, 83586.13
3665.937, 79163.99
3667.865, 74935.13
3669.793, 70951.23
3671.722, 67286.84
3673.650, 63946.38
3675.579, 60831.19
3677.507, 58087.93
3679.436, 55782.64
3681.364, 53777.88
3683.293, 52068.00
3685.221, 50626.18
3687.150, 49457.31
3689.078, 48602.08
3691.007, 47906.56
3692.935, 47302.95
3694.864, 46818.53
3696.792, 46471.36
3698.720, 46061.78
3700.649, 45602.18
3702.577, 45106.49
3704.506, 44621.05
3706.434, 44157.25
3708.363, 43777.13
3710.291, 43500.54
3712.220, 43302.67
3714.148, 43157.80
3716.077, 42923.75
3718.005, 42798.56
3719.934, 42960.50
3721.862, 43238.89
3723.791, 43601.17
3725.719, 44171.32
3727.647, 44939.78
3729.576, 45934.58
3731.504, 47035.98
3733.433, 48149.31
3735.361, 49385.32
3737.290, 50781.33
3739.218, 52076.18
3741.147, 53283.80
3743.075, 54439.01
3745.004, 55626.51
3746.932, 56980.37
3748.861, 58274.17
3750.789, 59475.87
3752.718, 60422.90
3754.646, 61131.22
3756.574, 61566.30
3758.503, 61914.25
3760.431, 62277.43
3762.360, 62654.38
3764.288, 63050.01
3766.217, 63590.84
3768.145, 64263.93
3770.074, 65043.56
3772.002, 65902.99
3773.931, 66921.11
3775.859, 67801.16
3777.788, 68499.31
3779.716, 69073.60
3781.645, 69496.68
3783.573, 69760.84
3785.501, 69769.83
3787.430, 69392.92
3789.358, 68942.13
3791.287, 68448.13
3793.215, 67884.50
3795.144, 67365.33
3797.072, 66982.97
3799.001, 66834.45
3800.929, 66983.41
3802.858, 67221.28
3804.786, 67578.13
3806.715, 68300.99
3808.643, 69279.55
3810.572, 70420.16
3812.500, 71663.85
3814.428, 72982.73
3816.357, 74467.58
3818.285, 76066.59
3820.214, 77667.96
3822.142, 79197.38
3824.071, 80601.72
3825.999, 81968.23
3827.928, 83315.50
3829.856, 84103.41
3831.785, 84466.76
3833.713, 84594.48
3835.642, 84428.79
3837.570, 83934.15
3839.499, 83067.43
3841.427, 81850.65
3843.355, 80494.05
3845.284, 78899.77
3847.212, 76828.68
3849.141, 74786.33
3851.069, 73003.60
3852.998, 71074.07
3854.926, 69038.91
3856.855, 67019.84
3858.783, 64972.96
3860.712, 62843.15
3862.640, 60758.63
3864.569, 58726.27
3866.497, 56627.55
3868.426, 54481.78
3870.354, 52320.72
3872.282, 50236.23
3874.211, 48244.68
3876.139, 46289.93
3878.068, 44382.39
3879.996, 42601.47
3881.925, 40884.23
3883.853, 39159.53
3885.782, 37590.13
3887.710, 36217.48
3889.639, 34911.31
3891.567, 33679.94
3893.496, 32485.47
3895.424, 31378.98
3897.353, 30399.33
3899.281, 29462.28
3901.209, 28568.65
3903.138, 27835.22
3905.066, 27168.60
3906.995, 26476.70
3908.923, 25824.50
3910.852, 25221.36
3912.780, 24746.34
3914.709, 24337.42
3916.637, 23877.99
3918.566, 23395.53
3920.494, 22905.02
3922.423, 22602.79
3924.351, 22376.79
3926.280, 22073.71
3928.208, 21786.51
3930.136, 21536.62
3932.065, 21351.11
3933.993, 21182.90
3935.922, 20928.32
3937.850, 20663.68
3939.779, 20473.53
3941.707, 20289.47
3943.636, 20062.18
3945.564, 19879.52
3947.493, 19713.31
3949.421, 19474.75
3951.350, 19265.44
3953.278, 19112.21
3955.207, 18876.89
3957.135, 18603.78
3959.063, 18329.57
3960.992, 18046.42
3962.920, 17803.43
3964.849, 17568.91
3966.777, 17319.31
3968.706, 17068.24
3970.634, 16793.73
3972.563, 16468.94
3974.491, 16162.03
3976.420, 15882.66
3978.348, 15575.71
3980.277, 15262.27
3982.205, 15032.84
3984.134, 14806.16
3986.062, 14524.39
3987.990, 14231.21
3989.919, 13930.05
3991.847, 13698.86
3993.776, 13490.41
3995.704, 13227.88
3997.633, 12938.97
3999.561, 12661.39
4001.490, 12437.63
4003.418, 12235.83
4005.347, 11998.56
4007.275, 11784.53
4009.204, 11567.25
4011.132, 11333.71
4013.061, 11109.98
4014.989, 10862.86
4016.917, 10641.43
4018.846, 10448.00
4020.774, 10267.66
4022.703, 10074.18
4024.631, 9875.338
4026.560, 9733.263
4028.488, 9604.701
4030.417, 9445.615
4032.345, 9279.494
4034.274, 9142.132
4036.202, 9021.726
4038.131, 8881.479
4040.059, 8752.605
4041.988, 8651.679
4043.916, 8560.829
4045.844, 8496.761
4047.773, 8445.871
4049.701, 8331.759
4051.630, 8203.028
4053.558, 8156.550
4055.487, 8113.245
4057.415, 8026.057
4059.344, 7920.581
4061.272, 7863.325
4063.201, 7874.329
4065.129, 7829.789
4067.058, 7768.148
4068.986, 7721.466
4070.915, 7669.170
4072.843, 7625.129
4074.771, 7580.538
4076.700, 7512.782
4078.628, 7457.389
4080.557, 7398.492
4082.485, 7315.133
4084.414, 7250.095
4086.342, 7192.875
4088.271, 7077.868
4090.199, 6959.366
4092.128, 6897.629
4094.056, 6822.128
4095.985, 6724.522
4097.913, 6676.944
4099.842, 6637.595
4101.770, 6564.787
4103.699, 6469.201
4105.627, 6373.255
4107.556, 6354.629
4109.484, 6328.253
4111.413, 6211.242
4113.341, 6116.411
4115.270, 6058.729
4117.198, 6009.577
4119.126, 5955.420
4121.055, 5895.553
4122.983, 5847.721
4124.912, 5802.817
4126.840, 5758.004
4128.769, 5714.902
4130.697, 5660.446
4132.625, 5603.931
4134.554, 5545.766
4136.482, 5513.886
4138.411, 5486.656
4140.339, 5434.346
4142.268, 5372.393
4144.196, 5309.451
4146.125, 5310.074
4148.053, 5315.485
4149.982, 5270.245
4151.910, 5205.415
4153.839, 5135.536
4155.767, 5137.127
4157.696, 5143.991
4159.624, 5089.043
4161.553, 5047.951
4163.481, 5028.771
4165.410, 5025.626
4167.338, 5024.970
4169.267, 5015.497
4171.195, 5001.958
4173.124, 4985.296
4175.052, 4970.344
4176.980, 4957.290
4178.909, 4947.450
4180.837, 4937.786
4182.766, 4927.475
4184.694, 4899.246
4186.623, 4874.747
4188.551, 4865.219
4190.479, 4879.236
4192.408, 4908.377
4194.336, 4914.356
4196.265, 4925.014
4198.193, 4963.915
4200.122, 4969.272
4202.050, 4952.149
4203.979, 4970.689
4205.907, 4990.822
4207.836, 4993.294
4209.764, 5018.138
4211.693, 5047.536
4213.621, 5024.844
4215.550, 5032.042
4217.478, 5117.594
4219.407, 5149.020
4221.335, 5155.472
4223.264, 5175.757
4225.192, 5217.375
4227.121, 5286.698
4229.049, 5333.983
4230.978, 5376.565
4232.906, 5449.556
4234.834, 5481.358
4236.763, 5463.984
4238.691, 5526.119
4240.620, 5603.710
4242.548, 5641.742
4244.477, 5632.838
4246.405, 5595.226
4248.333, 5641.400
4250.262, 5705.125
4252.190, 5738.199
4254.119, 5779.988
4256.047, 5831.509
4257.976, 5887.797
4259.904, 5940.696
4261.833, 5983.027
4263.761, 6054.506
4265.690, 6131.046
4267.618, 6139.953
4269.547, 6203.109
4271.475, 6354.948
4273.404, 6426.640
4275.332, 6471.950
4277.261, 6561.740
4279.189, 6659.063
4281.118, 6754.117
4283.046, 6807.294
4284.975, 6888.676
4286.903, 7072.381
4288.832, 7230.993
4290.760, 7366.026
4292.688, 7512.976
4294.617, 7681.820
4296.545, 7880.976
4298.474, 8056.251
4300.402, 8217.842
4302.331, 8396.043
4304.259, 8565.649
4306.188, 8719.846
4308.116, 8808.007
4310.044, 8891.046
4311.973, 9049.784
4313.901, 9180.775
4315.830, 9270.313
4317.758, 9334.132
4319.687, 9356.354
4321.615, 9323.644
4323.544, 9249.384
4325.472, 9149.718
4327.401, 9048.943
4329.329, 8963.504
4331.258, 8898.124
4333.186, 8876.493
4335.115, 8893.335
4337.043, 8946.140
4338.972, 9029.987
4340.900, 9140.665
4342.829, 9256.269
4344.757, 9369.158
4346.686, 9451.574
4348.614, 9638.575
4350.542, 9880.083
4352.471, 10052.91
4354.399, 10266.95
4356.328, 10554.43
4358.256, 10844.43
4360.185, 11187.63
4362.113, 11647.07
4364.042, 12103.95
4365.970, 12557.95
4367.898, 13084.53
4369.827, 13609.60
4371.755, 14096.52
4373.684, 14705.13
4375.612, 15391.54
4377.541, 16093.30
4379.469, 16834.64
4381.398, 17628.34
4383.326, 18535.61
4385.255, 19550.34
4387.183, 20662.18
4389.112, 21899.57
4391.040, 23216.46
4392.969, 24534.89
4394.897, 25856.53
4396.826, 27178.77
4398.754, 28556.10
4400.683, 29727.30
4402.611, 30490.35
4404.540, 30925.09
4406.468, 31159.86
4408.396, 31435.31
4410.325, 31817.28
4412.253, 32320.74
4414.182, 33161.91
4416.110, 34306.45
4418.039, 35691.36
4419.967, 37556.79
4421.896, 39904.53
4423.824, 42661.31
4425.752, 45983.52
4427.681, 49920.87
4429.609, 54352.23
4431.538, 59043.09
4433.466, 63950.91
4435.395, 68383.38
4437.323, 72061.51
4439.252, 74325.60
4441.180, 75633.58
4443.109, 76179.77
4445.037, 76259.55
4446.966, 76216.87
4448.894, 76453.32
4450.823, 76528.64
4452.751, 76255.07
4454.680, 75384.49
4456.608, 73698.23
4458.537, 71078.98
4460.465, 67838.53
4462.394, 64463.24
4464.322, 61328.11
4466.250, 58311.07
4468.179, 55478.64
4470.107, 53058.59
4472.036, 50867.97
4473.964, 48826.41
4475.893, 46692.77
4477.821, 44549.00
4479.750, 42454.79
4481.678, 40391.07
4483.606, 38411.77
4485.535, 36602.10
4487.463, 34865.46
4489.392, 33215.73
4491.320, 31886.09
4493.249, 30766.93
4495.177, 29824.18
4497.106, 28908.28
4499.034, 28077.19
4500.963, 27430.94
4502.891, 26886.66
4504.820, 26398.47
4506.748, 25808.84
4508.677, 25312.10
4510.605, 24968.08
4512.534, 24755.21
4514.462, 24612.11
4516.391, 24493.90
4518.319, 24368.46
4520.248, 24289.80
4522.176, 24403.79
4524.104, 24520.29
4526.033, 24610.22
4527.961, 24896.31
4529.890, 25112.24
4531.818, 25117.88
4533.747, 25291.68
4535.675, 25535.72
4537.604, 25695.38
4539.532, 25972.26
4541.460, 26364.18
4543.389, 26819.89
4545.317, 27278.43
4547.246, 27728.15
4549.174, 28209.19
4551.103, 28781.44
4553.031, 29497.40
4554.960, 30213.48
4556.888, 30964.29
4558.817, 31831.47
4560.745, 32621.88
4562.674, 33362.21
4564.602, 34243.33
4566.531, 35034.96
4568.459, 35698.75
4570.388, 36649.86
4572.316, 37621.93
4574.245, 38419.96
4576.173, 39224.19
4578.102, 40004.87
4580.030, 40743.64
4581.958, 41341.98
4583.887, 41782.88
4585.815, 42137.98
4587.744, 42059.34
4589.672, 41502.78
4591.601, 40756.20
4593.529, 39841.43
4595.458, 38750.55
4597.386, 37513.38
4599.314, 36256.92
4601.243, 35100.11
4603.171, 34006.76
4605.100, 32962.95
4607.028, 31932.77
4608.957, 31010.57
4610.885, 30174.79
4612.814, 29296.03
4614.742, 28377.99
4616.671, 27421.23
4618.599, 26509.54
4620.528, 25675.77
4622.456, 24949.50
4624.385, 24276.24
4626.313, 23667.04
4628.242, 23141.93
4630.170, 22650.42
4632.099, 22217.47
4634.027, 21933.77
4635.956, 21646.47
4637.884, 21328.64
4639.813, 21038.05
4641.741, 20738.38
4643.669, 20425.51
4645.598, 20251.11
4647.526, 20092.14
4649.455, 19861.13
4651.383, 19731.95
4653.312, 19591.12
4655.240, 19269.64
4657.168, 18979.84
4659.097, 18696.09
4661.025, 18333.76
4662.954, 17950.18
4664.882, 17557.08
4666.811, 17155.21
4668.739, 16749.20
4670.668, 16333.12
4672.596, 15782.81
4674.525, 15255.44
4676.453, 14829.38
4678.382, 14345.85
4680.310, 13863.09
4682.239, 13424.47
4684.167, 13001.53
4686.096, 12597.14
4688.024, 12218.66
4689.953, 11852.03
4691.881, 11509.11
4693.810, 11222.04
4695.738, 10936.92
4697.667, 10648.60
4699.595, 10372.93
4701.523, 10086.92
4703.452, 9789.806
4705.380, 9544.083
4707.309, 9279.270
4709.237, 8968.743
4711.166, 8661.634
4713.094, 8389.672
4715.022, 8168.018
4716.951, 8032.350
4718.879, 7902.743
4720.808, 7688.944
4722.736, 7507.453
4724.665, 7378.545
4726.593, 7333.808
4728.522, 7279.917
4730.450, 7212.565
4732.379, 7128.547
4734.307, 7096.506
4736.236, 7103.028
4738.164, 7070.990
4740.093, 7088.096
4742.021, 7156.410
4743.950, 7207.940
4745.878, 7253.790
4747.807, 7297.367
4749.735, 7328.177
4751.664, 7397.850
4753.592, 7527.221
4755.521, 7631.468
4757.449, 7743.426
4759.377, 7879.527
4761.306, 8026.287
4763.234, 8160.853
4765.163, 8263.877
4767.091, 8349.880
4769.020, 8446.313
4770.948, 8580.854
4772.876, 8712.653
4774.805, 8806.901
4776.733, 8827.314
4778.662, 8787.508
4780.590, 8715.744
4782.519, 8644.721
4784.447, 8617.467
4786.376, 8583.410
4788.304, 8438.629
4790.233, 8244.003
4792.161, 8037.174
4794.090, 7913.468
4796.018, 7692.532
4797.947, 7397.885
4799.875, 7204.491
4801.804, 7012.963
4803.732, 6799.167
4805.661, 6558.611
4807.589, 6315.664
4809.518, 6085.879
4811.446, 5936.387
4813.375, 5769.734
4815.303, 5561.509
4817.231, 5401.712
4819.160, 5213.503
4821.088, 4983.402
4823.017, 4875.952
4824.945, 4782.856
4826.874, 4656.977
4828.802, 4515.889
4830.730, 4410.941
4832.659, 4362.947
4834.587, 4278.838
4836.516, 4174.419
4838.444, 4058.645
4840.373, 3995.408
4842.301, 3935.531
4844.230, 3850.158
4846.158, 3791.201
4848.087, 3749.531
4850.015, 3719.097
4851.944, 3691.652
4853.872, 3648.566
4855.801, 3576.021
4857.729, 3545.275
4859.658, 3525.846
4861.586, 3493.648
4863.515, 3477.257
4865.443, 3449.810
4867.372, 3389.527
4869.300, 3356.015
4871.229, 3340.458
4873.157, 3338.181
4875.085, 3318.548
4877.014, 3279.918
4878.942, 3220.251
4880.871, 3185.444
4882.799, 3168.483
4884.728, 3170.217
4886.656, 3120.734
4888.584, 3076.711
4890.513, 3080.607
4892.441, 3069.153
4894.370, 3040.076
4896.298, 2985.829
4898.227, 2968.741
4900.155, 2950.087
4902.084, 2904.027
4904.012, 2863.673
4905.941, 2841.336
4907.869, 2850.597
4909.798, 2832.223
4911.726, 2795.838
4913.655, 2748.551
4915.583, 2735.852
4917.512, 2730.698
4919.440, 2716.329
4921.369, 2686.547
4923.297, 2676.572
4925.226, 2698.920
4927.154, 2665.736
4929.083, 2616.854
4931.011, 2573.262
4932.939, 2552.333
4934.868, 2544.129
4936.796, 2542.698
4938.725, 2518.772
4940.653, 2499.918
4942.582, 2493.487
4944.510, 2479.584
4946.438, 2468.699
4948.367, 2467.007
4950.295, 2506.676
4952.224, 2512.217
4954.152, 2476.561
4956.081, 2434.868
4958.009, 2411.912
4959.938, 2401.787
4961.866, 2355.919
4963.795, 2344.183
4965.723, 2358.085
4967.652, 2348.251
4969.580, 2326.078
4971.509, 2302.405
4973.437, 2294.955
4975.366, 2291.002
4977.294, 2288.991
4979.223, 2294.630
4981.151, 2256.510
4983.080, 2207.030
4985.008, 2189.799
4986.937, 2168.158
4988.865, 2163.230
4990.793, 2197.304
4992.722, 2168.137
4994.650, 2132.022
4996.579, 2138.017
4998.507, 2099.630
5000.436, 2075.851
5002.364, 2093.812
5004.292, 2076.834
5006.221, 2051.303
5008.149, 2030.463
5010.078, 2026.359
5012.006, 2030.140
5013.935, 2030.746
5015.863, 1977.671
5017.792, 1947.447
5019.720, 1944.059
5021.649, 1934.894
5023.577, 1927.340
5025.506, 1916.349
5027.434, 1878.957
5029.363, 1892.929
5031.291, 1916.267
5033.220, 1880.412
5035.148, 1869.112
5037.077, 1872.670
5039.005, 1882.258
5040.934, 1857.802
5042.862, 1831.857
5044.791, 1824.831
5046.719, 1865.875
5048.647, 1868.534
5050.576, 1806.247
5052.504, 1809.116
5054.433, 1808.893
5056.361, 1793.296
5058.290, 1805.360
5060.218, 1798.605
5062.146, 1787.280
5064.075, 1834.576
5066.003, 1837.905
5067.932, 1819.703
5069.860, 1828.009
5071.789, 1819.526
5073.717, 1805.509
5075.646, 1798.252
5077.574, 1800.063
5079.503, 1806.865
5081.431, 1816.524
5083.360, 1800.155
5085.288, 1795.605
5087.217, 1810.475
5089.145, 1827.281
5091.074, 1814.800
5093.002, 1786.412
5094.931, 1799.819
5096.859, 1785.202
5098.788, 1766.633
5100.716, 1793.745
5102.645, 1791.040
5104.573, 1778.479
5106.501, 1778.612
5108.430, 1783.784
5110.358, 1791.670
5112.287, 1801.016
5114.215, 1802.605
5116.144, 1803.353
5118.072, 1800.259
5120.000, 1772.158
5121.929, 1748.629
5123.857, 1741.719
5125.786, 1777.240
5127.714, 1768.093
5129.643, 1744.305
5131.571, 1740.518
5133.500, 1780.018
5135.428, 1799.311
5137.357, 1765.150
5139.285, 1752.796
5141.214, 1764.361
5143.142, 1788.442
5145.071, 1782.853
5146.999, 1767.121
5148.928, 1755.587
5150.856, 1768.450
5152.785, 1777.758
5154.713, 1782.107
5156.642, 1780.313
5158.570, 1807.524
5160.499, 1804.520
5162.427, 1760.908
5164.355, 1781.423
5166.284, 1812.875
5168.212, 1833.192
5170.141, 1819.072
5172.069, 1809.296
5173.998, 1812.486
5175.926, 1833.643
5177.854, 1826.789
5179.783, 1830.497
5181.711, 1866.461
5183.640, 1861.005
5185.568, 1854.716
5187.497, 1860.277
5189.425, 1869.279
5191.354, 1906.549
5193.282, 1939.054
5195.211, 1913.732
5197.139, 1880.482
5199.068, 1870.314
5200.996, 1903.590
5202.925, 1903.550
5204.853, 1916.452
5206.782, 1946.381
5208.710, 1950.717
5210.639, 1945.571
5212.567, 1946.860
5214.496, 1981.388
5216.424, 1985.610
5218.353, 1976.258
5220.281, 1966.560
5222.209, 2032.518
5224.138, 2029.071
5226.066, 1961.366
5227.995, 1986.078
5229.923, 1983.293
5231.852, 1967.853
5233.780, 1974.928
5235.708, 2026.695
5237.637, 2065.818
5239.565, 2066.398
5241.494, 2072.193
5243.422, 2086.876
5245.351, 2102.248
5247.279, 2096.632
5249.208, 2089.116
5251.136, 2094.350
5253.065, 2123.756
5254.993, 2168.711
5256.922, 2207.106
5258.850, 2227.819
5260.779, 2212.013
5262.707, 2223.820
5264.636, 2252.984
5266.564, 2270.453
5268.493, 2268.359
5270.421, 2286.551
5272.350, 2339.449
5274.278, 2326.931
5276.207, 2344.195
5278.135, 2393.246
5280.063, 2430.112
5281.992, 2436.023
5283.920, 2457.111
5285.849, 2535.815
5287.777, 2564.654
5289.706, 2611.042
5291.634, 2689.453
5293.563, 2774.710
5295.491, 2865.575
5297.419, 2963.236
5299.348, 3064.902
5301.276, 3214.333
5303.205, 3375.879
5305.133, 3533.703
5307.062, 3685.732
5308.990, 3871.272
5310.919, 4104.096
5312.847, 4391.871
5314.776, 4738.955
5316.704, 5090.733
5318.633, 5429.148
5320.561, 5830.514
5322.490, 6218.436
5324.418, 6565.481
5326.347, 6862.377
5328.275, 7049.456
5330.204, 7128.249
5332.132, 7117.244
5334.061, 7105.160
5335.989, 7035.343
5337.917, 6900.376
5339.846, 6702.958
5341.774, 6481.465
5343.703, 6242.470
5345.631, 5985.979
5347.560, 5686.207
5349.488, 5388.308
5351.417, 5131.346
5353.345, 4953.756
5355.273, 4846.678
5357.202, 4768.838
5359.130, 4712.693
5361.059, 4744.974
5362.987, 4874.967
5364.916, 5108.321
5366.844, 5451.610
5368.773, 5820.644
5370.701, 6237.118
5372.630, 6696.908
5374.558, 7162.177
5376.487, 7482.887
5378.415, 7652.678
5380.344, 7688.983
5382.272, 7537.282
5384.201, 7353.524
5386.129, 7211.766
5388.058, 7139.984
5389.986, 7174.864
5391.915, 7269.414
5393.843, 7385.167
5395.771, 7530.797
5397.700, 7644.197
5399.628, 7695.792
5401.557, 7652.915
5403.485, 7687.404
5405.414, 7815.112
5407.342, 8031.087
5409.271, 8338.952
5411.199, 8628.970
5413.127, 8938.293
5415.056, 9380.892
5416.984, 9644.648
5418.913, 9804.673
5420.841, 9878.951
5422.770, 9833.863
5424.698, 9617.763
5426.627, 9336.405
5428.555, 9072.758
5430.484, 8757.578
5432.412, 8444.196
5434.341, 8156.506
5436.269, 7907.843
5438.198, 7700.318
5440.126, 7524.429
5442.055, 7382.649
5443.983, 7305.646
5445.912, 7250.091
5447.840, 7235.333
5449.769, 7280.170
5451.697, 7274.395
5453.625, 7366.034
5455.554, 7545.330
5457.482, 7709.463
5459.411, 7901.674
5461.339, 8145.863
5463.268, 8423.054
5465.196, 8618.396
5467.125, 8775.783
5469.053, 8909.606
5470.981, 9025.638
5472.910, 9113.439
5474.838, 9216.548
5476.767, 9352.333
5478.695, 9515.196
5480.624, 9792.330
5482.552, 10140.07
5484.481, 10565.75
5486.409, 11167.05
5488.338, 11771.09
5490.266, 12431.26
5492.195, 13214.22
5494.123, 14200.75
5496.052, 15330.47
5497.980, 16674.92
5499.909, 18397.06
5501.837, 19873.06
5503.766, 21584.77
5505.694, 23501.63
5507.623, 25262.54
5509.551, 26964.52
5511.479, 28664.88
5513.408, 30483.94
5515.336, 32666.51
5517.265, 35461.50
5519.193, 38544.05
5521.122, 41641.23
5523.050, 44553.73
5524.979, 46797.89
5526.907, 48430.11
5528.835, 49631.40
5530.764, 49613.77
5532.692, 47991.51
5534.621, 45140.91
5536.549, 41727.03
5538.478, 39114.17
5540.406, 37273.45
5542.335, 36191.50
5544.263, 36022.18
5546.192, 36453.39
5548.120, 37337.52
5550.049, 38455.71
5551.977, 39277.64
5553.906, 39173.06
5555.834, 38011.12
5557.763, 35856.91
5559.691, 33158.61
5561.620, 30042.25
5563.548, 26696.42
5565.477, 23302.79
5567.405, 20294.10
5569.333, 17788.40
5571.262, 15725.35
5573.190, 14000.21
5575.119, 12715.58
5577.047, 11657.09
5578.976, 10788.09
5580.904, 10161.96
5582.833, 9690.786
5584.761, 9414.545
5586.689, 9351.723
5588.618, 9509.928
5590.546, 9727.765
5592.475, 10035.36
5594.403, 10423.67
5596.332, 10809.38
5598.260, 11173.08
5600.189, 11671.21
5602.117, 12403.21
5604.046, 13417.34
5605.974, 14719.05
5607.903, 16250.14
5609.831, 17924.63
5611.760, 19622.72
5613.688, 21045.30
5615.617, 21794.67
5617.545, 21671.25
5619.474, 20896.67
5621.402, 19357.24
5623.331, 17408.39
5625.259, 15352.12
5627.188, 13425.76
5629.116, 11650.94
5631.044, 10191.32
5632.973, 9167.353
5634.901, 8423.660
5636.830, 7881.646
5638.758, 7422.778
5640.687, 6978.556
5642.615, 6688.485
5644.543, 6507.231
5646.472, 6351.600
5648.400, 6165.480
5650.329, 6009.330
5652.257, 5866.455
5654.186, 5727.857
5656.114, 5589.573
5658.043, 5465.246
5659.971, 5335.750
5661.900, 5247.795
5663.828, 5229.838
5665.757, 5137.289
5667.685, 5051.005
5669.614, 4974.706
5671.542, 4904.769
5673.471, 4893.362
5675.399, 4858.517
5677.328, 4829.477
5679.256, 4830.803
5681.185, 4798.081
5683.113, 4769.613
5685.042, 4738.300
5686.970, 4699.428
5688.898, 4683.211
5690.827, 4695.879
5692.755, 4648.690
5694.684, 4530.281
5696.612, 4542.853
5698.541, 4491.882
5700.469, 4418.799
5702.397, 4362.013
5704.326, 4313.944
5706.254, 4289.694
5708.183, 4224.843
5710.111, 4118.527
5712.040, 4056.026
5713.968, 4002.073
5715.897, 3977.045
5717.825, 3951.665
5719.754, 3820.828
5721.682, 3808.244
5723.611, 3776.319
5725.539, 3723.830
5727.468, 3728.501
5729.396, 3693.542
5731.325, 3624.565
5733.253, 3551.492
5735.182, 3506.133
5737.110, 3512.130
5739.039, 3496.687
5740.967, 3458.852
5742.896, 3416.118
5744.824, 3401.613
5746.752, 3355.664
5748.681, 3301.637
5750.609, 3265.088
5752.538, 3273.707
5754.466, 3229.265
5756.395, 3193.638
5758.323, 3186.689
5760.251, 3163.155
5762.180, 3098.107
5764.108, 3045.807
5766.037, 3014.539
5767.965, 2982.262
5769.894, 2989.303
5771.822, 2965.036
5773.751, 2928.931
5775.679, 2920.447
5777.608, 2887.403
5779.536, 2872.868
5781.465, 2883.562
5783.393, 2900.158
5785.322, 2819.292
5787.250, 2768.164
5789.179, 2738.132
5791.107, 2722.000
5793.036, 2749.267
5794.964, 2710.419
5796.893, 2706.379
5798.821, 2723.612
5800.750, 2679.861
5802.678, 2667.760
5804.606, 2659.072
5806.535, 2633.105
5808.463, 2588.870
5810.392, 2602.707
5812.320, 2591.642
5814.249, 2554.489
5816.177, 2519.644
5818.105, 2543.579
5820.034, 2512.483
5821.962, 2506.280
5823.891, 2522.377
5825.819, 2508.100
5827.748, 2522.228
5829.676, 2488.989
5831.605, 2456.874
5833.533, 2470.768
5835.462, 2438.829
5837.390, 2452.510
5839.319, 2434.637
5841.247, 2389.190
5843.176, 2446.422
5845.104, 2423.479
5847.033, 2402.869
5848.961, 2393.268
5850.890, 2373.113
5852.818, 2359.753
5854.747, 2351.016
5856.675, 2363.622
5858.604, 2384.770
5860.532, 2347.468
5862.460, 2319.205
5864.389, 2293.040
5866.317, 2262.943
5868.246, 2231.325
5870.174, 2245.611
5872.103, 2266.615
5874.031, 2277.654
5875.959, 2271.719
5877.888, 2235.426
5879.816, 2235.076
5881.745, 2245.995
5883.673, 2253.645
5885.602, 2255.352
5887.530, 2229.123
5889.459, 2243.895
5891.387, 2237.719
5893.316, 2195.134
5895.244, 2263.290
5897.173, 2267.471
5899.101, 2234.304
5901.030, 2213.300
5902.958, 2246.172
5904.887, 2242.110
5906.815, 2247.107
5908.744, 2251.226
5910.672, 2252.401
5912.601, 2275.448
5914.529, 2280.011
5916.458, 2263.409
5918.386, 2270.865
5920.314, 2323.858
5922.243, 2266.163
5924.171, 2262.241
5926.100, 2290.292
5928.028, 2317.874
5929.957, 2331.785
5931.885, 2389.175
5933.813, 2421.597
5935.742, 2421.016
5937.670, 2405.865
5939.599, 2418.537
5941.527, 2459.498
5943.456, 2467.549
5945.384, 2447.119
5947.313, 2434.619
5949.241, 2508.902
5951.170, 2555.370
5953.098, 2541.818
5955.027, 2497.105
5956.955, 2494.488
5958.884, 2515.397
5960.812, 2525.175
5962.741, 2522.602
5964.669, 2515.984
5966.598, 2513.602
5968.526, 2521.467
5970.455, 2514.338
5972.383, 2511.894
5974.312, 2536.353
5976.240, 2542.626
5978.168, 2529.226
5980.097, 2508.831
5982.025, 2508.712
5983.954, 2551.052
5985.882, 2528.817
5987.811, 2531.385
5989.739, 2526.114
5991.667, 2504.261
5993.596, 2498.895
5995.524, 2549.900
5997.453, 2563.920
5999.381, 2575.501
6001.310, 2599.579
6003.238, 2583.098
6005.167, 2572.150
6007.095, 2568.790
6009.024, 2577.065
6010.952, 2600.497
6012.881, 2639.620
6014.809, 2642.855
6016.738, 2612.564
6018.666, 2595.404
6020.595, 2617.345
6022.523, 2625.946
6024.452, 2594.762
6026.380, 2636.047
6028.309, 2695.517
6030.237, 2690.209
6032.166, 2685.677
6034.094, 2691.777
6036.022, 2692.062
6037.951, 2718.927
6039.879, 2797.024
6041.808, 2813.077
6043.736, 2810.020
6045.665, 2831.496
6047.593, 2848.140
6049.521, 2820.007
6051.450, 2835.948
6053.378, 2881.649
6055.307, 2900.278
6057.235, 2882.361
6059.164, 2853.627
6061.092, 2910.427
6063.021, 2892.592
6064.949, 2873.796
6066.878, 2886.732
6068.806, 2918.063
6070.735, 2914.118
6072.663, 2929.332
6074.592, 2927.178
6076.520, 2935.515
6078.449, 2988.428
6080.377, 2951.907
6082.306, 2989.654
6084.234, 3074.697
6086.163, 3145.321
6088.091, 3171.874
6090.020, 3244.031
6091.948, 3301.042
6093.876, 3332.031
6095.805, 3361.183
6097.733, 3404.294
6099.662, 3423.355
6101.590, 3538.531
6103.519, 3579.910
6105.447, 3582.531
6107.375, 3603.549
6109.304, 3623.624
6111.232, 3610.443
6113.161, 3643.279
6115.089, 3697.006
6117.018, 3741.282
6118.946, 3759.857
6120.875, 3893.320
6122.803, 3983.243
6124.732, 4107.770
6126.660, 4231.673
6128.589, 4227.082
6130.517, 4250.608
6132.446, 4339.186
6134.374, 4382.444
6136.303, 4437.498
6138.231, 4589.131
6140.160, 4699.372
6142.088, 4810.378
6144.017, 4871.607
6145.945, 4850.635
6147.874, 4774.617
6149.802, 4743.630
6151.730, 4721.929
6153.659, 4711.591
6155.587, 4650.533
6157.516, 4567.500
6159.444, 4569.616
6161.373, 4523.011
6163.301, 4498.258
6165.229, 4482.188
6167.158, 4483.920
6169.086, 4515.149
6171.015, 4526.207
6172.943, 4642.382
6174.872, 4856.404
6176.800, 5062.117
6178.729, 5230.829
6180.657, 5460.150
6182.586, 5587.018
6184.514, 5740.474
6186.443, 5839.772
6188.371, 5993.608
6190.300, 6340.821
6192.228, 6637.210
6194.157, 6790.991
6196.085, 6809.632
6198.014, 6734.659
6199.942, 6615.833
6201.871, 6504.746
6203.799, 6430.004
6205.728, 6357.390
6207.656, 6316.751
6209.584, 6326.042
6211.513, 6387.106
6213.441, 6541.004
6215.370, 6632.889
6217.298, 6576.175
6219.227, 6498.295
6221.155, 6519.509
6223.083, 6653.086
6225.012, 6656.384
6226.940, 6809.702
6228.869, 7006.842
6230.797, 7180.154
6232.726, 7273.177
6234.654, 7170.966
6236.583, 7093.039
6238.511, 6976.437
6240.440, 6915.513
6242.368, 6947.055
6244.297, 7035.210
6246.225, 7135.781
6248.154, 7194.009
6250.082, 7192.350
6252.011, 7154.631
6253.939, 7068.138
6255.868, 6895.540
6257.796, 6718.113
6259.725, 6560.651
6261.653, 6457.539
6263.582, 6416.945
6265.510, 6428.928
6267.438, 6475.145
6269.367, 6545.849
6271.295, 6614.298
6273.224, 6635.715
6275.152, 6648.196
6277.081, 6675.283
6279.009, 6642.445
6280.938, 6654.520
6282.866, 6706.298
6284.794, 6744.947
6286.723, 6819.240
6288.651, 6974.348
6290.580, 7139.741
6292.508, 7227.701
6294.437, 7305.976
6296.365, 7429.522
6298.294, 7678.873
6300.222, 8049.216
6302.151, 8297.138
6304.079, 8651.961
6306.008, 8782.798
6307.936, 8905.968
6309.865, 9000.852
6311.793, 8959.144
6313.722, 8929.282
6315.650, 9010.792
6317.579, 9006.199
6319.507, 9094.131
6321.436, 9252.685
6323.364, 9368.625
6325.292, 9466.170
6327.221, 9535.105
6329.149, 9624.320
6331.078, 9738.188
6333.006, 9876.532
6334.935, 10059.96
6336.863, 10316.39
6338.792, 10469.01
6340.720, 10740.64
6342.648, 10927.89
6344.577, 11112.78
6346.505, 11276.95
6348.434, 11114.11
6350.362, 11110.99
6352.291, 11055.13
6354.219, 10875.10
6356.148, 10660.66
6358.076, 10492.70
6360.005, 10381.12
6361.933, 10252.02
6363.862, 10135.95
6365.790, 10002.06
6367.719, 9857.191
6369.647, 9709.011
6371.576, 9556.381
6373.504, 9396.797
6375.433, 9230.579
6377.361, 9056.349
6379.290, 8799.888
6381.218, 8632.294
6383.146, 8588.963
6385.075, 8406.868
6387.003, 8160.271
6388.932, 8078.180
6390.860, 7909.925
6392.789, 7732.844
6394.717, 7574.331
6396.646, 7367.414
6398.574, 7235.635
6400.502, 7113.006
6402.431, 6990.619
6404.359, 6916.528
6406.288, 6834.313
6408.216, 6704.765
6410.145, 6584.495
6412.073, 6584.109
6414.002, 6665.180
6415.930, 6661.095
6417.859, 6625.956
6419.787, 6620.739
6421.716, 6635.330
6423.644, 6625.783
6425.573, 6617.063
6427.501, 6619.741
6429.430, 6654.257
6431.358, 6746.237
6433.287, 6817.258
6435.215, 6780.854
6437.144, 6903.736
6439.072, 6945.359
6441.000, 6989.789
6442.929, 6995.130
6444.857, 7013.483
6446.786, 7049.100
6448.714, 6983.192
6450.643, 6871.967
6452.571, 6731.646
6454.500, 6687.333
6456.428, 6617.137
6458.356, 6470.508
6460.285, 6300.854
6462.213, 6170.285
6464.142, 6031.705
6466.070, 5870.530
6467.999, 5710.096
6469.927, 5490.994
6471.856, 5320.162
6473.784, 5220.753
6475.713, 4959.792
6477.641, 4788.532
6479.570, 4683.217
6481.498, 4494.458
6483.427, 4341.544
6485.355, 4246.162
6487.284, 4154.170
6489.212, 4067.347
6491.141, 4062.146
6493.069, 4025.983
6494.998, 3923.803
6496.926, 3862.889
6498.854, 3880.345
6500.783, 3899.918
6502.711, 3831.545
6504.640, 3772.391
6506.568, 3801.844
6508.497, 3784.304
6510.425, 3788.106
6512.354, 3782.221
6514.282, 3744.894
6516.210, 3729.796
6518.139, 3783.174
6520.067, 3797.692
6521.996, 3771.181
6523.924, 3745.339
6525.853, 3755.386
6527.781, 3772.713
6529.710, 3769.475
6531.638, 3792.709
6533.567, 3811.097
6535.495, 3863.295
6537.424, 3833.954
6539.352, 3797.439
6541.281, 3811.336
6543.209, 3854.497
6545.138, 3881.782
6547.066, 3941.126
6548.995, 3914.837
6550.923, 3925.647
6552.852, 3969.152
6554.780, 4039.809
6556.708, 4091.299
6558.637, 4089.069
6560.565, 4074.615
6562.494, 4086.948
6564.422, 4085.799
6566.351, 4073.222
6568.279, 4071.100
6570.208, 4086.640
6572.136, 4099.021
6574.064, 4085.292
6575.993, 4064.064
6577.921, 4087.359
6579.850, 4044.407
6581.778, 4021.298
6583.707, 4073.378
6585.635, 4094.189
6587.564, 4080.918
6589.492, 4116.012
6591.421, 4036.836
6593.349, 4028.843
6595.278, 4019.728
6597.206, 3988.781
6599.135, 3972.207
6601.063, 3952.299
6602.992, 3900.007
6604.920, 3830.414
6606.849, 3818.836
6608.777, 3813.260
6610.706, 3779.470
6612.634, 3704.926
6614.563, 3639.584
6616.491, 3617.673
6618.419, 3608.591
6620.348, 3579.656
6622.276, 3579.910
6624.205, 3566.005
6626.133, 3534.894
6628.062, 3551.547
6629.990, 3556.384
##END=



