##NAMES=Xonotlite
##RRUFFID=R180003
##IDEAL CHEMISTRY=Ca_6_Si_6_O_17_(OH)_2_
##LOCALITY=Nchwaning III mine, Kuruman, Kalahari manganese field, Northern Cape Province, South Africa
##OWNER=RRUFF
##SOURCE=Jaco and Tania Janse van Nieuwenhuizen
##DESCRIPTION=Sprays of colorless prismatic crystals
##STATUS=The identification of this mineral has been confirmed by single-crystal X-ray diffraction
##URL=https://www.rruff.net/odr/rruff_sample/R180003
##DIFFRACTION SAMPLE DESCRIPTION=Single crystal, powder profile is calculated
##CELL PARAMETERS=a: 17.0961 b: 7.3794 c: 7.0495 alpha: 90 beta: 90.331 gamma: 90 volume: 889.35 crystal system: monoclinic
##FILETYPE=Raman RAW
##RAMAN WAVELENGTH=780

93.98535, 808.8013
95.91382, 738.2227
97.84229, 638.2410
99.77075, 563.0603
101.6992, 506.6708
103.6277, 465.0784
105.5562, 430.3033
107.4846, 398.3681
109.4131, 370.5474
111.3416, 347.1022
113.2700, 327.4536
115.1985, 311.9698
117.1270, 299.3963
119.0554, 291.5682
120.9839, 290.6771
122.9124, 292.4735
124.8408, 295.8586
126.7693, 299.8945
128.6978, 300.7865
130.6262, 298.4143
132.5547, 293.3672
134.4832, 284.6355
136.4116, 274.3599
138.3401, 262.8835
140.2686, 250.7761
142.1970, 239.5494
144.1255, 229.0186
146.0540, 220.4434
147.9824, 214.8550
149.9109, 210.4889
151.8394, 207.0036
153.7678, 204.1581
155.6963, 201.4112
157.6248, 198.7519
159.5532, 196.2652
161.4817, 193.6880
163.4102, 191.6348
165.3386, 190.5798
167.2671, 190.0493
169.1956, 189.3010
171.1240, 188.3640
173.0525, 187.9058
174.9810, 188.2887
176.9094, 188.8556
178.8379, 189.4653
180.7664, 190.2419
182.6948, 191.2257
184.6233, 192.4434
186.5518, 194.0794
188.4802, 195.6902
190.4087, 198.6445
192.3372, 203.9867
194.2656, 209.7726
196.1941, 215.3015
198.1226, 220.2359
200.0510, 223.8803
201.9795, 226.6549
203.9080, 226.6253
205.8364, 222.6314
207.7649, 217.5009
209.6934, 211.5767
211.6218, 205.5015
213.5503, 199.7254
215.4788, 194.1133
217.4072, 190.1796
219.3357, 188.2192
221.2642, 187.2493
223.1926, 187.5713
225.1211, 188.4006
227.0496, 189.5348
228.9780, 190.7345
230.9065, 191.0257
232.8350, 190.2724
234.7634, 188.8452
236.6919, 186.8301
238.6204, 183.9897
240.5488, 179.6186
242.4773, 174.7310
244.4058, 170.3424
246.3342, 166.4666
248.2627, 163.2676
250.1912, 160.7489
252.1196, 158.8018
254.0481, 157.5652
255.9766, 156.7498
257.9050, 156.2679
259.8335, 156.0508
261.7620, 155.9368
263.6904, 155.9302
265.6189, 156.0089
267.5474, 156.1766
269.4758, 156.4282
271.4043, 157.0284
273.3328, 157.4776
275.2612, 157.1669
277.1897, 156.3011
279.1182, 155.8713
281.0466, 155.8766
282.9751, 156.1363
284.9036, 156.4341
286.8320, 157.2941
288.7605, 158.9143
290.6890, 161.1596
292.6174, 164.0410
294.5459, 167.4729
296.4744, 171.1033
298.4028, 175.1714
300.3313, 178.2795
302.2598, 179.8021
304.1882, 180.5850
306.1167, 180.7241
308.0452, 180.3947
309.9736, 179.7187
311.9021, 178.7645
313.8306, 177.7966
315.7590, 176.7820
317.6875, 175.9454
319.6160, 175.3455
321.5445, 174.9106
323.4729, 174.7043
325.4014, 174.6013
327.3299, 174.7655
329.2583, 174.9940
331.1868, 173.8836
333.1153, 170.7422
335.0437, 167.5187
336.9722, 164.4271
338.9007, 161.3565
340.8291, 158.0622
342.7576, 154.9332
344.6861, 152.2359
346.6145, 150.0210
348.5430, 148.6447
350.4715, 148.3165
352.3999, 148.5152
354.3284, 149.2814
356.2569, 150.4341
358.1853, 151.9769
360.1138, 153.8200
362.0423, 156.0112
363.9707, 158.4503
365.8992, 160.5173
367.8277, 162.2173
369.7561, 163.5127
371.6846, 164.4285
373.6131, 164.9489
375.5415, 164.6060
377.4700, 164.3553
379.3985, 164.6796
381.3269, 165.6442
383.2554, 167.5863
385.1839, 170.7889
387.1123, 173.5945
389.0408, 176.2295
390.9693, 177.9062
392.8977, 178.3046
394.8262, 177.8035
396.7547, 176.5888
398.6831, 174.7297
400.6116, 171.9055
402.5401, 168.2135
404.4685, 165.7952
406.3970, 164.5652
408.3255, 164.6500
410.2539, 165.9568
412.1824, 168.8634
414.1109, 174.7600
416.0393, 181.0879
417.9678, 187.0792
419.8963, 191.7814
421.8247, 192.2921
423.7532, 188.7070
425.6817, 182.6098
427.6101, 173.1375
429.5386, 164.8648
431.4671, 159.1503
433.3955, 154.9725
435.3240, 152.0484
437.2525, 150.3319
439.1809, 150.3848
441.1094, 151.6227
443.0379, 151.9129
444.9663, 151.2713
446.8948, 150.2940
448.8233, 148.8656
450.7517, 147.6191
452.6802, 146.6185
454.6087, 145.9254
456.5371, 146.0823
458.4656, 146.1968
460.3941, 145.0531
462.3225, 142.9338
464.2510, 140.3682
466.1795, 137.2918
468.1079, 135.0500
470.0364, 133.9678
471.9649, 133.5271
473.8933, 133.7581
475.8218, 134.4418
477.7503, 135.8821
479.6787, 137.4089
481.6072, 138.4234
483.5357, 138.8997
485.4641, 138.6876
487.3926, 137.7571
489.3211, 136.3539
491.2495, 133.9545
493.1780, 131.9072
495.1065, 130.0254
497.0349, 128.8621
498.9634, 129.0984
500.8919, 129.7459
502.8203, 130.3546
504.7488, 130.6028
506.6773, 129.6309
508.6057, 127.3412
510.5342, 125.2195
512.4626, 123.1822
514.3911, 121.5197
516.3196, 120.3456
518.2480, 119.3519
520.1765, 118.5007
522.1050, 117.7201
524.0334, 116.8600
525.9619, 116.1094
527.8904, 115.8096
529.8188, 115.3288
531.7473, 115.0872
533.6758, 115.0670
535.6042, 114.8592
537.5327, 115.2127
539.4612, 115.2989
541.3896, 114.7883
543.3181, 114.3144
545.2466, 114.0962
547.1750, 114.1039
549.1035, 114.4632
551.0320, 114.9496
552.9604, 115.0766
554.8889, 114.9487
556.8174, 115.5521
558.7458, 115.6303
560.6743, 115.6158
562.6028, 116.4056
564.5313, 115.9773
566.4598, 116.7228
568.3882, 117.9292
570.3167, 119.1216
572.2452, 120.8386
574.1736, 123.0613
576.1021, 126.2907
578.0306, 130.6828
579.9590, 136.8163
581.8875, 146.7246
583.8160, 160.2632
585.7444, 176.1725
587.6729, 195.3618
589.6014, 211.7814
591.5298, 227.2305
593.4583, 234.1627
595.3868, 228.4960
597.3152, 216.9722
599.2437, 199.9424
601.1722, 181.6397
603.1006, 165.2705
605.0291, 151.5295
606.9576, 141.7456
608.8860, 135.5335
610.8145, 131.2612
612.7430, 128.9246
614.6714, 127.7407
616.5999, 128.2004
618.5284, 128.6679
620.4568, 129.3218
622.3853, 129.4326
624.3138, 128.7466
626.2422, 127.5048
628.1707, 125.7410
630.0992, 123.5877
632.0276, 121.0107
633.9561, 118.2405
635.8846, 115.6141
637.8130, 113.1666
639.7415, 111.2637
641.6700, 110.0273
643.5984, 108.8736
645.5269, 107.5602
647.4554, 106.7706
649.3839, 106.7970
651.3123, 106.9102
653.2408, 107.0398
655.1693, 107.0212
657.0977, 106.3659
659.0262, 105.9817
660.9547, 106.8015
662.8831, 108.1759
664.8116, 109.0442
666.7401, 109.6145
668.6685, 110.7109
670.5970, 112.3343
672.5255, 114.1501
674.4539, 115.9459
676.3824, 118.8844
678.3109, 122.7280
680.2393, 128.8354
682.1678, 137.4666
684.0963, 148.5299
686.0247, 162.8905
687.9532, 178.3775
689.8817, 197.4080
691.8101, 213.2601
693.7386, 222.2309
695.6671, 223.5845
697.5955, 214.2612
699.5240, 196.9921
701.4525, 177.7986
703.3809, 157.3951
705.3094, 141.4139
707.2379, 129.8243
709.1663, 120.8644
711.0948, 114.5019
713.0233, 109.9503
714.9517, 107.4802
716.8802, 105.6110
718.8087, 104.0700
720.7371, 102.9128
722.6656, 102.3201
724.5941, 101.9076
726.5225, 101.5144
728.4510, 101.1797
730.3795, 101.0530
732.3079, 100.9130
734.2364, 100.4095
736.1649, 99.68040
738.0933, 98.93545
740.0218, 98.23093
741.9503, 97.85392
743.8787, 97.29547
745.8072, 96.88626
747.7357, 96.70296
749.6641, 96.29640
751.5926, 96.46677
753.5211, 96.54433
755.4495, 96.37382
757.3780, 96.26807
759.3065, 96.16492
761.2349, 96.29574
763.1634, 96.88358
765.0919, 97.52475
767.0203, 97.83587
768.9488, 98.27721
770.8773, 99.54977
772.8057, 100.8248
774.7342, 101.3379
776.6627, 101.2404
778.5911, 100.7535
780.5196, 99.88387
782.4481, 98.47351
784.3765, 96.60577
786.3050, 95.30046
788.2335, 94.61784
790.1619, 93.91602
792.0904, 93.14396
794.0189, 92.49886
795.9473, 91.95053
797.8758, 91.62549
799.8043, 91.58763
801.7327, 91.63321
803.6612, 91.75768
805.5897, 91.87918
807.5181, 91.98069
809.4466, 92.06580
811.3751, 92.26218
813.3035, 92.24447
815.2320, 91.57542
817.1605, 90.94219
819.0889, 90.87683
821.0174, 91.03820
822.9459, 91.18129
824.8743, 91.26064
826.8028, 91.16354
828.7313, 90.98376
830.6597, 90.92933
832.5882, 90.83166
834.5167, 90.87538
836.4451, 90.71827
838.3736, 90.63279
840.3021, 90.62468
842.2305, 90.86772
844.1590, 91.34887
846.0875, 91.47124
848.0159, 91.16859
849.9444, 90.78480
851.8729, 90.33451
853.8013, 89.94664
855.7298, 89.46131
857.6583, 89.62549
859.5867, 91.15866
861.5152, 92.22073
863.4437, 92.61216
865.3721, 92.26025
867.3006, 90.48209
869.2291, 88.95540
871.1575, 87.96066
873.0860, 87.85310
875.0145, 89.85474
876.9429, 91.45724
878.8714, 90.67427
880.7999, 89.26404
882.7283, 88.24062
884.6568, 87.66058
886.5853, 87.82473
888.5137, 88.23738
890.4422, 88.47728
892.3707, 88.49125
894.2991, 88.02741
896.2276, 87.39638
898.1561, 87.17241
900.0845, 87.23943
902.0130, 87.31852
903.9415, 87.41177
905.8699, 87.46436
907.7984, 87.52105
909.7269, 87.95280
911.6553, 88.25027
913.5838, 88.64510
915.5123, 89.24125
917.4407, 89.55440
919.3692, 90.15392
921.2977, 90.57327
923.2261, 90.83725
925.1546, 90.62794
927.0831, 89.77285
929.0115, 89.44866
930.9400, 89.83338
932.8685, 89.98678
934.7969, 89.77259
936.7254, 89.61529
938.6539, 89.45479
940.5823, 89.97304
942.5108, 91.26799
944.4393, 93.29860
946.3677, 95.93894
948.2962, 99.80349
950.2247, 105.1008
952.1531, 111.6565
954.0816, 120.5644
956.0101, 127.6820
957.9385, 132.4651
959.8670, 133.7613
961.7955, 130.3764
963.7239, 124.9984
965.6524, 116.9060
967.5809, 109.4434
969.5093, 103.3722
971.4378, 98.49331
973.3663, 94.83923
975.2947, 92.20352
977.2232, 90.91263
979.1517, 90.02692
981.0801, 89.29636
983.0086, 88.62529
984.9371, 87.85755
986.8655, 87.29295
988.7940, 87.28575
990.7225, 87.26524
992.6509, 86.76141
994.5794, 86.34091
996.5079, 86.31200
998.4363, 86.54040
1000.365, 87.02551
1002.293, 87.61776
1004.222, 88.07307
1006.150, 88.77048
1008.079, 90.32858
1010.007, 91.76660
1011.936, 92.36118
1013.864, 92.57897
1015.793, 92.69638
1017.721, 92.66747
1019.649, 91.90608
1021.578, 91.68938
1023.506, 92.77565
1025.435, 95.03772
1027.363, 97.68484
1029.292, 102.3715
1031.220, 110.5655
1033.149, 121.0501
1035.077, 134.8541
1037.006, 148.0855
1038.934, 160.5072
1040.863, 167.8248
1042.791, 166.0111
1044.719, 159.1178
1046.648, 147.5459
1048.576, 134.9960
1050.505, 122.1073
1052.433, 111.5627
1054.362, 105.2982
1056.290, 101.8133
1058.219, 100.8604
1060.147, 101.3714
1062.076, 103.1812
1064.004, 105.5451
1065.933, 108.9144
1067.861, 111.4424
1069.790, 112.2214
1071.718, 111.5847
1073.647, 109.1643
1075.575, 106.1589
1077.504, 102.8980
1079.432, 99.63888
1081.360, 96.46362
1083.289, 93.38766
1085.217, 90.14522
1087.146, 87.42432
1089.074, 85.53439
1091.003, 84.17219
1092.931, 83.49491
1094.860, 82.88651
1096.788, 82.21603
1098.717, 81.45686
1100.645, 80.29478
1102.574, 79.56416
1104.502, 79.69527
1106.431, 79.89188
1108.359, 80.23100
1110.287, 80.20139
1112.216, 79.34947
1114.144, 78.80632
1116.073, 78.95349
1118.001, 78.93369
1119.930, 78.50220
1121.858, 78.25950
1123.787, 78.36469
1125.715, 78.35935
1127.644, 78.14622
1129.572, 78.04612
1131.501, 78.16395
1133.429, 78.08162
1135.358, 77.70957
1137.286, 77.51078
1139.214, 77.51517
1141.143, 77.55380
1143.071, 77.64628
1145.000, 77.46215
1146.928, 77.00584
1148.857, 76.71835
1150.785, 76.58775
1152.714, 76.54832
1154.642, 76.58205
1156.571, 76.57018
1158.499, 76.57131
1160.428, 76.95418
1162.356, 76.66329
1164.285, 77.06456
1166.213, 76.35117
1168.141, 76.12025
1170.070, 76.07207
1171.998, 75.72084
1173.927, 75.33472
1175.855, 75.23283
1177.784, 75.24212
1179.712, 75.34669
1181.641, 75.30702
1183.569, 74.73274
1185.498, 74.27294
1187.426, 74.45102
1189.355, 74.62116
1191.283, 74.44807
1193.212, 74.28443
1195.140, 74.15950
1197.068, 74.22968
1198.997, 74.68370
1200.925, 74.93597
1202.854, 74.83292
1204.782, 74.72513
1206.711, 74.71030
1208.639, 74.40925
1210.568, 73.72179
1212.496, 73.44431
1214.425, 73.63564
1216.353, 74.09396
1218.282, 74.73211
1220.210, 74.79420
1222.139, 74.99010
1224.067, 74.50434
1225.995, 74.85962
1227.924, 74.77324
1229.852, 74.47948
1231.781, 74.40556
1233.709, 74.52021
1235.638, 74.93164
1237.566, 75.31770
1239.495, 75.28387
1241.423, 75.13892
1243.352, 75.18367
1245.280, 75.12641
1247.209, 74.58126
1249.137, 74.25131
1251.066, 74.54229
1252.994, 74.90069
1254.922, 75.27378
1256.851, 75.36990
1258.779, 74.98525
1260.708, 74.77512
1262.636, 74.86596
1264.565, 74.97022
1266.493, 75.10689
1268.422, 75.01889
1270.350, 74.71976
1272.279, 74.85359
1274.207, 74.74574
1276.136, 74.79061
1278.064, 74.87925
1279.993, 75.00890
1281.921, 75.34512
1283.849, 75.56349
1285.778, 75.68263
1287.706, 75.64243
1289.635, 75.63944
1291.563, 75.92836
1293.492, 76.11653
1295.420, 75.82964
1297.349, 75.88774
1299.277, 76.77925
1301.206, 77.08562
1303.134, 76.32553
1305.063, 76.21960
1306.991, 77.03082
1308.920, 77.33790
1310.848, 77.10241
1312.776, 77.44666
1314.705, 77.17900
1316.633, 77.77840
1318.562, 76.87238
1320.490, 76.73199
1322.419, 76.94975
1324.347, 76.93710
1326.276, 76.95815
1328.204, 77.37339
1330.133, 77.76498
1332.061, 77.99139
1333.990, 77.92281
1335.918, 78.09583
1337.847, 78.27647
1339.775, 77.97301
1341.703, 78.58870
1343.632, 78.30717
1345.560, 78.22031
1347.489, 78.35828
1349.417, 78.26350
1351.346, 78.00275
1353.274, 77.95937
1355.203, 78.04648
1357.131, 77.96174
1359.060, 78.00084
1360.988, 78.79282
1362.917, 79.39068
1364.845, 78.96719
1366.774, 78.47231
1368.702, 78.25845
1370.630, 78.26090
1372.559, 78.53874
1374.487, 78.73890
1376.416, 78.80577
1378.344, 78.83048
1380.273, 78.82264
1382.201, 79.14233
1384.130, 79.61195
1386.058, 79.32682
1387.987, 79.55006
1389.915, 79.03077
1391.844, 79.39964
1393.772, 79.13326
1395.701, 78.87609
1397.629, 79.10524
1399.557, 79.11246
1401.486, 78.59143
1403.414, 78.29918
1405.343, 78.38540
1407.271, 78.57157
1409.200, 78.81222
1411.128, 78.82815
1413.057, 78.92049
1414.985, 78.98861
1416.914, 78.91345
1418.842, 78.94891
1420.771, 78.89575
1422.699, 78.66369
1424.628, 78.53539
1426.556, 78.83863
1428.484, 78.95284
1430.413, 78.64995
1432.341, 78.42261
1434.270, 78.32179
1436.198, 78.21579
1438.127, 78.10735
1440.055, 78.10129
1441.984, 78.11932
1443.912, 77.97231
1445.841, 77.72041
1447.769, 77.27058
1449.698, 76.98169
1451.626, 77.33842
1453.555, 77.45092
1455.483, 76.85001
1457.411, 76.31462
1459.340, 75.92597
1461.268, 75.67424
1463.197, 75.29490
1465.125, 75.04136
1467.054, 74.80324
1468.982, 74.58885
1470.911, 74.48856
1472.839, 74.39976
1474.768, 74.35681
1476.696, 74.49139
1478.625, 74.30984
1480.553, 73.53118
1482.482, 73.00880
1484.410, 72.90107
1486.339, 72.60789
1488.267, 72.18285
1490.195, 72.06994
1492.124, 72.12877
1494.052, 72.17776
1495.981, 72.11352
1497.909, 71.67989
1499.838, 71.38572
1501.766, 71.45887
1503.695, 71.58218
1505.623, 71.71410
1507.552, 71.55013
1509.480, 71.10909
1511.409, 70.82014
1513.337, 70.65725
1515.266, 70.54905
1517.194, 70.50689
1519.122, 70.61226
1521.051, 70.68023
1522.979, 70.58999
1524.908, 70.48823
1526.836, 70.39150
1528.765, 70.37362
1530.693, 70.28839
1532.622, 70.35514
1534.550, 70.22890
1536.479, 70.21733
1538.407, 70.29012
1540.336, 70.44913
1542.264, 70.61410
1544.193, 70.70029
1546.121, 70.85803
1548.049, 70.94522
1549.978, 71.25993
1551.906, 71.04333
1553.835, 70.90192
1555.763, 70.76665
1557.692, 70.41932
1559.620, 70.05604
1561.549, 69.76270
1563.477, 69.68689
1565.406, 70.03763
1567.334, 70.13023
1569.263, 69.74918
1571.191, 69.63156
1573.120, 69.71552
1575.048, 69.70373
1576.976, 69.62717
1578.905, 69.50945
1580.833, 69.40359
1582.762, 69.32323
1584.690, 69.34880
1586.619, 69.53791
1588.547, 69.54272
1590.476, 69.32816
1592.404, 68.96875
1594.333, 68.65031
1596.261, 68.98257
1598.190, 69.34606
1600.118, 69.10771
1602.047, 68.87530
1603.975, 68.85906
1605.903, 68.62045
1607.832, 68.58033
1609.760, 68.49479
1611.689, 68.40630
1613.617, 68.26643
1615.546, 68.09200
1617.474, 67.91704
1619.403, 67.66150
1621.331, 67.42866
1623.260, 66.90135
1625.188, 66.90510
1627.117, 66.76289
1629.045, 66.46168
1630.974, 65.88395
1632.902, 65.37816
1634.830, 65.44212
1636.759, 65.48758
1638.687, 65.19678
1640.616, 64.94604
1642.544, 64.76495
1644.473, 64.59934
1646.401, 64.47617
1648.330, 64.61518
1650.258, 64.68141
1652.187, 64.21960
1654.115, 63.87517
1656.044, 64.04865
1657.972, 63.93272
1659.901, 63.43785
1661.829, 63.65995
1663.757, 64.15331
1665.686, 63.49127
1667.614, 62.88435
1669.543, 63.37434
1671.471, 63.70186
1673.400, 63.43346
1675.328, 63.25460
1677.257, 63.20351
1679.185, 62.94210
1681.114, 62.70727
1683.042, 63.15121
1684.971, 63.35347
1686.899, 62.71138
1688.828, 62.27662
1690.756, 62.25901
1692.684, 62.10865
1694.613, 61.89103
1696.541, 62.12456
1698.470, 62.24672
1700.398, 61.31092
1702.327, 60.77503
1704.255, 61.19252
1706.184, 61.13305
1708.112, 60.56979
1710.041, 60.60662
1711.969, 60.91449
1713.898, 60.96220
1715.826, 60.95238
1717.755, 61.07954
1719.683, 60.97248
1721.611, 60.57991
1723.540, 60.46531
1725.468, 60.52398
1727.397, 60.43747
1729.325, 60.28819
1731.254, 60.15816
1733.182, 59.95118
1735.111, 60.01740
1737.039, 59.60279
1738.968, 60.05011
1740.896, 60.13155
1742.825, 59.92340
1744.753, 59.31116
1746.682, 58.88543
1748.610, 58.92434
1750.538, 59.11658
1752.467, 59.41002
1754.395, 59.39201
1756.324, 59.14023
1758.252, 58.57943
1760.181, 58.24743
1762.109, 58.44594
1764.038, 58.61880
1765.966, 58.69509
1767.895, 58.72826
1769.823, 58.73893
1771.752, 58.87378
1773.680, 58.79425
1775.609, 58.33612
1777.537, 57.67475
1779.465, 56.88584
1781.394, 56.83253
1783.322, 57.12817
1785.251, 57.13243
1787.179, 56.96922
1789.108, 56.61219
1791.036, 56.51254
1792.965, 56.68837
1794.893, 56.65189
1796.822, 56.47965
1798.750, 56.31049
1800.679, 56.10483
1802.607, 55.77022
1804.536, 55.80523
1806.464, 56.15808
1808.392, 55.56966
1810.321, 54.86135
1812.249, 55.58162
1814.178, 56.10570
1816.106, 55.44173
1818.035, 55.10163
1819.963, 55.10256
1821.892, 54.95731
1823.820, 54.73324
1825.749, 54.57706
1827.677, 54.27453
1829.606, 53.49667
1831.534, 53.28354
1833.463, 53.54564
1835.391, 53.98610
1837.319, 54.11028
1839.248, 53.22642
1841.176, 52.57976
1843.105, 52.57639
1845.033, 52.81726
1846.962, 53.11818
1848.890, 52.82978
1850.819, 52.43105
1852.747, 52.16942
1854.676, 52.01397
1856.604, 51.96175
1858.533, 52.09322
1860.461, 52.17910
1862.390, 51.62043
1864.318, 51.24738
1866.246, 51.42420
1868.175, 51.36296
1870.103, 51.01711
1872.032, 50.54259
1873.960, 50.14057
1875.889, 49.94907
1877.817, 50.18667
1879.746, 50.90491
1881.674, 51.02057
1883.603, 50.68851
1885.531, 50.13383
1887.460, 49.81893
1889.388, 50.13291
1891.317, 50.17485
1893.245, 49.89217
1895.173, 49.47089
1897.102, 49.09040
1899.030, 48.99597
1900.959, 48.89537
1902.887, 48.70697
1904.816, 48.82734
1906.744, 49.07467
1908.673, 48.97947
1910.601, 48.85368
1912.530, 48.98145
1914.458, 48.76164
1916.387, 48.23838
1918.315, 48.10557
1920.244, 48.10005
1922.172, 48.02112
1924.100, 47.85331
1926.029, 47.59145
1927.957, 47.20800
1929.886, 46.83718
1931.814, 46.73204
1933.743, 46.75171
1935.671, 46.88352
1937.600, 46.95843
1939.528, 46.90852
1941.457, 46.30417
1943.385, 45.78453
1945.314, 45.78552
1947.242, 45.76023
1949.171, 45.62392
1951.099, 45.47580
1953.027, 45.32983
1954.956, 45.20091
1956.884, 45.08837
1958.813, 44.99060
1960.741, 44.88800
1962.670, 44.75796
1964.598, 44.47612
1966.527, 44.34104
1968.455, 44.45221
1970.384, 44.69220
1972.312, 44.79980
1974.241, 43.85365
1976.169, 43.11858
1978.098, 43.43409
1980.026, 43.40929
1981.954, 43.06738
1983.883, 42.94294
1985.811, 42.89838
1987.740, 42.83115
1989.668, 42.76981
1991.597, 42.70975
1993.525, 42.55388
1995.454, 42.50248
1997.382, 42.36878
1999.311, 42.08730
2001.239, 42.09408
2003.168, 41.59581
2005.096, 41.37035
2007.025, 41.39040
2008.953, 41.28619
2010.881, 40.92741
2012.810, 40.87561
2014.738, 40.96928
2016.667, 41.09082
2018.595, 40.91642
2020.524, 40.71029
2022.452, 40.07173
2024.381, 40.04887
2026.309, 39.54736
2028.238, 39.27681
2030.166, 39.48474
2032.095, 39.49200
2034.023, 39.36709
2035.952, 39.31625
2037.880, 39.16048
2039.808, 38.82438
2041.737, 38.95856
2043.665, 38.76458
2045.594, 38.95574
2047.522, 38.62447
2049.451, 38.43022
2051.379, 38.31476
2053.308, 38.21328
2055.236, 38.00225
2057.165, 37.76620
2059.093, 37.52849
2061.022, 37.34509
2062.950, 37.27303
2064.879, 37.54651
2066.807, 37.64815
2068.736, 37.42265
2070.664, 36.74799
2072.593, 36.17731
2074.521, 37.01313
2076.449, 37.28586
2078.378, 36.31551
2080.306, 35.95251
2082.235, 36.03160
2084.163, 36.40709
2086.092, 36.61432
2088.020, 36.54109
2089.949, 36.02185
2091.877, 35.45189
2093.806, 35.30276
2095.734, 35.21150
2097.663, 35.09967
2099.591, 35.10450
2101.520, 35.06530
2103.448, 34.77534
2105.376, 34.69859
2107.305, 34.84432
2109.233, 34.47837
2111.162, 34.07262
2113.090, 33.93635
2115.019, 34.04393
2116.947, 34.26444
2118.876, 34.05516
2120.804, 33.68610
2122.733, 33.27267
2124.661, 32.99113
2126.590, 32.89548
2128.518, 33.29659
2130.447, 33.42922
2132.375, 33.03290
2134.303, 32.63465
2136.232, 32.38087
2138.160, 32.53811
2140.089, 32.72206
2142.017, 32.83420
2143.946, 32.58775
2145.874, 32.32618
2147.803, 32.53758
2149.731, 32.48068
2151.660, 32.16476
2153.588, 32.21392
2155.517, 32.27069
2157.445, 32.03010
2159.374, 31.87973
2161.302, 31.76274
2163.230, 31.41866
2165.159, 31.15714
2167.087, 31.15823
2169.016, 31.02090
2170.944, 30.91287
2172.873, 31.11053
2174.801, 31.23189
2176.730, 31.19281
2178.658, 31.27176
2180.587, 30.91844
2182.515, 31.15594
2184.444, 31.15466
2186.372, 30.89761
2188.301, 30.29702
2190.229, 29.99201
2192.157, 30.25780
2194.086, 30.35755
2196.014, 30.21924
2197.943, 29.62367
2199.871, 29.25958
2201.800, 29.23721
2203.728, 29.22833
2205.657, 29.30802
2207.585, 29.19528
2209.514, 29.13126
2211.442, 29.01084
2213.371, 28.87063
2215.299, 28.75859
2217.228, 28.60163
2219.156, 28.65414
2221.084, 28.71202
2223.013, 28.47259
2224.941, 28.46974
2226.870, 28.60012
2228.798, 28.12570
2230.727, 27.84153
2232.655, 28.20437
2234.584, 28.11218
2236.512, 27.87632
2238.441, 28.08532
2240.369, 27.97637
2242.298, 27.50811
2244.226, 27.12289
2246.155, 27.00863
2248.083, 27.44023
2250.011, 27.54960
2251.940, 27.44386
2253.868, 27.28034
2255.797, 27.23249
2257.725, 27.07415
2259.654, 27.08507
2261.582, 26.86081
2263.511, 26.79458
2265.439, 26.81120
2267.368, 26.86437
2269.296, 26.97146
2271.225, 26.78744
2273.153, 26.29720
2275.082, 26.05085
2277.010, 25.97086
2278.938, 26.01990
2280.867, 25.83597
2282.795, 25.58387
2284.724, 25.53607
2286.652, 25.75123
2288.581, 25.43088
2290.509, 25.64728
2292.438, 25.15903
2294.366, 24.95386
2296.295, 25.04571
2298.223, 25.16969
2300.152, 24.90238
2302.080, 24.79472
2304.009, 24.86368
2305.937, 24.96879
2307.865, 25.00935
2309.794, 24.95430
2311.722, 24.75254
2313.651, 24.50337
2315.579, 24.23160
2317.508, 24.14980
2319.436, 24.28323
2321.365, 24.67124
2323.293, 25.28174
2325.222, 25.24407
2327.150, 25.72628
2329.079, 25.20852
2331.007, 25.05047
2332.936, 24.61284
2334.864, 24.09924
2336.792, 23.76657
2338.721, 23.75498
2340.649, 23.47606
2342.578, 23.54671
2344.506, 23.36323
2346.435, 23.58859
2348.363, 23.71563
2350.292, 23.54090
2352.220, 22.89145
2354.149, 22.80731
2356.077, 22.96022
2358.006, 22.60380
2359.934, 22.53382
2361.863, 22.70507
2363.791, 22.43550
2365.719, 22.14187
2367.648, 21.97453
2369.576, 22.22464
2371.505, 22.45460
2373.433, 22.34414
2375.362, 22.02723
2377.290, 21.70593
2379.219, 21.68968
2381.147, 21.72757
2383.076, 21.70124
2385.004, 21.24465
2386.933, 20.99979
2388.861, 21.10950
2390.790, 20.92291
2392.718, 20.84652
2394.646, 21.24689
2396.575, 21.24025
2398.503, 21.16079
2400.432, 21.43775
2402.360, 21.21376
2404.289, 20.75656
2406.217, 20.73448
2408.146, 20.64739
2410.074, 20.46112
2412.003, 20.56875
2413.931, 20.56945
2415.860, 20.34718
2417.788, 20.51449
2419.717, 20.62059
2421.645, 20.41035
2423.573, 20.59539
2425.502, 20.76954
2427.430, 20.46117
2429.359, 20.25895
2431.287, 20.16870
2433.216, 20.22580
2435.144, 19.76699
2437.073, 19.74666
2439.001, 19.39104
2440.930, 19.47946
2442.858, 19.12477
2444.787, 19.13983
2446.715, 19.24293
2448.644, 19.30612
2450.572, 19.37020
2452.500, 19.41908
2454.429, 19.47142
2456.357, 19.22491
2458.286, 18.93746
2460.214, 18.90969
2462.143, 18.95646
2464.071, 19.01578
2466.000, 19.06472
2467.928, 18.86818
2469.857, 18.54686
2471.785, 18.50290
2473.714, 18.42099
2475.642, 18.27856
2477.571, 18.39686
2479.499, 18.49558
2481.427, 18.47968
2483.356, 18.25733
2485.284, 18.05040
2487.213, 17.95653
2489.141, 17.83118
2491.070, 17.68743
2492.998, 17.53521
2494.927, 17.50642
2496.855, 17.57785
2498.784, 17.76116
2500.712, 17.43895
2502.641, 17.11095
2504.569, 17.54209
2506.498, 17.33946
2508.426, 16.86776
2510.354, 16.94523
2512.283, 17.16685
2514.211, 17.33214
2516.140, 17.05836
2518.068, 16.85450
2519.997, 16.81417
2521.925, 16.66622
2523.854, 16.62150
2525.782, 16.61370
2527.711, 16.60736
2529.639, 16.71726
2531.568, 16.82276
2533.496, 16.49449
2535.425, 16.32309
2537.353, 16.46419
2539.281, 16.17290
2541.210, 16.10398
2543.138, 16.50843
2545.067, 16.29088
2546.995, 16.27059
2548.924, 16.86705
2550.852, 17.15671
2552.781, 17.24059
2554.709, 17.17770
2556.638, 17.06982
2558.566, 17.00726
2560.495, 17.03462
2562.423, 17.12027
2564.352, 17.09893
2566.280, 16.87979
2568.208, 16.52961
2570.137, 16.24741
2572.065, 16.16815
2573.994, 15.97473
2575.922, 15.78342
2577.851, 15.70394
2579.779, 15.55368
2581.708, 15.40002
2583.636, 15.32215
2585.565, 15.11404
2587.493, 14.87185
2589.422, 14.66654
2591.350, 14.67265
2593.279, 14.71507
2595.207, 14.63054
2597.135, 14.38121
2599.064, 14.17636
2600.992, 14.22785
2602.921, 14.10795
2604.849, 13.99968
2606.778, 14.14918
2608.706, 13.96773
2610.635, 14.05898
2612.563, 14.44723
2614.492, 14.04123
2616.420, 13.56387
2618.349, 13.61004
2620.277, 13.71373
2622.206, 13.77932
2624.134, 13.76680
2626.063, 13.53234
2627.991, 13.45767
2629.919, 13.76013
2631.848, 13.46035
2633.776, 13.52447
2635.705, 13.49741
2637.633, 13.34963
2639.562, 13.37682
2641.490, 13.21903
2643.419, 13.14321
2645.347, 13.17198
2647.276, 13.28355
2649.204, 13.04580
2651.133, 12.79731
2653.061, 12.69207
2654.990, 12.91234
2656.918, 13.00923
2658.846, 12.88921
2660.775, 12.91892
2662.703, 12.85235
2664.632, 12.66252
2666.560, 12.48563
2668.489, 12.52114
2670.417, 12.66537
2672.346, 12.31776
2674.274, 12.49588
2676.203, 12.29634
2678.131, 12.53988
2680.060, 12.12162
2681.988, 11.89941
2683.917, 12.07508
2685.845, 12.16141
2687.773, 12.07992
2689.702, 12.17102
2691.630, 12.10116
2693.559, 12.10897
2695.487, 11.94952
2697.416, 11.77290
2699.344, 11.62150
2701.273, 11.50469
2703.201, 11.44570
2705.130, 11.47023
2707.058, 11.56757
2708.987, 11.56863
2710.915, 11.58571
2712.844, 11.62233
2714.772, 11.58501
2716.700, 11.57107
2718.629, 11.47142
2720.557, 11.42301
2722.486, 11.25705
2724.414, 11.03182
2726.343, 10.78839
2728.271, 10.82324
2730.200, 10.91905
2732.128, 10.70275
2734.057, 10.64712
2735.985, 10.61424
2737.914, 10.42225
2739.842, 10.55683
2741.771, 10.59638
2743.699, 10.28777
2745.627, 10.07727
2747.556, 10.11822
2749.484, 10.37841
2751.413, 10.29028
2753.341, 10.11617
2755.270, 9.954939
2757.198, 9.913717
2759.127, 9.895320
2761.055, 9.855237
2762.984, 9.842983
2764.912, 9.744982
2766.841, 9.793293
2768.769, 9.799975
2770.698, 9.721191
2772.626, 9.579198
2774.554, 9.414836
2776.483, 9.414510
2778.411, 9.513186
2780.340, 9.618217
2782.268, 9.518447
2784.197, 9.602844
2786.125, 9.627200
2788.054, 9.563787
2789.982, 9.621433
2791.911, 9.487676
2793.839, 9.286667
2795.768, 9.427778
2797.696, 9.404740
2799.625, 8.984948
2801.553, 9.403154
2803.481, 9.402487
2805.410, 8.926751
2807.338, 8.971221
2809.267, 8.899465
2811.195, 8.742590
2813.124, 8.685972
2815.052, 8.470921
2816.981, 8.456352
2818.909, 8.426944
2820.838, 8.586486
2822.766, 8.404206
2824.695, 8.495584
2826.623, 8.375674
2828.552, 8.411311
2830.480, 8.563143
2832.408, 8.638294
2834.337, 8.589988
2836.265, 8.581339
2838.194, 8.741610
2840.122, 8.636075
2842.051, 8.708388
2843.979, 8.984631
2845.908, 8.686037
2847.836, 8.608079
2849.765, 8.735639
2851.693, 8.777593
2853.622, 8.604036
2855.550, 8.451841
2857.479, 8.545798
2859.407, 8.675688
2861.335, 8.473054
2863.264, 8.028476
2865.192, 8.495344
2867.121, 8.727712
2869.049, 8.545124
2870.978, 7.928940
2872.906, 7.993002
2874.835, 8.132378
2876.763, 7.960286
2878.692, 8.270400
2880.620, 8.352847
2882.549, 8.163532
2884.477, 8.143975
2886.406, 8.169831
2888.334, 8.089357
2890.262, 7.799361
2892.191, 7.881539
2894.119, 7.865570
2896.048, 7.696266
2897.976, 8.010289
2899.905, 8.029840
2901.833, 7.829529
2903.762, 7.702981
2905.690, 7.528966
2907.619, 7.467504
2909.547, 7.565338
2911.476, 7.556405
2913.404, 7.469246
2915.333, 7.313563
2917.261, 7.332277
2919.189, 7.106183
2921.118, 7.223807
2923.046, 7.139024
2924.975, 6.929708
2926.903, 6.982262
2928.832, 7.159739
2930.760, 6.992988
2932.689, 6.939046
2934.617, 6.873606
2936.546, 6.697979
2938.474, 6.671174
2940.403, 6.725442
2942.331, 6.772418
2944.260, 6.673269
2946.188, 6.482869
2948.116, 6.405842
2950.045, 6.533623
2951.973, 6.684096
2953.902, 6.517711
2955.830, 6.178270
2957.759, 6.065942
2959.687, 5.963602
2961.616, 5.866964
2963.544, 5.910837
2965.473, 5.859542
2967.401, 5.916592
2969.330, 5.968390
2971.258, 6.006288
2973.187, 6.085365
2975.115, 5.988820
2977.043, 6.023036
2978.972, 5.788835
2980.900, 5.867363
2982.829, 5.783056
2984.757, 5.463976
2986.686, 5.245177
2988.614, 5.271514
2990.543, 5.455086
2992.471, 5.333290
2994.400, 5.297027
2996.328, 5.332726
2998.257, 5.375201
3000.185, 5.285851
3002.114, 5.155955
3004.042, 5.109888
3005.970, 5.335868
3007.899, 5.445548
3009.827, 5.422300
3011.756, 5.326869
3013.684, 5.399153
3015.613, 5.238096
3017.541, 5.044126
3019.470, 5.089388
3021.398, 4.947787
3023.327, 4.939010
3025.255, 5.031299
3027.184, 4.965831
3029.112, 4.666644
3031.041, 4.563758
3032.969, 4.820295
3034.897, 4.710318
3036.826, 4.918892
3038.754, 5.184307
3040.683, 5.123352
3042.611, 4.789194
3044.540, 4.762282
3046.468, 4.888795
3048.397, 4.533927
3050.325, 4.567572
3052.254, 4.586433
3054.182, 4.430317
3056.111, 4.502931
3058.039, 4.506547
3059.968, 4.457517
3061.896, 4.429869
3063.824, 4.778983
3065.753, 4.591032
3067.681, 4.703403
3069.610, 4.634093
3071.538, 4.681107
3073.467, 4.608826
3075.395, 4.503407
3077.324, 4.349479
3079.252, 4.111365
3081.181, 4.120773
3083.109, 4.371969
3085.038, 4.181077
3086.966, 4.181349
3088.895, 4.227898
3090.823, 4.166505
3092.751, 4.347111
3094.680, 4.117964
3096.608, 3.904722
3098.537, 4.251445
3100.465, 4.032320
3102.394, 3.977741
3104.322, 4.118911
3106.251, 4.218840
3108.179, 4.060674
3110.108, 3.961162
3112.036, 3.932889
3113.965, 3.755181
3115.893, 3.879307
3117.822, 3.930972
3119.750, 3.828113
3121.678, 3.856096
3123.607, 3.864884
3125.535, 3.906026
3127.464, 3.984398
3129.392, 4.021302
3131.321, 3.949130
3133.249, 3.906789
3135.178, 3.931564
3137.106, 3.680336
3139.035, 3.705164
3140.963, 3.911879
3142.892, 4.107542
3144.820, 3.674945
3146.749, 3.595834
3148.677, 3.729923
3150.605, 3.803301
3152.534, 3.840731
3154.462, 3.778381
3156.391, 3.707461
3158.319, 3.714013
3160.248, 3.712700
3162.176, 3.727615
3164.105, 3.656677
3166.033, 3.438712
3167.962, 3.489555
3169.890, 3.513208
3171.819, 3.529905
3173.747, 3.613365
3175.676, 3.595254
3177.604, 3.523563
3179.532, 3.389716
3181.461, 3.217726
3183.389, 3.529214
3185.318, 3.705086
3187.246, 3.561381
3189.175, 3.131787
3191.103, 3.347225
3193.032, 3.247115
3194.960, 3.069499
3196.889, 3.219167
3198.817, 3.438398
3200.746, 3.301984
3202.674, 3.132136
3204.603, 3.227090
3206.531, 3.021850
3208.459, 3.080086
3210.388, 3.118368
3212.316, 2.933203
3214.245, 3.109678
3216.173, 3.091264
3218.102, 3.111001
3220.030, 3.250182
3221.959, 2.931471
3223.887, 2.876423
3225.816, 2.909133
3227.744, 2.969590
3229.673, 2.976567
3231.601, 3.005824
3233.530, 3.134870
3235.458, 2.994247
3237.386, 3.211671
3239.315, 3.134946
3241.243, 3.078427
3243.172, 3.091521
3245.100, 3.063409
3247.029, 2.974426
3248.957, 3.010974
3250.886, 3.014115
3252.814, 2.740174
3254.743, 2.822290
3256.671, 2.920312
3258.600, 3.018096
3260.528, 3.121767
3262.457, 2.889383
3264.385, 2.776135
3266.313, 2.868231
3268.242, 3.067914
3270.170, 3.050746
3272.099, 2.919802
3274.027, 2.866362
3275.956, 2.893461
3277.884, 2.867837
3279.813, 2.837533
3281.741, 2.854746
3283.670, 2.812585
3285.598, 2.850354
3287.527, 2.919675
3289.455, 2.899382
3291.384, 2.884744
3293.312, 2.913617
3295.240, 2.717580
3297.169, 2.955358
3299.097, 3.041726
3301.026, 2.874826
3302.954, 2.897242
3304.883, 3.168802
3306.811, 3.109596
3308.740, 2.936818
3310.668, 3.061311
3312.597, 2.918908
3314.525, 2.915868
3316.454, 3.054333
3318.382, 3.182245
3320.311, 2.950130
3322.239, 3.075397
3324.167, 2.743150
3326.096, 3.074640
3328.024, 3.096584
3329.953, 3.148017
3331.881, 3.286861
3333.810, 3.234303
3335.738, 3.236425
3337.667, 3.228132
3339.595, 3.075744
3341.524, 3.072959
3343.452, 2.896671
3345.381, 2.673932
3347.309, 2.708988
3349.238, 3.042241
3351.166, 2.674927
3353.094, 2.761167
3355.023, 2.736195
3356.951, 2.649148
3358.880, 2.962260
3360.808, 3.415566
3362.737, 3.240799
3364.665, 3.133623
3366.594, 3.062614
3368.522, 3.025291
3370.451, 3.050126
3372.379, 3.025918
3374.308, 3.008845
3376.236, 3.013150
3378.165, 2.977154
3380.093, 2.889366
3382.021, 2.884744
3383.950, 2.975408
3385.878, 2.880638
3387.807, 2.827411
3389.735, 2.808037
3391.664, 2.647913
3393.592, 2.842112
3395.521, 2.732714
3397.449, 2.956168
3399.378, 2.741919
3401.306, 2.846848
3403.235, 2.962016
3405.163, 3.050032
3407.092, 3.261709
3409.020, 3.125765
3410.948, 3.368837
3412.877, 3.699836
3414.805, 3.840576
3416.734, 3.737807
3418.662, 3.590287
3420.591, 3.409596
3422.519, 3.321722
3424.448, 3.213397
3426.376, 3.141538
3428.305, 3.123299
3430.233, 3.056041
3432.162, 3.143737
3434.090, 3.128198
3436.019, 3.034427
3437.947, 2.866481
3439.875, 2.836509
3441.804, 2.643478
3443.732, 2.555489
3445.661, 2.906285
3447.589, 2.959023
3449.518, 2.956730
3451.446, 2.972613
##END=



