##NAMES=Yvonite
##RRUFFID=R100010
##IDEAL CHEMISTRY=Cu(AsO_3_OH)·2H_2_O
##LOCALITY=Salsigne Gold mine, Aude, France
##OWNER=RRUFF
##SOURCE=William Pinch
##DESCRIPTION=Aggregates of pale blue grains
##STATUS=The identification of this mineral has been confirmed by single-crystal X-ray diffraction
##URL=https://www.rruff.net/odr/rruff_sample/R100010
##DIFFRACTION SAMPLE DESCRIPTION=Single crystal, powder profile is calculated
##CELL PARAMETERS=a: 7.663 b: 11.203 c: 6.05 alpha: 89.34 beta: 86.58 gamma: 74.37 volume: 499.3 crystal system: triclinic
##FILETYPE=Raman Processed
##RAMAN WAVELENGTH=532

188.6472, 352.1238
190.5757, 348.3769
192.5041, 346.3902
194.4326, 347.7137
196.3611, 348.5185
198.2895, 347.8664
200.2180, 345.6624
202.1465, 343.0414
204.0749, 339.3675
206.0034, 335.7292
207.9319, 332.9129
209.8603, 330.6991
211.7888, 329.4552
213.7172, 329.8496
215.6457, 331.3511
217.5742, 332.5609
219.5026, 333.1901
221.4311, 333.7061
223.3596, 334.2261
225.2880, 335.0978
227.2165, 335.2262
229.1450, 334.2002
231.0734, 332.0659
233.0019, 328.9700
234.9304, 323.9640
236.8588, 318.7892
238.7873, 314.6616
240.7158, 311.2765
242.6442, 309.5527
244.5727, 310.7598
246.5012, 314.3234
248.4296, 315.9326
250.3581, 314.1591
252.2866, 311.7651
254.2150, 310.1015
256.1435, 309.5100
258.0720, 308.9500
260.0005, 307.8005
261.9289, 306.4297
263.8574, 306.0455
265.7859, 307.1854
267.7143, 308.9873
269.6428, 310.6029
271.5713, 311.6378
273.4997, 312.9786
275.4282, 315.2360
277.3567, 318.0693
279.2851, 320.6353
281.2136, 323.0488
283.1421, 324.5605
285.0705, 324.9059
286.9990, 324.1604
288.9275, 324.5332
290.8559, 326.7058
292.7844, 329.0322
294.7129, 330.6652
296.6413, 331.2035
298.5698, 331.9046
300.4983, 332.5043
302.4267, 332.7923
304.3552, 332.7687
306.2837, 332.1801
308.2121, 331.9606
310.1406, 332.8480
312.0691, 335.7268
313.9975, 337.8144
315.9260, 337.8257
317.8545, 336.8233
319.7829, 336.8333
321.7114, 338.9557
323.6399, 341.1378
325.5683, 342.3118
327.4968, 342.3345
329.4253, 342.7617
331.3537, 344.6701
333.2822, 347.3116
335.2106, 349.7213
337.1391, 352.2015
339.0676, 353.7636
340.9960, 354.2430
342.9245, 353.9369
344.8530, 353.3331
346.7814, 351.6876
348.7099, 350.1539
350.6384, 349.3576
352.5668, 349.5262
354.4953, 348.8088
356.4238, 346.9181
358.3522, 344.4456
360.2807, 342.3366
362.2092, 341.0614
364.1376, 339.7285
366.0661, 337.5500
367.9946, 334.4407
369.9230, 331.1668
371.8515, 327.6215
373.7800, 324.5014
375.7084, 322.5718
377.6369, 322.7961
379.5654, 323.0876
381.4938, 323.2401
383.4223, 323.2505
385.3508, 323.0836
387.2792, 322.3183
389.2077, 321.4545
391.1362, 320.3875
393.0646, 318.9544
394.9931, 317.7457
396.9216, 317.7744
398.8500, 317.9814
400.7785, 317.3065
402.7070, 313.8358
404.6354, 311.4487
406.5639, 310.9205
408.4924, 311.4652
410.4208, 311.2274
412.3493, 310.4659
414.2778, 310.1224
416.2062, 310.0770
418.1347, 309.6606
420.0632, 308.9792
421.9916, 308.5305
423.9201, 308.5936
425.8486, 309.3077
427.7770, 311.2624
429.7055, 312.5883
431.6340, 312.2703
433.5624, 310.8730
435.4909, 310.8541
437.4194, 312.7372
439.3478, 314.9881
441.2763, 317.0111
443.2048, 318.8909
445.1332, 320.6751
447.0617, 321.8133
448.9902, 322.6396
450.9186, 323.6840
452.8471, 325.4095
454.7756, 326.6675
456.7040, 326.7863
458.6325, 326.2762
460.5610, 326.7658
462.4894, 328.4969
464.4179, 330.5912
466.3464, 333.1776
468.2748, 336.4015
470.2033, 339.4553
472.1318, 341.0006
474.0602, 342.2587
475.9887, 344.1457
477.9172, 347.2220
479.8456, 350.3996
481.7741, 353.4570
483.7026, 356.3850
485.6310, 359.1540
487.5595, 362.2330
489.4880, 365.0519
491.4164, 366.8885
493.3449, 367.8994
495.2734, 369.6796
497.2018, 373.8528
499.1303, 378.2352
501.0588, 381.5413
502.9872, 382.3907
504.9157, 384.3954
506.8442, 388.9753
508.7726, 394.2384
510.7011, 398.2578
512.6296, 400.3941
514.5580, 403.9510
516.4865, 410.2648
518.4150, 417.8976
520.3434, 423.8861
522.2719, 427.7581
524.2004, 431.9614
526.1288, 436.9290
528.0573, 442.8145
529.9858, 450.6543
531.9142, 462.1538
533.8427, 474.0024
535.7712, 485.0692
537.6996, 495.3744
539.6281, 505.5646
541.5566, 515.4811
543.4850, 524.1034
545.4135, 531.6035
547.3420, 537.0431
549.2704, 539.1953
551.1989, 538.1282
553.1274, 533.9671
555.0558, 526.7615
556.9843, 516.3719
558.9128, 503.7060
560.8412, 488.4551
562.7697, 472.5406
564.6982, 457.9554
566.6266, 444.9728
568.5551, 432.9380
570.4836, 421.9430
572.4120, 411.2109
574.3405, 400.6371
576.2690, 390.8109
578.1974, 381.5729
580.1259, 372.6364
582.0544, 363.5800
583.9828, 355.8451
585.9113, 350.2376
587.8398, 344.9733
589.7682, 338.7830
591.6967, 331.5748
593.6252, 326.3006
595.5536, 323.6548
597.4821, 322.1389
599.4106, 320.4479
601.3391, 318.8648
603.2675, 317.4990
605.1960, 315.9066
607.1245, 315.0423
609.0529, 313.1829
610.9814, 311.8395
612.9099, 310.9821
614.8383, 310.6905
616.7668, 310.3714
618.6953, 310.2285
620.6237, 310.6377
622.5522, 310.8858
624.4807, 310.5638
626.4091, 309.5394
628.3376, 308.6956
630.2661, 308.2385
632.1945, 308.0927
634.1230, 308.2254
636.0515, 308.2448
637.9799, 308.4242
639.9084, 309.0998
641.8369, 309.7906
643.7653, 309.9151
645.6938, 309.9516
647.6223, 310.2163
649.5507, 310.7158
651.4792, 310.9365
653.4077, 311.1302
655.3361, 311.5810
657.2646, 311.8683
659.1931, 311.5866
661.1215, 311.4453
663.0500, 312.1749
664.9785, 313.8588
666.9069, 315.0989
668.8354, 314.9070
670.7639, 314.5456
672.6923, 315.2311
674.6208, 317.9417
676.5493, 319.9263
678.4777, 320.0562
680.4062, 319.4950
682.3347, 320.2577
684.2631, 322.8163
686.1916, 325.5617
688.1201, 328.1151
690.0485, 330.7316
691.9770, 333.2841
693.9055, 335.1992
695.8339, 337.5858
697.7624, 340.9974
699.6909, 345.3231
701.6193, 349.5751
703.5478, 353.0692
705.4763, 357.2222
707.4047, 362.5998
709.3332, 369.1655
711.2617, 376.2687
713.1901, 384.3949
715.1186, 392.4262
717.0471, 399.9282
718.9755, 407.0071
720.9040, 413.6972
722.8325, 420.6931
724.7609, 426.5625
726.6894, 430.9453
728.6179, 433.8297
730.5463, 435.3853
732.4748, 435.3618
734.4033, 434.2699
736.3317, 432.1803
738.2602, 429.1115
740.1887, 425.8770
742.1171, 422.1392
744.0456, 418.6141
745.9741, 415.5014
747.9025, 412.6742
749.8310, 410.6971
751.7595, 409.5872
753.6879, 409.4249
755.6164, 410.3151
757.5449, 412.3878
759.4733, 414.6927
761.4018, 416.7829
763.3303, 419.3553
765.2587, 423.0160
767.1872, 427.9013
769.1157, 432.7955
771.0441, 437.0265
772.9726, 441.8067
774.9011, 448.0199
776.8295, 456.0632
778.7580, 463.0472
780.6865, 468.1180
782.6149, 472.5294
784.5434, 477.5581
786.4719, 483.6178
788.4003, 488.6244
790.3288, 491.0618
792.2573, 493.6808
794.1857, 498.4858
796.1142, 506.0198
798.0427, 512.5969
799.9711, 517.1777
801.8996, 521.7114
803.8281, 527.3480
805.7565, 534.9460
807.6850, 542.6016
809.6135, 549.3883
811.5419, 556.1475
813.4704, 564.2994
815.3989, 574.3702
817.3273, 585.3570
819.2558, 595.9514
821.1843, 607.3826
823.1127, 620.9207
825.0412, 637.3521
826.9697, 655.6489
828.8981, 675.4891
830.8266, 696.6843
832.7551, 720.4919
834.6835, 747.0966
836.6120, 774.2310
838.5405, 801.5975
840.4689, 829.3945
842.3974, 857.4268
844.3259, 886.7767
846.2543, 916.8104
848.1828, 948.1280
850.1113, 979.2214
852.0397, 1010.555
853.9682, 1041.781
855.8967, 1067.272
857.8251, 1088.234
859.7536, 1101.420
861.6821, 1103.631
863.6105, 1095.311
865.5390, 1078.149
867.4675, 1049.279
869.3959, 1014.538
871.3244, 978.4628
873.2529, 940.5553
875.1813, 905.2582
877.1098, 873.2292
879.0383, 846.2185
880.9667, 823.3080
882.8952, 803.0248
884.8237, 787.0007
886.7521, 776.3731
888.6806, 767.1852
890.6091, 756.3616
892.5375, 746.5033
894.4660, 737.0230
896.3945, 728.3884
898.3229, 718.0851
900.2514, 705.3819
902.1799, 690.7598
904.1083, 675.0039
906.0368, 657.8906
907.9653, 640.3936
909.8937, 623.0340
911.8222, 605.7759
913.7507, 589.0840
915.6791, 572.9021
917.6076, 557.2894
919.5361, 542.2108
921.4645, 527.3770
923.3930, 513.5613
925.3215, 501.7275
927.2499, 490.6792
929.1784, 479.8541
931.1069, 468.9051
933.0353, 457.6409
934.9638, 446.2932
936.8923, 435.8105
938.8207, 426.7180
940.7492, 418.3974
942.6777, 410.1874
944.6061, 402.4728
946.5346, 396.1592
948.4631, 390.9704
950.3915, 385.4449
952.3200, 381.1911
954.2485, 376.2672
956.1769, 373.6108
958.1054, 370.8166
960.0339, 367.5245
961.9623, 364.7552
963.8908, 362.2715
965.8193, 360.6115
967.7477, 360.2912
969.6762, 360.0923
971.6047, 358.7945
973.5331, 356.3612
975.4616, 353.9240
977.3901, 352.0561
979.3185, 351.0512
981.2470, 351.0655
983.1755, 351.0061
985.1039, 350.6227
987.0324, 349.9311
988.9609, 349.1104
990.8893, 348.2670
992.8178, 347.4116
994.7463, 346.3946
996.6747, 345.7699
998.6032, 345.0526
1000.532, 343.8133
1002.460, 343.7715
1004.389, 342.5022
1006.317, 343.3696
1008.246, 343.4406
1010.174, 343.1714
1012.102, 343.5273
1014.031, 344.5160
1015.959, 345.0238
1017.888, 344.0524
1019.816, 342.0714
1021.745, 340.6446
1023.673, 340.8173
1025.602, 341.8629
1027.530, 342.9257
1029.459, 344.4140
1031.387, 345.6480
1033.316, 345.7137
1035.244, 343.9298
1037.172, 342.1137
1039.101, 341.7176
1041.029, 342.4628
1042.958, 343.9257
1044.886, 345.4878
1046.815, 346.0355
1048.743, 344.4376
1050.672, 342.4095
1052.600, 341.7535
1054.529, 342.6007
1056.457, 343.4928
1058.386, 342.4396
1060.314, 341.0771
1062.243, 341.0094
1064.171, 340.1347
1066.099, 339.4603
1068.028, 339.6059
1069.956, 338.7423
1071.885, 339.1796
1073.813, 340.0195
1075.742, 340.6219
1077.670, 340.8910
1079.599, 340.9974
1081.527, 341.8276
1083.456, 343.1336
1085.384, 344.1158
1087.313, 344.4087
1089.241, 344.4018
1091.170, 344.7568
1093.098, 345.9273
1095.026, 347.1430
1096.955, 347.0364
1098.883, 345.8302
1100.812, 344.5638
1102.740, 344.7196
1104.669, 344.8741
1106.597, 344.6110
1108.526, 344.5083
1110.454, 344.8110
1112.383, 344.8228
1114.311, 344.6179
1116.240, 345.4249
1118.168, 346.7375
1120.097, 347.6683
1122.025, 347.7859
1123.953, 347.6816
1125.882, 347.9617
1127.810, 348.0741
1129.739, 347.9218
1131.667, 347.5002
1133.596, 346.8076
1135.524, 346.5487
1137.453, 347.1810
1139.381, 347.6854
1141.310, 348.0117
1143.238, 348.0668
1145.167, 348.1326
1147.095, 348.4587
1149.024, 349.0714
1150.952, 349.5131
1152.880, 350.0625
1154.809, 350.3847
1156.737, 350.1584
1158.666, 349.7985
1160.594, 349.9928
1162.523, 350.2632
1164.451, 350.5901
1166.380, 350.9427
1168.308, 351.3561
1170.237, 351.8456
1172.165, 352.6859
1174.094, 353.6743
1176.022, 354.4663
1177.951, 355.1479
1179.879, 356.2181
1181.807, 357.1443
1183.736, 356.4430
1185.664, 354.8058
1187.593, 354.4357
1189.521, 355.6593
1191.450, 356.8791
1193.378, 357.6807
1195.307, 357.8532
1197.235, 357.9600
1199.164, 358.5883
1201.092, 358.9628
1203.021, 358.7549
1204.949, 358.1939
1206.878, 357.3716
1208.806, 356.6188
1210.734, 356.5750
1212.663, 357.6870
1214.591, 358.9037
1216.520, 360.2902
1218.448, 360.5204
1220.377, 359.3705
1222.305, 358.2985
1224.234, 358.5747
1226.162, 360.2468
1228.091, 361.2981
1230.019, 361.1199
1231.948, 361.0222
1233.876, 361.5461
1235.805, 362.7029
1237.733, 363.4843
1239.661, 363.4068
1241.590, 363.3536
1243.518, 364.2087
1245.447, 365.5036
1247.375, 366.1743
1249.304, 365.9633
1251.232, 365.4616
1253.161, 364.0040
1255.089, 362.9648
1257.018, 363.0646
1258.946, 364.0504
1260.875, 365.3743
1262.803, 367.3946
1264.732, 368.9179
1266.660, 369.3642
1268.589, 369.3174
1270.517, 369.1436
1272.445, 368.8309
1274.374, 369.1590
1276.302, 370.7310
1278.231, 372.3346
1280.159, 373.6583
1282.088, 374.4956
1284.016, 374.5536
1285.945, 373.2758
1287.873, 372.4887
1289.802, 372.2836
1291.730, 372.4988
1293.659, 373.3912
1295.587, 374.6139
1297.516, 375.0765
1299.444, 374.1495
1301.372, 373.9459
1303.301, 375.7557
1305.229, 377.8141
1307.158, 378.1605
1309.086, 376.9572
1311.015, 376.6078
1312.943, 377.8485
1314.872, 379.2326
1316.800, 380.3828
1318.729, 381.1314
1320.657, 381.2852
1322.586, 380.7287
1324.514, 380.3164
1326.443, 380.0392
1328.371, 380.0135
1330.299, 380.4234
1332.228, 381.1011
1334.156, 381.6241
1336.085, 381.7882
1338.013, 382.1147
1339.942, 382.3839
1341.870, 382.9873
1343.799, 384.4641
1345.727, 386.5289
1347.656, 388.0197
1349.584, 389.1140
1351.513, 389.1530
1353.441, 386.8725
1355.370, 384.4034
1357.298, 383.3246
1359.226, 383.4698
1361.155, 384.1047
1363.083, 385.6206
1365.012, 386.5289
1366.940, 385.6680
1368.869, 384.6972
1370.797, 384.9618
1372.726, 386.3786
1374.654, 387.3291
1376.583, 386.9474
1378.511, 387.2066
1380.440, 389.2486
1382.368, 391.4857
1384.297, 391.9449
1386.225, 390.1423
1388.153, 389.4752
1390.082, 390.8755
1392.010, 392.1430
1393.939, 392.2278
1395.867, 392.0281
1397.796, 393.2086
1399.724, 395.8695
1401.653, 396.8055
1403.581, 394.4745
1405.510, 392.1437
1407.438, 391.2342
1409.367, 391.4013
1411.295, 391.6433
1413.224, 391.6744
1415.152, 392.4478
1417.080, 395.1056
1419.009, 397.3647
1420.937, 397.6030
1422.866, 396.5952
1424.794, 396.3877
1426.723, 397.2308
1428.651, 397.8114
1430.580, 398.4237
1432.508, 398.3770
1434.437, 396.3915
1436.365, 393.8136
1438.294, 393.5011
1440.222, 396.5359
1442.151, 398.2207
1444.079, 397.7416
1446.007, 397.2706
1447.936, 397.3267
1449.864, 397.7101
1451.793, 398.7273
1453.721, 401.4818
1455.650, 403.0418
1457.578, 402.1530
1459.507, 400.8992
1461.435, 400.0829
1463.364, 399.6850
1465.292, 399.3447
1467.221, 399.0616
1469.149, 399.8092
1471.078, 402.7712
1473.006, 404.8015
1474.934, 403.4616
1476.863, 401.2178
1478.791, 400.7533
1480.720, 401.7719
1482.648, 403.1274
1484.577, 405.1529
1486.505, 406.3546
1488.434, 405.6826
1490.362, 404.7179
1492.291, 404.5361
1494.219, 404.8710
1496.148, 405.7051
1498.076, 407.3119
1500.005, 408.6712
1501.933, 409.4484
1503.861, 410.0165
1505.790, 410.5936
1507.718, 411.0999
1509.647, 411.5313
1511.575, 411.5940
1513.504, 412.1307
1515.432, 413.6657
1517.361, 415.3824
1519.289, 416.8903
1521.218, 418.1486
1523.146, 418.8448
1525.075, 418.9015
1527.003, 418.4685
1528.932, 416.6744
1530.860, 415.4692
1532.788, 416.1855
1534.717, 417.9646
1536.645, 419.0798
1538.574, 419.4965
1540.502, 420.3009
1542.431, 421.9882
1544.359, 423.4434
1546.288, 424.2235
1548.216, 424.5560
1550.145, 424.6194
1552.073, 424.4564
1554.002, 424.8042
1555.930, 426.0934
1557.859, 427.4478
1559.787, 429.0871
1561.715, 429.8426
1563.644, 427.7899
1565.572, 424.0936
1567.501, 423.1067
1569.429, 425.9761
1571.358, 427.7881
1573.286, 426.0689
1575.215, 424.2390
1577.143, 425.1762
1579.072, 424.5802
1581.000, 427.9726
1582.929, 429.8013
1584.857, 430.1498
1586.786, 424.6189
1588.714, 426.6537
1590.642, 425.6405
1592.571, 424.4911
1594.499, 427.5579
1596.428, 422.8229
1598.356, 425.7997
1600.285, 425.6819
1602.213, 426.9637
1604.142, 425.1786
1606.070, 424.3258
1607.999, 426.5177
1609.927, 427.0059
1611.856, 424.8231
1613.784, 426.1256
1615.713, 421.1690
1617.641, 421.6833
1619.569, 424.5516
1621.498, 422.4648
1623.426, 423.7658
1625.355, 423.7606
1627.283, 422.4707
1629.212, 422.1809
1631.140, 421.1211
1633.069, 422.2563
1634.997, 423.0310
1636.926, 423.2050
1638.854, 422.1546
1640.783, 420.5183
1642.711, 420.0029
1644.640, 421.3254
1646.568, 421.0352
1648.496, 416.7066
1650.425, 413.8320
1652.353, 414.7036
1654.282, 416.6282
1656.210, 417.4611
1658.139, 417.2643
1660.067, 416.3491
1661.996, 414.1043
1663.924, 412.4649
1665.853, 411.4061
1667.781, 411.0645
1669.710, 411.8578
1671.638, 413.1787
1673.567, 414.3610
1675.495, 415.4339
1677.423, 415.7408
1679.352, 414.5356
1681.280, 413.6560
1683.209, 412.9414
1685.137, 412.8847
1687.066, 414.6702
1688.994, 416.9618
1690.923, 416.7189
1692.851, 413.0602
1694.780, 411.1382
1696.708, 411.9973
1698.637, 413.2024
1700.565, 415.5670
1702.494, 417.1271
1704.422, 415.4685
1706.350, 412.0612
1708.279, 411.2334
1710.207, 413.9976
1712.136, 416.0468
1714.064, 417.5544
1715.993, 417.9051
1717.921, 415.6825
1719.850, 413.3421
1721.778, 413.1824
1723.707, 414.6432
1725.635, 415.5214
1727.564, 415.7520
1729.492, 415.7717
1731.421, 415.5090
1733.349, 415.2105
1735.277, 414.9503
1737.206, 414.6113
1739.134, 413.9016
1741.063, 412.9508
1742.991, 412.3670
1744.920, 411.7862
1746.848, 412.4755
1748.777, 416.7330
1750.705, 419.1747
1752.634, 416.7936
1754.562, 413.7035
1756.491, 413.7699
1758.419, 416.0750
1760.348, 416.8526
1762.276, 415.4338
1764.204, 414.8806
1766.133, 416.0692
1768.061, 417.0839
1769.990, 417.3686
1771.918, 417.4335
1773.847, 417.7771
1775.775, 418.1408
1777.704, 417.5763
1779.632, 415.6896
1781.561, 414.9561
1783.489, 416.1519
1785.418, 417.2533
1787.346, 417.5598
1789.275, 417.8737
1791.203, 419.3170
1793.131, 420.9266
1795.060, 420.2501
1796.988, 417.2180
1798.917, 415.7833
1800.845, 416.8807
1802.774, 417.6911
1804.702, 416.7601
1806.631, 416.3880
1808.559, 418.6588
1810.488, 421.4749
1812.416, 421.7347
1814.345, 419.8412
1816.273, 418.5252
1818.202, 417.7281
1820.130, 418.5882
1822.058, 422.6768
1823.987, 426.1000
1825.915, 427.0977
1827.844, 426.6195
1829.772, 425.0081
1831.701, 422.7077
1833.629, 420.6613
1835.558, 418.8510
1837.486, 418.9078
1839.415, 422.1938
1841.343, 424.6453
1843.272, 424.6958
1845.200, 423.7268
1847.129, 421.6581
1849.057, 419.5403
1850.985, 419.2063
1852.914, 420.5187
1854.842, 422.6365
1856.771, 426.6719
1858.699, 427.9930
1860.628, 422.7590
1862.556, 418.8125
1864.485, 420.1127
1866.413, 423.1844
1868.342, 425.2416
1870.270, 426.3152
1872.199, 426.2052
1874.127, 424.2323
1876.056, 423.8779
1877.984, 427.1691
1879.912, 428.7986
1881.841, 426.5336
1883.769, 424.2218
1885.698, 424.1491
1887.626, 425.0047
1889.555, 425.2060
1891.483, 424.8577
1893.412, 424.2664
1895.340, 423.1477
1897.269, 422.9310
1899.197, 423.8801
1901.126, 425.3441
1903.054, 427.9915
1904.983, 429.9710
1906.911, 429.6395
1908.839, 428.1843
1910.768, 427.5503
1912.696, 427.6359
1914.625, 427.4913
1916.553, 427.1448
1918.482, 426.5317
1920.410, 425.1881
1922.339, 424.6913
1924.267, 426.4866
1926.196, 428.3377
1928.124, 428.1286
1930.053, 427.2158
1931.981, 428.2985
1933.910, 427.4380
1935.838, 426.5951
1937.766, 427.2459
1939.695, 425.1420
1941.623, 425.9849
1943.552, 427.1975
1945.480, 428.7749
1947.409, 429.6768
1949.337, 428.6044
1951.266, 426.7059
1953.194, 425.8003
1955.123, 425.8078
1957.051, 425.8526
1958.980, 425.5572
1960.908, 426.1581
1962.837, 429.4654
1964.765, 431.0390
1966.693, 428.0930
1968.622, 425.6234
1970.550, 426.9715
1972.479, 429.8376
1974.407, 431.3869
1976.336, 431.8716
1978.264, 432.7379
1980.193, 434.0289
1982.121, 434.4167
1984.050, 433.2847
1985.978, 432.7968
1987.907, 434.0847
1989.835, 435.2351
1991.764, 435.3945
1993.692, 434.9618
1995.620, 434.0472
1997.549, 432.9048
1999.477, 431.9615
2001.406, 431.2146
2003.334, 430.9954
2005.263, 431.4323
2007.191, 431.9340
2009.120, 432.7408
2011.048, 433.1657
2012.977, 432.9893
2014.905, 432.5211
2016.834, 431.8301
2018.762, 431.1034
2020.691, 430.4692
2022.619, 429.9825
2024.547, 429.8155
2026.476, 429.8300
2028.404, 431.0459
2030.333, 434.2414
2032.261, 436.1668
2034.190, 435.5983
2036.118, 434.7729
2038.047, 434.4370
2039.975, 431.7007
2041.904, 435.4174
2043.832, 437.5819
2045.761, 438.2776
2047.689, 433.1055
2049.617, 435.5104
2051.546, 434.8789
2053.474, 434.1228
2055.403, 437.5943
2057.331, 433.2756
2059.260, 436.6800
2061.188, 437.0015
2063.117, 438.7340
2065.045, 437.4111
2066.974, 437.0320
2068.902, 439.7091
2070.831, 440.6939
2072.759, 439.0193
2074.688, 440.8415
2076.616, 436.4161
2078.544, 437.4730
2080.473, 440.8953
2082.401, 439.3743
2084.330, 441.2524
2086.258, 441.8358
2088.187, 436.5364
2090.115, 441.4680
2092.044, 441.9750
2093.972, 437.9388
2095.901, 442.5200
2097.829, 439.1101
2099.758, 438.5526
2101.686, 440.1415
2103.615, 439.4929
2105.543, 440.2021
2107.471, 441.8525
2109.400, 441.0294
2111.328, 441.5314
2113.257, 441.6388
2115.185, 441.5946
2117.114, 442.7144
2119.042, 442.1037
2120.971, 442.2099
2122.899, 442.7660
2124.828, 443.7848
2126.756, 444.9364
2128.685, 444.3408
2130.613, 444.9793
2132.542, 445.5796
2134.470, 444.4611
2136.398, 446.2558
2138.327, 445.1629
2140.255, 444.1214
2142.184, 443.8440
2144.112, 443.7401
2146.041, 442.9966
2147.969, 442.6087
2149.898, 444.4810
2151.826, 447.0493
2153.755, 446.7679
2155.683, 444.1207
2157.612, 442.0387
2159.540, 440.5831
2161.469, 440.6393
2163.397, 442.9418
2165.325, 443.5039
2167.254, 439.9687
2169.182, 437.8193
2171.111, 440.1257
2173.039, 442.5973
2174.968, 442.9637
2176.896, 442.6730
2178.825, 443.2491
2180.753, 443.8939
2182.682, 442.7890
2184.610, 440.5201
2186.539, 440.1358
2188.467, 441.6578
2190.396, 442.4624
2192.324, 442.2608
2194.252, 442.6034
2196.181, 443.9029
2198.109, 445.1217
2200.038, 446.5199
2201.966, 446.9117
2203.895, 444.9854
2205.823, 442.9404
2207.752, 441.8180
2209.680, 441.5911
2211.609, 442.8854
2213.537, 444.6833
2215.466, 444.6677
2217.394, 443.1199
2219.323, 442.3367
2221.251, 442.3226
2223.179, 442.3322
2225.108, 442.2568
2227.036, 443.1895
2228.965, 446.2076
2230.893, 447.5320
2232.822, 444.5357
2234.750, 442.4015
2236.679, 444.1416
2238.607, 445.9887
2240.536, 444.9725
2242.464, 446.6024
2244.393, 444.9412
2246.321, 447.2723
2248.250, 447.8873
2250.178, 447.1807
2252.106, 446.4785
2254.035, 445.9226
2255.963, 447.6283
2257.892, 452.0036
2259.820, 453.0331
2261.749, 448.8582
2263.677, 445.9873
2265.606, 446.3340
2267.534, 446.8764
2269.463, 446.8456
2271.391, 446.9065
2273.320, 447.6502
2275.248, 448.1252
2277.177, 447.2417
2279.105, 446.3022
2281.033, 447.4068
2282.962, 448.9362
2284.890, 447.4096
2286.819, 444.2411
2288.747, 443.6732
2290.676, 445.5107
2292.604, 446.9758
2294.533, 448.0728
2296.461, 448.2206
2298.390, 446.2364
2300.318, 445.5789
2302.247, 447.3145
2304.175, 448.3227
2306.104, 447.4252
2308.032, 447.1200
2309.960, 449.4427
2311.889, 450.7938
2313.817, 447.8161
2315.746, 444.7416
2317.674, 444.8304
2319.603, 446.5587
2321.531, 448.9767
2323.460, 451.2592
2325.388, 451.3460
2327.317, 449.8774
2329.245, 449.8841
2331.174, 451.2300
2333.102, 451.2809
2335.031, 449.9903
2336.959, 448.9815
2338.887, 448.3583
2340.816, 448.4910
2342.744, 450.0541
2344.673, 450.7029
2346.601, 448.7203
2348.530, 447.7311
2350.458, 449.3798
2352.387, 450.9926
2354.315, 451.7983
2356.244, 452.0483
2358.172, 451.2051
2360.101, 450.6624
2362.029, 452.3834
2363.958, 454.2098
2365.886, 452.8401
2367.814, 450.2284
2369.743, 450.0272
2371.671, 451.6340
2373.600, 453.4062
2375.528, 455.2460
2377.457, 455.6551
2379.385, 454.5821
2381.314, 454.0711
2383.242, 454.2938
2385.171, 453.8969
2387.099, 452.5685
2389.028, 451.7080
2390.956, 451.8624
2392.885, 451.8681
2394.813, 451.0222
2396.741, 450.7611
2398.670, 451.2791
2400.598, 452.5547
2402.527, 455.8329
2404.455, 458.0496
2406.384, 456.8817
2408.312, 455.0195
2410.241, 454.1875
2412.169, 453.9767
2414.098, 454.3646
2416.026, 454.9242
2417.955, 455.3154
2419.883, 455.2648
2421.812, 453.2270
2423.740, 450.2165
2425.668, 450.6054
2427.597, 453.7919
2429.525, 457.0409
2431.454, 460.1016
2433.382, 460.6962
2435.311, 461.4498
2437.239, 461.1948
2439.168, 458.9994
2441.096, 458.4994
2443.025, 454.2281
2444.953, 451.6628
2446.882, 451.8570
2448.810, 452.1211
2450.739, 451.7276
2452.667, 451.8809
2454.595, 453.4068
2456.524, 454.8026
2458.452, 455.4134
2460.381, 455.8565
2462.309, 456.8104
2464.238, 457.1439
2466.166, 455.3150
2468.095, 453.5669
2470.023, 453.6596
2471.952, 454.5370
2473.880, 455.5155
2475.809, 456.4927
2477.737, 457.5254
2479.666, 458.3434
2481.594, 458.4174
2483.522, 457.9355
2485.451, 456.8887
2487.379, 455.7401
2489.308, 457.0706
2491.236, 459.9825
2493.165, 460.0385
2495.093, 457.5201
2497.022, 456.1685
2498.950, 456.1542
2500.879, 456.4458
2502.807, 457.1881
2504.736, 457.5726
2506.664, 458.0401
2508.593, 457.8092
2510.521, 458.8342
2512.449, 459.4883
2514.378, 459.6720
2516.306, 459.2204
2518.235, 457.5622
2520.163, 456.2792
2522.092, 455.8004
2524.020, 455.4135
2525.949, 454.8500
2527.877, 454.7413
2529.806, 455.5108
2531.734, 456.2221
2533.663, 456.4165
2535.591, 456.5190
2537.520, 456.7352
2539.448, 456.8657
2541.376, 456.4934
2543.305, 456.4259
2545.233, 457.8450
2547.162, 458.9365
2549.090, 457.9691
2551.019, 456.7992
2552.947, 457.1299
2554.876, 457.8355
2556.804, 457.2191
2558.733, 456.8553
2560.661, 459.3119
2562.590, 462.6536
2564.518, 464.5530
2566.447, 465.1670
2568.375, 464.2329
2570.303, 462.5012
2572.232, 461.2370
2574.160, 460.2687
2576.089, 458.5282
2578.017, 456.9656
2579.946, 459.9598
2581.874, 465.6896
2583.803, 466.4536
2585.731, 463.4835
2587.660, 461.6146
2589.588, 460.8001
2591.517, 459.5498
2593.445, 457.9693
2595.374, 459.2762
2597.302, 463.4269
2599.230, 465.3035
2601.159, 464.9722
2603.087, 464.6021
2605.016, 464.3310
2606.944, 463.9357
2608.873, 463.2274
2610.801, 463.6734
2612.730, 465.3724
2614.658, 468.0269
2616.587, 471.9208
2618.515, 472.7767
2620.444, 469.8499
2622.372, 467.4911
2624.301, 466.2662
2626.229, 465.4709
2628.157, 465.0763
2630.086, 465.2798
2632.014, 466.2524
2633.943, 467.3228
2635.871, 468.4097
2637.800, 469.8056
2639.728, 472.3397
2641.657, 472.6156
2643.585, 467.3868
2645.514, 465.0960
2647.442, 467.8636
2649.371, 468.5975
2651.299, 465.4781
2653.228, 463.6906
2655.156, 465.3192
2657.084, 465.9018
2659.013, 462.7047
2660.941, 461.6931
2662.870, 464.5853
2664.798, 467.5412
2666.727, 470.5335
2668.655, 471.4516
2670.584, 468.3548
2672.512, 466.5791
2674.441, 469.8089
2676.369, 470.5835
2678.298, 464.7407
2680.226, 461.7992
2682.155, 464.6220
2684.083, 467.2440
2686.011, 468.0885
2687.940, 468.4084
2689.868, 468.2635
2691.797, 468.1765
2693.725, 468.4129
2695.654, 468.4510
2697.582, 468.0008
2699.511, 467.8237
2701.439, 468.0380
2703.368, 468.6856
2705.296, 470.4819
2707.225, 471.4150
2709.153, 470.2584
2711.082, 469.5201
2713.010, 469.7902
2714.938, 470.1451
2716.867, 470.1978
2718.795, 470.7399
2720.724, 470.8913
2722.652, 470.7898
2724.581, 471.8463
2726.509, 470.6994
2728.438, 472.0571
2730.366, 472.6498
2732.295, 470.3594
2734.223, 470.3097
2736.152, 476.6462
2738.080, 479.9588
2740.009, 477.5839
2741.937, 475.6063
2743.865, 474.9926
2745.794, 474.7401
2747.722, 474.6265
2749.651, 474.8246
2751.579, 476.0192
2753.508, 476.2714
2755.436, 475.2660
2757.365, 474.0138
2759.293, 472.4114
2761.222, 471.9980
2763.150, 473.6149
2765.079, 474.7466
2767.007, 474.5469
2768.936, 475.5052
2770.864, 475.5116
2772.792, 475.4328
2774.721, 476.1592
2776.649, 474.9547
2778.578, 476.4878
2780.506, 476.1228
2782.435, 472.7280
2784.363, 474.1926
2786.292, 473.3123
2788.220, 472.9351
2790.149, 475.3735
2792.077, 473.5251
2794.006, 477.8242
2795.934, 479.1253
2797.863, 477.3272
2799.791, 475.3811
2801.719, 473.5031
2803.648, 473.8078
2805.576, 473.0872
2807.505, 476.3580
2809.433, 474.9221
2811.362, 476.6727
2813.290, 480.5475
2815.219, 480.8196
2817.147, 478.3880
2819.076, 476.2573
2821.004, 474.8350
2822.933, 476.4293
2824.861, 479.4650
2826.790, 479.6808
2828.718, 478.1040
2830.646, 476.0836
2832.575, 474.2908
2834.503, 473.6729
2836.432, 474.1320
2838.360, 476.2853
2840.289, 478.6197
2842.217, 479.2536
2844.146, 479.1146
2846.074, 479.3193
2848.003, 478.9746
2849.931, 475.6049
2851.860, 473.4586
2853.788, 477.6672
2855.717, 481.5068
2857.645, 479.7996
2859.573, 477.7405
2861.502, 478.6865
2863.430, 479.4634
2865.359, 478.3684
2867.287, 477.3384
2869.216, 476.6229
2871.144, 476.9129
2873.073, 479.9064
2875.001, 481.2383
2876.930, 479.1310
2878.858, 477.3994
2880.787, 476.3427
2882.715, 477.3497
2884.644, 482.1966
2886.572, 484.4420
2888.500, 482.5049
2890.429, 481.4166
2892.357, 481.3051
2894.286, 481.8365
2896.214, 482.9724
2898.143, 482.9240
2900.071, 481.5413
2902.000, 482.7343
2903.928, 481.8244
2905.857, 481.7530
2907.785, 481.9985
2909.714, 481.8273
2911.642, 483.7635
2913.571, 484.7823
2915.499, 485.0667
2917.427, 484.3564
2919.356, 483.6527
2921.284, 484.6997
2923.213, 486.2001
2925.141, 486.1116
2927.070, 486.0752
2928.998, 488.9608
2930.927, 491.0371
2932.855, 489.4308
2934.784, 486.7784
2936.712, 483.1379
2938.641, 481.4792
2940.569, 484.2655
2942.498, 486.7163
2944.426, 487.1736
2946.354, 487.2896
2948.283, 487.4390
2950.211, 487.3041
2952.140, 486.7103
2954.068, 486.3650
2955.997, 486.3658
2957.925, 486.5978
2959.854, 487.0511
2961.782, 487.9883
2963.711, 489.4335
2965.639, 489.6477
2967.568, 488.8052
2969.496, 487.9759
2971.425, 487.2982
2973.353, 487.4021
2975.281, 487.8179
2977.210, 486.8528
2979.138, 485.7343
2981.067, 486.2751
2982.995, 487.5977
2984.924, 489.3150
2986.852, 490.4254
2988.781, 489.4317
2990.709, 488.3727
2992.638, 488.7397
2994.566, 488.9208
2996.495, 488.0690
2998.423, 487.1710
3000.352, 486.2964
3002.280, 486.1384
3004.208, 487.0715
3006.137, 488.0992
3008.065, 488.8452
3009.994, 490.5154
3011.922, 493.1783
3013.851, 495.0693
3015.779, 495.9585
3017.708, 494.1175
3019.636, 490.2998
3021.565, 490.0623
3023.493, 492.0227
3025.422, 492.8488
3027.350, 492.5314
3029.279, 489.0757
3031.207, 486.5397
3033.135, 492.3769
3035.064, 498.1523
3036.992, 496.6097
3038.921, 494.1701
3040.849, 494.1693
3042.778, 494.7263
3044.706, 495.6719
3046.635, 495.8176
3048.563, 494.6667
3050.492, 493.3186
3052.420, 491.1919
3054.349, 491.2314
3056.277, 493.5775
3058.206, 495.4010
3060.134, 496.5286
3062.063, 496.8062
3063.991, 496.4030
3065.919, 495.7714
3067.848, 495.1514
3069.776, 494.7417
3071.705, 494.9790
3073.633, 497.7692
3075.562, 499.8798
3077.490, 496.5525
3079.419, 493.9899
3081.347, 496.8473
3083.276, 499.3123
3085.204, 498.5850
3087.133, 498.1110
3089.061, 498.5775
3090.990, 498.7184
3092.918, 498.3257
3094.846, 497.1355
3096.775, 494.9244
3098.703, 494.0623
3100.632, 494.5186
3102.560, 496.7726
3104.489, 499.7708
3106.417, 500.7535
3108.346, 500.5678
3110.274, 500.6405
3112.203, 500.1465
3114.131, 497.1714
3116.060, 495.0246
3117.988, 497.1383
3119.917, 498.3620
3121.845, 496.6487
3123.773, 495.0499
3125.702, 494.0436
3127.630, 494.2481
3129.559, 495.8243
3131.487, 497.2657
3133.416, 498.4362
3135.344, 498.6684
3137.273, 498.1727
3139.201, 497.7706
3141.130, 497.4174
3143.058, 497.0025
3144.987, 496.5703
3146.915, 495.9256
3148.844, 495.5904
3150.772, 495.8563
3152.700, 496.6656
3154.629, 498.9209
3156.557, 499.7159
3158.486, 500.2501
3160.414, 500.7130
3162.343, 499.6296
3164.271, 499.7625
3166.200, 497.0069
3168.128, 494.9720
3170.057, 493.9066
3171.985, 495.8258
3173.914, 498.6053
3175.842, 498.6745
3177.771, 497.8610
3179.699, 497.9468
3181.627, 498.0218
3183.556, 497.6063
3185.484, 497.1165
3187.413, 496.8484
3189.341, 496.0981
3191.270, 494.5161
3193.198, 495.3664
3195.127, 495.2561
3197.055, 499.3727
3198.984, 496.8543
3200.912, 497.0081
3202.841, 498.1893
3204.769, 497.0041
3206.698, 495.3976
3208.626, 495.6660
3210.554, 496.1700
3212.483, 496.2385
3214.411, 495.7292
3216.340, 496.3303
3218.268, 496.8834
3220.197, 496.5257
3222.125, 497.9715
3224.054, 497.2563
3225.982, 496.1132
3227.911, 494.7758
3229.839, 494.9073
3231.768, 495.1296
3233.696, 492.5517
3235.625, 489.9590
3237.553, 489.9964
3239.481, 491.3249
3241.410, 494.8949
3243.338, 496.0598
3245.267, 496.8512
3247.195, 489.7618
3249.124, 495.2623
3251.052, 494.9183
3252.981, 489.3954
3254.909, 491.2400
3256.838, 490.2204
3258.766, 494.8940
3260.695, 491.7928
3262.623, 494.0919
3264.552, 496.0347
3266.480, 493.5089
3268.408, 491.0073
3270.337, 489.5509
3272.265, 488.9344
3274.194, 489.1963
3276.122, 489.7390
3278.051, 490.4466
3279.979, 490.1810
3281.908, 489.8196
3283.836, 492.5525
3285.765, 495.3592
3287.693, 494.4864
3289.622, 493.0045
3291.550, 492.7400
3293.479, 492.2458
3295.407, 490.9492
3297.335, 490.4700
3299.264, 491.2372
3301.192, 492.0140
3303.121, 492.6991
3305.049, 492.5320
3306.978, 491.5023
3308.906, 488.2398
3310.835, 485.8623
3312.763, 488.7484
3314.692, 491.4977
3316.620, 490.7776
3318.549, 491.1376
3320.477, 493.9668
3322.406, 494.8686
3324.334, 493.6547
3326.262, 493.2360
3328.191, 493.4505
3330.119, 493.7550
3332.048, 493.5013
3333.976, 490.8828
3335.905, 488.8462
3337.833, 489.8683
3339.762, 491.2811
3341.690, 492.5425
3343.619, 493.5699
3345.547, 494.4242
3347.476, 495.2007
3349.404, 495.4111
3351.333, 491.1187
3353.261, 492.4988
3355.189, 488.3781
3357.118, 491.6279
3359.046, 491.8125
3360.975, 490.9543
3362.903, 488.3989
3364.832, 488.5067
3366.760, 491.8158
3368.689, 492.7648
3370.617, 491.4590
3372.546, 491.8010
3374.474, 492.1543
3376.403, 487.6152
3378.331, 484.2668
3380.260, 490.5558
3382.188, 493.0462
3384.116, 485.3751
3386.045, 482.4459
3387.973, 488.9595
3389.902, 491.0456
3391.830, 489.5125
3393.759, 488.4150
3395.687, 487.7221
3397.616, 487.2490
3399.544, 487.2825
3401.473, 488.4915
3403.401, 489.1208
3405.330, 487.9238
3407.258, 487.4584
3409.187, 487.8716
3411.115, 488.4404
3413.043, 489.0774
3414.972, 490.4650
3416.900, 490.7611
3418.829, 485.1451
3420.757, 481.5795
3422.686, 487.8897
3424.614, 491.4283
3426.543, 489.5506
3428.471, 488.0259
3430.400, 487.4235
3432.328, 486.2624
3434.257, 485.1236
3436.185, 485.6024
3438.114, 486.1564
3440.042, 484.7850
3441.970, 483.7508
3443.899, 483.7099
3445.827, 484.3026
3447.756, 485.5096
3449.684, 486.8871
3451.613, 488.1955
3453.541, 489.5756
3455.470, 489.3080
3457.398, 482.2004
3459.327, 476.8958
3461.255, 478.9701
3463.184, 482.3296
3465.112, 486.5630
3467.041, 486.7636
3468.969, 483.3141
3470.897, 482.4173
3472.826, 482.8237
3474.754, 482.2581
3476.683, 481.7025
3478.611, 482.2177
3480.540, 482.0690
3482.468, 480.7455
3484.397, 480.4005
3486.325, 481.2334
3488.254, 479.6254
3490.182, 477.5684
3492.111, 480.3802
3494.039, 483.5053
3495.968, 483.4357
3497.896, 481.4607
3499.824, 477.0590
3501.753, 475.3843
3503.681, 476.9815
3505.610, 478.7773
3507.538, 479.8968
3509.467, 477.6076
3511.395, 475.2832
3513.324, 477.1198
3515.252, 477.2763
3517.181, 472.3653
3519.109, 470.4786
3521.038, 471.9985
3522.966, 475.6439
3524.895, 479.2183
3526.823, 476.7617
3528.751, 473.5511
3530.680, 473.7523
3532.608, 474.1569
3534.537, 473.3303
3536.465, 473.5797
3538.394, 474.7297
3540.322, 473.6443
3542.251, 472.3255
3544.179, 477.1727
3546.108, 480.6069
3548.036, 475.1353
3549.965, 472.0123
3551.893, 474.0654
3553.822, 473.9721
3555.750, 471.7634
3557.678, 472.1548
3559.607, 473.4917
3561.535, 473.1891
3563.464, 472.6559
3565.392, 472.8892
3567.321, 472.5650
3569.249, 471.5054
3571.178, 470.2184
3573.106, 469.1512
3575.035, 470.8625
3576.963, 472.5928
3578.892, 471.2431
3580.820, 469.2709
3582.749, 467.3493
3584.677, 465.8427
3586.605, 464.8021
3588.534, 466.5450
3590.462, 469.1902
3592.391, 467.7504
3594.319, 466.6315
3596.248, 470.7729
3598.176, 472.7627
3600.105, 470.8258
3602.033, 468.3500
3603.962, 465.7293
3605.890, 463.6479
3607.819, 462.8466
3609.747, 465.4612
3611.676, 467.5819
3613.604, 467.7961
3615.532, 467.1995
3617.461, 465.9448
3619.389, 465.5142
3621.318, 465.6156
3623.246, 465.8932
3625.175, 465.8918
3627.103, 465.5942
3629.032, 463.9038
3630.960, 463.9199
3632.889, 464.4087
3634.817, 463.1336
3636.746, 465.0713
3638.674, 465.5956
3640.603, 463.3195
3642.531, 462.9287
3644.459, 461.6820
3646.388, 460.3600
3648.316, 460.4013
3650.245, 459.9229
3652.173, 462.4040
3654.102, 466.3845
3656.030, 467.8833
3657.959, 464.2522
3659.887, 461.3908
3661.816, 459.9494
3663.744, 458.9973
3665.673, 459.1801
3667.601, 463.1996
3669.530, 466.4069
3671.458, 466.0319
3673.386, 465.2231
3675.315, 464.8563
3677.243, 460.6700
3679.172, 461.3219
3681.100, 457.7072
3683.029, 460.4273
3684.957, 457.8733
3686.886, 457.4124
3688.814, 462.0239
3690.743, 464.6180
3692.671, 465.1398
3694.600, 462.8628
3696.528, 460.1808
3698.457, 458.4544
3700.385, 458.8703
3702.313, 458.3615
3704.242, 459.0558
3706.170, 460.0514
3708.099, 460.5020
3710.027, 461.6985
3711.956, 460.8083
3713.884, 459.4899
3715.813, 457.4659
3717.741, 458.8687
3719.670, 462.3683
3721.598, 462.8472
3723.527, 461.9557
3725.455, 460.6618
3727.384, 460.0151
3729.312, 459.6736
3731.240, 460.4154
3733.169, 459.6751
3735.097, 460.5329
3737.026, 461.1131
3738.954, 461.1315
3740.883, 461.8356
3742.811, 461.3280
3744.740, 461.3934
3746.668, 461.4582
3748.597, 460.9062
3750.525, 460.4170
3752.454, 460.1153
3754.382, 458.7690
3756.311, 455.6686
3758.239, 454.2907
3760.167, 454.6263
3762.096, 457.4131
3764.024, 459.9753
3765.953, 460.6356
3767.881, 459.5650
3769.810, 461.0449
3771.738, 460.7102
3773.667, 461.0728
3775.595, 460.5327
3777.524, 459.2099
3779.452, 458.0811
3781.381, 459.6315
3783.309, 459.5322
3785.238, 463.6248
3787.166, 461.2656
3789.094, 461.4403
3791.023, 461.2854
3792.951, 459.6631
3794.880, 458.0400
3796.808, 456.6530
3798.737, 455.6329
3800.665, 455.1561
3802.594, 455.2674
3804.522, 456.2712
3806.451, 456.4870
3808.379, 457.1567
3810.308, 457.6962
3812.236, 458.2230
3814.165, 458.1617
3816.093, 458.2065
3818.021, 458.4511
3819.950, 458.1548
3821.878, 458.8244
3823.807, 457.6333
3825.735, 457.9655
3827.664, 457.7755
3829.592, 455.0780
3831.521, 454.3994
3833.449, 455.6873
3835.378, 458.0822
3837.306, 459.8760
3839.235, 458.9291
3841.163, 457.7794
3843.092, 457.1685
3845.020, 456.9543
3846.948, 456.4419
3848.877, 455.9181
3850.805, 456.0707
3852.734, 454.5123
3854.662, 456.5157
3856.591, 455.3333
3858.519, 455.8260
3860.448, 456.6479
3862.376, 455.2780
3864.305, 455.4363
3866.233, 458.5406
3868.162, 459.7569
3870.090, 459.5360
3872.019, 460.3029
3873.947, 460.7330
3875.875, 459.7349
3877.804, 459.0780
3879.732, 458.9784
3881.661, 458.2293
3883.589, 457.4857
3885.518, 457.4329
3887.446, 456.7278
3889.375, 454.9004
3891.303, 457.2567
3893.232, 461.2080
3895.160, 457.8019
3897.089, 454.8160
3899.017, 458.8047
3900.946, 458.0191
3902.874, 453.0314
3904.802, 451.7479
3906.731, 453.1155
3908.659, 457.5496
3910.588, 460.2294
3912.516, 458.6501
3914.445, 457.9040
3916.373, 458.0887
3918.302, 456.6364
3920.230, 454.7796
3922.159, 453.0254
3924.087, 455.7407
3926.016, 460.9824
3927.944, 459.7385
3929.873, 456.9378
3931.801, 453.7340
3933.729, 452.8365
3935.658, 454.6072
3937.586, 452.2789
3939.515, 450.2420
3941.443, 453.9025
3943.372, 456.3510
3945.300, 456.8932
3947.229, 454.7656
3949.157, 451.6623
3951.086, 451.6372
3953.014, 451.7477
3954.943, 452.0881
3956.871, 454.4915
3958.800, 456.2888
3960.728, 455.7774
3962.656, 454.1419
3964.585, 451.1836
3966.513, 449.7029
3968.442, 449.1985
3970.370, 451.6616
3972.299, 454.0572
3974.227, 452.7677
3976.156, 452.0074
3978.084, 451.6455
3980.013, 451.2155
3981.941, 451.5665
3983.870, 452.7627
3985.798, 452.8120
3987.727, 451.0943
3989.655, 453.0875
3991.583, 456.2706
3993.512, 454.9286
3995.440, 452.8039
3997.369, 451.1319
3999.297, 450.2550
4001.226, 449.8907
4003.154, 450.0282
4005.083, 450.2145
4007.011, 450.2731
4008.940, 451.9837
4010.868, 454.5177
4012.797, 454.7729
4014.725, 453.4058
4016.654, 450.7056
4018.582, 450.1888
4020.510, 451.5565
4022.439, 448.2889
4024.367, 446.2863
4026.296, 453.0405
4028.224, 454.3956
4030.153, 449.8870
4032.081, 449.6432
4034.010, 451.2192
4035.938, 453.1719
4037.867, 453.0927
4039.795, 450.8896
4041.724, 450.3996
4043.652, 450.3466
4045.581, 447.9275
4047.509, 446.5665
4049.438, 447.5505
4051.366, 448.4494
4053.294, 449.0317
4055.223, 450.6616
4057.151, 450.7515
4059.080, 450.5355
4061.008, 450.3697
4062.937, 449.0003
4064.865, 448.6482
4066.794, 447.4902
4068.722, 446.4461
4070.651, 446.8291
4072.579, 447.2202
4074.508, 446.5840
4076.436, 446.7204
4078.365, 448.3950
4080.293, 448.3295
4082.221, 445.6670
4084.150, 446.1957
4086.078, 447.9200
4088.007, 448.0032
4089.935, 449.0556
4091.864, 450.8138
4093.792, 450.6668
4095.721, 449.7752
4097.649, 450.1113
4099.578, 449.5626
4101.506, 448.5174
4103.435, 448.7058
4105.363, 446.7530
4107.292, 445.6302
4109.220, 446.1190
4111.148, 447.1572
4113.077, 446.7417
4115.005, 445.3235
4116.934, 442.2168
4118.862, 440.5329
4120.791, 441.1097
4122.719, 443.3425
4124.647, 444.5955
4126.576, 442.5560
4128.504, 441.6818
4130.433, 444.5766
4132.361, 446.7052
4134.290, 446.7410
4136.218, 444.1153
4138.147, 443.0179
4140.075, 445.8999
4142.004, 447.3976
4143.932, 447.5687
4145.861, 448.4700
4147.789, 447.3947
4149.718, 446.4252
4151.646, 445.0096
4153.575, 440.0406
4155.503, 439.4555
4157.432, 439.8933
4159.360, 441.6544
4161.289, 442.9522
4163.217, 442.4987
4165.146, 440.0756
4167.074, 437.7925
4169.002, 436.5062
4170.931, 437.8481
4172.859, 440.9398
4174.788, 442.5944
4176.716, 442.1496
4178.645, 442.8732
4180.573, 438.6640
4182.501, 440.8149
4184.430, 438.4334
4186.358, 435.6348
4188.287, 436.9200
4190.215, 438.0856
4192.144, 438.3021
4194.072, 440.0052
4196.001, 439.7295
4197.929, 440.5716
4199.858, 437.0639
4201.786, 440.8661
4203.715, 436.1533
4205.643, 434.3640
4207.572, 438.1220
4209.500, 438.6615
4211.429, 437.5367
4213.357, 435.5162
4215.286, 434.7012
4217.214, 434.8641
4219.143, 436.0309
4221.071, 437.0705
4223.000, 437.5256
4224.928, 438.9701
4226.856, 438.5048
4228.785, 440.3317
4230.713, 440.2212
4232.642, 438.4046
4234.570, 435.8076
4236.499, 433.6573
4238.427, 433.8233
4240.355, 433.7495
4242.284, 435.3139
4244.212, 434.9178
4246.141, 436.9824
4248.069, 435.0228
4249.998, 433.4557
4251.926, 433.7038
4253.855, 437.4745
4255.783, 441.1941
4257.712, 439.2500
4259.640, 436.3207
4261.569, 433.4810
4263.497, 432.5587
4265.426, 433.1209
4267.354, 435.6749
4269.283, 436.6948
4271.211, 436.0721
4273.140, 435.3544
4275.068, 435.2755
4276.997, 437.5882
4278.925, 435.2415
4280.854, 436.1840
4282.782, 433.0893
4284.710, 435.9444
4286.639, 437.1781
4288.567, 437.3380
4290.496, 436.1513
4292.424, 437.7736
4294.353, 430.8765
4296.281, 437.6758
4298.209, 434.8543
4300.138, 430.2033
4302.066, 431.9856
4303.995, 432.3223
4305.923, 430.9205
4307.852, 429.2881
4309.780, 429.5904
4311.709, 434.8097
4313.637, 436.7533
4315.566, 436.0432
4317.494, 432.7994
4319.423, 431.7918
4321.351, 434.8757
4323.280, 434.5810
4325.208, 432.8813
4327.137, 431.8598
4329.065, 429.8391
4330.994, 427.5116
4332.922, 432.2480
4334.851, 435.8171
4336.779, 432.7417
4338.708, 431.3297
4340.636, 430.4120
4342.564, 429.3369
4344.493, 430.5416
4346.421, 429.0543
4348.350, 432.2686
4350.278, 433.0811
4352.207, 430.8112
4354.135, 429.3013
4356.063, 428.7553
4357.992, 426.8050
4359.920, 427.6960
4361.849, 427.1393
4363.777, 431.7667
4365.706, 427.5263
4367.634, 432.8247
4369.563, 433.4070
4371.491, 428.1602
4373.420, 427.8673
4375.348, 428.7901
4377.277, 428.4890
4379.205, 426.6416
4381.134, 424.5038
4383.062, 424.7582
4384.991, 426.2552
4386.919, 428.5727
4388.848, 427.0243
4390.776, 428.6679
4392.705, 427.7608
4394.633, 428.8921
4396.562, 428.4527
4398.490, 427.2537
4400.418, 426.5440
4402.347, 426.8886
4404.275, 428.8350
4406.204, 430.3109
4408.132, 428.0864
4410.061, 426.6770
4411.989, 426.3220
4413.917, 424.6097
4415.846, 423.5418
4417.774, 424.0889
4419.703, 423.5551
4421.631, 423.2876
4423.560, 425.8036
4425.488, 427.5832
4427.417, 428.0029
4429.345, 425.9673
4431.274, 424.6133
4433.202, 425.5909
4435.131, 424.9847
4437.059, 423.9240
4438.988, 425.0831
4440.916, 423.5455
4442.845, 419.7234
4444.773, 421.6209
4446.702, 423.3270
4448.630, 420.8722
4450.559, 423.2859
4452.487, 426.4638
4454.416, 423.5968
4456.344, 423.0552
4458.272, 425.2561
4460.201, 425.6685
4462.129, 426.3360
4464.058, 428.1878
4465.986, 424.3844
4467.915, 420.1219
4469.843, 422.4528
4471.771, 423.7330
4473.700, 423.3578
4475.628, 422.6538
4477.557, 421.0375
4479.485, 418.0135
4481.414, 417.8488
4483.342, 418.2479
4485.271, 416.5320
4487.199, 417.0041
4489.128, 418.6344
4491.056, 417.3583
4492.985, 417.4467
4494.913, 419.5868
4496.842, 418.5959
4498.770, 417.1693
4500.699, 416.9690
4502.627, 417.9893
4504.556, 418.8253
4506.484, 418.6821
4508.413, 416.4714
4510.341, 418.7152
4512.270, 417.9134
4514.198, 417.7221
4516.126, 420.4350
4518.055, 417.8329
4519.983, 414.9353
4521.912, 417.0878
4523.840, 418.9239
4525.769, 419.5860
4527.697, 418.3476
4529.625, 415.8068
4531.554, 412.7802
4533.482, 414.8568
4535.411, 417.2478
4537.339, 417.2259
4539.268, 413.1044
4541.196, 409.1544
4543.125, 411.8471
4545.053, 415.0795
4546.982, 417.4118
4548.910, 416.1667
4550.839, 414.2007
4552.767, 412.6769
4554.696, 416.8064
4556.624, 419.4321
4558.553, 415.2936
4560.481, 412.2668
4562.410, 411.2568
4564.338, 413.6359
4566.267, 416.4367
4568.195, 418.2195
4570.124, 413.4840
4572.052, 411.4060
4573.980, 414.1461
4575.909, 415.7925
4577.837, 414.7638
4579.766, 409.8694
4581.694, 406.9460
4583.623, 400.7081
4585.551, 407.9341
4587.479, 411.9633
4589.408, 412.9675
4591.336, 401.8868
4593.265, 406.4113
4595.193, 404.6820
4597.122, 402.6962
4599.050, 409.4171
4600.979, 400.0941
4602.907, 406.6769
4604.836, 406.9104
4606.764, 410.0498
4608.693, 406.8968
4610.621, 405.6873
4612.550, 410.7722
4614.478, 412.3719
4616.407, 408.4945
4618.335, 411.8186
4620.264, 402.2758
4622.192, 404.0240
4624.121, 410.6436
4626.049, 407.0826
4627.978, 410.5217
4629.906, 411.2949
4631.834, 399.9518
4633.763, 409.6800
4635.691, 410.2956
4637.620, 401.5544
4639.548, 410.5607
4641.477, 403.1094
4643.405, 401.5325
4645.333, 404.3764
4647.262, 402.6117
4649.190, 408.1130
4651.119, 406.6144
4653.047, 404.4906
4654.976, 405.0959
4656.904, 403.1841
4658.833, 405.1867
4660.761, 402.6053
4662.690, 404.8956
4664.618, 408.2901
4666.547, 403.2295
4668.475, 407.1202
4670.404, 397.1295
4672.332, 398.7538
4674.261, 399.1274
4676.189, 406.9252
4678.118, 397.0021
4680.046, 398.3038
4681.975, 404.3848
4683.903, 403.7784
4685.832, 405.9680
4687.760, 406.8140
4689.688, 403.9258
4691.617, 404.9564
4693.545, 406.5826
4695.474, 402.5316
4697.402, 397.0941
4699.331, 397.1930
4701.259, 397.2788
4703.188, 397.4713
4705.116, 396.6967
4707.044, 396.5470
4708.973, 395.6860
4710.901, 395.9171
4712.830, 396.9706
4714.758, 397.6462
4716.687, 396.9932
4718.615, 395.6061
4720.544, 393.9546
4722.472, 393.5399
4724.401, 393.0045
4726.329, 393.1734
4728.258, 393.3167
4730.186, 395.1300
4732.115, 396.2137
4734.043, 397.6288
4735.972, 398.1827
4737.900, 395.9101
4739.829, 394.3585
4741.757, 394.2098
4743.686, 397.4702
4745.614, 397.1695
4747.542, 394.5174
4749.471, 394.2517
4751.399, 393.0829
4753.328, 392.0541
4755.256, 397.9148
4757.185, 400.6698
4759.113, 398.6017
4761.042, 397.1455
4762.970, 394.4142
4764.898, 394.2760
4766.827, 391.9775
4768.755, 393.8760
4770.684, 394.3056
4772.612, 394.3295
4774.541, 393.5359
4776.469, 392.4019
4778.398, 390.4192
4780.326, 387.6493
4782.255, 386.1183
4784.183, 385.9659
4786.112, 386.8211
4788.040, 388.4828
4789.969, 390.4538
4791.897, 392.3562
4793.826, 394.7888
4795.754, 391.4194
4797.683, 387.1431
4799.611, 389.1356
4801.540, 389.5644
4803.468, 389.2801
4805.396, 391.4161
4807.325, 391.0388
4809.253, 388.8271
4811.182, 386.2153
4813.110, 386.0279
4815.039, 387.5121
4816.967, 389.2581
4818.896, 388.4094
4820.824, 385.7111
4822.752, 383.5970
4824.681, 382.9503
4826.609, 383.3940
4828.538, 382.9176
4830.466, 385.0597
4832.395, 388.3666
4834.323, 383.8894
4836.252, 381.8981
4838.180, 383.6740
4840.109, 384.8459
4842.037, 385.5908
4843.966, 385.7797
4845.894, 384.3416
4847.823, 382.9744
4849.751, 382.2883
4851.680, 384.2233
4853.608, 382.8360
4855.537, 378.3205
4857.465, 384.9019
4859.394, 385.4441
4861.322, 376.8705
4863.250, 372.2057
4865.179, 374.4691
4867.107, 382.5174
4869.036, 381.2549
4870.964, 379.5087
4872.893, 379.9275
4874.821, 379.0243
4876.750, 378.4418
4878.678, 378.2286
4880.606, 376.9888
4882.535, 375.4652
4884.463, 373.5799
4886.392, 373.9619
4888.320, 373.8436
4890.249, 374.6813
4892.177, 375.0240
4894.106, 375.2282
4896.034, 374.7658
4897.963, 375.2002
4899.891, 377.2964
4901.820, 375.7432
4903.748, 376.7453
4905.677, 377.5184
4907.605, 377.1999
4909.534, 374.5398
4911.462, 374.1537
4913.391, 376.4159
4915.319, 378.6005
4917.248, 376.5175
4919.176, 371.8701
4921.104, 373.9918
4923.033, 373.7728
4924.961, 371.2911
4926.890, 374.0659
4928.818, 374.7604
4930.747, 373.1754
4932.675, 371.9507
4934.604, 372.8311
4936.532, 374.3433
4938.460, 372.0073
4940.389, 371.3808
4942.317, 371.6867
4944.246, 369.5977
4946.174, 370.0297
4948.103, 371.6539
4950.031, 372.4728
4951.960, 368.3408
4953.888, 364.2211
4955.817, 367.1325
4957.745, 368.8324
4959.674, 368.6829
4961.602, 366.6647
4963.531, 363.5802
4965.459, 362.3157
4967.388, 365.5235
4969.316, 366.0660
4971.245, 365.7106
4973.173, 365.9629
4975.102, 365.5376
4977.030, 365.2237
4978.958, 365.4821
4980.887, 367.6828
4982.815, 367.9407
4984.744, 367.9191
4986.672, 367.7224
4988.601, 366.9049
4990.529, 366.9159
4992.458, 365.8725
4994.386, 367.5252
4996.314, 365.0742
4998.243, 365.6810
5000.171, 363.9555
5002.100, 360.4404
5004.028, 359.0020
5005.957, 359.5121
5007.885, 360.6752
5009.814, 360.1252
5011.742, 360.9916
5013.671, 362.2866
5015.599, 362.9414
5017.528, 358.8402
5019.456, 355.8611
5021.385, 359.4438
5023.313, 362.7451
5025.242, 363.5428
5027.170, 363.9904
5029.099, 361.1646
5031.027, 361.0971
5032.956, 358.7406
5034.884, 354.9765
5036.813, 355.7622
5038.741, 360.8788
5040.669, 362.4833
5042.598, 360.7666
5044.526, 357.4052
5046.455, 356.6595
5048.383, 356.7106
5050.312, 356.5604
5052.240, 354.7982
5054.168, 355.2923
5056.097, 356.0249
5058.025, 353.7567
5059.954, 353.3729
5061.882, 354.2970
5063.811, 355.9072
5065.739, 354.2888
5067.668, 353.0424
5069.596, 353.6931
5071.525, 352.1783
5073.453, 351.4130
5075.382, 351.8296
5077.310, 350.9091
5079.239, 351.1064
5081.167, 352.3133
5083.096, 353.5966
5085.024, 354.4284
5086.953, 354.1151
5088.881, 351.5935
5090.810, 349.4415
5092.738, 348.8018
5094.667, 350.2816
5096.595, 350.8314
5098.523, 349.7411
5100.452, 350.7265
5102.380, 348.3869
5104.309, 349.8551
5106.237, 350.1156
5108.166, 347.2956
5110.094, 347.3540
5112.022, 348.8271
5113.951, 347.7403
5115.879, 345.5128
5117.808, 345.0172
5119.736, 349.0653
5121.665, 348.3857
5123.593, 345.6033
5125.522, 342.9273
5127.450, 345.6891
5129.379, 347.4597
5131.307, 346.6624
5133.236, 346.0396
5135.164, 343.9560
5137.093, 342.5508
5139.021, 346.7863
5140.950, 346.1796
5142.878, 344.3141
5144.807, 346.0864
5146.735, 344.0039
5148.664, 342.9207
5150.592, 344.6463
5152.521, 343.2525
5154.449, 343.4709
5156.377, 344.9746
5158.306, 342.2762
5160.234, 341.7202
5162.163, 343.9180
5164.091, 341.7895
5166.020, 345.7033
5167.948, 341.6190
5169.876, 343.9067
5171.805, 346.2438
5173.733, 345.1184
5175.662, 340.5585
5177.590, 338.1310
5179.519, 337.3482
5181.447, 337.5641
5183.376, 337.8792
5185.304, 339.2138
5187.233, 340.6536
5189.161, 341.3104
5191.090, 343.5858
5193.018, 342.2423
5194.947, 336.9443
5196.875, 339.8817
5198.804, 339.3983
5200.732, 336.4764
5202.661, 337.1933
5204.589, 340.0517
5206.518, 342.4323
5208.446, 342.4496
5210.375, 338.1781
5212.303, 334.2328
5214.231, 332.4104
5216.160, 332.3447
5218.088, 331.1057
5220.017, 335.7608
5221.945, 332.2121
5223.874, 335.4921
5225.802, 337.8507
5227.730, 333.3120
5229.659, 337.7626
5231.587, 339.3390
5233.516, 335.7646
5235.444, 333.1672
5237.373, 330.8355
5239.301, 329.2798
5241.230, 328.7164
5243.158, 333.9858
5245.087, 337.8257
5247.015, 336.6862
5248.944, 335.6401
5250.872, 334.1890
5252.801, 332.6959
5254.729, 332.6514
5256.658, 332.2167
5258.586, 329.4273
5260.515, 330.5134
5262.443, 326.1630
5264.372, 331.3529
5266.300, 334.2222
5268.229, 335.4705
5270.157, 331.9627
5272.085, 327.1702
5274.014, 325.8811
5275.942, 328.7295
5277.871, 329.0998
5279.799, 324.6772
5281.728, 323.2610
5283.656, 323.2344
5285.584, 323.7831
5287.513, 324.0910
5289.441, 326.2890
5291.370, 326.0376
5293.298, 326.4958
5295.227, 326.8854
5297.155, 325.6165
5299.084, 327.2437
5301.012, 325.2248
5302.941, 326.3638
5304.869, 327.9744
5306.798, 327.3017
5308.726, 327.0262
5310.655, 324.3985
5312.583, 319.7807
5314.512, 315.7561
5316.440, 318.3629
5318.369, 323.0128
5320.297, 324.8779
5322.226, 322.4969
5324.154, 320.1754
5326.083, 319.2333
5328.011, 318.5663
5329.939, 318.8691
5331.868, 318.8473
5333.796, 317.3571
5335.725, 319.2647
5337.653, 318.2986
5339.582, 314.7203
5341.510, 316.9705
5343.438, 315.3234
5345.367, 313.6973
5347.295, 317.0432
5349.224, 317.6557
5351.152, 319.0738
5353.081, 320.6681
5355.009, 317.1084
5356.938, 315.9005
5358.866, 317.0922
5360.795, 314.4363
5362.723, 315.0072
5364.652, 312.3196
5366.580, 312.8244
5368.509, 312.3730
5370.437, 310.8698
5372.366, 310.4650
5374.294, 312.2913
5376.223, 315.1178
5378.151, 312.9313
5380.080, 309.0745
5382.008, 313.0334
5383.937, 310.9263
5385.865, 308.5535
5387.793, 309.3141
5389.722, 307.2813
5391.650, 308.1223
5393.579, 306.4469
5395.507, 309.6275
5397.436, 311.7042
5399.364, 312.0899
5401.292, 311.0320
5403.221, 308.8283
5405.149, 307.2843
5407.078, 306.7160
5409.006, 307.1341
5410.935, 308.3496
5412.863, 307.3021
5414.792, 303.8167
5416.720, 304.9407
5418.649, 300.9511
5420.577, 304.9017
5422.506, 305.3936
5424.434, 306.4567
5426.363, 306.2338
5428.291, 304.9810
5430.220, 303.3407
5432.148, 302.9895
5434.077, 302.2306
5436.005, 301.2039
5437.934, 301.9720
5439.862, 300.3619
5441.791, 299.6087
5443.719, 301.3170
5445.647, 298.3555
5447.576, 302.0431
5449.504, 306.0421
5451.433, 300.7924
5453.361, 300.8567
5455.290, 300.3013
5457.218, 298.7569
5459.146, 301.5330
5461.075, 301.1224
5463.003, 299.4808
5464.932, 298.2538
5466.860, 298.7193
5468.789, 295.9193
5470.717, 296.2804
5472.646, 294.1346
5474.574, 295.4001
5476.503, 294.7445
5478.431, 293.6581
5480.360, 296.1376
5482.288, 294.9123
5484.217, 295.4072
5486.145, 298.7477
5488.074, 296.8219
5490.002, 292.6820
5491.931, 290.1870
5493.859, 291.4674
5495.788, 289.1816
5497.716, 292.6196
5499.645, 296.5633
5501.573, 292.3227
5503.501, 287.2094
5505.430, 285.7218
5507.358, 287.7098
5509.287, 290.5562
5511.215, 290.1358
5513.144, 287.2607
5515.072, 283.7878
5517.000, 284.9445
5518.929, 287.5316
5520.857, 287.3985
5522.786, 283.1347
5524.714, 283.5948
5526.643, 282.5460
5528.571, 282.0228
5530.500, 282.7087
5532.428, 284.3571
5534.357, 284.1292
5536.285, 285.5305
5538.214, 286.7934
5540.142, 284.7527
5542.071, 283.0757
5543.999, 282.3070
5545.928, 280.3214
5547.856, 277.5077
5549.785, 278.2027
5551.713, 282.3754
5553.642, 281.8452
5555.570, 278.5659
5557.499, 276.0569
5559.427, 276.2393
5561.355, 278.3394
5563.284, 278.9074
5565.212, 278.9822
5567.141, 279.7120
5569.069, 277.8064
5570.998, 278.2896
5572.926, 277.8286
5574.854, 277.4342
5576.783, 277.1900
5578.711, 276.2403
5580.640, 275.6639
5582.568, 276.2699
5584.497, 273.2977
5586.425, 274.3329
5588.354, 278.0283
5590.282, 277.9574
5592.211, 275.0749
5594.139, 271.2027
5596.068, 268.7749
5597.996, 271.5096
5599.925, 266.9173
5601.853, 266.2939
5603.782, 270.6667
5605.710, 267.7396
5607.639, 267.5593
5609.567, 268.4763
5611.496, 269.7118
5613.424, 268.0498
5615.353, 270.0662
5617.281, 266.3104
5619.209, 266.6093
5621.138, 268.6110
5623.066, 265.1318
5624.995, 264.5802
5626.923, 269.1568
5628.852, 267.2666
5630.780, 269.7710
5632.708, 268.1792
5634.637, 267.3979
5636.565, 264.0023
5638.494, 265.2312
5640.422, 265.0220
5642.351, 264.7314
5644.279, 262.8805
5646.208, 263.1606
5648.136, 263.1734
5650.065, 261.8375
5651.993, 261.9654
5653.922, 261.0562
5655.850, 260.5559
5657.779, 260.7427
5659.707, 257.4921
5661.636, 261.3881
5663.564, 262.0567
5665.493, 256.0290
5667.421, 254.6988
5669.350, 257.9213
5671.278, 258.3792
5673.207, 254.9904
5675.135, 256.0312
5677.063, 254.8688
5678.992, 254.5846
5680.920, 254.4770
5682.849, 254.9494
5684.777, 256.2406
5686.706, 256.3987
5688.634, 254.9055
5690.563, 256.3846
5692.491, 255.3382
5694.419, 256.7735
5696.348, 254.1111
5698.276, 252.0422
5700.205, 252.5827
5702.133, 253.6616
5704.062, 254.1400
5705.990, 253.4458
5707.919, 252.1876
5709.847, 249.8374
5711.776, 247.7623
5713.704, 247.7206
5715.633, 250.1926
5717.561, 249.9757
5719.490, 249.4050
5721.418, 251.0646
5723.347, 247.9969
5725.275, 247.0629
5727.204, 247.4380
5729.132, 247.3782
5731.061, 245.4614
5732.989, 245.1442
5734.917, 245.4166
5736.846, 245.2896
5738.774, 244.2435
5740.703, 244.3438
5742.631, 244.1448
5744.560, 243.3475
5746.488, 242.9695
5748.417, 241.0586
5750.345, 240.5666
5752.273, 241.5629
5754.202, 242.5410
5756.130, 242.2535
5758.059, 242.1955
5759.987, 241.1809
5761.916, 241.4386
5763.844, 238.7627
5765.773, 240.3136
5767.701, 239.8315
5769.630, 236.7311
5771.558, 235.9087
5773.487, 238.4990
5775.415, 238.5581
5777.344, 236.7909
5779.272, 242.7735
5781.201, 238.0000
5783.129, 234.4942
5785.058, 234.9926
5786.986, 236.3792
5788.915, 235.6413
5790.843, 235.8013
5792.771, 235.3236
5794.700, 233.1467
5796.628, 236.7942
5798.557, 233.3680
5800.485, 230.0928
5802.414, 231.3308
5804.342, 234.3814
5806.271, 233.3535
5808.199, 233.3633
5810.127, 233.9057
5812.056, 230.0860
5813.984, 230.6295
5815.913, 230.0869
5817.841, 229.5754
5819.770, 230.7071
5821.698, 227.6898
5823.627, 228.6133
5825.555, 229.0798
5827.484, 228.2397
5829.412, 231.5938
5831.341, 225.8798
5833.269, 225.1015
5835.198, 228.8070
5837.126, 230.2400
5839.055, 227.2997
5840.983, 226.0202
5842.912, 225.6592
5844.840, 224.9433
5846.769, 223.9594
5848.697, 223.1876
5850.625, 224.9351
5852.554, 223.4023
5854.482, 226.7571
5856.411, 223.1506
5858.339, 224.2406
5860.268, 226.4022
5862.196, 225.3263
5864.125, 220.0841
5866.053, 219.5693
5867.981, 220.2985
5869.910, 220.7995
5871.838, 221.9433
5873.767, 220.0163
5875.695, 220.4137
5877.624, 219.4459
5879.552, 215.6413
5881.481, 220.6448
5883.409, 220.8788
5885.338, 218.5542
5887.266, 216.3951
5889.195, 215.7694
5891.123, 217.9038
5893.052, 218.3422
5894.980, 217.4472
5896.909, 216.6747
5898.837, 218.3403
5900.766, 217.2547
5902.694, 215.5797
5904.623, 215.1066
5906.551, 213.4442
5908.479, 211.4654
5910.408, 210.8989
5912.336, 211.1071
5914.265, 210.5701
5916.193, 211.5292
5918.122, 215.5752
5920.050, 213.1474
5921.979, 206.5131
5923.907, 213.4811
5925.835, 217.2525
5927.764, 217.9987
5929.692, 206.6602
5931.621, 210.9267
5933.549, 208.9395
5935.478, 206.6957
5937.406, 213.1588
5939.335, 203.5777
5941.263, 209.9027
5943.192, 209.8782
5945.120, 212.7598
5947.049, 209.3487
5948.977, 207.8813
5950.906, 212.7083
5952.834, 214.0501
5954.763, 209.9147
5956.691, 212.9810
5958.620, 203.1802
5960.548, 204.6705
5962.477, 211.0321
5964.405, 207.2132
5966.333, 210.3946
5968.262, 210.9096
5970.190, 199.3087
5972.119, 208.7789
5974.047, 209.1367
5975.976, 200.1375
5977.904, 208.8859
5979.833, 201.1766
5981.761, 199.3418
5983.689, 201.9279
5985.618, 199.9052
5987.546, 205.1486
5989.475, 203.3921
5991.403, 201.0104
5993.332, 201.3577
5995.260, 199.1881
5997.189, 200.9326
5999.117, 198.0933
6001.046, 200.1257
6002.974, 203.2623
6004.903, 197.9437
6006.831, 201.5765
6008.760, 191.3279
6010.688, 192.6944
6012.617, 192.8099
6014.545, 200.3499
6016.474, 190.1688
6018.402, 191.2127
6020.331, 197.0356
6022.259, 196.1714
6024.188, 198.1030
6026.116, 196.5711
6028.044, 195.6882
6029.973, 195.3675
6031.901, 192.1523
6033.830, 193.2095
6035.758, 190.8972
6037.687, 189.7256
6039.615, 189.4951
6041.543, 189.0421
6043.472, 188.4347
6045.400, 188.9818
6047.329, 189.1443
6049.257, 187.3978
6051.186, 189.1174
6053.114, 192.0142
6055.043, 184.8670
6056.971, 185.7878
6058.900, 186.5550
6060.828, 188.6861
6062.757, 190.5759
6064.685, 189.4468
6066.614, 187.5926
6068.542, 186.9375
6070.471, 184.5882
6072.399, 182.8994
6074.328, 182.5477
6076.256, 182.7137
6078.185, 185.5154
6080.113, 184.7645
6082.042, 182.1910
6083.970, 184.9731
6085.898, 177.7734
6087.827, 178.7898
6089.755, 184.5486
6091.684, 187.2124
6093.612, 181.8776
6095.541, 174.4174
6097.469, 179.1496
6099.397, 180.2102
6101.326, 178.0475
6103.254, 179.7051
6105.183, 178.8402
6107.111, 174.7881
6109.040, 176.6756
6110.968, 177.8066
6112.897, 172.9602
6114.825, 173.9687
6116.754, 177.9695
6118.682, 175.6953
6120.611, 172.3953
6122.539, 172.4012
6124.468, 173.5353
6126.396, 177.0666
6128.325, 173.0561
6130.253, 173.5167
6132.182, 177.1405
6134.110, 171.9056
6136.039, 171.0378
6137.967, 173.1601
6139.896, 171.0224
6141.824, 168.0999
6143.752, 169.7627
6145.681, 171.3647
6147.609, 171.9937
6149.538, 171.5513
6151.466, 170.6497
6153.395, 170.2678
6155.323, 171.8191
6157.251, 170.5549
6159.180, 170.4977
6161.108, 165.4190
6163.037, 169.9001
6164.965, 167.0188
6166.894, 168.0709
6168.822, 167.9564
6170.751, 165.9120
6172.679, 164.6597
6174.608, 165.9763
6176.536, 164.9460
6178.465, 165.5392
6180.393, 165.1050
6182.322, 164.1619
6184.250, 165.9373
6186.179, 162.2102
6188.107, 162.1558
6190.036, 161.2602
6191.964, 164.8810
6193.893, 160.8788
6195.821, 164.3967
6197.750, 164.9336
6199.678, 164.6652
6201.606, 166.2609
6203.535, 166.2781
6205.463, 163.5134
6207.392, 160.2206
6209.320, 162.5933
6211.249, 162.8085
6213.177, 161.8086
6215.105, 158.7577
6217.034, 155.2130
6218.962, 155.8787
6220.891, 156.0963
6222.819, 156.4403
6224.748, 155.6591
6226.676, 155.5683
6228.605, 154.9001
6230.533, 154.9116
6232.462, 154.1855
6234.390, 154.6609
6236.319, 156.1907
6238.247, 156.0781
6240.176, 151.8894
6242.104, 153.5878
6244.033, 152.1381
6245.961, 154.8530
6247.890, 156.7657
6249.818, 155.2884
6251.747, 154.8868
6253.675, 158.5339
6255.604, 153.0953
6257.532, 152.9917
6259.460, 154.7050
6261.389, 152.9048
6263.317, 151.8756
6265.246, 149.5100
6267.174, 153.1264
6269.103, 151.3200
6271.031, 147.6885
6272.959, 149.1490
6274.888, 153.8293
6276.816, 149.5713
6278.745, 150.1539
6280.673, 151.6973
6282.602, 150.4530
6284.530, 147.3541
6286.459, 149.0318
6288.387, 145.7733
6290.316, 146.0574
6292.244, 146.2362
6294.173, 146.0845
6296.101, 146.7804
6298.030, 145.2588
6299.958, 145.1456
6301.887, 146.5284
6303.815, 144.3830
6305.744, 142.3848
6307.672, 143.3584
6309.601, 139.8270
6311.529, 144.0465
6313.458, 142.1594
6315.386, 142.6051
6317.314, 143.7618
6319.243, 143.9905
6321.171, 142.6729
6323.100, 144.1227
6325.028, 140.2520
6326.957, 139.5649
6328.885, 140.6982
6330.813, 142.3461
6332.742, 142.9305
6334.670, 143.5326
6336.599, 139.9519
6338.527, 139.7353
6340.456, 141.6682
6342.384, 143.1183
6344.313, 143.5348
6346.241, 142.6463
6348.170, 140.5564
6350.098, 139.4030
6352.027, 136.7429
6353.955, 135.4971
6355.884, 136.5808
6357.812, 137.7914
6359.741, 139.7432
6361.669, 135.6591
6363.598, 135.3070
6365.526, 136.1531
6367.455, 134.7985
6369.383, 134.7767
6371.312, 134.4891
6373.240, 133.2943
6375.168, 134.0957
6377.097, 132.6346
6379.025, 133.1880
6380.954, 135.4400
6382.882, 136.2291
6384.811, 132.6864
6386.739, 134.2978
6388.667, 132.3979
6390.596, 129.8181
6392.524, 131.9536
6394.453, 133.1768
6396.381, 133.4173
6398.310, 133.7565
6400.238, 133.1575
6402.167, 132.4575
6404.095, 131.5301
6406.024, 130.8205
6407.952, 130.8128
6409.881, 131.4916
6411.809, 130.9468
6413.738, 130.5600
6415.666, 127.2943
6417.595, 129.6737
6419.523, 127.7228
6421.452, 128.4731
6423.380, 128.7677
6425.309, 130.6791
6427.237, 130.8950
6429.166, 129.5360
6431.094, 128.5453
6433.022, 127.3851
6434.951, 127.1280
6436.879, 127.9785
6438.808, 126.8468
6440.736, 125.7436
6442.665, 125.3625
6444.593, 122.7974
6446.521, 126.5757
6448.450, 126.8165
6450.378, 123.6499
6452.307, 126.5875
6454.235, 126.6178
6456.164, 122.2232
6458.092, 120.2349
6460.021, 119.7635
6461.949, 122.2116
6463.878, 120.7449
6465.806, 121.5855
6467.735, 123.8048
6469.663, 123.0660
6471.592, 120.7100
6473.520, 126.9770
6475.449, 121.7732
6477.377, 119.9981
6479.306, 122.2976
6481.234, 121.2620
6483.163, 118.5860
6485.091, 119.1526
6487.020, 118.5300
6488.948, 117.9843
6490.876, 116.9436
6492.805, 114.9450
6494.733, 114.9877
6496.662, 117.2526
6498.590, 118.7449
6500.519, 116.4592
6502.447, 117.1000
6504.375, 117.6851
6506.304, 118.8278
6508.232, 118.7221
6510.161, 118.7650
6512.089, 118.0117
6514.018, 117.6907
6515.946, 115.8107
6517.875, 114.4406
6519.803, 114.6197
6521.732, 112.7847
6523.660, 115.0201
6525.589, 116.7061
6527.517, 117.4309
6529.446, 114.3579
6531.374, 115.0724
6533.303, 114.3942
6535.231, 113.2495
6537.160, 114.0982
6539.088, 113.7766
6541.017, 114.0128
6542.945, 116.8008
6544.874, 111.8585
6546.802, 109.0422
6548.730, 110.7499
6550.659, 112.3193
6552.587, 111.5754
6554.516, 110.6155
6556.444, 110.8311
6558.373, 110.1041
6560.301, 110.6668
6562.229, 105.5498
6564.158, 106.8955
6566.086, 107.6003
6568.015, 109.3173
6569.943, 111.4991
6571.872, 111.0930
6573.800, 110.4666
6575.729, 106.4247
6577.657, 106.0035
6579.586, 107.3536
6581.514, 108.0008
6583.443, 107.6787
6585.371, 107.5218
6587.300, 108.0028
6589.228, 107.7779
6591.157, 104.8131
6593.085, 103.4852
6595.014, 106.0699
6596.942, 106.8206
6598.871, 103.3407
6600.799, 102.8674
6602.728, 107.2665
6604.656, 104.6580
6606.584, 104.7096
6608.513, 105.2817
6610.441, 105.2214
6612.370, 105.5033
6614.298, 104.6978
6616.227, 103.8412
6618.155, 104.4613
6620.083, 105.6993
6622.012, 107.0206
6623.940, 108.0451
6625.869, 101.7399
6627.797, 101.7974
6629.726, 100.6576
##END=



