##NAMES=Zalesiite
##RRUFFID=R070455
##IDEAL CHEMISTRY=CaCu_6_(AsO_4_)_2_(AsO_3_OH)(OH)_6_·3H_2_O
##LOCALITY=Zálesí, Javorník, Olomouc Region, Moravia (Mähren; Maehren), Czech Republic
##OWNER=RRUFF
##SOURCE=Michael Scott
##DESCRIPTION=Matted aggregates of pale blue-green microscopic fibers
##STATUS=The identification of this mineral is not yet confirmed
##URL=https://www.rruff.net/odr/rruff_sample/R070455
##FILETYPE=Raman RAW
##RAMAN WAVELENGTH=785

112.4787, 116.5988
114.4072, 147.2894
116.3357, 184.0839
118.2641, 223.7824
120.1926, 274.5963
122.1211, 340.4702
124.0495, 418.0050
125.9780, 515.7190
127.9065, 619.4247
129.8349, 680.7908
131.7634, 692.2378
133.6919, 738.6064
135.6203, 840.8837
137.5488, 952.2217
139.4773, 1062.129
141.4057, 1165.275
143.3342, 1255.034
145.2627, 1330.444
147.1911, 1395.939
149.1196, 1450.118
151.0481, 1506.148
152.9765, 1568.328
154.9050, 1627.755
156.8335, 1650.286
158.7619, 1622.690
160.6904, 1616.498
162.6189, 1626.037
164.5473, 1628.230
166.4758, 1616.862
168.4043, 1605.278
170.3327, 1596.122
172.2612, 1589.163
174.1897, 1586.542
176.1181, 1584.301
178.0466, 1574.495
179.9751, 1555.221
181.9035, 1542.653
183.8320, 1543.925
185.7605, 1543.555
187.6889, 1536.217
189.6174, 1527.294
191.5459, 1521.423
193.4743, 1517.157
195.4028, 1511.031
197.3313, 1506.949
199.2598, 1494.542
201.1882, 1465.757
203.1167, 1438.575
205.0451, 1416.021
206.9736, 1399.215
208.9021, 1393.076
210.8305, 1396.045
212.7590, 1391.821
214.6875, 1376.582
216.6159, 1368.246
218.5444, 1369.103
220.4729, 1367.837
222.4013, 1360.799
224.3298, 1351.777
226.2583, 1342.651
228.1867, 1333.325
230.1152, 1323.945
232.0437, 1311.924
233.9721, 1298.315
235.9006, 1283.225
237.8291, 1272.511
239.7575, 1270.597
241.6860, 1269.188
243.6145, 1260.320
245.5429, 1248.112
247.4714, 1244.291
249.3999, 1247.086
251.3283, 1241.975
253.2568, 1230.173
255.1853, 1217.744
257.1137, 1196.825
259.0422, 1175.057
260.9707, 1161.427
262.8991, 1156.847
264.8276, 1152.813
266.7561, 1146.995
268.6845, 1143.733
270.6130, 1146.039
272.5415, 1140.711
274.4699, 1123.005
276.3984, 1105.290
278.3269, 1091.660
280.2553, 1081.441
282.1838, 1075.571
284.1123, 1072.776
286.0407, 1066.785
287.9692, 1053.415
289.8977, 1041.775
291.8261, 1033.156
293.7546, 1026.399
295.6831, 1019.194
297.6115, 1015.637
299.5400, 1022.251
301.4685, 1032.235
303.3969, 1031.722
305.3254, 1019.488
307.2539, 1010.031
309.1823, 1002.663
311.1108, 1002.799
313.0393, 1015.697
314.9677, 1026.475
316.8962, 1028.000
318.8247, 1028.951
320.7531, 1035.254
322.6816, 1043.512
324.6101, 1042.977
326.5385, 1030.451
328.4670, 1016.861
330.3955, 1006.429
332.3239, 998.3329
334.2524, 988.8651
336.1809, 978.3026
338.1093, 969.4664
340.0378, 964.0684
341.9663, 963.0784
343.8947, 963.4019
345.8232, 956.1362
347.7517, 939.5451
349.6801, 930.8924
351.6086, 939.4156
353.5371, 946.7640
355.4655, 949.0732
357.3940, 948.9048
359.3225, 944.7832
361.2509, 941.5390
363.1794, 948.6047
365.1079, 962.3839
367.0363, 964.9809
368.9648, 950.5145
370.8933, 941.9702
372.8217, 943.0222
374.7502, 945.5408
376.6787, 948.9301
378.6071, 953.2067
380.5356, 957.7375
382.4641, 962.9831
384.3925, 970.3602
386.3210, 979.3899
388.2495, 989.5500
390.1779, 1002.967
392.1064, 1004.425
394.0349, 987.3314
395.9633, 979.3462
397.8918, 992.5594
399.8203, 1004.985
401.7487, 1005.885
403.6772, 1001.217
405.6057, 991.5405
407.5341, 981.3370
409.4626, 982.3610
411.3911, 993.9954
413.3195, 1000.686
415.2480, 1001.931
417.1765, 1005.612
419.1049, 1015.876
421.0334, 1021.147
422.9619, 1014.201
424.8904, 1006.622
426.8188, 1002.716
428.7473, 1002.878
430.6758, 1009.869
432.6042, 1020.043
434.5327, 1018.665
436.4612, 1003.966
438.3896, 991.6989
440.3181, 985.2678
442.2466, 983.8608
444.1750, 987.5081
446.1035, 990.4202
448.0320, 990.0709
449.9604, 994.6676
451.8889, 1009.507
453.8174, 1029.512
455.7458, 1048.505
457.6743, 1063.833
459.6028, 1073.288
461.5312, 1076.714
463.4597, 1088.763
465.3882, 1118.176
467.3166, 1139.989
469.2451, 1149.963
471.1736, 1155.550
473.1020, 1160.514
475.0305, 1165.010
476.9590, 1170.539
478.8874, 1171.564
480.8159, 1157.111
482.7444, 1134.031
484.6728, 1123.817
486.6013, 1125.788
488.5298, 1114.897
490.4582, 1090.451
492.3867, 1070.245
494.3152, 1054.837
496.2436, 1038.580
498.1721, 1023.078
500.1006, 1011.785
502.0290, 1001.030
503.9575, 989.4728
505.8860, 981.2652
507.8144, 976.6002
509.7429, 970.0389
511.6714, 963.1116
513.5998, 960.1838
515.5283, 957.1240
517.4567, 950.8637
519.3852, 945.7554
521.3137, 943.6550
523.2421, 938.6899
525.1706, 933.1882
527.0991, 931.3307
529.0275, 934.2326
530.9560, 944.7918
532.8845, 949.8821
534.8129, 936.2626
536.7414, 915.3176
538.6699, 908.6897
540.5983, 911.3256
542.5268, 906.5942
544.4553, 895.0225
546.3837, 888.5463
548.3122, 888.9867
550.2407, 886.0894
552.1691, 875.5187
554.0976, 867.9048
556.0261, 868.3086
557.9545, 866.5939
559.8830, 862.4809
561.8115, 861.1509
563.7399, 859.0782
565.6684, 852.9462
567.5969, 840.5327
569.5253, 824.7430
571.4538, 812.6024
573.3823, 807.2016
575.3107, 810.7353
577.2392, 821.0946
579.1677, 819.6272
581.0961, 802.5145
583.0246, 789.0010
584.9531, 788.3123
586.8815, 787.3976
588.8100, 782.6193
590.7385, 780.8378
592.6669, 772.0669
594.5954, 766.1036
596.5239, 769.9017
598.4523, 768.0718
600.3808, 760.2849
602.3093, 757.8198
604.2377, 764.8413
606.1662, 771.7549
608.0947, 766.3375
610.0231, 757.4805
611.9516, 760.9718
613.8801, 768.9149
615.8085, 764.2310
617.7370, 753.7618
619.6655, 755.5575
621.5939, 765.8171
623.5224, 761.1666
625.4509, 748.8468
627.3793, 742.3874
629.3078, 738.0898
631.2363, 737.4697
633.1647, 740.4807
635.0932, 747.0720
637.0217, 755.7100
638.9501, 757.2426
640.8786, 752.7971
642.8071, 750.4639
644.7355, 749.7747
646.6640, 746.0425
648.5925, 739.7294
650.5209, 736.5099
652.4494, 741.3469
654.3779, 750.3475
656.3063, 756.9139
658.2348, 758.3580
660.1633, 755.4382
662.0917, 752.7233
664.0202, 754.3184
665.9487, 756.1421
667.8771, 749.8952
669.8056, 744.1476
671.7341, 748.9795
673.6625, 751.9174
675.5910, 748.6410
677.5195, 745.5966
679.4479, 742.0046
681.3764, 737.2351
683.3049, 733.8583
685.2333, 729.6871
687.1618, 727.4059
689.0903, 731.9742
691.0187, 735.5585
692.9472, 736.0662
694.8757, 739.0203
696.8041, 740.1918
698.7326, 740.0098
700.6611, 741.4912
702.5895, 741.5082
704.5180, 739.0370
706.4465, 734.0962
708.3749, 730.2795
710.3034, 733.4023
712.2319, 735.8118
714.1603, 728.5071
716.0888, 722.8542
718.0173, 724.8220
719.9457, 728.2111
721.8742, 731.2042
723.8027, 728.7211
725.7311, 719.0519
727.6596, 714.6358
729.5881, 719.9808
731.5165, 724.4189
733.4450, 723.4451
735.3735, 723.0096
737.3019, 726.5258
739.2304, 729.0340
741.1589, 728.9929
743.0873, 726.3173
745.0158, 718.0820
746.9443, 712.6863
748.8727, 717.4671
750.8012, 721.2675
752.7297, 719.0078
754.6581, 719.4356
756.5866, 717.8239
758.5151, 711.7109
760.4435, 711.2716
762.3720, 714.6892
764.3005, 716.9560
766.2289, 720.5090
768.1574, 723.0795
770.0859, 723.3344
772.0143, 726.0877
773.9428, 730.9104
775.8713, 735.1235
777.7997, 740.2474
779.7282, 748.6877
781.6567, 761.3663
783.5851, 763.0877
785.5136, 748.8187
787.4421, 745.2390
789.3705, 759.2850
791.2990, 769.5714
793.2275, 771.0683
795.1559, 774.9305
797.0844, 783.9189
799.0129, 791.1384
800.9413, 794.0854
802.8698, 797.8187
804.7983, 804.1930
806.7267, 813.8456
808.6552, 824.4775
810.5837, 836.8106
812.5121, 857.3568
814.4406, 876.1389
816.3691, 885.2444
818.2975, 892.7028
820.2260, 902.8849
822.1545, 914.1669
824.0829, 926.3427
826.0114, 939.2905
827.9399, 953.9819
829.8683, 966.9052
831.7968, 972.4023
833.7253, 974.1443
835.6537, 977.1444
837.5822, 981.6180
839.5107, 988.1400
841.4391, 996.3936
843.3676, 1006.757
845.2961, 1017.928
847.2245, 1025.967
849.1530, 1033.983
851.0815, 1048.132
853.0099, 1065.039
854.9384, 1077.732
856.8669, 1086.895
858.7953, 1095.164
860.7238, 1101.518
862.6523, 1097.318
864.5807, 1083.081
866.5092, 1068.756
868.4377, 1054.186
870.3661, 1039.927
872.2946, 1028.454
874.2231, 1002.929
876.1516, 955.8548
878.0800, 917.7037
880.0085, 893.7117
881.9370, 875.2521
883.8654, 865.8978
885.7939, 850.9047
887.7224, 820.3638
889.6508, 798.9446
891.5793, 796.4486
893.5078, 792.5598
895.4362, 781.0818
897.3647, 769.6165
899.2932, 761.1644
901.2216, 755.0319
903.1501, 752.0396
905.0786, 745.9954
907.0070, 731.1634
908.9355, 718.9793
910.8640, 718.2471
912.7924, 719.4785
914.7209, 715.1562
916.6494, 708.7004
918.5778, 701.9373
920.5063, 699.9864
922.4348, 707.9183
924.3632, 710.2068
926.2917, 699.4678
928.2202, 692.7503
930.1486, 693.1148
932.0771, 691.6210
934.0056, 690.3137
935.9340, 691.8365
937.8625, 694.7059
939.7910, 692.0062
941.7194, 681.1445
943.6479, 676.7587
945.5764, 682.4758
947.5048, 684.5750
949.4333, 680.7192
951.3618, 676.9819
953.2902, 674.6597
955.2187, 673.3536
957.1472, 677.3148
959.0756, 680.9613
961.0041, 673.1719
962.9326, 664.4199
964.8610, 666.4215
966.7895, 669.2163
968.7180, 664.6669
970.6464, 659.8353
972.5749, 657.4431
974.5034, 657.3793
976.4318, 667.0036
978.3603, 671.1418
980.2888, 649.1898
982.2172, 631.2794
984.1457, 643.1334
986.0742, 655.0374
988.0026, 649.7593
989.9311, 645.0854
991.8596, 647.4030
993.7880, 651.3184
995.7165, 657.7781
997.6450, 662.7269
999.5734, 660.8987
1001.502, 656.4745
1003.430, 651.8802
1005.359, 647.6627
1007.287, 647.0317
1009.216, 647.0045
1011.144, 641.2548
1013.073, 634.5215
1015.001, 635.4345
1016.930, 637.2036
1018.858, 628.0813
1020.787, 622.7238
1022.715, 638.9704
1024.643, 649.3309
1026.572, 631.7010
1028.500, 619.5262
1030.429, 634.5035
1032.357, 649.0984
1034.286, 641.2314
1036.214, 630.7309
1038.143, 636.7747
1040.071, 638.8832
1042.000, 626.5695
1043.928, 620.2111
1045.857, 622.6398
1047.785, 623.0423
1049.714, 625.1718
1051.642, 628.2111
1053.570, 621.9537
1055.499, 619.7698
1057.427, 631.4781
1059.356, 634.5499
1061.284, 626.1411
1063.213, 625.8055
1065.141, 631.3731
1067.070, 630.3502
1068.998, 622.1524
1070.927, 617.0847
1072.855, 621.8860
1074.784, 625.9205
1076.712, 624.2452
1078.641, 621.4343
1080.569, 613.2936
1082.497, 603.9509
1084.426, 603.1370
1086.354, 611.9987
1088.283, 622.5598
1090.211, 628.2748
1092.140, 630.1116
1094.068, 625.0482
1095.997, 618.3967
1097.925, 613.0566
1099.854, 604.7059
1101.782, 598.3183
1103.711, 594.8021
1105.639, 592.8224
1107.568, 592.9752
1109.496, 594.1043
1111.424, 596.0035
1113.353, 596.6810
1115.281, 594.2001
1117.210, 590.3551
1119.138, 588.5536
1121.067, 593.7919
1122.995, 598.5355
1124.924, 587.9310
1126.852, 577.5601
1128.781, 588.8810
1130.709, 602.2059
1132.638, 596.0471
1134.566, 588.1680
1136.495, 595.1602
1138.423, 601.5216
1140.351, 596.9697
1142.280, 593.8257
1144.208, 596.0969
1146.137, 595.9590
1148.065, 592.1757
1149.994, 588.7888
1151.922, 586.0518
1153.851, 589.9377
1155.779, 601.6373
1157.708, 604.7993
1159.636, 598.6287
1161.565, 593.9515
1163.493, 591.7896
1165.422, 592.1716
1167.350, 593.4855
1169.278, 599.7379
1171.207, 609.8516
1173.135, 606.0850
1175.064, 591.0283
1176.992, 581.2625
1178.921, 579.1434
1180.849, 578.6210
1182.778, 578.0031
1184.706, 583.8661
1186.635, 589.5229
1188.563, 583.6714
1190.492, 577.6595
1192.420, 581.3022
1194.349, 586.1310
1196.277, 589.3291
1198.205, 591.5467
1200.134, 590.5768
1202.062, 592.8403
1203.991, 603.7813
1205.919, 600.9731
1207.848, 575.6234
1209.776, 567.5738
1211.705, 583.9876
1213.633, 591.0784
1215.562, 587.5215
1217.490, 587.3907
1219.419, 590.6782
1221.347, 596.6697
1223.276, 602.2026
1225.204, 594.8630
1227.132, 583.0304
1229.061, 584.4090
1230.989, 588.8843
1232.918, 580.9473
1234.846, 573.3787
1236.775, 579.8970
1238.703, 585.8475
1240.632, 584.7087
1242.560, 579.7083
1244.489, 568.3651
1246.417, 566.0886
1248.346, 578.5274
1250.274, 587.2087
1252.203, 589.1096
1254.131, 592.0223
1256.059, 596.1835
1257.988, 593.4624
1259.916, 585.8526
1261.845, 586.5724
1263.773, 591.5051
1265.702, 588.0670
1267.630, 583.9529
1269.559, 596.0390
1271.487, 607.2061
1273.416, 595.5718
1275.344, 583.8165
1277.273, 585.2812
1279.201, 592.1176
1281.130, 608.3530
1283.058, 612.5245
1284.986, 596.8061
1286.915, 587.5614
1288.843, 588.3890
1290.772, 587.9529
1292.700, 585.9460
1294.629, 585.6828
1296.557, 586.6508
1298.486, 588.8087
1300.414, 590.0240
1302.343, 586.2313
1304.271, 580.3767
1306.200, 574.9684
1308.128, 569.2177
1310.057, 558.1063
1311.985, 555.0542
1313.913, 573.1484
1315.842, 584.1918
1317.770, 581.6760
1319.699, 575.7778
1321.627, 566.6879
1323.556, 564.6924
1325.484, 568.1175
1327.413, 560.7985
1329.341, 549.4775
1331.270, 557.3755
1333.198, 572.4710
1335.127, 575.9540
1337.055, 575.2617
1338.984, 580.8920
1340.912, 583.3842
1342.840, 573.0771
1344.769, 564.0884
1346.697, 562.9341
1348.626, 559.9191
1350.554, 551.4556
1352.483, 551.9240
1354.411, 561.0233
1356.340, 568.0751
1358.268, 571.9009
1360.197, 565.1094
1362.125, 554.5673
1364.054, 551.1777
1365.982, 547.8329
1367.911, 534.3903
1369.839, 529.9246
1371.767, 550.1876
1373.696, 560.6010
1375.624, 549.3675
1377.553, 540.9555
1379.481, 537.1428
1381.410, 541.4854
1383.338, 551.5849
1385.267, 552.7643
1387.195, 548.5862
1389.124, 541.7330
1391.052, 539.2134
1392.981, 555.2693
1394.909, 564.0790
1396.838, 549.3135
1398.766, 540.3556
1400.694, 546.6594
1402.623, 548.6098
1404.551, 543.2592
1406.480, 548.4596
1408.408, 560.7772
1410.337, 555.9697
1412.265, 546.2123
1414.194, 561.0671
1416.122, 575.0209
1418.051, 558.4017
1419.979, 543.7387
1421.908, 547.0038
1423.836, 540.2585
1425.765, 514.8797
1427.693, 512.8995
1429.621, 536.1125
1431.550, 544.3744
1433.478, 541.0776
1435.407, 534.9526
1437.335, 531.1888
1439.264, 541.6523
1441.192, 550.2769
1443.121, 544.8367
1445.049, 537.1034
1446.978, 528.1799
1448.906, 525.5879
1450.835, 530.0168
1452.763, 533.2977
1454.692, 534.0313
1456.620, 525.1899
1458.548, 516.1256
1460.477, 527.9249
1462.405, 536.9147
1464.334, 517.2230
1466.262, 503.4714
1468.191, 510.3625
1470.119, 511.8088
1472.048, 504.7301
1473.976, 517.9143
1475.905, 545.1786
1477.833, 558.9488
1479.762, 558.9591
1481.690, 535.5178
1483.619, 513.9633
1485.547, 512.7292
1487.475, 519.3676
1489.404, 538.7465
1491.332, 542.5319
1493.261, 528.2864
1495.189, 526.0483
1497.118, 532.0722
1499.046, 530.4711
1500.975, 526.3705
1502.903, 526.4147
1504.832, 525.8795
1506.760, 520.7007
1508.689, 516.8224
1510.617, 515.6225
1512.546, 516.9657
1514.474, 520.6081
1516.402, 513.6366
1518.331, 503.2447
1520.259, 507.5190
1522.188, 514.7717
1524.116, 518.2436
1526.045, 516.1162
1527.973, 502.3117
1529.902, 501.2315
1531.830, 517.5022
1533.759, 528.2568
1535.687, 532.9717
1537.616, 526.7370
1539.544, 517.1092
1541.473, 510.0062
1543.401, 508.4886
1545.329, 516.0212
1547.258, 522.5075
1549.186, 526.4397
1551.115, 522.1576
1553.043, 512.5399
1554.972, 513.1144
1556.900, 518.1380
1558.829, 523.0388
1560.757, 522.0989
1562.686, 509.5605
1564.614, 502.4615
1566.543, 504.7963
1568.471, 507.6458
1570.400, 510.6253
1572.328, 517.8465
1574.256, 522.9432
1576.185, 513.0281
1578.113, 502.6314
1580.042, 498.6674
1581.970, 496.4505
1583.899, 495.2202
1585.827, 491.4624
1587.756, 486.9271
1589.684, 492.1582
1591.613, 498.8057
1593.541, 493.2775
1595.470, 489.8016
1597.398, 497.1759
1599.327, 498.2275
1601.255, 490.8118
1603.183, 485.8582
1605.112, 484.2026
1607.040, 487.0949
1608.969, 491.3425
1610.897, 493.9528
1612.826, 496.7089
1614.754, 503.0894
1616.683, 495.4861
1618.611, 474.6276
1620.540, 463.3915
1622.468, 460.5623
1624.397, 465.1267
1626.325, 470.5081
1628.254, 471.6435
1630.182, 473.3470
1632.110, 477.4392
1634.039, 474.2100
1635.967, 465.8796
1637.896, 464.2261
1639.824, 465.0414
1641.753, 464.8387
1643.681, 462.7704
1645.610, 455.1875
1647.538, 454.7766
1649.467, 462.2001
1651.395, 464.5597
1653.324, 462.2616
1655.252, 452.4702
1657.181, 445.5337
1659.109, 449.8782
1661.037, 454.9355
1662.966, 459.4410
1664.894, 459.0222
1666.823, 455.3851
1668.751, 456.9439
1670.680, 456.6420
1672.608, 447.2981
1674.537, 437.1466
1676.465, 426.0295
1678.394, 431.2042
1680.322, 449.2508
1682.251, 455.2763
1684.179, 451.8450
1686.108, 435.0322
1688.036, 427.0339
1689.964, 438.8314
1691.893, 447.9463
1693.821, 451.8856
1695.750, 450.1164
1697.678, 445.9320
1699.607, 444.4228
1701.535, 442.9642
1703.464, 440.4599
1705.392, 437.3640
1707.321, 433.9530
1709.249, 435.3087
1711.178, 438.3869
1713.106, 437.4452
1715.035, 436.6478
1716.963, 439.3253
1718.891, 433.8708
1720.820, 419.9465
1722.748, 418.0234
1724.677, 423.2532
1726.605, 430.1183
1728.534, 432.5282
1730.462, 424.8865
1732.391, 426.5074
1734.319, 437.7620
1736.248, 431.6648
1738.176, 420.0418
1740.105, 424.5165
1742.033, 429.9535
1743.962, 429.0155
1745.890, 429.5285
1747.818, 431.1767
1749.747, 421.8348
1751.675, 410.5035
1753.604, 408.8916
1755.532, 412.5367
1757.461, 421.7247
1759.389, 428.3751
1761.318, 431.0184
1763.246, 421.1603
1765.175, 407.7755
1767.103, 395.1210
1769.032, 394.4463
1770.960, 414.5379
1772.889, 417.3965
1774.817, 407.9154
1776.745, 410.9725
1778.674, 414.4296
1780.602, 407.6211
1782.531, 398.5137
1784.459, 387.1343
1786.388, 388.7405
1788.316, 398.5778
1790.245, 409.3578
1792.173, 414.7415
1794.102, 408.6977
1796.030, 402.0401
1797.959, 395.9867
1799.887, 387.1520
1801.816, 383.3626
1803.744, 400.1274
1805.672, 411.4743
1807.601, 404.9527
1809.529, 403.3358
1811.458, 406.0084
1813.386, 408.2132
1815.315, 406.4777
1817.243, 395.1269
1819.172, 390.8366
1821.100, 398.5162
1823.029, 386.2757
1824.957, 368.3010
1826.886, 372.4548
1828.814, 379.7918
1830.743, 383.1259
1832.671, 389.1723
1834.599, 397.4389
1836.528, 403.9681
1838.456, 401.6648
1840.385, 380.2110
1842.313, 369.8235
1844.242, 374.8728
1846.170, 371.8514
1848.099, 367.8135
1850.027, 380.5325
1851.956, 384.9352
1853.884, 370.9288
1855.813, 373.6109
1857.741, 387.3833
1859.670, 380.0675
1861.598, 368.8170
1863.526, 363.1500
1865.455, 361.6157
1867.383, 364.9577
1869.312, 370.1808
1871.240, 373.2903
1873.169, 367.7439
1875.097, 366.4921
1877.026, 372.6354
1878.954, 369.8328
1880.883, 363.9766
1882.811, 363.4162
1884.740, 361.8459
1886.668, 358.9697
1888.597, 358.3492
1890.525, 359.4932
1892.453, 364.4310
1894.382, 367.9119
1896.310, 362.1830
1898.239, 362.0616
1900.167, 368.7045
1902.096, 361.9818
1904.024, 353.8113
1905.953, 359.2183
1907.881, 362.0274
1909.810, 358.5660
1911.738, 354.5286
1913.667, 349.9783
1915.595, 344.1218
1917.524, 347.7031
1919.452, 370.7931
1921.380, 363.0752
1923.309, 340.2819
1925.237, 337.8114
1927.166, 339.9618
1929.094, 339.2267
1931.023, 338.8691
1932.951, 339.7927
1934.880, 334.8753
1936.808, 330.5318
1938.737, 332.1001
1940.665, 329.7762
1942.594, 326.0464
1944.522, 331.9165
1946.451, 336.4855
1948.379, 335.9015
1950.307, 337.4924
1952.236, 337.8666
1954.164, 321.1069
1956.093, 310.9889
1958.021, 326.5338
1959.950, 336.9875
1961.878, 336.1574
1963.807, 332.2712
1965.735, 324.2659
1967.664, 307.5090
1969.592, 302.5650
1971.521, 310.2508
1973.449, 322.1691
1975.378, 331.0465
1977.306, 326.0035
1979.234, 320.0002
1981.163, 316.4335
1983.091, 315.3074
1985.020, 316.9188
1986.948, 327.6503
1988.877, 328.5763
1990.805, 319.0768
1992.734, 314.3734
1994.662, 311.3589
1996.591, 306.4412
1998.519, 300.9869
2000.448, 295.1767
2002.376, 298.8845
2004.305, 308.3992
2006.233, 325.8053
2008.161, 323.0717
2010.090, 303.7207
2012.018, 302.3132
2013.947, 306.6708
2015.875, 301.4026
2017.804, 299.1704
2019.732, 303.1995
2021.661, 302.4854
2023.589, 295.7898
2025.518, 285.7837
2027.446, 282.3103
2029.375, 282.5592
2031.303, 290.1239
2033.232, 296.8584
2035.160, 295.2013
2037.089, 291.8472
2039.017, 289.7532
2040.945, 293.9837
2042.874, 302.6181
2044.802, 311.3445
2046.731, 307.8483
2048.659, 298.6510
2050.588, 289.1345
2052.516, 288.7655
2054.445, 297.6447
2056.373, 293.9625
2058.302, 286.3547
2060.230, 290.4390
2062.158, 289.1313
2064.087, 278.8937
2066.015, 281.8492
2067.944, 286.6783
2069.872, 285.0143
2071.801, 279.9717
2073.729, 274.3397
2075.658, 267.8954
2077.586, 265.1851
2079.515, 270.8849
2081.443, 280.7245
2083.372, 285.9414
2085.300, 275.0859
2087.229, 268.9665
2089.157, 270.5370
2091.085, 266.4188
2093.014, 264.8592
2094.942, 284.1568
2096.871, 287.4855
2098.799, 272.0789
2100.728, 264.6552
2102.656, 260.9258
2104.585, 256.3141
2106.513, 261.9814
2108.442, 271.3519
2110.370, 260.8480
2112.299, 253.3161
2114.227, 261.6276
2116.156, 269.9786
2118.084, 274.4165
2120.012, 271.1453
2121.941, 269.1039
2123.869, 270.4802
2125.798, 262.9080
2127.726, 253.7939
2129.655, 247.8211
2131.583, 248.0095
2133.512, 251.5739
2135.440, 245.0234
2137.369, 243.8164
2139.297, 258.0794
2141.226, 254.4988
2143.154, 245.1030
2145.083, 243.3105
2147.011, 248.4163
2148.939, 258.2889
2150.868, 260.1969
2152.796, 256.2902
2154.725, 246.7784
2156.653, 240.9985
2158.582, 238.3402
2160.510, 236.6352
2162.439, 235.9102
2164.367, 236.2016
2166.296, 232.5911
2168.224, 231.9136
2170.153, 240.4014
2172.081, 246.5110
2174.010, 248.7187
2175.938, 246.7597
2177.866, 239.8830
2179.795, 230.5723
2181.723, 237.2781
2183.652, 246.1420
2185.580, 245.3181
2187.509, 239.1806
2189.437, 230.0416
2191.366, 226.6063
2193.294, 223.5453
2195.223, 217.2781
2197.151, 227.8915
2199.080, 242.2454
2201.008, 241.2848
2202.937, 232.9531
2204.865, 222.9662
2206.793, 222.7003
2208.722, 217.5706
2210.650, 206.5126
2212.579, 209.4382
2214.507, 216.6510
2216.436, 221.6451
2218.364, 226.3749
2220.293, 230.7711
2222.221, 229.0383
2224.150, 221.9857
2226.078, 208.3013
2228.007, 204.5350
2229.935, 208.9904
2231.864, 215.0151
2233.792, 218.2888
2235.720, 223.5664
2237.649, 224.8977
2239.577, 218.0687
2241.506, 209.1068
2243.434, 210.4706
2245.363, 214.2389
2247.291, 217.1689
2249.220, 209.6710
2251.148, 200.4534
2253.077, 202.0481
2255.005, 204.8624
2256.934, 204.9910
2258.862, 205.5695
2260.791, 207.6106
2262.719, 203.2126
2264.647, 196.2039
2266.576, 193.7442
2268.504, 198.2177
2270.433, 199.0410
2272.361, 195.0607
2274.290, 198.0565
2276.218, 201.8990
2278.147, 199.8948
2280.075, 193.0640
2282.004, 190.5413
2283.932, 190.8093
2285.861, 185.7704
2287.789, 182.9190
2289.718, 182.9168
2291.646, 175.3382
2293.574, 175.6894
2295.503, 186.6244
2297.431, 193.8569
2299.360, 195.3816
2301.288, 190.7439
2303.217, 188.0461
2305.145, 181.9900
2307.074, 185.4837
2309.002, 190.3230
2310.931, 184.3887
2312.859, 181.7693
2314.788, 181.8631
2316.716, 177.7495
2318.645, 171.3767
2320.573, 176.0534
2322.501, 184.6527
2324.430, 183.0044
2326.358, 174.7451
2328.287, 172.5222
2330.215, 170.1369
2332.144, 171.2051
2334.072, 174.5224
2336.001, 176.2830
2337.929, 177.5306
2339.858, 177.2458
2341.786, 173.7507
2343.715, 168.3158
2345.643, 165.6973
2347.572, 166.4088
2349.500, 170.0346
2351.428, 172.5692
2353.357, 169.5218
2355.285, 167.5230
2357.214, 169.2500
2359.142, 160.2728
2361.071, 154.8886
2362.999, 156.3992
2364.928, 161.9894
2366.856, 167.9357
2368.785, 170.0491
2370.713, 166.9385
2372.642, 159.3175
2374.570, 151.7698
2376.499, 153.9891
2378.427, 160.7111
2380.355, 163.3731
2382.284, 153.0873
2384.212, 150.2128
2386.141, 158.9738
2388.069, 160.7005
2389.998, 153.9444
2391.926, 145.7119
2393.855, 160.8413
2395.783, 176.6600
2397.712, 166.6820
2399.640, 156.9371
2401.569, 153.2718
2403.497, 151.4950
2405.426, 148.7654
2407.354, 143.0869
2409.282, 141.1026
2411.211, 141.6372
2413.139, 142.3234
2415.068, 147.4996
2416.996, 147.1404
2418.925, 142.7312
2420.853, 146.6128
2422.782, 146.1752
2424.710, 143.7092
2426.639, 140.5116
2428.567, 142.4254
2430.496, 144.7219
2432.424, 149.6419
2434.353, 151.5148
2436.281, 145.8307
2438.209, 146.6581
2440.138, 140.2312
2442.066, 132.1081
2443.995, 137.5381
2445.923, 144.9453
2447.852, 151.9832
2449.780, 134.1848
2451.709, 116.3624
2453.637, 119.9780
2455.566, 130.3553
2457.494, 139.5083
2459.423, 130.3394
2461.351, 122.7223
2463.280, 123.4746
2465.208, 128.1319
2467.136, 126.8243
2469.065, 124.0426
2470.993, 124.0382
2472.922, 129.4645
2474.850, 132.9434
2476.779, 130.2574
2478.707, 130.3165
2480.636, 130.5709
2482.564, 132.8049
2484.493, 128.1812
2486.421, 116.4191
2488.350, 113.7775
2490.278, 114.8614
2492.207, 120.1782
2494.135, 127.2928
2496.063, 124.0603
2497.992, 120.1375
2499.920, 124.8659
2501.849, 125.8864
2503.777, 121.8944
2505.706, 118.8122
2507.634, 120.7370
2509.563, 125.0930
2511.491, 115.5813
2513.420, 113.2411
2515.348, 120.4614
2517.277, 116.4099
2519.205, 111.9003
2521.134, 111.1306
2523.062, 115.7421
2524.990, 118.4221
2526.919, 119.7685
2528.847, 116.8146
2530.776, 115.4132
2532.704, 115.2389
2534.633, 108.6709
2536.561, 104.7922
2538.490, 106.5211
2540.418, 104.7226
2542.347, 108.7764
2544.275, 118.8368
2546.204, 111.9851
2548.132, 108.7651
2550.061, 113.0605
2551.989, 108.5183
2553.917, 102.8734
2555.846, 99.35020
2557.774, 103.8737
2559.703, 103.8974
2561.631, 98.17983
2563.560, 103.0107
2565.488, 103.3013
2567.417, 98.25073
2569.345, 109.2811
2571.274, 109.7123
2573.202, 97.65466
2575.131, 95.95615
2577.059, 97.94379
2578.988, 99.68804
2580.916, 101.4495
2582.844, 96.94120
2584.773, 87.17811
2586.701, 91.35342
2588.630, 92.56956
2590.558, 88.45484
2592.487, 88.89353
2594.415, 88.56950
2596.344, 87.33440
2598.272, 93.17206
2600.201, 93.04652
2602.129, 89.58824
2604.058, 89.42973
2605.986, 87.57362
2607.915, 88.85223
2609.843, 90.13754
2611.771, 93.48822
2613.700, 94.81365
2615.628, 89.72103
2617.557, 85.51326
2619.485, 78.90384
2621.414, 79.69018
2623.342, 87.87560
2625.271, 91.79147
2627.199, 88.20715
2629.128, 82.65673
2631.056, 81.28967
2632.985, 81.36633
2634.913, 80.56851
2636.842, 83.47600
2638.770, 89.69717
2640.698, 75.45932
2642.627, 75.86828
2644.555, 89.55528
2646.484, 83.79735
2648.412, 78.28748
2650.341, 77.02322
2652.269, 78.32072
2654.198, 76.02031
2656.126, 75.68732
2658.055, 79.21436
2659.983, 83.11975
2661.912, 82.59838
2663.840, 76.14304
2665.769, 71.78033
2667.697, 73.05382
2669.625, 74.87338
2671.554, 80.83093
2673.482, 79.24033
2675.411, 71.40587
2677.339, 68.49289
2679.268, 66.44562
2681.196, 67.74609
2683.125, 65.39980
2685.053, 68.56972
2686.982, 72.28093
2688.910, 68.45543
2690.839, 68.38896
2692.767, 67.47055
2694.696, 63.24660
2696.624, 65.95832
2698.552, 65.28898
2700.481, 62.79538
2702.409, 73.51137
2704.338, 80.38553
2706.266, 71.60478
2708.195, 64.70697
2710.123, 65.06713
2712.052, 69.05850
2713.980, 64.49660
2715.909, 63.93480
2717.837, 63.58228
2719.766, 56.28450
2721.694, 61.79972
2723.623, 61.73076
2725.551, 71.18327
2727.479, 72.13107
2729.408, 64.68288
2731.336, 67.70361
2733.265, 70.90511
2735.193, 69.48026
2737.122, 74.49843
2739.050, 69.90218
2740.979, 63.83426
2742.907, 60.03383
2744.836, 47.38177
2746.764, 46.88850
2748.693, 56.21067
2750.621, 60.09344
2752.550, 52.37074
2754.478, 45.80066
2756.406, 50.97077
2758.335, 51.70904
2760.263, 54.23896
2762.192, 63.52795
2764.120, 65.82832
2766.049, 62.41004
2767.977, 57.62373
2769.906, 59.02940
2771.834, 55.16780
2773.763, 44.82721
2775.691, 46.35563
2777.620, 47.31705
2779.548, 48.43457
2781.477, 46.30093
2783.405, 49.15791
2785.333, 53.81897
2787.262, 49.41025
2789.190, 52.28870
2791.119, 56.74308
2793.047, 56.10621
2794.976, 58.58244
2796.904, 54.96284
2798.833, 49.43031
2800.761, 48.00916
2802.690, 46.12852
2804.618, 43.60781
2806.547, 46.67273
2808.475, 46.38703
2810.404, 45.11844
2812.332, 38.00304
2814.260, 41.55886
2816.189, 48.71010
2818.117, 49.15025
2820.046, 45.51547
2821.974, 39.78624
2823.903, 41.96057
2825.831, 42.40846
2827.760, 41.82523
2829.688, 47.58796
2831.617, 42.88794
2833.545, 44.47723
2835.474, 39.89806
2837.402, 35.01913
2839.331, 42.42577
2841.259, 45.09076
2843.188, 48.01421
2845.116, 50.95248
2847.044, 43.06332
2848.973, 35.93012
2850.901, 29.25210
2852.830, 39.83230
2854.758, 43.54308
2856.687, 40.37287
2858.615, 39.78018
2860.544, 42.06397
2862.472, 40.92747
2864.401, 40.75747
2866.329, 43.02485
2868.258, 41.41130
2870.186, 36.83869
2872.115, 28.37628
2874.043, 31.10858
2875.971, 34.93851
2877.900, 31.42290
2879.828, 33.39703
2881.757, 33.44034
2883.685, 37.63262
2885.614, 37.53436
2887.542, 32.55483
2889.471, 30.01464
2891.399, 30.65617
2893.328, 36.53203
2895.256, 37.45348
2897.185, 34.33861
2899.113, 39.62263
2901.042, 37.08125
2902.970, 32.17341
2904.898, 30.79826
2906.827, 33.85584
2908.755, 35.16648
2910.684, 33.66309
2912.612, 31.92945
2914.541, 27.35993
2916.469, 26.73192
2918.398, 31.51253
2920.326, 29.00178
2922.255, 27.19976
2924.183, 25.49273
2926.112, 25.58831
2928.040, 29.22091
2929.969, 30.13880
2931.897, 28.00693
2933.825, 28.35906
2935.754, 30.52135
2937.682, 32.52903
2939.611, 28.42386
2941.539, 23.29331
2943.468, 23.74879
2945.396, 28.31395
2947.325, 24.55424
2949.253, 25.85187
2951.182, 28.05809
2953.110, 25.17214
2955.039, 24.02441
2956.967, 23.54085
2958.896, 24.45246
2960.824, 32.62419
2962.752, 30.10981
2964.681, 27.23438
2966.609, 28.29325
2968.538, 17.57529
2970.466, 19.36204
2972.395, 23.29273
2974.323, 10.95319
2976.252, 22.77220
2978.180, 28.02212
2980.109, 22.18253
2982.037, 18.03768
2983.966, 22.83190
2985.894, 28.41812
2987.823, 27.98119
2989.751, 30.33242
2991.679, 25.50054
2993.608, 15.57180
2995.536, 11.14762
2997.465, 12.52187
2999.393, 18.31521
3001.322, 26.06874
3003.250, 26.54427
3005.179, 15.47563
3007.107, 9.558636
3009.036, 15.55319
3010.964, 15.84753
3012.893, 19.97280
3014.821, 23.05276
3016.750, 19.61129
3018.678, 14.32392
3020.606, 14.09616
3022.535, 17.40517
3024.463, 18.85532
3026.392, 20.26337
3028.320, 16.76182
3030.249, 14.54720
3032.177, 22.65350
3034.106, 26.13410
3036.034, 21.97478
3037.963, 12.92325
3039.891, 13.03579
3041.820, 18.21553
3043.748, 15.95243
3045.677, 12.53549
3047.605, 10.54147
3049.533, 13.70246
3051.462, 16.22227
3053.390, 13.55718
3055.319, 17.32903
3057.247, 15.79758
3059.176, 11.43001
3061.104, 17.66236
3063.033, 25.02371
3064.961, 21.16645
3066.890, 15.47863
3068.818, 14.80591
3070.747, 13.25264
3072.675, 11.08680
3074.604, 14.60811
3076.532, 12.91104
3078.460, 17.84471
3080.389, 16.08372
3082.317, 4.837190
3084.246, 7.5597331E-02
3086.174, -1.194527
3088.103, 1.546921
3090.031, 5.506136
3091.960, -0.2419210
3093.888, 8.395853
3095.817, 16.84593
3097.745, 19.33338
3099.674, 13.70834
3101.602, 7.298719
3103.531, 6.145618
3105.459, 6.295844
3107.387, 4.792588
3109.316, 1.529254
3111.244, 2.820333
3113.173, 4.101480
3115.101, 8.174008
3117.030, 11.82689
3118.958, 8.370811
3120.887, 5.089664
3122.815, 13.64708
3124.744, 7.666355
3126.672, -1.537121
3128.601, 6.659874
3130.529, 8.466598
3132.458, 12.56244
3134.386, 18.46832
3136.314, 13.85686
3138.243, 10.68613
3140.171, 8.378115
3142.100, 3.668605
3144.028, 6.314294
3145.957, 2.563117
3147.885, 3.250458
3149.814, 8.539043
3151.742, 7.704971
3153.671, 8.219112
3155.599, 8.705339
3157.528, 9.314528
3159.456, 7.115059
3161.385, 6.571534
3163.313, 5.316074
3165.241, 3.321383
3167.170, 9.061418
3169.098, 10.15020
3171.027, 13.63565
3172.955, 9.897478
3174.884, 1.606284
3176.812, 10.09777
3178.741, 12.72354
3180.669, 6.502894
3182.598, 3.522537
3184.526, 3.242595
3186.455, 16.35547
3188.383, 15.65969
3190.312, -1.695753
3192.240, -6.148486
3194.168, 0.3277659
3196.097, 2.393569
3198.025, -1.091786
3199.954, 5.105381
3201.882, 4.749849
3203.811, 9.916034
3205.739, 12.75232
3207.668, 4.709105
3209.596, 3.448335
3211.525, 4.353983
3213.453, -3.039070
3215.382, -13.08125
3217.310, -1.430018
3219.239, 6.305024
3221.167, 7.671773
3223.095, 3.368953
3225.024, -5.505189
3226.952, -8.272747
3228.881, 2.958355
3230.809, 15.39984
3232.738, 6.560791
3234.666, -2.744109
3236.595, 0.5130855
3238.523, 8.433819
3240.452, 11.70982
3242.380, 7.044034
3244.309, 8.018918
3246.237, 12.25070
3248.166, 10.50896
3250.094, 10.28124
3252.022, 10.86235
3253.951, 10.15444
3255.879, 9.375276
3257.808, 0.1012798
3259.736, 2.023793
3261.665, 6.283773
3263.593, 3.755464
3265.522, -4.858305
3267.450, 5.831155
3269.379, 1.518072
3271.307, -4.699090
3273.236, -1.579337
3275.164, -1.511799
3277.093, 0.6354954
3279.021, -0.5372705
3280.949, -1.211866
3282.878, 1.511403
3284.806, 16.35408
3286.735, 20.57766
3288.663, 15.24526
3290.592, 8.608592
3292.520, 6.848034
3294.449, 3.277770
3296.377, 5.330405
3298.306, 9.952354
3300.234, 8.660840
3302.163, 8.051208
3304.091, 4.047406
3306.020, -0.5405312
3307.948, -2.569399
3309.876, -4.128793
3311.805, -1.001594
3313.733, 3.247768
3315.662, 5.059893
3317.590, 2.696711
3319.519, 6.134168
3321.447, 2.8686071E-02
3323.376, 1.091225
3325.304, 12.73796
3327.233, 10.01075
3329.161, -4.397928
3331.090, -5.388148
3333.018, 2.657285
3334.947, 5.887457
3336.875, -4.617957
3338.803, -4.826185
3340.732, -1.388319
3342.660, 1.742957
3344.589, 6.754920
3346.517, 17.67085
3348.446, 11.05118
3350.374, 0.8329296
3352.303, -0.2640469
3354.231, 4.506468
3356.160, -1.491489
3358.088, 7.339131
3360.017, 15.06613
3361.945, 1.326172
3363.874, 1.952499
3365.802, -2.313463
3367.730, 0.8658674
3369.659, 6.824761
3371.587, -0.4651203
3373.516, 0.3206818
3375.444, -4.216444
3377.373, -2.640235
3379.301, 4.416174
3381.230, 1.582804
3383.158, 6.652631
3385.087, 5.646659
3387.015, 7.458551
3388.944, 12.90046
3390.872, 3.922269
3392.801, 13.47635
3394.729, 13.66003
3396.657, 4.878100
3398.586, -2.484732
3400.514, 1.912315
3402.443, -7.171943
3404.371, -7.973929
3406.300, 0.9525816
3408.228, 8.878068
3410.157, -6.382673
3412.085, -2.579029
3414.014, -3.167241
3415.942, -6.448217
3417.871, -3.697196
3419.799, -6.779026
3421.728, 7.283805
3423.656, 8.018085
3425.584, -3.249608
3427.513, -11.89911
3429.441, -15.09027
3431.370, 2.049236
3433.298, 11.03333
3435.227, 8.269849
3437.155, 1.036292
3439.084, -10.35730
3441.012, -12.57771
3442.941, -7.096740
3444.869, -1.811371
3446.798, -1.807438
3448.726, -2.337217
3450.655, 1.721892
3452.583, 4.036573
3454.511, 3.258743
3456.440, 9.5786653E-02
3458.368, -5.459032
3460.297, 0.6978947
3462.225, 4.503871
3464.154, 1.427972
3466.082, -3.105532
3468.011, 4.464454
3469.939, 5.140107
3471.868, -1.349723
3473.796, -0.5725102
3475.725, 7.497207
3477.653, 8.385648
3479.582, -4.256517
3481.510, -4.689421
3483.438, 7.0507497E-02
3485.367, 0.5757142
3487.295, -5.392451
3489.224, -0.6332588
3491.152, 10.75513
3493.081, -2.627320
3495.009, -11.84472
3496.938, 4.573481
3498.866, -0.1716783
3500.795, -7.082548
3502.723, -0.5907323
3504.652, 5.662234
3506.580, 0.4503046
3508.509, -13.10996
3510.437, 9.888439
3512.365, 2.762868
3514.294, 1.190987
3516.222, 6.197277
3518.151, -1.181735
3520.079, -6.090919
3522.008, 2.877254
3523.936, -0.1146901
3525.865, -0.4258949
3527.793, 9.265167
3529.722, 8.927619
3531.650, -7.277606
3533.579, -4.544513
3535.507, -8.692853
3537.436, -9.547337
3539.364, 13.36229
3541.292, 16.85007
3543.221, 1.189412
3545.149, 2.897007
3547.078, 0.4706985
3549.006, -13.52779
3550.935, -13.41437
3552.863, 14.90693
3554.792, 22.94271
3556.720, 14.06856
3558.649, 11.22896
3560.577, 17.50121
3562.506, -5.054369
3564.434, 3.729348
3566.363, -3.252593
3568.291, -2.105192
3570.219, 3.709306
3572.148, -3.518764
3574.076, 3.928696
3576.005, 6.568894
3577.933, 9.329466
3579.862, 13.65347
3581.790, 10.52837
3583.719, -6.533063
3585.647, -0.4555139
3587.576, 6.665030
3589.504, 3.791002
3591.433, -3.805166
3593.361, -9.592117
3595.290, -11.59532
3597.218, -1.156389
3599.146, 5.125358
3601.075, 4.092146
3603.003, -8.518575
3604.932, -19.86217
3606.860, 0.5088450
3608.789, 21.83856
3610.717, 13.83920
3612.646, 8.412889
3614.574, 0.9054002
3616.503, -9.106230
3618.431, 0.6171243
3620.360, 6.031961
3622.288, 14.51724
3624.217, -0.2328780
3626.145, -3.172248
3628.073, 14.13866
3630.002, 14.56509
3631.930, -2.911800
3633.859, -18.23824
3635.787, 1.364406
3637.716, 4.643441
3639.644, -9.852478
3641.573, -0.6759247
3643.501, 0.1667271
3645.430, -0.7219630
3647.358, -6.494169
3649.287, -2.636427
3651.215, -2.488920
3653.144, -15.02255
3655.072, 1.176806
3657.000, 8.788785
3658.929, -1.933332
3660.857, -14.85193
3662.786, -12.91794
3664.714, -0.4731267
3666.643, -1.975148
3668.571, 1.992347
3670.500, -4.400834
3672.428, 0.2459324
3674.357, 0.6033247
3676.285, -6.106884
3678.214, -6.011149
3680.142, 0.3051450
3682.071, 10.96796
3683.999, -10.67646
3685.927, -8.503162
3687.856, 1.615760
3689.784, -3.359334
3691.713, 1.520163
3693.641, 0.6963927
3695.570, -2.649132
3697.498, -2.722550
3699.427, -9.775821
3701.355, -8.759955
3703.284, 10.54969
3705.212, 6.817844
3707.141, 3.249901
3709.069, -1.311628
3710.998, 1.270882
3712.926, 4.160920
3714.854, 0.3376340
3716.783, -7.443411
3718.711, -5.921151
3720.640, -9.253783
3722.568, -8.952054
3724.497, -7.953429
3726.425, -2.876534
3728.354, 0.5243924
3730.282, -6.019040
3732.211, -0.7915488
3734.139, -1.088211
3736.068, 9.338449
3737.996, -3.921097
3739.925, -5.446755
3741.853, 6.120555
3743.781, -9.315807
3745.710, -19.95166
3747.638, -11.43444
3749.567, -8.126758
3751.495, 8.970651
3753.424, 7.701138
3755.352, -7.558418
3757.281, -3.935209
3759.209, -3.142238
3761.138, -19.23500
3763.066, -2.586588
3764.995, -11.87208
3766.923, -8.495316
3768.852, 6.016941
3770.780, 1.240267
3772.708, -9.436729
3774.637, -13.99954
3776.565, 4.497105
3778.494, 10.52614
3780.422, 4.800091
3782.351, -11.12686
3784.279, -22.48520
3786.208, -12.75183
3788.136, -10.88091
3790.065, -5.813768
3791.993, -0.6326650
3793.922, -3.133233
3795.850, -6.997797
3797.779, -7.678860
3799.707, -9.161403
3801.635, -16.64682
3803.564, -0.4973890
3805.492, 3.138621
3807.421, -5.074506
3809.349, -6.307397
3811.278, -2.730995
3813.206, -2.148403
3815.135, -9.670609
3817.063, -28.08371
3818.992, -4.424575
3820.920, 0.9243967
3822.849, -6.457942
3824.777, -4.768989
3826.706, 1.139524
3828.634, 5.335596
3830.563, 8.149654
3832.491, 4.744963
3834.419, 0.1637476
3836.348, -15.27535
3838.276, -16.35804
3840.205, -12.28374
3842.133, -18.66005
3844.062, -17.27959
3845.990, -0.4692573
3847.919, -1.773669
3849.847, -8.922439
3851.776, 9.698235
3853.704, 2.493630
3855.633, -0.3018965
3857.561, -9.349965
3859.490, -14.01759
3861.418, -8.206552
3863.346, -10.43065
3865.275, -22.96099
3867.203, -8.128728
3869.132, 4.058544
3871.060, 4.095611
3872.989, -0.5538928
3874.917, 0.4211853
3876.846, -0.6390942
3878.774, -5.193261
3880.703, 3.533669
3882.631, 2.016062
3884.560, 6.431644
3886.488, -1.862799
3888.417, 0.3779214
3890.345, -9.732952
3892.273, -12.19909
3894.202, -8.219028
3896.130, -12.89346
3898.059, -5.654011
3899.987, 22.97779
3901.916, -20.58239
3903.844, -6.900416
3905.773, -3.8494110E-09
3907.701, -3.4473761E-08
3909.630, 1.430169
3911.558, -4.779142
3913.487, -12.74810
3915.415, -6.352713
3917.344, -24.21631
3919.272, -12.55843
3921.200, -7.356122
3923.129, -4.647459
3925.057, 4.230018
3926.986, 14.40518
3928.914, 9.987786
3930.843, 1.662145
3932.771, 2.573743
3934.700, -9.253455
3936.628, -2.684849
3938.557, -3.630718
3940.485, -6.699440
3942.414, 1.035576
3944.342, -8.983326
3946.271, -0.1364921
3948.199, 4.262423
3950.127, -4.672988
3952.056, -0.1237809
3953.984, -2.082270
3955.913, -8.072721
3957.841, -2.310440
3959.770, 11.01187
3961.698, 3.735126
3963.627, 2.565140
3965.555, -1.440136
3967.484, -14.87601
3969.412, -24.01297
3971.341, -17.44594
3973.269, -4.387239
3975.198, -8.297257
3977.126, -1.875161
3979.054, -15.65425
3980.983, -5.7381101E-02
3982.911, -17.11239
3984.840, -8.191807
3986.768, -6.920858
3988.697, -15.15410
3990.625, -7.988492
3992.554, 7.291612
3994.482, 9.297086
3996.411, -5.016025
3998.339, -11.29558
4000.268, -21.51702
4002.196, -0.7809876
4004.125, -15.75821
4006.053, -8.691739
4007.981, 1.749125
4009.910, -0.6088484
4011.838, -2.503824
4013.767, -5.395320
4015.695, -12.59483
4017.624, 8.3235338E-02
4019.552, -22.55474
4021.481, -10.47744
4023.409, -11.59853
4025.338, -2.862479
4027.266, 1.062298
4029.195, -6.189096
4031.123, -5.165281
4033.052, 5.983576
4034.980, -5.279204
4036.908, -17.77935
4038.837, 5.096365
4040.765, -0.8408835
4042.694, 10.56066
4044.622, -2.227919
4046.551, -13.34545
4048.479, 1.694553
4050.408, -4.809322
4052.336, 1.217039
4054.265, 3.143261
4056.193, -12.64337
4058.122, -22.09419
4060.050, -12.72089
4061.979, -13.51272
4063.907, -29.71072
4065.835, -11.34904
4067.764, 3.815057
4069.692, 4.928198
4071.621, -1.883554
4073.549, 5.169382
4075.478, -9.015908
4077.406, -26.47816
4079.335, -20.36299
4081.263, -9.363717
4083.192, -0.1321680
4085.120, -2.782880
4087.049, -6.522120
4088.977, -3.435671
4090.906, -14.01799
4092.834, -23.66270
4094.762, -10.04348
4096.691, -13.28602
4098.619, -18.89529
4100.548, -7.123914
4102.476, -1.069463
4104.405, -13.90888
4106.333, -18.37278
4108.262, -17.43401
4110.190, -12.01307
4112.119, -10.08552
4114.047, -2.101361
4115.976, -8.021040
4117.904, -14.29653
4119.833, 0.7792665
4121.761, -17.50729
4123.689, -11.21503
4125.618, -4.898031
4127.546, -2.469217
4129.475, 0.2605910
4131.403, -5.974967
4133.332, -2.266744
4135.260, -10.27091
4137.188, 1.053967
4139.117, -14.46858
4141.045, -17.09823
4142.974, -2.240527
4144.902, -7.209327
4146.831, -4.120574
4148.759, 6.722866
4150.688, 8.295315
4152.616, 3.632439
4154.545, -16.09316
4156.473, -1.078244
4158.402, -10.78189
4160.330, -4.343926
4162.259, -14.61109
4164.187, -12.65237
4166.116, 5.621632
4168.044, -8.308963
4169.973, -4.571141
4171.901, -15.19041
4173.830, -11.60242
4175.758, 1.768969
4177.687, 7.589564
4179.615, 1.890832
4181.543, -3.451746
4183.472, 3.203960
4185.400, 6.724496
4187.329, 0.8161636
4189.257, -0.9299958
4191.186, -5.777923
4193.114, -20.17694
4195.042, -17.79294
4196.971, -2.373162
4198.899, 2.042981
4200.828, 4.249712
4202.756, 5.487689
4204.685, -16.34381
4206.613, -34.70672
4208.542, -18.43818
4210.470, -16.16797
4212.399, -8.758608
4214.327, -5.171274
4216.256, -3.584925
4218.184, 4.616416
4220.113, -8.072670
4222.041, -15.83095
4223.970, -15.46843
4225.898, 0.8824168
4227.827, 9.872092
4229.755, 1.873174
4231.684, 3.059669
4233.612, -1.919091
4235.541, -6.934093
4237.469, 6.093448
4239.397, 5.138303
4241.326, -1.563131
4243.254, -16.80543
4245.183, -13.12324
4247.111, -10.63038
4249.040, -4.424173
4250.968, -10.66837
4252.896, -10.85530
4254.825, 1.078714
4256.753, -4.812795
4258.682, 23.92413
4260.610, 12.07928
4262.539, -8.837812
4264.467, -1.753175
4266.396, 0.7916867
4268.324, -6.170007
4270.253, -15.90079
4272.181, 3.897979
4274.110, -11.28093
4276.038, -13.67365
4277.967, -18.25586
4279.895, -2.060043
4281.824, 0.1146643
4283.752, -12.19069
4285.681, -6.823916
4287.609, -14.58377
4289.538, -12.46228
4291.466, 3.165592
4293.395, -1.528193
4295.323, -13.87284
4297.251, -10.17290
4299.180, -4.745331
4301.108, -1.910533
4303.037, -0.5866580
4304.965, -15.77826
4306.894, -15.00290
4308.822, -3.630968
4310.750, -19.18873
4312.679, -14.80950
4314.607, -2.157222
4316.536, -1.862764
4318.464, -3.358075
4320.393, -5.597846
4322.321, -2.080460
4324.250, -2.679851
4326.178, -3.692030
4328.107, 0.2077226
4330.035, -3.888714
4331.964, -16.25938
4333.892, -2.497913
4335.821, -0.7847884
4337.749, 11.75961
4339.678, -4.138080
4341.606, -11.07647
4343.535, -14.59919
4345.463, -9.025537
4347.392, -13.11611
4349.320, -19.39379
4351.249, -19.74821
##END=



