##NAMES=Zircon
##RRUFFID=R150080
##IDEAL CHEMISTRY=Zr(SiO_4_)
##LOCALITY=unknown
##OWNER=RRUFF
##SOURCE=Michael Scott
##DESCRIPTION=Colorless single waterworn euhedral crystal
##STATUS=The identification of this mineral has been determined only by Raman spectroscopy
##URL=https://www.rruff.net/odr/rruff_sample/R150080
##FILETYPE=Raman RAW
##RAMAN WAVELENGTH=532

9.839966e+001, 0.000000e+000
1.003281e+002, 5.962925e+004
1.022566e+002, 6.112327e+004
1.041851e+002, 6.253281e+004
1.061135e+002, 6.411099e+004
1.080420e+002, 6.663009e+004
1.099705e+002, 6.904946e+004
1.118989e+002, 7.153994e+004
1.138274e+002, 7.417569e+004
1.157559e+002, 7.667687e+004
1.176843e+002, 7.934562e+004
1.196128e+002, 8.209798e+004
1.215413e+002, 8.486938e+004
1.234697e+002, 8.770638e+004
1.253982e+002, 9.038161e+004
1.273267e+002, 9.278156e+004
1.292551e+002, 9.494239e+004
1.311836e+002, 9.711390e+004
1.331121e+002, 9.911536e+004
1.350405e+002, 1.010650e+005
1.369690e+002, 1.030217e+005
1.388975e+002, 1.048771e+005
1.408259e+002, 1.067720e+005
1.427544e+002, 1.087249e+005
1.446829e+002, 1.107134e+005
1.466113e+002, 1.126548e+005
1.485398e+002, 1.143568e+005
1.504683e+002, 1.160939e+005
1.523967e+002, 1.181437e+005
1.543252e+002, 1.207019e+005
1.562537e+002, 1.234358e+005
1.581821e+002, 1.263727e+005
1.601106e+002, 1.295083e+005
1.620391e+002, 1.326602e+005
1.639675e+002, 1.357942e+005
1.658960e+002, 1.389028e+005
1.678245e+002, 1.419128e+005
1.697529e+002, 1.445772e+005
1.716814e+002, 1.473526e+005
1.736099e+002, 1.503026e+005
1.755383e+002, 1.533015e+005
1.774668e+002, 1.567545e+005
1.793953e+002, 1.608667e+005
1.813237e+002, 1.654284e+005
1.832522e+002, 1.699468e+005
1.851807e+002, 1.745277e+005
1.871091e+002, 1.790317e+005
1.890376e+002, 1.833473e+005
1.909661e+002, 1.869555e+005
1.928945e+002, 1.914280e+005
1.948230e+002, 1.932602e+005
1.967515e+002, 1.959350e+005
1.986799e+002, 2.076167e+005
2.006084e+002, 2.319041e+005
2.025369e+002, 2.637790e+005
2.044653e+002, 3.082809e+005
2.063938e+002, 3.771743e+005
2.083223e+002, 4.227153e+005
2.102507e+002, 4.152612e+005
2.121792e+002, 3.643638e+005
2.141077e+002, 3.414067e+005
2.160361e+002, 3.663747e+005
2.179646e+002, 4.029590e+005
2.198931e+002, 4.240172e+005
2.218215e+002, 4.203947e+005
2.237500e+002, 4.323376e+005
2.256785e+002, 4.872125e+005
2.276069e+002, 5.815714e+005
2.295354e+002, 6.278310e+005
2.314639e+002, 6.091167e+005
2.333923e+002, 5.560051e+005
2.353208e+002, 4.876359e+005
2.372493e+002, 3.887280e+005
2.391777e+002, 3.052759e+005
2.411062e+002, 2.480914e+005
2.430347e+002, 2.180564e+005
2.449631e+002, 1.948434e+005
2.468916e+002, 1.812160e+005
2.488201e+002, 1.730744e+005
2.507485e+002, 1.671859e+005
2.526770e+002, 1.650624e+005
2.546055e+002, 1.636836e+005
2.565339e+002, 1.629895e+005
2.584624e+002, 1.629100e+005
2.603909e+002, 1.630257e+005
2.623193e+002, 1.632387e+005
2.642478e+002, 1.636905e+005
2.661763e+002, 1.645300e+005
2.681047e+002, 1.664156e+005
2.700332e+002, 1.678479e+005
2.719617e+002, 1.684522e+005
2.738901e+002, 1.684134e+005
2.758186e+002, 1.682687e+005
2.777471e+002, 1.679225e+005
2.796755e+002, 1.675934e+005
2.816040e+002, 1.674234e+005
2.835325e+002, 1.673975e+005
2.854609e+002, 1.675632e+005
2.873894e+002, 1.680135e+005
2.893179e+002, 1.686975e+005
2.912463e+002, 1.694329e+005
2.931748e+002, 1.701458e+005
2.951033e+002, 1.709395e+005
2.970317e+002, 1.718082e+005
2.989602e+002, 1.726278e+005
3.008887e+002, 1.738883e+005
3.028171e+002, 1.753250e+005
3.047456e+002, 1.771056e+005
3.066741e+002, 1.804638e+005
3.086025e+002, 1.851937e+005
3.105310e+002, 1.914003e+005
3.124595e+002, 1.997310e+005
3.143879e+002, 2.105444e+005
3.163164e+002, 2.206849e+005
3.182449e+002, 2.303843e+005
3.201733e+002, 2.390471e+005
3.221018e+002, 2.449493e+005
3.240303e+002, 2.471231e+005
3.259587e+002, 2.479982e+005
3.278872e+002, 2.477075e+005
3.298157e+002, 2.454203e+005
3.317441e+002, 2.464880e+005
3.336726e+002, 2.505727e+005
3.356011e+002, 2.581578e+005
3.375295e+002, 2.697193e+005
3.394580e+002, 2.846217e+005
3.413865e+002, 3.040844e+005
3.433149e+002, 3.268862e+005
3.452434e+002, 3.515101e+005
3.471719e+002, 3.870565e+005
3.491003e+002, 4.124378e+005
3.510288e+002, 4.590975e+005
3.529573e+002, 5.535607e+005
3.548857e+002, 6.957023e+005
3.568142e+002, 8.807623e+005
3.587427e+002, 1.175815e+006
3.606711e+002, 1.567024e+006
3.625996e+002, 1.741587e+006
3.645281e+002, 1.577484e+006
3.664565e+002, 1.307191e+006
3.683850e+002, 1.050888e+006
3.703135e+002, 7.979640e+005
3.722419e+002, 5.971048e+005
3.741704e+002, 4.606847e+005
3.760989e+002, 3.789408e+005
3.780273e+002, 3.175642e+005
3.799558e+002, 2.817070e+005
3.818843e+002, 2.581786e+005
3.838127e+002, 2.419271e+005
3.857412e+002, 2.335902e+005
3.876697e+002, 2.286947e+005
3.895981e+002, 2.268609e+005
3.915266e+002, 2.278280e+005
3.934551e+002, 2.318878e+005
3.953835e+002, 2.411392e+005
3.973120e+002, 2.486186e+005
3.992405e+002, 2.519983e+005
4.011689e+002, 2.512636e+005
4.030974e+002, 2.489824e+005
4.050259e+002, 2.439646e+005
4.069543e+002, 2.384900e+005
4.088828e+002, 2.339443e+005
4.108113e+002, 2.301968e+005
4.127397e+002, 2.276560e+005
4.146682e+002, 2.263663e+005
4.165967e+002, 2.262627e+005
4.185251e+002, 2.274561e+005
4.204536e+002, 2.299528e+005
4.223821e+002, 2.335184e+005
4.243105e+002, 2.379001e+005
4.262390e+002, 2.429705e+005
4.281675e+002, 2.499768e+005
4.300959e+002, 2.566056e+005
4.320244e+002, 2.662180e+005
4.339529e+002, 2.821673e+005
4.358813e+002, 3.003766e+005
4.378098e+002, 3.307417e+005
4.397383e+002, 3.934764e+005
4.416667e+002, 4.750487e+005
4.435952e+002, 5.265084e+005
4.455237e+002, 5.343863e+005
4.474521e+002, 5.199934e+005
4.493806e+002, 4.830136e+005
4.513091e+002, 4.194512e+005
4.532375e+002, 3.643543e+005
4.551660e+002, 3.252123e+005
4.570945e+002, 2.970031e+005
4.590229e+002, 2.744072e+005
4.609514e+002, 2.604227e+005
4.628799e+002, 2.493735e+005
4.648083e+002, 2.413885e+005
4.667368e+002, 2.362311e+005
4.686653e+002, 2.321865e+005
4.705938e+002, 2.296168e+005
4.725222e+002, 2.278295e+005
4.744507e+002, 2.264892e+005
4.763792e+002, 2.259434e+005
4.783076e+002, 2.252924e+005
4.802361e+002, 2.244538e+005
4.821646e+002, 2.235598e+005
4.840930e+002, 2.227475e+005
4.860215e+002, 2.219605e+005
4.879500e+002, 2.213726e+005
4.898784e+002, 2.210023e+005
4.918069e+002, 2.208435e+005
4.937354e+002, 2.208254e+005
4.956638e+002, 2.208813e+005
4.975923e+002, 2.210930e+005
4.995208e+002, 2.215262e+005
5.014492e+002, 2.221956e+005
5.033777e+002, 2.229366e+005
5.053062e+002, 2.237601e+005
5.072346e+002, 2.246397e+005
5.091631e+002, 2.255688e+005
5.110916e+002, 2.267093e+005
5.130200e+002, 2.276697e+005
5.149485e+002, 2.282683e+005
5.168770e+002, 2.285975e+005
5.188054e+002, 2.288915e+005
5.207339e+002, 2.290284e+005
5.226624e+002, 2.292384e+005
5.245908e+002, 2.296256e+005
5.265193e+002, 2.301976e+005
5.284478e+002, 2.307740e+005
5.303762e+002, 2.312891e+005
5.323047e+002, 2.317827e+005
5.342332e+002, 2.322917e+005
5.361616e+002, 2.328213e+005
5.380901e+002, 2.333359e+005
5.400186e+002, 2.337837e+005
5.419470e+002, 2.342423e+005
5.438755e+002, 2.348964e+005
5.458040e+002, 2.359116e+005
5.477324e+002, 2.369694e+005
5.496609e+002, 2.380840e+005
5.515894e+002, 2.393561e+005
5.535178e+002, 2.401100e+005
5.554463e+002, 2.401005e+005
5.573748e+002, 2.398163e+005
5.593032e+002, 2.394808e+005
5.612317e+002, 2.390383e+005
5.631602e+002, 2.387003e+005
5.650886e+002, 2.385267e+005
5.670171e+002, 2.384358e+005
5.689456e+002, 2.383521e+005
5.708740e+002, 2.381444e+005
5.728025e+002, 2.380976e+005
5.747310e+002, 2.383903e+005
5.766594e+002, 2.389101e+005
5.785879e+002, 2.393127e+005
5.805164e+002, 2.395176e+005
5.824448e+002, 2.397118e+005
5.843733e+002, 2.399408e+005
5.863018e+002, 2.401907e+005
5.882302e+002, 2.405886e+005
5.901587e+002, 2.413031e+005
5.920872e+002, 2.420254e+005
5.940156e+002, 2.424915e+005
5.959441e+002, 2.426443e+005
5.978726e+002, 2.429368e+005
5.998010e+002, 2.435503e+005
6.017295e+002, 2.443079e+005
6.036580e+002, 2.449975e+005
6.055864e+002, 2.455870e+005
6.075149e+002, 2.461521e+005
6.094434e+002, 2.466188e+005
6.113718e+002, 2.470763e+005
6.133003e+002, 2.477166e+005
6.152288e+002, 2.487014e+005
6.171572e+002, 2.496948e+005
6.190857e+002, 2.506280e+005
6.210142e+002, 2.515002e+005
6.229426e+002, 2.522444e+005
6.248711e+002, 2.527933e+005
6.267996e+002, 2.532767e+005
6.287280e+002, 2.537271e+005
6.306565e+002, 2.541328e+005
6.325850e+002, 2.546350e+005
6.345134e+002, 2.552063e+005
6.364419e+002, 2.559021e+005
6.383704e+002, 2.567865e+005
6.402988e+002, 2.578863e+005
6.422273e+002, 2.590806e+005
6.441558e+002, 2.608028e+005
6.460842e+002, 2.624223e+005
6.480127e+002, 2.631084e+005
6.499412e+002, 2.623028e+005
6.518696e+002, 2.614523e+005
6.537981e+002, 2.608211e+005
6.557266e+002, 2.604085e+005
6.576550e+002, 2.601700e+005
6.595835e+002, 2.601418e+005
6.615120e+002, 2.602882e+005
6.634404e+002, 2.606607e+005
6.653689e+002, 2.612419e+005
6.672974e+002, 2.619123e+005
6.692258e+002, 2.627065e+005
6.711543e+002, 2.635388e+005
6.730828e+002, 2.643451e+005
6.750112e+002, 2.650846e+005
6.769397e+002, 2.658312e+005
6.788682e+002, 2.665514e+005
6.807966e+002, 2.672085e+005
6.827251e+002, 2.678067e+005
6.846536e+002, 2.683619e+005
6.865820e+002, 2.687132e+005
6.885105e+002, 2.687657e+005
6.904390e+002, 2.687136e+005
6.923674e+002, 2.687684e+005
6.942959e+002, 2.689880e+005
6.962244e+002, 2.692659e+005
6.981528e+002, 2.696166e+005
7.000813e+002, 2.700510e+005
7.020098e+002, 2.705799e+005
7.039382e+002, 2.712853e+005
7.058667e+002, 2.719578e+005
7.077952e+002, 2.724901e+005
7.097236e+002, 2.729562e+005
7.116521e+002, 2.735761e+005
7.135806e+002, 2.744327e+005
7.155090e+002, 2.752693e+005
7.174375e+002, 2.759815e+005
7.193660e+002, 2.765893e+005
7.212944e+002, 2.771482e+005
7.232229e+002, 2.775709e+005
7.251514e+002, 2.779955e+005
7.270798e+002, 2.784859e+005
7.290083e+002, 2.790182e+005
7.309368e+002, 2.794073e+005
7.328652e+002, 2.795498e+005
7.347937e+002, 2.796647e+005
7.367222e+002, 2.798699e+005
7.386506e+002, 2.801678e+005
7.405791e+002, 2.804508e+005
7.425076e+002, 2.807134e+005
7.444360e+002, 2.809699e+005
7.463645e+002, 2.812449e+005
7.482930e+002, 2.815527e+005
7.502214e+002, 2.817725e+005
7.521499e+002, 2.817799e+005
7.540784e+002, 2.818228e+005
7.560068e+002, 2.820533e+005
7.579353e+002, 2.824976e+005
7.598638e+002, 2.830405e+005
7.617922e+002, 2.837613e+005
7.637207e+002, 2.845222e+005
7.656492e+002, 2.852048e+005
7.675776e+002, 2.857529e+005
7.695061e+002, 2.863505e+005
7.714346e+002, 2.870611e+005
7.733630e+002, 2.877309e+005
7.752915e+002, 2.882246e+005
7.772200e+002, 2.884662e+005
7.791484e+002, 2.887341e+005
7.810769e+002, 2.890842e+005
7.830054e+002, 2.894901e+005
7.849338e+002, 2.899301e+005
7.868623e+002, 2.904187e+005
7.887908e+002, 2.909923e+005
7.907192e+002, 2.918797e+005
7.926477e+002, 2.927649e+005
7.945762e+002, 2.932738e+005
7.965046e+002, 2.932221e+005
7.984331e+002, 2.933396e+005
8.003616e+002, 2.938384e+005
8.022900e+002, 2.945418e+005
8.042185e+002, 2.952070e+005
8.061470e+002, 2.957268e+005
8.080754e+002, 2.964245e+005
8.100039e+002, 2.974229e+005
8.119324e+002, 2.985870e+005
8.138608e+002, 2.997273e+005
8.157893e+002, 3.007770e+005
8.177178e+002, 3.019076e+005
8.196462e+002, 3.031178e+005
8.215747e+002, 3.044080e+005
8.235032e+002, 3.058169e+005
8.254316e+002, 3.076962e+005
8.273601e+002, 3.091711e+005
8.292886e+002, 3.102131e+005
8.312170e+002, 3.107658e+005
8.331455e+002, 3.107334e+005
8.350740e+002, 3.098592e+005
8.370024e+002, 3.092108e+005
8.389309e+002, 3.092056e+005
8.408594e+002, 3.095310e+005
8.427878e+002, 3.097479e+005
8.447163e+002, 3.097691e+005
8.466448e+002, 3.097719e+005
8.485732e+002, 3.097851e+005
8.505017e+002, 3.097674e+005
8.524302e+002, 3.096392e+005
8.543586e+002, 3.093446e+005
8.562871e+002, 3.091798e+005
8.582156e+002, 3.092523e+005
8.601440e+002, 3.095028e+005
8.620725e+002, 3.098744e+005
8.640010e+002, 3.104854e+005
8.659294e+002, 3.110257e+005
8.678579e+002, 3.113575e+005
8.697864e+002, 3.116332e+005
8.717148e+002, 3.120745e+005
8.736433e+002, 3.127104e+005
8.755718e+002, 3.132164e+005
8.775002e+002, 3.135156e+005
8.794287e+002, 3.136186e+005
8.813572e+002, 3.135120e+005
8.832856e+002, 3.130957e+005
8.852141e+002, 3.127638e+005
8.871426e+002, 3.126934e+005
8.890710e+002, 3.126795e+005
8.909995e+002, 3.124832e+005
8.929280e+002, 3.120738e+005
8.948564e+002, 3.118533e+005
8.967849e+002, 3.119413e+005
8.987134e+002, 3.122314e+005
9.006418e+002, 3.126529e+005
9.025703e+002, 3.132238e+005
9.044988e+002, 3.137568e+005
9.064272e+002, 3.140674e+005
9.083557e+002, 3.144056e+005
9.102842e+002, 3.149380e+005
9.122126e+002, 3.156854e+005
9.141411e+002, 3.163423e+005
9.160696e+002, 3.168092e+005
9.179980e+002, 3.172353e+005
9.199265e+002, 3.177484e+005
9.218550e+002, 3.183516e+005
9.237834e+002, 3.188747e+005
9.257119e+002, 3.192362e+005
9.276404e+002, 3.196758e+005
9.295688e+002, 3.201908e+005
9.314973e+002, 3.208096e+005
9.334258e+002, 3.220626e+005
9.353542e+002, 3.241351e+005
9.372827e+002, 3.265596e+005
9.392112e+002, 3.295416e+005
9.411396e+002, 3.327360e+005
9.430681e+002, 3.351501e+005
9.449966e+002, 3.364766e+005
9.469250e+002, 3.373228e+005
9.488535e+002, 3.373972e+005
9.507820e+002, 3.371295e+005
9.527104e+002, 3.378324e+005
9.546389e+002, 3.392341e+005
9.565674e+002, 3.420110e+005
9.584958e+002, 3.455262e+005
9.604243e+002, 3.507918e+005
9.623528e+002, 3.587542e+005
9.642813e+002, 3.682753e+005
9.662097e+002, 3.839099e+005
9.681382e+002, 4.037777e+005
9.700667e+002, 4.327664e+005
9.719951e+002, 4.774017e+005
9.739236e+002, 5.428242e+005
9.758521e+002, 6.083702e+005
9.777805e+002, 7.037415e+005
9.797090e+002, 7.750809e+005
9.816375e+002, 7.693664e+005
9.835659e+002, 6.688997e+005
9.854944e+002, 5.908648e+005
9.874229e+002, 5.420829e+005
9.893513e+002, 5.150414e+005
9.912798e+002, 5.078613e+005
9.932083e+002, 5.189889e+005
9.951367e+002, 5.429018e+005
9.970652e+002, 5.753987e+005
9.989937e+002, 6.271453e+005
1.000922e+003, 6.818989e+005
1.002851e+003, 7.511998e+005
1.004779e+003, 9.051840e+005
1.006708e+003, 1.148574e+006
1.008636e+003, 1.462089e+006
1.010564e+003, 2.049987e+006
1.012493e+003, 2.638016e+006
1.014421e+003, 2.740043e+006
1.016350e+003, 2.225106e+006
1.018278e+003, 1.696978e+006
1.020207e+003, 1.283667e+006
1.022135e+003, 9.633483e+005
1.024064e+003, 7.291139e+005
1.025992e+003, 6.015028e+005
1.027921e+003, 5.063786e+005
1.029849e+003, 4.479514e+005
1.031778e+003, 4.096430e+005
1.033706e+003, 3.840414e+005
1.035635e+003, 3.717784e+005
1.037563e+003, 3.627584e+005
1.039491e+003, 3.578176e+005
1.041420e+003, 3.547098e+005
1.043348e+003, 3.528884e+005
1.045277e+003, 3.520553e+005
1.047205e+003, 3.514811e+005
1.049134e+003, 3.512931e+005
1.051062e+003, 3.511237e+005
1.052991e+003, 3.509093e+005
1.054919e+003, 3.507100e+005
1.056848e+003, 3.506100e+005
1.058776e+003, 3.506579e+005
1.060705e+003, 3.508391e+005
1.062633e+003, 3.511564e+005
1.064562e+003, 3.516061e+005
1.066490e+003, 3.521689e+005
1.068418e+003, 3.528039e+005
1.070347e+003, 3.534984e+005
1.072275e+003, 3.542973e+005
1.074204e+003, 3.550138e+005
1.076132e+003, 3.555141e+005
1.078061e+003, 3.557982e+005
1.079989e+003, 3.561466e+005
1.081918e+003, 3.565937e+005
1.083846e+003, 3.570863e+005
1.085775e+003, 3.577258e+005
1.087703e+003, 3.583971e+005
1.089632e+003, 3.588211e+005
1.091560e+003, 3.590167e+005
1.093489e+003, 3.590094e+005
1.095417e+003, 3.587292e+005
1.097345e+003, 3.583450e+005
1.099274e+003, 3.579543e+005
1.101202e+003, 3.575654e+005
1.103131e+003, 3.574684e+005
1.105059e+003, 3.579029e+005
1.106988e+003, 3.584650e+005
1.108916e+003, 3.589492e+005
1.110845e+003, 3.593423e+005
1.112773e+003, 3.597992e+005
1.114702e+003, 3.602952e+005
1.116630e+003, 3.607778e+005
1.118559e+003, 3.613449e+005
1.120487e+003, 3.618255e+005
1.122416e+003, 3.618932e+005
1.124344e+003, 3.614753e+005
1.126272e+003, 3.611043e+005
1.128201e+003, 3.609533e+005
1.130129e+003, 3.608912e+005
1.132058e+003, 3.608508e+005
1.133986e+003, 3.608442e+005
1.135915e+003, 3.607935e+005
1.137843e+003, 3.605795e+005
1.139772e+003, 3.604468e+005
1.141700e+003, 3.604796e+005
1.143629e+003, 3.606492e+005
1.145557e+003, 3.608662e+005
1.147486e+003, 3.611398e+005
1.149414e+003, 3.614287e+005
1.151343e+003, 3.616946e+005
1.153271e+003, 3.619872e+005
1.155199e+003, 3.624378e+005
1.157128e+003, 3.630539e+005
1.159056e+003, 3.633803e+005
1.160985e+003, 3.630475e+005
1.162913e+003, 3.627978e+005
1.164842e+003, 3.631425e+005
1.166770e+003, 3.639557e+005
1.168699e+003, 3.643768e+005
1.170627e+003, 3.639655e+005
1.172556e+003, 3.638824e+005
1.174484e+003, 3.644973e+005
1.176413e+003, 3.654487e+005
1.178341e+003, 3.662832e+005
1.180270e+003, 3.669161e+005
1.182198e+003, 3.675630e+005
1.184126e+003, 3.682169e+005
1.186055e+003, 3.688196e+005
1.187983e+003, 3.693599e+005
1.189912e+003, 3.698174e+005
1.191840e+003, 3.701434e+005
1.193769e+003, 3.703623e+005
1.195697e+003, 3.704874e+005
1.197626e+003, 3.705185e+005
1.199554e+003, 3.705500e+005
1.201483e+003, 3.706626e+005
1.203411e+003, 3.708621e+005
1.205340e+003, 3.712652e+005
1.207268e+003, 3.718981e+005
1.209197e+003, 3.726689e+005
1.211125e+003, 3.735166e+005
1.213053e+003, 3.743973e+005
1.214982e+003, 3.752442e+005
1.216910e+003, 3.759046e+005
1.218839e+003, 3.766467e+005
1.220767e+003, 3.776878e+005
1.222696e+003, 3.787268e+005
1.224624e+003, 3.795220e+005
1.226553e+003, 3.801250e+005
1.228481e+003, 3.804842e+005
1.230410e+003, 3.805069e+005
1.232338e+003, 3.805296e+005
1.234267e+003, 3.806743e+005
1.236195e+003, 3.809313e+005
1.238124e+003, 3.812868e+005
1.240052e+003, 3.817964e+005
1.241980e+003, 3.821896e+005
1.243909e+003, 3.822989e+005
1.245837e+003, 3.823423e+005
1.247766e+003, 3.825138e+005
1.249694e+003, 3.828361e+005
1.251623e+003, 3.831065e+005
1.253551e+003, 3.832040e+005
1.255480e+003, 3.834390e+005
1.257408e+003, 3.840360e+005
1.259337e+003, 3.847716e+005
1.261265e+003, 3.852431e+005
1.263194e+003, 3.853918e+005
1.265122e+003, 3.856162e+005
1.267051e+003, 3.860250e+005
1.268979e+003, 3.864965e+005
1.270907e+003, 3.870033e+005
1.272836e+003, 3.875345e+005
1.274764e+003, 3.879961e+005
1.276693e+003, 3.883689e+005
1.278621e+003, 3.887338e+005
1.280550e+003, 3.890830e+005
1.282478e+003, 3.894494e+005
1.284407e+003, 3.898744e+005
1.286335e+003, 3.903679e+005
1.288264e+003, 3.907777e+005
1.290192e+003, 3.910558e+005
1.292121e+003, 3.912988e+005
1.294049e+003, 3.915070e+005
1.295978e+003, 3.917050e+005
1.297906e+003, 3.919483e+005
1.299834e+003, 3.922463e+005
1.301763e+003, 3.925110e+005
1.303691e+003, 3.927793e+005
1.305620e+003, 3.929565e+005
1.307548e+003, 3.929513e+005
1.309477e+003, 3.928222e+005
1.311405e+003, 3.927083e+005
1.313334e+003, 3.926034e+005
1.315262e+003, 3.925840e+005
1.317191e+003, 3.927077e+005
1.319119e+003, 3.929143e+005
1.321048e+003, 3.931673e+005
1.322976e+003, 3.934639e+005
1.324905e+003, 3.937846e+005
1.326833e+003, 3.941706e+005
1.328761e+003, 3.944872e+005
1.330690e+003, 3.946630e+005
1.332618e+003, 3.947717e+005
1.334547e+003, 3.948869e+005
1.336475e+003, 3.949970e+005
1.338404e+003, 3.952308e+005
1.340332e+003, 3.958326e+005
1.342261e+003, 3.962996e+005
1.344189e+003, 3.963082e+005
1.346118e+003, 3.961191e+005
1.348046e+003, 3.961658e+005
1.349975e+003, 3.964550e+005
1.351903e+003, 3.968139e+005
1.353832e+003, 3.973165e+005
1.355760e+003, 3.977373e+005
1.357688e+003, 3.979196e+005
1.359617e+003, 3.979538e+005
1.361545e+003, 3.980598e+005
1.363474e+003, 3.982938e+005
1.365402e+003, 3.984441e+005
1.367331e+003, 3.983939e+005
1.369259e+003, 3.983132e+005
1.371188e+003, 3.982597e+005
1.373116e+003, 3.982348e+005
1.375045e+003, 3.982831e+005
1.376973e+003, 3.984127e+005
1.378902e+003, 3.986094e+005
1.380830e+003, 3.990029e+005
1.382759e+003, 3.993794e+005
1.384687e+003, 3.995305e+005
1.386615e+003, 3.994910e+005
1.388544e+003, 3.996353e+005
1.390472e+003, 4.000569e+005
1.392401e+003, 4.004892e+005
1.394329e+003, 4.008882e+005
1.396258e+003, 4.012564e+005
1.398186e+003, 4.015596e+005
1.400115e+003, 4.018025e+005
1.402043e+003, 4.020951e+005
1.403972e+003, 4.024703e+005
1.405900e+003, 4.027984e+005
1.407829e+003, 4.030635e+005
1.409757e+003, 4.032492e+005
1.411686e+003, 4.033061e+005
1.413614e+003, 4.032668e+005
1.415542e+003, 4.033765e+005
1.417471e+003, 4.037329e+005
1.419399e+003, 4.041237e+005
1.421328e+003, 4.044593e+005
1.423256e+003, 4.047707e+005
1.425185e+003, 4.050524e+005
1.427113e+003, 4.052576e+005
1.429042e+003, 4.055337e+005
1.430970e+003, 4.059980e+005
1.432899e+003, 4.063545e+005
1.434827e+003, 4.066576e+005
1.436756e+003, 4.068300e+005
1.438684e+003, 4.067446e+005
1.440613e+003, 4.064128e+005
1.442541e+003, 4.063128e+005
1.444469e+003, 4.064628e+005
1.446398e+003, 4.068421e+005
1.448326e+003, 4.074792e+005
1.450255e+003, 4.082640e+005
1.452183e+003, 4.090948e+005
1.454112e+003, 4.099221e+005
1.456040e+003, 4.106753e+005
1.457969e+003, 4.113255e+005
1.459897e+003, 4.118708e+005
1.461826e+003, 4.123427e+005
1.463754e+003, 4.127090e+005
1.465683e+003, 4.128822e+005
1.467611e+003, 4.129384e+005
1.469540e+003, 4.132218e+005
1.471468e+003, 4.138783e+005
1.473396e+003, 4.144856e+005
1.475325e+003, 4.148692e+005
1.477253e+003, 4.151613e+005
1.479182e+003, 4.154683e+005
1.481110e+003, 4.157563e+005
1.483039e+003, 4.158756e+005
1.484967e+003, 4.157243e+005
1.486896e+003, 4.156616e+005
1.488824e+003, 4.158905e+005
1.490753e+003, 4.161453e+005
1.492681e+003, 4.162324e+005
1.494610e+003, 4.162093e+005
1.496538e+003, 4.163601e+005
1.498467e+003, 4.168137e+005
1.500395e+003, 4.171160e+005
1.502323e+003, 4.170755e+005
1.504252e+003, 4.170093e+005
1.506180e+003, 4.171149e+005
1.508109e+003, 4.173275e+005
1.510037e+003, 4.174558e+005
1.511966e+003, 4.174694e+005
1.513894e+003, 4.175126e+005
1.515823e+003, 4.175854e+005
1.517751e+003, 4.177368e+005
1.519680e+003, 4.180275e+005
1.521608e+003, 4.183958e+005
1.523537e+003, 4.187321e+005
1.525465e+003, 4.190155e+005
1.527394e+003, 4.192887e+005
1.529322e+003, 4.194079e+005
1.531250e+003, 4.196638e+005
1.533179e+003, 4.202979e+005
1.535107e+003, 4.209858e+005
1.537036e+003, 4.213322e+005
1.538964e+003, 4.213693e+005
1.540893e+003, 4.214301e+005
1.542821e+003, 4.215155e+005
1.544750e+003, 4.216807e+005
1.546678e+003, 4.219846e+005
1.548607e+003, 4.223299e+005
1.550535e+003, 4.226670e+005
1.552464e+003, 4.229712e+005
1.554392e+003, 4.231612e+005
1.556321e+003, 4.232044e+005
1.558249e+003, 4.232595e+005
1.560177e+003, 4.234319e+005
1.562106e+003, 4.235893e+005
1.564034e+003, 4.236568e+005
1.565963e+003, 4.237116e+005
1.567891e+003, 4.238530e+005
1.569820e+003, 4.240903e+005
1.571748e+003, 4.243900e+005
1.573677e+003, 4.246944e+005
1.575605e+003, 4.250734e+005
1.577534e+003, 4.255692e+005
1.579462e+003, 4.260621e+005
1.581391e+003, 4.264528e+005
1.583319e+003, 4.267335e+005
1.585248e+003, 4.269166e+005
1.587176e+003, 4.270227e+005
1.589104e+003, 4.270378e+005
1.591033e+003, 4.269202e+005
1.592961e+003, 4.267870e+005
1.594890e+003, 4.266266e+005
1.596818e+003, 4.264974e+005
1.598747e+003, 4.266247e+005
1.600675e+003, 4.270889e+005
1.602604e+003, 4.275127e+005
1.604532e+003, 4.278858e+005
1.606461e+003, 4.282678e+005
1.608389e+003, 4.286774e+005
1.610318e+003, 4.291833e+005
1.612246e+003, 4.299208e+005
1.614175e+003, 4.309251e+005
1.616103e+003, 4.316518e+005
1.618031e+003, 4.318966e+005
1.619960e+003, 4.320033e+005
1.621888e+003, 4.317662e+005
1.623817e+003, 4.314875e+005
1.625745e+003, 4.313896e+005
1.627674e+003, 4.313682e+005
1.629602e+003, 4.311733e+005
1.631531e+003, 4.308470e+005
1.633459e+003, 4.303576e+005
1.635388e+003, 4.296517e+005
1.637316e+003, 4.290088e+005
1.639245e+003, 4.285796e+005
1.641173e+003, 4.282545e+005
1.643102e+003, 4.278672e+005
1.645030e+003, 4.274318e+005
1.646958e+003, 4.272318e+005
1.648887e+003, 4.273669e+005
1.650815e+003, 4.275736e+005
1.652744e+003, 4.279183e+005
1.654672e+003, 4.282183e+005
1.656601e+003, 4.283499e+005
1.658529e+003, 4.283782e+005
1.660458e+003, 4.284070e+005
1.662386e+003, 4.284132e+005
1.664315e+003, 4.285043e+005
1.666243e+003, 4.287532e+005
1.668172e+003, 4.289917e+005
1.670100e+003, 4.291121e+005
1.672029e+003, 4.293184e+005
1.673957e+003, 4.298560e+005
1.675885e+003, 4.306003e+005
1.677814e+003, 4.311291e+005
1.679742e+003, 4.313481e+005
1.681671e+003, 4.315730e+005
1.683599e+003, 4.317340e+005
1.685528e+003, 4.319422e+005
1.687456e+003, 4.322313e+005
1.689385e+003, 4.325427e+005
1.691313e+003, 4.328521e+005
1.693242e+003, 4.331412e+005
1.695170e+003, 4.333174e+005
1.697099e+003, 4.334458e+005
1.699027e+003, 4.333419e+005
1.700956e+003, 4.327777e+005
1.702884e+003, 4.323126e+005
1.704813e+003, 4.322347e+005
1.706741e+003, 4.323630e+005
1.708669e+003, 4.325292e+005
1.710598e+003, 4.327387e+005
1.712526e+003, 4.328422e+005
1.714455e+003, 4.326471e+005
1.716383e+003, 4.327129e+005
1.718312e+003, 4.332834e+005
1.720240e+003, 4.338313e+005
1.722169e+003, 4.340770e+005
1.724097e+003, 4.341375e+005
1.726026e+003, 4.341828e+005
1.727954e+003, 4.341860e+005
1.729883e+003, 4.340094e+005
1.731811e+003, 4.335925e+005
1.733740e+003, 4.330810e+005
1.735668e+003, 4.324359e+005
1.737596e+003, 4.318522e+005
1.739525e+003, 4.315812e+005
1.741453e+003, 4.314529e+005
1.743382e+003, 4.311562e+005
1.745310e+003, 4.307158e+005
1.747239e+003, 4.305233e+005
1.749167e+003, 4.306322e+005
1.751096e+003, 4.308231e+005
1.753024e+003, 4.310415e+005
1.754953e+003, 4.312146e+005
1.756881e+003, 4.312590e+005
1.758810e+003, 4.311829e+005
1.760738e+003, 4.310596e+005
1.762667e+003, 4.308942e+005
1.764595e+003, 4.305276e+005
1.766523e+003, 4.299007e+005
1.768452e+003, 4.292932e+005
1.770380e+003, 4.287986e+005
1.772309e+003, 4.283132e+005
1.774237e+003, 4.278424e+005
1.776166e+003, 4.273213e+005
1.778094e+003, 4.266094e+005
1.780023e+003, 4.257191e+005
1.781951e+003, 4.249929e+005
1.783880e+003, 4.245245e+005
1.785808e+003, 4.239742e+005
1.787737e+003, 4.232815e+005
1.789665e+003, 4.225334e+005
1.791594e+003, 4.217567e+005
1.793522e+003, 4.209192e+005
1.795450e+003, 4.199938e+005
1.797379e+003, 4.189733e+005
1.799307e+003, 4.178368e+005
1.801236e+003, 4.165417e+005
1.803164e+003, 4.153583e+005
1.805093e+003, 4.144929e+005
1.807021e+003, 4.135312e+005
1.808950e+003, 4.122660e+005
1.810878e+003, 4.110507e+005
1.812807e+003, 4.101490e+005
1.814735e+003, 4.094771e+005
1.816664e+003, 4.087826e+005
1.818592e+003, 4.080338e+005
1.820521e+003, 4.074729e+005
1.822449e+003, 4.071137e+005
1.824377e+003, 4.067693e+005
1.826306e+003, 4.063998e+005
1.828234e+003, 4.059488e+005
1.830163e+003, 4.052833e+005
1.832091e+003, 4.045997e+005
1.834020e+003, 4.041999e+005
1.835948e+003, 4.040617e+005
1.837877e+003, 4.039521e+005
1.839805e+003, 4.038896e+005
1.841734e+003, 4.038445e+005
1.843662e+003, 4.037108e+005
1.845591e+003, 4.037886e+005
1.847519e+003, 4.043425e+005
1.849448e+003, 4.050117e+005
1.851376e+003, 4.054276e+005
1.853304e+003, 4.057446e+005
1.855233e+003, 4.063291e+005
1.857161e+003, 4.072042e+005
1.859090e+003, 4.081604e+005
1.861018e+003, 4.091863e+005
1.862947e+003, 4.104146e+005
1.864875e+003, 4.119858e+005
1.866804e+003, 4.136901e+005
1.868732e+003, 4.153734e+005
1.870661e+003, 4.171087e+005
1.872589e+003, 4.189353e+005
1.874518e+003, 4.208200e+005
1.876446e+003, 4.229181e+005
1.878375e+003, 4.253104e+005
1.880303e+003, 4.273076e+005
1.882231e+003, 4.286780e+005
1.884160e+003, 4.299137e+005
1.886088e+003, 4.311897e+005
1.888017e+003, 4.324614e+005
1.889945e+003, 4.337837e+005
1.891874e+003, 4.351543e+005
1.893802e+003, 4.365040e+005
1.895731e+003, 4.378618e+005
1.897659e+003, 4.392112e+005
1.899588e+003, 4.403970e+005
1.901516e+003, 4.417465e+005
1.903445e+003, 4.433478e+005
1.905373e+003, 4.448361e+005
1.907302e+003, 4.461068e+005
1.909230e+003, 4.471683e+005
1.911158e+003, 4.480395e+005
1.913087e+003, 4.487509e+005
1.915015e+003, 4.492948e+005
1.916944e+003, 4.496966e+005
1.918872e+003, 4.504255e+005
1.920801e+003, 4.516553e+005
1.922729e+003, 4.526475e+005
1.924658e+003, 4.530963e+005
1.926586e+003, 4.534691e+005
1.928515e+003, 4.539558e+005
1.930443e+003, 4.544228e+005
1.932372e+003, 4.548264e+005
1.934300e+003, 4.551405e+005
1.936229e+003, 4.552376e+005
1.938157e+003, 4.551629e+005
1.940085e+003, 4.553470e+005
1.942014e+003, 4.559123e+005
1.943942e+003, 4.563791e+005
1.945871e+003, 4.565658e+005
1.947799e+003, 4.567319e+005
1.949728e+003, 4.570467e+005
1.951656e+003, 4.573084e+005
1.953585e+003, 4.572875e+005
1.955513e+003, 4.571411e+005
1.957442e+003, 4.571992e+005
1.959370e+003, 4.574813e+005
1.961299e+003, 4.577600e+005
1.963227e+003, 4.579822e+005
1.965156e+003, 4.583137e+005
1.967084e+003, 4.587312e+005
1.969012e+003, 4.592313e+005
1.970941e+003, 4.599017e+005
1.972869e+003, 4.604648e+005
1.974798e+003, 4.606102e+005
1.976726e+003, 4.605597e+005
1.978655e+003, 4.607616e+005
1.980583e+003, 4.611846e+005
1.982512e+003, 4.612719e+005
1.984440e+003, 4.610233e+005
1.986369e+003, 4.607944e+005
1.988297e+003, 4.605726e+005
1.990226e+003, 4.606609e+005
1.992154e+003, 4.613009e+005
1.994083e+003, 4.620286e+005
1.996011e+003, 4.625573e+005
1.997939e+003, 4.629893e+005
1.999868e+003, 4.634239e+005
2.001796e+003, 4.638289e+005
2.003725e+003, 4.641532e+005
2.005653e+003, 4.644134e+005
2.007582e+003, 4.647565e+005
2.009510e+003, 4.652916e+005
2.011439e+003, 4.657139e+005
2.013367e+003, 4.657207e+005
2.015296e+003, 4.659373e+005
2.017224e+003, 4.667799e+005
2.019153e+003, 4.675534e+005
2.021081e+003, 4.676150e+005
2.023010e+003, 4.673462e+005
2.024938e+003, 4.674586e+005
2.026866e+003, 4.678839e+005
2.028795e+003, 4.678574e+005
2.030723e+003, 4.673036e+005
2.032652e+003, 4.670468e+005
2.034580e+003, 4.672403e+005
2.036509e+003, 4.675703e+005
2.038437e+003, 4.679339e+005
2.040366e+003, 4.684183e+005
2.042294e+003, 4.690875e+005
2.044223e+003, 4.697237e+005
2.046151e+003, 4.700963e+005
2.048080e+003, 4.703293e+005
2.050008e+003, 4.707034e+005
2.051937e+003, 4.711836e+005
2.053865e+003, 4.714805e+005
2.055793e+003, 4.716048e+005
2.057722e+003, 4.717834e+005
2.059650e+003, 4.720567e+005
2.061579e+003, 4.723875e+005
2.063507e+003, 4.726933e+005
2.065436e+003, 4.730580e+005
2.067364e+003, 4.735867e+005
2.069293e+003, 4.740286e+005
2.071221e+003, 4.741638e+005
2.073150e+003, 4.740818e+005
2.075078e+003, 4.739264e+005
2.077007e+003, 4.737175e+005
2.078935e+003, 4.735771e+005
2.080864e+003, 4.735740e+005
2.082792e+003, 4.733592e+005
2.084720e+003, 4.728255e+005
2.086649e+003, 4.725032e+005
2.088577e+003, 4.726318e+005
2.090506e+003, 4.728268e+005
2.092434e+003, 4.728978e+005
2.094363e+003, 4.730313e+005
2.096291e+003, 4.732680e+005
2.098220e+003, 4.736212e+005
2.100148e+003, 4.741723e+005
2.102077e+003, 4.747819e+005
2.104005e+003, 4.751136e+005
2.105934e+003, 4.751160e+005
2.107862e+003, 4.748750e+005
2.109791e+003, 4.744174e+005
2.111719e+003, 4.737319e+005
2.113647e+003, 4.726568e+005
2.115576e+003, 4.718324e+005
2.117504e+003, 4.717859e+005
2.119433e+003, 4.716880e+005
2.121361e+003, 4.709076e+005
2.123290e+003, 4.702068e+005
2.125218e+003, 4.703323e+005
2.127147e+003, 4.709128e+005
2.129075e+003, 4.712406e+005
2.131004e+003, 4.713615e+005
2.132932e+003, 4.716684e+005
2.134861e+003, 4.721495e+005
2.136789e+003, 4.724109e+005
2.138718e+003, 4.723148e+005
2.140646e+003, 4.722518e+005
2.142574e+003, 4.723893e+005
2.144503e+003, 4.724523e+005
2.146431e+003, 4.723694e+005
2.148360e+003, 4.722460e+005
2.150288e+003, 4.721489e+005
2.152217e+003, 4.720577e+005
2.154145e+003, 4.719632e+005
2.156074e+003, 4.718490e+005
2.158002e+003, 4.716250e+005
2.159931e+003, 4.713086e+005
2.161859e+003, 4.711723e+005
2.163788e+003, 4.712142e+005
2.165716e+003, 4.710909e+005
2.167645e+003, 4.707367e+005
2.169573e+003, 4.704490e+005
2.171501e+003, 4.703498e+005
2.173430e+003, 4.702642e+005
2.175358e+003, 4.701415e+005
2.177287e+003, 4.700819e+005
2.179215e+003, 4.701928e+005
2.181144e+003, 4.703185e+005
2.183072e+003, 4.701976e+005
2.185001e+003, 4.700299e+005
2.186929e+003, 4.702282e+005
2.188858e+003, 4.706383e+005
2.190786e+003, 4.706693e+005
2.192715e+003, 4.703095e+005
2.194643e+003, 4.700616e+005
2.196572e+003, 4.699956e+005
2.198500e+003, 4.698437e+005
2.200428e+003, 4.695540e+005
2.202357e+003, 4.693573e+005
2.204285e+003, 4.693406e+005
2.206214e+003, 4.693726e+005
2.208142e+003, 4.694694e+005
2.210071e+003, 4.694778e+005
2.211999e+003, 4.691483e+005
2.213928e+003, 4.688196e+005
2.215856e+003, 4.689199e+005
2.217785e+003, 4.692540e+005
2.219713e+003, 4.694443e+005
2.221642e+003, 4.695507e+005
2.223570e+003, 4.698076e+005
2.225499e+003, 4.702123e+005
2.227427e+003, 4.704946e+005
2.229355e+003, 4.705572e+005
2.231284e+003, 4.709192e+005
2.233212e+003, 4.717704e+005
2.235141e+003, 4.722676e+005
2.237069e+003, 4.720042e+005
2.238998e+003, 4.716558e+005
2.240926e+003, 4.715246e+005
2.242855e+003, 4.713729e+005
2.244783e+003, 4.710461e+005
2.246712e+003, 4.707758e+005
2.248640e+003, 4.708468e+005
2.250569e+003, 4.710908e+005
2.252497e+003, 4.712139e+005
2.254426e+003, 4.712858e+005
2.256354e+003, 4.715478e+005
2.258282e+003, 4.719458e+005
2.260211e+003, 4.721632e+005
2.262139e+003, 4.721627e+005
2.264068e+003, 4.721573e+005
2.265996e+003, 4.721641e+005
2.267925e+003, 4.720511e+005
2.269853e+003, 4.717700e+005
2.271782e+003, 4.714008e+005
2.273710e+003, 4.708563e+005
2.275639e+003, 4.704073e+005
2.277567e+003, 4.702764e+005
2.279496e+003, 4.701321e+005
2.281424e+003, 4.696470e+005
2.283353e+003, 4.691928e+005
2.285281e+003, 4.692000e+005
2.287209e+003, 4.693437e+005
2.289138e+003, 4.691946e+005
2.291066e+003, 4.688378e+005
2.292995e+003, 4.684123e+005
2.294923e+003, 4.679752e+005
2.296852e+003, 4.678032e+005
2.298780e+003, 4.679575e+005
2.300709e+003, 4.680436e+005
2.302637e+003, 4.679470e+005
2.304566e+003, 4.679938e+005
2.306494e+003, 4.681898e+005
2.308423e+003, 4.683965e+005
2.310351e+003, 4.686407e+005
2.312280e+003, 4.687174e+005
2.314208e+003, 4.685476e+005
2.316136e+003, 4.682376e+005
2.318065e+003, 4.677302e+005
2.319993e+003, 4.672768e+005
2.321922e+003, 4.670541e+005
2.323850e+003, 4.669904e+005
2.325779e+003, 4.670698e+005
2.327707e+003, 4.672214e+005
2.329636e+003, 4.673661e+005
2.331564e+003, 4.674574e+005
2.333493e+003, 4.673714e+005
2.335421e+003, 4.670932e+005
2.337350e+003, 4.666276e+005
2.339278e+003, 4.659800e+005
2.341207e+003, 4.654993e+005
2.343135e+003, 4.652682e+005
2.345063e+003, 4.647781e+005
2.346992e+003, 4.638294e+005
2.348920e+003, 4.632683e+005
2.350849e+003, 4.635835e+005
2.352777e+003, 4.637453e+005
2.354706e+003, 4.633424e+005
2.356634e+003, 4.630558e+005
2.358563e+003, 4.630683e+005
2.360491e+003, 4.631279e+005
2.362420e+003, 4.631396e+005
2.364348e+003, 4.630936e+005
2.366277e+003, 4.629732e+005
2.368205e+003, 4.628371e+005
2.370134e+003, 4.628223e+005
2.372062e+003, 4.628123e+005
2.373990e+003, 4.626678e+005
2.375919e+003, 4.623932e+005
2.377847e+003, 4.618546e+005
2.379776e+003, 4.611618e+005
2.381704e+003, 4.609108e+005
2.383633e+003, 4.610787e+005
2.385561e+003, 4.611700e+005
2.387490e+003, 4.611704e+005
2.389418e+003, 4.612746e+005
2.391347e+003, 4.614962e+005
2.393275e+003, 4.616482e+005
2.395204e+003, 4.616172e+005
2.397132e+003, 4.616337e+005
2.399061e+003, 4.617381e+005
2.400989e+003, 4.618096e+005
2.402917e+003, 4.620181e+005
2.404846e+003, 4.618939e+005
2.406774e+003, 4.610601e+005
2.408703e+003, 4.603818e+005
2.410631e+003, 4.604323e+005
2.412560e+003, 4.605343e+005
2.414488e+003, 4.602293e+005
2.416417e+003, 4.598684e+005
2.418345e+003, 4.597072e+005
2.420274e+003, 4.596520e+005
2.422202e+003, 4.595622e+005
2.424131e+003, 4.595013e+005
2.426059e+003, 4.596770e+005
2.427988e+003, 4.599145e+005
2.429916e+003, 4.597233e+005
2.431844e+003, 4.592665e+005
2.433773e+003, 4.591593e+005
2.435701e+003, 4.593284e+005
2.437630e+003, 4.592100e+005
2.439558e+003, 4.587956e+005
2.441487e+003, 4.583034e+005
2.443415e+003, 4.576786e+005
2.445344e+003, 4.572549e+005
2.447272e+003, 4.570585e+005
2.449201e+003, 4.569762e+005
2.451129e+003, 4.570492e+005
2.453058e+003, 4.569413e+005
2.454986e+003, 4.564820e+005
2.456915e+003, 4.561899e+005
2.458843e+003, 4.564071e+005
2.460771e+003, 4.564161e+005
2.462700e+003, 4.559294e+005
2.464628e+003, 4.553581e+005
2.466557e+003, 4.547630e+005
2.468485e+003, 4.542260e+005
2.470414e+003, 4.538871e+005
2.472342e+003, 4.534793e+005
2.474271e+003, 4.526538e+005
2.476199e+003, 4.519536e+005
2.478128e+003, 4.520470e+005
2.480056e+003, 4.521731e+005
2.481985e+003, 4.514091e+005
2.483913e+003, 4.504192e+005
2.485842e+003, 4.500475e+005
2.487770e+003, 4.499851e+005
2.489698e+003, 4.498531e+005
2.491627e+003, 4.495957e+005
2.493555e+003, 4.490178e+005
2.495484e+003, 4.482598e+005
2.497412e+003, 4.476747e+005
2.499341e+003, 4.472506e+005
2.501269e+003, 4.468759e+005
2.503198e+003, 4.465400e+005
2.505126e+003, 4.461568e+005
2.507055e+003, 4.457029e+005
2.508983e+003, 4.451648e+005
2.510912e+003, 4.445153e+005
2.512840e+003, 4.438827e+005
2.514769e+003, 4.432668e+005
2.516697e+003, 4.427089e+005
2.518625e+003, 4.422475e+005
2.520554e+003, 4.417859e+005
2.522482e+003, 4.413773e+005
2.524411e+003, 4.409083e+005
2.526339e+003, 4.403537e+005
2.528268e+003, 4.398419e+005
2.530196e+003, 4.393729e+005
2.532125e+003, 4.389983e+005
2.534053e+003, 4.387149e+005
2.535982e+003, 4.385292e+005
2.537910e+003, 4.384463e+005
2.539839e+003, 4.384181e+005
2.541767e+003, 4.384055e+005
2.543696e+003, 4.384425e+005
2.545624e+003, 4.386868e+005
2.547552e+003, 4.387565e+005
2.549481e+003, 4.383813e+005
2.551409e+003, 4.380487e+005
2.553338e+003, 4.381460e+005
2.555266e+003, 4.382597e+005
2.557195e+003, 4.380868e+005
2.559123e+003, 4.379318e+005
2.561052e+003, 4.379743e+005
2.562980e+003, 4.381618e+005
2.564909e+003, 4.385725e+005
2.566837e+003, 4.389156e+005
2.568766e+003, 4.387822e+005
2.570694e+003, 4.385254e+005
2.572623e+003, 4.384610e+005
2.574551e+003, 4.385317e+005
2.576479e+003, 4.388088e+005
2.578408e+003, 4.391103e+005
2.580336e+003, 4.391135e+005
2.582265e+003, 4.390003e+005
2.584193e+003, 4.390733e+005
2.586122e+003, 4.392615e+005
2.588050e+003, 4.393719e+005
2.589979e+003, 4.394537e+005
2.591907e+003, 4.396623e+005
2.593836e+003, 4.399150e+005
2.595764e+003, 4.400653e+005
2.597693e+003, 4.400892e+005
2.599621e+003, 4.398972e+005
2.601550e+003, 4.395442e+005
2.603478e+003, 4.392150e+005
2.605406e+003, 4.389396e+005
2.607335e+003, 4.387638e+005
2.609263e+003, 4.387008e+005
2.611192e+003, 4.386848e+005
2.613120e+003, 4.387189e+005
2.615049e+003, 4.388607e+005
2.616977e+003, 4.390973e+005
2.618906e+003, 4.391760e+005
2.620834e+003, 4.390843e+005
2.622763e+003, 4.389849e+005
2.624691e+003, 4.388712e+005
2.626620e+003, 4.388425e+005
2.628548e+003, 4.389683e+005
2.630477e+003, 4.387522e+005
2.632405e+003, 4.381347e+005
2.634333e+003, 4.377439e+005
2.636262e+003, 4.376250e+005
2.638190e+003, 4.372785e+005
2.640119e+003, 4.366025e+005
2.642047e+003, 4.362729e+005
2.643976e+003, 4.365000e+005
2.645904e+003, 4.364724e+005
2.647833e+003, 4.360865e+005
2.649761e+003, 4.358343e+005
2.651690e+003, 4.358087e+005
2.653618e+003, 4.356480e+005
2.655547e+003, 4.352970e+005
2.657475e+003, 4.350356e+005
2.659404e+003, 4.349024e+005
2.661332e+003, 4.347591e+005
2.663260e+003, 4.345473e+005
2.665189e+003, 4.342628e+005
2.667117e+003, 4.338638e+005
2.669046e+003, 4.334076e+005
2.670974e+003, 4.329141e+005
2.672903e+003, 4.323744e+005
2.674831e+003, 4.318563e+005
2.676760e+003, 4.312103e+005
2.678688e+003, 4.302496e+005
2.680617e+003, 4.296276e+005
2.682545e+003, 4.295150e+005
2.684474e+003, 4.293051e+005
2.686402e+003, 4.288721e+005
2.688331e+003, 4.285910e+005
2.690259e+003, 4.286667e+005
2.692188e+003, 4.285890e+005
2.694116e+003, 4.279843e+005
2.696044e+003, 4.278152e+005
2.697973e+003, 4.281810e+005
2.699901e+003, 4.287629e+005
2.701830e+003, 4.296060e+005
2.703758e+003, 4.301358e+005
2.705687e+003, 4.300966e+005
2.707615e+003, 4.300110e+005
2.709544e+003, 4.298249e+005
2.711472e+003, 4.298199e+005
2.713401e+003, 4.300980e+005
2.715329e+003, 4.302434e+005
2.717258e+003, 4.301849e+005
2.719186e+003, 4.300995e+005
2.721115e+003, 4.300363e+005
2.723043e+003, 4.300457e+005
2.724971e+003, 4.301579e+005
2.726900e+003, 4.304276e+005
2.728828e+003, 4.309151e+005
2.730757e+003, 4.313072e+005
2.732685e+003, 4.314916e+005
2.734614e+003, 4.317222e+005
2.736542e+003, 4.320063e+005
2.738471e+003, 4.322898e+005
2.740399e+003, 4.326535e+005
2.742328e+003, 4.327194e+005
2.744256e+003, 4.324246e+005
2.746185e+003, 4.322193e+005
2.748113e+003, 4.321841e+005
2.750042e+003, 4.322547e+005
2.751970e+003, 4.324967e+005
2.753898e+003, 4.326682e+005
2.755827e+003, 4.327461e+005
2.757755e+003, 4.328024e+005
2.759684e+003, 4.328346e+005
2.761612e+003, 4.329751e+005
2.763541e+003, 4.332470e+005
2.765469e+003, 4.335929e+005
2.767398e+003, 4.340417e+005
2.769326e+003, 4.343378e+005
2.771255e+003, 4.344485e+005
2.773183e+003, 4.344794e+005
2.775112e+003, 4.344199e+005
2.777040e+003, 4.343498e+005
2.778969e+003, 4.342872e+005
2.780897e+003, 4.341261e+005
2.782825e+003, 4.338791e+005
2.784754e+003, 4.335873e+005
2.786682e+003, 4.332639e+005
2.788611e+003, 4.330325e+005
2.790539e+003, 4.328902e+005
2.792468e+003, 4.327207e+005
2.794396e+003, 4.325321e+005
2.796325e+003, 4.325048e+005
2.798253e+003, 4.325937e+005
2.800182e+003, 4.322724e+005
2.802110e+003, 4.316974e+005
2.804039e+003, 4.316625e+005
2.805967e+003, 4.319646e+005
2.807896e+003, 4.318241e+005
2.809824e+003, 4.313878e+005
2.811752e+003, 4.310875e+005
2.813681e+003, 4.309154e+005
2.815609e+003, 4.308959e+005
2.817538e+003, 4.309042e+005
2.819466e+003, 4.305691e+005
2.821395e+003, 4.301374e+005
2.823323e+003, 4.301384e+005
2.825252e+003, 4.302792e+005
2.827180e+003, 4.300924e+005
2.829109e+003, 4.297436e+005
2.831037e+003, 4.295285e+005
2.832966e+003, 4.292423e+005
2.834894e+003, 4.284615e+005
2.836823e+003, 4.277277e+005
2.838751e+003, 4.277220e+005
2.840679e+003, 4.279119e+005
2.842608e+003, 4.278924e+005
2.844536e+003, 4.278163e+005
2.846465e+003, 4.277248e+005
2.848393e+003, 4.277002e+005
2.850322e+003, 4.278360e+005
2.852250e+003, 4.280123e+005
2.854179e+003, 4.282166e+005
2.856107e+003, 4.283918e+005
2.858036e+003, 4.283696e+005
2.859964e+003, 4.285858e+005
2.861893e+003, 4.293058e+005
2.863821e+003, 4.301190e+005
2.865750e+003, 4.308642e+005
2.867678e+003, 4.316536e+005
2.869606e+003, 4.325440e+005
2.871535e+003, 4.332591e+005
2.873463e+003, 4.337516e+005
2.875392e+003, 4.340365e+005
2.877320e+003, 4.341411e+005
2.879249e+003, 4.341534e+005
2.881177e+003, 4.340893e+005
2.883106e+003, 4.341731e+005
2.885034e+003, 4.344605e+005
2.886963e+003, 4.346436e+005
2.888891e+003, 4.346178e+005
2.890820e+003, 4.346403e+005
2.892748e+003, 4.346771e+005
2.894677e+003, 4.346060e+005
2.896605e+003, 4.344343e+005
2.898533e+003, 4.342758e+005
2.900462e+003, 4.341474e+005
2.902390e+003, 4.339063e+005
2.904319e+003, 4.336458e+005
2.906247e+003, 4.337170e+005
2.908176e+003, 4.340571e+005
2.910104e+003, 4.346047e+005
2.912033e+003, 4.351852e+005
2.913961e+003, 4.355072e+005
2.915890e+003, 4.356138e+005
2.917818e+003, 4.354422e+005
2.919747e+003, 4.352514e+005
2.921675e+003, 4.354143e+005
2.923604e+003, 4.355850e+005
2.925532e+003, 4.353667e+005
2.927460e+003, 4.351295e+005
2.929389e+003, 4.352491e+005
2.931317e+003, 4.353003e+005
2.933246e+003, 4.350668e+005
2.935174e+003, 4.347342e+005
2.937103e+003, 4.344069e+005
2.939031e+003, 4.339533e+005
2.940960e+003, 4.332788e+005
2.942888e+003, 4.325703e+005
2.944817e+003, 4.318747e+005
2.946745e+003, 4.311161e+005
2.948674e+003, 4.302341e+005
2.950602e+003, 4.294805e+005
2.952531e+003, 4.289220e+005
2.954459e+003, 4.283018e+005
2.956387e+003, 4.275815e+005
2.958316e+003, 4.271533e+005
2.960244e+003, 4.270147e+005
2.962173e+003, 4.267419e+005
2.964101e+003, 4.263207e+005
2.966030e+003, 4.259555e+005
2.967958e+003, 4.256415e+005
2.969887e+003, 4.253215e+005
2.971815e+003, 4.250538e+005
2.973744e+003, 4.249315e+005
2.975672e+003, 4.248839e+005
2.977601e+003, 4.247505e+005
2.979529e+003, 4.245216e+005
2.981458e+003, 4.242263e+005
2.983386e+003, 4.236873e+005
2.985314e+003, 4.225567e+005
2.987243e+003, 4.213640e+005
2.989171e+003, 4.206352e+005
2.991100e+003, 4.197463e+005
2.993028e+003, 4.182527e+005
2.994957e+003, 4.169537e+005
2.996885e+003, 4.162964e+005
2.998814e+003, 4.156390e+005
3.000742e+003, 4.148790e+005
3.002671e+003, 4.141029e+005
3.004599e+003, 4.133107e+005
3.006528e+003, 4.126787e+005
3.008456e+003, 4.123391e+005
3.010385e+003, 4.116427e+005
3.012313e+003, 4.105824e+005
3.014241e+003, 4.102118e+005
3.016170e+003, 4.104010e+005
3.018098e+003, 4.102304e+005
3.020027e+003, 4.097595e+005
3.021955e+003, 4.093151e+005
3.023884e+003, 4.088735e+005
3.025812e+003, 4.084304e+005
3.027741e+003, 4.079476e+005
3.029669e+003, 4.072452e+005
3.031598e+003, 4.066125e+005
3.033526e+003, 4.063341e+005
3.035455e+003, 4.061723e+005
3.037383e+003, 4.060622e+005
3.039312e+003, 4.057973e+005
3.041240e+003, 4.051793e+005
3.043168e+003, 4.045760e+005
3.045097e+003, 4.040732e+005
3.047025e+003, 4.037668e+005
3.048954e+003, 4.037262e+005
3.050882e+003, 4.037632e+005
3.052811e+003, 4.038492e+005
3.054739e+003, 4.039634e+005
3.056668e+003, 4.040763e+005
3.058596e+003, 4.043434e+005
3.060525e+003, 4.046883e+005
3.062453e+003, 4.046883e+005
3.064382e+003, 4.044850e+005
3.066310e+003, 4.046027e+005
3.068239e+003, 4.048014e+005
3.070167e+003, 4.046684e+005
3.072095e+003, 4.043283e+005
3.074024e+003, 4.038898e+005
3.075952e+003, 4.032764e+005
3.077881e+003, 4.023632e+005
3.079809e+003, 4.013034e+005
3.081738e+003, 4.001357e+005
3.083666e+003, 3.989458e+005
3.085595e+003, 3.978470e+005
3.087523e+003, 3.967075e+005
3.089452e+003, 3.954887e+005
3.091380e+003, 3.945748e+005
3.093309e+003, 3.940241e+005
3.095237e+003, 3.934356e+005
3.097166e+003, 3.927217e+005
3.099094e+003, 3.921081e+005
3.101022e+003, 3.915396e+005
3.102951e+003, 3.909712e+005
3.104879e+003, 3.904194e+005
3.106808e+003, 3.900521e+005
3.108736e+003, 3.896626e+005
3.110665e+003, 3.888713e+005
3.112593e+003, 3.880733e+005
3.114522e+003, 3.875772e+005
3.116450e+003, 3.871813e+005
3.118379e+003, 3.867799e+005
3.120307e+003, 3.864054e+005
3.122236e+003, 3.859766e+005
3.124164e+003, 3.858332e+005
3.126093e+003, 3.861850e+005
3.128021e+003, 3.863650e+005
3.129949e+003, 3.863020e+005
3.131878e+003, 3.862343e+005
3.133806e+003, 3.861239e+005
3.135735e+003, 3.857192e+005
3.137663e+003, 3.850843e+005
3.139592e+003, 3.843223e+005
3.141520e+003, 3.836090e+005
3.143449e+003, 3.833332e+005
3.145377e+003, 3.831586e+005
3.147306e+003, 3.827451e+005
3.149234e+003, 3.823113e+005
3.151163e+003, 3.820409e+005
3.153091e+003, 3.816519e+005
3.155020e+003, 3.808666e+005
3.156948e+003, 3.803838e+005
3.158876e+003, 3.805913e+005
3.160805e+003, 3.804401e+005
3.162733e+003, 3.798746e+005
3.164662e+003, 3.793404e+005
3.166590e+003, 3.788785e+005
3.168519e+003, 3.786209e+005
3.170447e+003, 3.784961e+005
3.172376e+003, 3.782901e+005
3.174304e+003, 3.780321e+005
3.176233e+003, 3.777260e+005
3.178161e+003, 3.774371e+005
3.180090e+003, 3.772175e+005
3.182018e+003, 3.770192e+005
3.183947e+003, 3.768781e+005
3.185875e+003, 3.765624e+005
3.187803e+003, 3.757589e+005
3.189732e+003, 3.752696e+005
3.191660e+003, 3.752197e+005
3.193589e+003, 3.749870e+005
3.195517e+003, 3.745188e+005
3.197446e+003, 3.738023e+005
3.199374e+003, 3.729100e+005
3.201303e+003, 3.722363e+005
3.203231e+003, 3.716859e+005
3.205160e+003, 3.711016e+005
3.207088e+003, 3.705953e+005
3.209017e+003, 3.703844e+005
3.210945e+003, 3.702269e+005
3.212874e+003, 3.699806e+005
3.214802e+003, 3.698037e+005
3.216730e+003, 3.697046e+005
3.218659e+003, 3.696219e+005
3.220587e+003, 3.694933e+005
3.222516e+003, 3.692312e+005
3.224444e+003, 3.688075e+005
3.226373e+003, 3.685028e+005
3.228301e+003, 3.682770e+005
3.230230e+003, 3.679099e+005
3.232158e+003, 3.674241e+005
3.234087e+003, 3.667024e+005
3.236015e+003, 3.660393e+005
3.237944e+003, 3.657039e+005
3.239872e+003, 3.654421e+005
3.241801e+003, 3.651935e+005
3.243729e+003, 3.647417e+005
3.245657e+003, 3.638732e+005
3.247586e+003, 3.630885e+005
3.249514e+003, 3.624254e+005
3.251443e+003, 3.619303e+005
3.253371e+003, 3.615502e+005
3.255300e+003, 3.606069e+005
3.257228e+003, 3.594298e+005
3.259157e+003, 3.588245e+005
3.261085e+003, 3.584495e+005
3.263014e+003, 3.580537e+005
3.264942e+003, 3.575734e+005
3.266871e+003, 3.569213e+005
3.268799e+003, 3.562541e+005
3.270728e+003, 3.556329e+005
3.272656e+003, 3.548531e+005
3.274584e+003, 3.537978e+005
3.276513e+003, 3.530024e+005
3.278441e+003, 3.524318e+005
3.280370e+003, 3.517953e+005
3.282298e+003, 3.511182e+005
3.284227e+003, 3.504855e+005
3.286155e+003, 3.498286e+005
3.288084e+003, 3.489782e+005
3.290012e+003, 3.481964e+005
3.291941e+003, 3.476425e+005
3.293869e+003, 3.471740e+005
3.295798e+003, 3.467839e+005
3.297726e+003, 3.462473e+005
3.299655e+003, 3.454833e+005
3.301583e+003, 3.447479e+005
3.303511e+003, 3.440449e+005
3.305440e+003, 3.434622e+005
3.307368e+003, 3.429050e+005
3.309297e+003, 3.421221e+005
3.311225e+003, 3.413526e+005
3.313154e+003, 3.409507e+005
3.315082e+003, 3.405316e+005
3.317011e+003, 3.398602e+005
3.318939e+003, 3.392916e+005
3.320868e+003, 3.389051e+005
3.322796e+003, 3.386200e+005
3.324725e+003, 3.384067e+005
3.326653e+003, 3.379846e+005
3.328582e+003, 3.374047e+005
3.330510e+003, 3.370221e+005
3.332438e+003, 3.366886e+005
3.334367e+003, 3.361893e+005
3.336295e+003, 3.357288e+005
3.338224e+003, 3.355809e+005
3.340152e+003, 3.353078e+005
3.342081e+003, 3.346096e+005
3.344009e+003, 3.343742e+005
3.345938e+003, 3.349289e+005
3.347866e+003, 3.347804e+005
3.349795e+003, 3.340378e+005
3.351723e+003, 3.332881e+005
3.353652e+003, 3.326246e+005
3.355580e+003, 3.322205e+005
3.357509e+003, 3.319771e+005
3.359437e+003, 3.319014e+005
3.361365e+003, 3.317465e+005
3.363294e+003, 3.312074e+005
3.365222e+003, 3.308931e+005
3.367151e+003, 3.308686e+005
3.369079e+003, 3.304821e+005
3.371008e+003, 3.297400e+005
3.372936e+003, 3.293380e+005
3.374865e+003, 3.291063e+005
3.376793e+003, 3.288009e+005
3.378722e+003, 3.282957e+005
3.380650e+003, 3.273185e+005
3.382579e+003, 3.263500e+005
3.384507e+003, 3.255213e+005
3.386436e+003, 3.248980e+005
3.388364e+003, 3.246696e+005
3.390292e+003, 3.239282e+005
3.392221e+003, 3.227855e+005
3.394149e+003, 3.220296e+005
3.396078e+003, 3.215045e+005
3.398006e+003, 3.209239e+005
3.399935e+003, 3.203644e+005
3.401863e+003, 3.199143e+005
3.403792e+003, 3.194283e+005
3.405720e+003, 3.188198e+005
3.407649e+003, 3.182172e+005
3.409577e+003, 3.176378e+005
3.411506e+003, 3.167987e+005
3.413434e+003, 3.158042e+005
3.415363e+003, 3.153713e+005
3.417291e+003, 3.151137e+005
3.419219e+003, 3.144850e+005
3.421148e+003, 3.136365e+005
3.423076e+003, 3.125928e+005
3.425005e+003, 3.114415e+005
3.426933e+003, 3.101963e+005
3.428862e+003, 3.089126e+005
3.430790e+003, 3.076333e+005
3.432719e+003, 3.061163e+005
3.434647e+003, 3.044707e+005
3.436576e+003, 3.030385e+005
3.438504e+003, 3.015506e+005
3.440433e+003, 2.995828e+005
3.442361e+003, 2.976098e+005
3.444290e+003, 2.959199e+005
3.446218e+003, 2.939410e+005
3.448146e+003, 2.915421e+005
3.450075e+003, 2.888444e+005
3.452003e+003, 2.858737e+005
3.453932e+003, 2.829906e+005
3.455860e+003, 2.799457e+005
3.457789e+003, 2.761484e+005
3.459717e+003, 2.722701e+005
3.461646e+003, 2.690519e+005
3.463574e+003, 2.653208e+005
3.465503e+003, 2.607243e+005
3.467431e+003, 2.563599e+005
3.469360e+003, 2.523066e+005
3.471288e+003, 2.481638e+005
3.473217e+003, 2.438466e+005
3.475145e+003, 2.392663e+005
3.477073e+003, 2.343500e+005
3.479002e+003, 2.287951e+005
3.480930e+003, 2.233757e+005
3.482859e+003, 2.183778e+005
3.484787e+003, 2.134337e+005
3.486716e+003, 2.085058e+005
3.488644e+003, 2.035355e+005
3.490573e+003, 1.986006e+005
3.492501e+003, 1.938612e+005
3.494430e+003, 1.893793e+005
3.496358e+003, 1.851907e+005
3.498287e+003, 1.813838e+005
3.500215e+003, 1.779075e+005
3.502144e+003, 1.751625e+005
3.504072e+003, 1.731793e+005
3.506000e+003, 1.719227e+005
3.507929e+003, 1.714041e+005
3.509857e+003, 1.714160e+005
3.511786e+003, 1.721298e+005
3.513714e+003, 1.739200e+005
3.515643e+003, 1.761684e+005
3.517571e+003, 1.785838e+005
3.519500e+003, 1.815285e+005
3.521428e+003, 1.850310e+005
3.523357e+003, 1.891562e+005
3.525285e+003, 1.937342e+005
3.527214e+003, 1.981277e+005
3.529142e+003, 2.026119e+005
3.531071e+003, 2.075301e+005
3.532999e+003, 2.124522e+005
3.534927e+003, 2.171405e+005
3.536856e+003, 2.219409e+005
3.538784e+003, 2.268791e+005
3.540713e+003, 2.314976e+005
3.542641e+003, 2.358771e+005
3.544570e+003, 2.403740e+005
3.546498e+003, 2.447265e+005
3.548427e+003, 2.485671e+005
3.550355e+003, 2.524337e+005
3.552284e+003, 2.566420e+005
3.554212e+003, 2.601252e+005
3.556141e+003, 2.627403e+005
3.558069e+003, 2.656167e+005
3.559998e+003, 2.686054e+005
3.561926e+003, 2.714531e+005
3.563854e+003, 2.740428e+005
3.565783e+003, 2.760403e+005
3.567711e+003, 2.781409e+005
3.569640e+003, 2.805508e+005
3.571568e+003, 2.825762e+005
3.573497e+003, 2.841753e+005
3.575425e+003, 2.855403e+005
3.577354e+003, 2.867225e+005
3.579282e+003, 2.878843e+005
3.581211e+003, 2.888287e+005
3.583139e+003, 2.893685e+005
3.585068e+003, 2.901541e+005
3.586996e+003, 2.914640e+005
3.588925e+003, 2.923251e+005
3.590853e+003, 2.927835e+005
3.592781e+003, 2.930468e+005
3.594710e+003, 2.931687e+005
3.596638e+003, 2.931850e+005
3.598567e+003, 2.931402e+005
3.600495e+003, 2.931365e+005
3.602424e+003, 2.928635e+005
3.604352e+003, 2.923338e+005
3.606281e+003, 2.916000e+005
3.608209e+003, 2.908230e+005
3.610138e+003, 2.904596e+005
3.612066e+003, 2.898939e+005
3.613995e+003, 2.886135e+005
3.615923e+003, 2.875274e+005
3.617852e+003, 2.869004e+005
3.619780e+003, 2.860315e+005
3.621708e+003, 2.849470e+005
3.623637e+003, 2.836607e+005
3.625565e+003, 2.824961e+005
3.627494e+003, 2.818542e+005
3.629422e+003, 2.812342e+005
3.631351e+003, 2.803898e+005
3.633279e+003, 2.796595e+005
3.635208e+003, 2.790663e+005
3.637136e+003, 2.785874e+005
3.639065e+003, 2.782105e+005
3.640993e+003, 2.779732e+005
3.642922e+003, 2.777009e+005
3.644850e+003, 2.771085e+005
3.646779e+003, 2.768970e+005
3.648707e+003, 2.771175e+005
3.650635e+003, 2.773967e+005
3.652564e+003, 2.776120e+005
3.654492e+003, 2.774531e+005
3.656421e+003, 2.771647e+005
3.658349e+003, 2.768280e+005
3.660278e+003, 2.766567e+005
3.662206e+003, 2.766837e+005
3.664135e+003, 2.770349e+005
3.666063e+003, 2.775669e+005
3.667992e+003, 2.775855e+005
3.669920e+003, 2.775564e+005
3.671849e+003, 2.779554e+005
3.673777e+003, 2.783424e+005
3.675706e+003, 2.786181e+005
3.677634e+003, 2.786332e+005
3.679563e+003, 2.784743e+005
3.681491e+003, 2.787324e+005
3.683419e+003, 2.790975e+005
3.685348e+003, 2.790792e+005
3.687276e+003, 2.791612e+005
3.689205e+003, 2.795778e+005
3.691133e+003, 2.799263e+005
3.693062e+003, 2.801393e+005
3.694990e+003, 2.798967e+005
3.696919e+003, 2.795994e+005
3.698847e+003, 2.799886e+005
3.700776e+003, 2.803420e+005
3.702704e+003, 2.801355e+005
3.704633e+003, 2.803332e+005
3.706561e+003, 2.809389e+005
3.708490e+003, 2.812234e+005
3.710418e+003, 2.813834e+005
3.712346e+003, 2.816952e+005
3.714275e+003, 2.822261e+005
3.716203e+003, 2.832026e+005
3.718132e+003, 2.839818e+005
3.720060e+003, 2.845477e+005
3.721989e+003, 2.851883e+005
3.723917e+003, 2.858503e+005
3.725846e+003, 2.862960e+005
3.727774e+003, 2.869091e+005
3.729703e+003, 2.880653e+005
3.731631e+003, 2.889166e+005
3.733560e+003, 2.894178e+005
3.735488e+003, 2.903012e+005
3.737417e+003, 2.913842e+005
3.739345e+003, 2.925208e+005
3.741273e+003, 2.934293e+005
3.743202e+003, 2.938709e+005
3.745130e+003, 2.944363e+005
3.747059e+003, 2.951609e+005
3.748987e+003, 2.954773e+005
3.750916e+003, 2.956963e+005
3.752844e+003, 2.963080e+005
3.754773e+003, 2.969975e+005
3.756701e+003, 2.975180e+005
3.758630e+003, 2.982996e+005
3.760558e+003, 2.992467e+005
3.762487e+003, 2.996861e+005
3.764415e+003, 2.999219e+005
3.766344e+003, 3.004619e+005
3.768272e+003, 3.008460e+005
3.770200e+003, 3.008598e+005
3.772129e+003, 3.007944e+005
3.774057e+003, 3.007734e+005
3.775986e+003, 3.013304e+005
3.777914e+003, 3.019303e+005
3.779843e+003, 3.018907e+005
3.781771e+003, 3.018518e+005
3.783700e+003, 3.019994e+005
3.785628e+003, 3.020519e+005
3.787557e+003, 3.019813e+005
3.789485e+003, 3.017578e+005
3.791414e+003, 3.015545e+005
3.793342e+003, 3.015424e+005
3.795271e+003, 3.015503e+005
3.797199e+003, 3.015689e+005
3.799127e+003, 3.014736e+005
3.801056e+003, 3.013338e+005
3.802984e+003, 3.014103e+005
3.804913e+003, 3.013101e+005
3.806841e+003, 3.006962e+005
3.808770e+003, 3.004871e+005
3.810698e+003, 3.008038e+005
3.812627e+003, 3.011095e+005
3.814555e+003, 3.013469e+005
3.816484e+003, 3.014668e+005
3.818412e+003, 3.013531e+005
3.820341e+003, 3.009125e+005
3.822269e+003, 3.004833e+005
3.824198e+003, 3.001066e+005
3.826126e+003, 2.998573e+005
3.828054e+003, 2.995662e+005
3.829983e+003, 2.989697e+005
3.831911e+003, 2.985269e+005
3.833840e+003, 2.983387e+005
3.835768e+003, 2.985827e+005
3.837697e+003, 2.989841e+005
3.839625e+003, 2.988015e+005
3.841554e+003, 2.985296e+005
3.843482e+003, 2.984904e+005
3.845411e+003, 2.982375e+005
3.847339e+003, 2.977408e+005
3.849268e+003, 2.973487e+005
3.851196e+003, 2.970647e+005
3.853125e+003, 2.969436e+005
3.855053e+003, 2.967899e+005
3.856981e+003, 2.965296e+005
3.858910e+003, 2.963011e+005
3.860838e+003, 2.961357e+005
3.862767e+003, 2.962139e+005
3.864695e+003, 2.963147e+005
3.866624e+003, 2.962882e+005
3.868552e+003, 2.962302e+005
3.870481e+003, 2.961435e+005
3.872409e+003, 2.957752e+005
3.874338e+003, 2.953380e+005
3.876266e+003, 2.951509e+005
3.878195e+003, 2.950746e+005
3.880123e+003, 2.950965e+005
3.882052e+003, 2.951858e+005
3.883980e+003, 2.952443e+005
3.885908e+003, 2.948508e+005
3.887837e+003, 2.944581e+005
3.889765e+003, 2.943598e+005
3.891694e+003, 2.944318e+005
3.893622e+003, 2.946568e+005
3.895551e+003, 2.943305e+005
3.897479e+003, 2.938854e+005
3.899408e+003, 2.940404e+005
3.901336e+003, 2.940436e+005
3.903265e+003, 2.936010e+005
3.905193e+003, 2.932045e+005
3.907122e+003, 2.929694e+005
3.909050e+003, 2.933761e+005
3.910979e+003, 2.937242e+005
3.912907e+003, 2.935519e+005
3.914835e+003, 2.934290e+005
3.916764e+003, 2.933900e+005
3.918692e+003, 2.930011e+005
3.920621e+003, 2.925956e+005
3.922549e+003, 2.926898e+005
3.924478e+003, 2.925217e+005
3.926406e+003, 2.919686e+005
3.928335e+003, 2.916620e+005
3.930263e+003, 2.915588e+005
3.932192e+003, 2.915849e+005
3.934120e+003, 2.915083e+005
3.936049e+003, 2.910853e+005
3.937977e+003, 2.909636e+005
3.939906e+003, 2.910497e+005
3.941834e+003, 2.909714e+005
3.943762e+003, 2.907696e+005
3.945691e+003, 2.904304e+005
3.947619e+003, 2.902431e+005
3.949548e+003, 2.902137e+005
3.951476e+003, 2.899426e+005
3.953405e+003, 2.897150e+005
3.955333e+003, 2.900439e+005
3.957262e+003, 2.900504e+005
3.959190e+003, 2.894201e+005
3.961119e+003, 2.892116e+005
3.963047e+003, 2.892944e+005
3.964976e+003, 2.896205e+005
3.966904e+003, 2.896169e+005
3.968833e+003, 2.890340e+005
3.970761e+003, 2.888693e+005
3.972689e+003, 2.889268e+005
3.974618e+003, 2.883154e+005
3.976546e+003, 2.877496e+005
3.978475e+003, 2.877568e+005
3.980403e+003, 2.874967e+005
3.982332e+003, 2.870088e+005
3.984260e+003, 2.868377e+005
3.986189e+003, 2.867383e+005
3.988117e+003, 2.865357e+005
3.990046e+003, 2.862205e+005
3.991974e+003, 2.858055e+005
3.993903e+003, 2.855098e+005
3.995831e+003, 2.851771e+005
3.997760e+003, 2.844916e+005
3.999688e+003, 2.842409e+005
4.001616e+003, 2.846988e+005
4.003545e+003, 2.844003e+005
4.005473e+003, 2.838208e+005
4.007402e+003, 2.836243e+005
4.009330e+003, 2.834900e+005
4.011259e+003, 2.833484e+005
4.013187e+003, 2.829802e+005
4.015116e+003, 2.825264e+005
4.017044e+003, 2.822338e+005
4.018973e+003, 2.819929e+005
4.020901e+003, 2.817539e+005
4.022830e+003, 2.814697e+005
4.024758e+003, 2.811174e+005
4.026687e+003, 2.806554e+005
4.028615e+003, 2.801100e+005
4.030543e+003, 2.794497e+005
4.032472e+003, 2.789900e+005
4.034400e+003, 2.786565e+005
4.036329e+003, 2.781370e+005
4.038257e+003, 2.775337e+005
4.040186e+003, 2.767732e+005
4.042114e+003, 2.765803e+005
4.044043e+003, 2.767473e+005
4.045971e+003, 2.762713e+005
4.047900e+003, 2.757542e+005
4.049828e+003, 2.755757e+005
4.051757e+003, 2.754163e+005
4.053685e+003, 2.752398e+005
4.055614e+003, 2.750246e+005
4.057542e+003, 2.748535e+005
4.059470e+003, 2.748997e+005
4.061399e+003, 2.746423e+005
4.063327e+003, 2.741367e+005
4.065256e+003, 2.741425e+005
4.067184e+003, 2.741205e+005
4.069113e+003, 2.733990e+005
4.071041e+003, 2.732809e+005
4.072970e+003, 2.737030e+005
4.074898e+003, 2.736916e+005
4.076827e+003, 2.735452e+005
4.078755e+003, 2.735304e+005
4.080684e+003, 2.733237e+005
4.082612e+003, 2.729248e+005
4.084541e+003, 2.725201e+005
4.086469e+003, 2.721508e+005
4.088397e+003, 2.717863e+005
4.090326e+003, 2.718677e+005
4.092254e+003, 2.723148e+005
4.094183e+003, 2.719020e+005
4.096111e+003, 2.714076e+005
4.098040e+003, 2.715368e+005
4.099968e+003, 2.715605e+005
4.101896e+003, 2.713420e+005
4.103825e+003, 2.704244e+005
4.105754e+003, 2.696338e+005
4.107682e+003, 2.696878e+005
4.109610e+003, 2.695465e+005
4.111539e+003, 2.692070e+005
4.113468e+003, 2.692363e+005
4.115396e+003, 2.691695e+005
4.117324e+003, 2.686510e+005
4.119253e+003, 2.683973e+005
4.121182e+003, 2.683819e+005
4.123110e+003, 2.681289e+005
4.125038e+003, 2.677641e+005
4.126967e+003, 2.672781e+005
4.128896e+003, 2.670347e+005
4.130824e+003, 2.670109e+005
4.132752e+003, 2.671801e+005
4.134681e+003, 2.672355e+005
4.136609e+003, 2.668621e+005
4.138538e+003, 2.668704e+005
4.140466e+003, 2.670022e+005
4.142395e+003, 2.664218e+005
4.144323e+003, 2.659971e+005
4.146251e+003, 2.661667e+005
4.148180e+003, 2.656773e+005
4.150108e+003, 2.649125e+005
4.152037e+003, 2.647798e+005
4.153965e+003, 2.645549e+005
4.155894e+003, 2.640383e+005
4.157822e+003, 2.637518e+005
4.159751e+003, 2.636114e+005
4.161679e+003, 2.635306e+005
4.163607e+003, 2.632517e+005
4.165536e+003, 2.627258e+005
4.167465e+003, 2.624237e+005
4.169393e+003, 2.622112e+005
4.171321e+003, 2.619480e+005
4.173250e+003, 2.617712e+005
4.175179e+003, 2.617096e+005
4.177107e+003, 2.615623e+005
4.179035e+003, 2.614784e+005
4.180964e+003, 2.615732e+005
4.182893e+003, 2.617681e+005
4.184821e+003, 2.619762e+005
4.186749e+003, 2.618067e+005
4.188678e+003, 2.616088e+005
4.190606e+003, 2.615737e+005
4.192535e+003, 2.617675e+005
4.194463e+003, 2.619753e+005
4.196392e+003, 2.615043e+005
4.198320e+003, 2.611417e+005
4.200249e+003, 2.613227e+005
4.202177e+003, 2.608225e+005
4.204105e+003, 2.601617e+005
4.206034e+003, 2.602545e+005
4.207962e+003, 2.603324e+005
4.209891e+003, 2.602170e+005
4.211819e+003, 2.600657e+005
4.213748e+003, 2.599580e+005
4.215676e+003, 2.600069e+005
4.217604e+003, 2.599365e+005
4.219533e+003, 2.597058e+005
4.221462e+003, 2.593519e+005
4.223390e+003, 2.589590e+005
4.225318e+003, 2.585942e+005
4.227247e+003, 2.582849e+005
4.229176e+003, 2.581302e+005
4.231104e+003, 2.585403e+005
4.233032e+003, 2.586673e+005
4.234961e+003, 2.581763e+005
4.236890e+003, 2.579663e+005
4.238818e+003, 2.579329e+005
4.240746e+003, 2.578171e+005
4.242675e+003, 2.574317e+005
##END=



