##NAMES=Zorite
##RRUFFID=R060953
##IDEAL CHEMISTRY=Na_6_Ti_5_Si_12_O_34_(O,OH)_5_·11H_2_O
##LOCALITY=Lovozero Massif, Kola Peninsula, Russia
##OWNER=RRUFF
##SOURCE=Bob Jenkins
##DESCRIPTION=Groups of pale pink transparent acicular crystals
##STATUS=The identification of this mineral has been confirmed only by single crystal X-ray diffraction
##URL=https://www.rruff.net/odr/rruff_sample/R060953
##DIFFRACTION SAMPLE DESCRIPTION=Single crystal, powder profile is calculated
##CELL PARAMETERS=a: 23.09 b: 7.17 c: 6.92 alpha: 90 beta: 90 gamma: 90 volume: 1146 crystal system: orthorhombic
##FILETYPE=Raman RAW
##RAMAN WAVELENGTH=785

158.1360, 2876.413
160.0645, 2919.133
161.9929, 2973.431
163.9214, 3043.110
165.8499, 3106.908
167.7783, 3142.628
169.7068, 3149.482
171.6353, 3154.817
173.5637, 3160.655
175.4922, 3162.878
177.4207, 3149.658
179.3491, 3143.753
181.2776, 3159.737
183.2061, 3193.820
185.1345, 3238.356
187.0630, 3301.695
188.9915, 3356.378
190.9199, 3393.187
192.8484, 3433.070
194.7769, 3487.578
196.7053, 3546.540
198.6338, 3600.428
200.5623, 3649.211
202.4907, 3692.318
204.4192, 3725.936
206.3476, 3760.344
208.2761, 3792.925
210.2046, 3830.648
212.1330, 3874.868
214.0615, 3927.778
215.9900, 3997.341
217.9184, 4091.911
219.8469, 4177.026
221.7754, 4253.370
223.7038, 4320.067
225.6323, 4367.686
227.5608, 4413.283
229.4892, 4474.684
231.4177, 4547.588
233.3462, 4605.320
235.2746, 4651.275
237.2031, 4672.019
239.1316, 4664.986
241.0600, 4635.991
242.9885, 4574.995
244.9170, 4501.741
246.8454, 4433.119
248.7739, 4369.341
250.7024, 4317.930
252.6308, 4284.890
254.5593, 4250.339
256.4878, 4215.120
258.4163, 4173.692
260.3447, 4123.026
262.2732, 4064.341
264.2017, 3997.381
266.1301, 3921.562
268.0586, 3845.347
269.9871, 3768.151
271.9155, 3692.158
273.8440, 3619.189
275.7725, 3546.061
277.7009, 3467.096
279.6294, 3388.923
281.5579, 3323.045
283.4863, 3270.530
285.4148, 3218.464
287.3433, 3169.770
289.2717, 3113.446
291.2002, 3034.701
293.1287, 2965.733
295.0571, 2926.097
296.9856, 2905.524
298.9141, 2890.044
300.8425, 2879.509
302.7710, 2879.557
304.6995, 2893.175
306.6279, 2906.643
308.5564, 2918.669
310.4849, 2928.293
312.4133, 2934.159
314.3418, 2938.172
316.2703, 2942.444
318.1987, 2946.975
320.1272, 2952.371
322.0557, 2961.948
323.9841, 2959.556
325.9126, 2940.172
327.8411, 2913.104
329.7695, 2879.291
331.6980, 2842.454
333.6264, 2807.372
335.5549, 2772.219
337.4834, 2727.078
339.4118, 2669.937
341.3403, 2615.034
343.2688, 2564.606
345.1972, 2513.590
347.1257, 2455.234
349.0542, 2401.625
350.9826, 2364.521
352.9111, 2335.858
354.8396, 2296.956
356.7680, 2246.444
358.6965, 2206.718
360.6250, 2179.919
362.5534, 2153.831
364.4819, 2118.941
366.4104, 2095.580
368.3388, 2102.042
370.2673, 2116.856
372.1958, 2115.435
374.1242, 2102.117
376.0527, 2100.731
377.9812, 2112.495
379.9096, 2121.997
381.8381, 2129.795
383.7666, 2129.894
385.6950, 2112.442
387.6235, 2095.811
389.5520, 2089.378
391.4804, 2090.555
393.4089, 2098.101
395.3374, 2111.091
397.2658, 2116.127
399.1943, 2111.814
401.1228, 2109.936
403.0512, 2111.965
404.9797, 2117.258
406.9082, 2124.560
408.8366, 2135.939
410.7651, 2158.283
412.6936, 2183.361
414.6220, 2191.563
416.5505, 2184.481
418.4790, 2191.067
420.4074, 2211.225
422.3359, 2248.208
424.2644, 2313.577
426.1928, 2372.979
428.1213, 2406.611
430.0498, 2437.533
431.9782, 2477.565
433.9067, 2526.548
435.8352, 2595.169
437.7636, 2677.485
439.6921, 2715.510
441.6206, 2703.521
443.5490, 2699.652
445.4775, 2718.010
447.4060, 2736.296
449.3344, 2758.553
451.2629, 2764.841
453.1914, 2736.922
455.1198, 2690.570
457.0483, 2644.331
458.9768, 2598.608
460.9052, 2555.297
462.8337, 2514.385
464.7622, 2475.232
466.6906, 2436.687
468.6191, 2404.273
470.5476, 2385.840
472.4760, 2366.416
474.4045, 2332.341
476.3330, 2302.364
478.2614, 2299.586
480.1899, 2312.549
482.1184, 2314.304
484.0468, 2306.129
485.9753, 2292.781
487.9038, 2272.121
489.8322, 2265.727
491.7607, 2288.326
493.6892, 2304.324
495.6176, 2293.851
497.5461, 2287.535
499.4746, 2299.638
501.4030, 2326.693
503.3315, 2366.118
505.2600, 2417.255
507.1884, 2481.212
509.1169, 2555.961
511.0454, 2623.366
512.9739, 2684.341
514.9023, 2723.139
516.8308, 2725.309
518.7593, 2723.319
520.6877, 2731.867
522.6162, 2731.050
524.5447, 2706.023
526.4731, 2668.963
528.4016, 2632.344
530.3301, 2595.097
532.2585, 2552.870
534.1870, 2506.884
536.1155, 2466.909
538.0439, 2433.757
539.9724, 2405.571
541.9009, 2389.851
543.8293, 2363.877
545.7578, 2310.935
547.6863, 2263.228
549.6147, 2239.821
551.5432, 2223.447
553.4717, 2199.539
555.4001, 2171.648
557.3286, 2143.684
559.2571, 2117.176
561.1855, 2098.469
563.1140, 2088.014
565.0425, 2076.846
566.9709, 2063.044
568.8994, 2051.468
570.8279, 2045.792
572.7563, 2037.946
574.6848, 2021.399
576.6132, 2007.978
578.5417, 2006.815
580.4702, 2009.768
582.3986, 2007.387
584.3271, 2003.957
586.2556, 2009.228
588.1840, 2019.975
590.1125, 2021.575
592.0410, 2012.714
593.9694, 2003.273
595.8979, 1985.624
597.8264, 1989.248
599.7548, 2035.411
601.6833, 2073.704
603.6118, 2088.252
605.5402, 2099.904
607.4687, 2117.197
609.3972, 2137.673
611.3256, 2160.555
613.2541, 2184.424
615.1826, 2207.279
617.1110, 2229.446
619.0395, 2252.098
620.9680, 2275.100
622.8964, 2296.251
624.8249, 2314.115
626.7534, 2335.243
628.6818, 2358.383
630.6103, 2387.832
632.5388, 2436.661
634.4672, 2472.422
636.3957, 2474.960
638.3242, 2476.168
640.2526, 2497.767
642.1811, 2520.737
644.1096, 2524.960
646.0380, 2523.514
647.9665, 2534.760
649.8950, 2553.646
651.8234, 2566.862
653.7519, 2574.246
655.6804, 2573.635
657.6088, 2562.699
659.5373, 2552.667
661.4658, 2547.126
663.3942, 2535.674
665.3227, 2504.992
667.2512, 2489.989
669.1796, 2511.709
671.1081, 2528.747
673.0366, 2522.100
674.9650, 2510.464
676.8935, 2502.007
678.8220, 2497.501
680.7504, 2498.444
682.6789, 2502.749
684.6074, 2509.895
686.5358, 2517.302
688.4643, 2514.508
690.3928, 2502.490
692.3212, 2501.709
694.2497, 2515.006
696.1782, 2524.061
698.1066, 2525.745
700.0351, 2532.319
701.9636, 2553.660
703.8920, 2556.601
705.8205, 2525.627
707.7490, 2497.140
709.6774, 2482.599
711.6059, 2471.667
713.5344, 2457.616
715.4628, 2447.731
717.3913, 2448.598
719.3198, 2454.276
721.2482, 2462.074
723.1767, 2469.968
725.1052, 2475.109
727.0336, 2478.254
728.9621, 2480.389
730.8906, 2482.055
732.8190, 2485.090
734.7475, 2489.299
736.6760, 2504.812
738.6044, 2538.514
740.5329, 2544.615
742.4614, 2511.465
744.3898, 2500.138
746.3183, 2526.570
748.2468, 2538.912
750.1752, 2520.751
752.1037, 2505.139
754.0322, 2504.495
755.9606, 2504.016
757.8891, 2497.089
759.8176, 2488.825
761.7460, 2482.962
763.6745, 2475.279
765.6030, 2457.555
767.5314, 2441.982
769.4599, 2448.200
771.3884, 2457.756
773.3168, 2442.651
775.2453, 2412.500
777.1738, 2386.505
779.1022, 2363.550
781.0307, 2340.075
782.9592, 2315.698
784.8876, 2284.926
786.8161, 2247.441
788.7446, 2219.269
790.6730, 2201.054
792.6015, 2179.625
794.5300, 2154.364
796.4584, 2125.096
798.3869, 2091.884
800.3154, 2052.728
802.2438, 2003.040
804.1723, 1964.596
806.1008, 1947.187
808.0292, 1928.869
809.9577, 1902.393
811.8862, 1874.448
813.8146, 1846.313
815.7431, 1819.363
817.6716, 1795.709
819.6000, 1771.693
821.5285, 1743.616
823.4570, 1717.008
825.3854, 1695.508
827.3139, 1677.697
829.2424, 1667.436
831.1708, 1655.055
833.0993, 1623.593
835.0278, 1586.841
836.9562, 1567.856
838.8847, 1557.618
840.8132, 1537.227
842.7416, 1511.768
844.6701, 1495.468
846.5986, 1485.556
848.5270, 1473.318
850.4555, 1458.176
852.3840, 1435.433
854.3124, 1406.739
856.2409, 1382.119
858.1694, 1362.524
860.0978, 1356.780
862.0263, 1364.703
863.9548, 1365.024
865.8832, 1355.971
867.8117, 1345.249
869.7402, 1332.612
871.6686, 1331.613
873.5971, 1345.372
875.5256, 1361.758
877.4540, 1378.318
879.3825, 1400.866
881.3110, 1433.515
883.2394, 1461.974
885.1679, 1479.303
887.0964, 1502.508
889.0248, 1545.723
890.9533, 1574.551
892.8818, 1571.713
894.8102, 1570.846
896.7387, 1586.036
898.6672, 1593.902
900.5956, 1584.347
902.5241, 1572.013
904.4526, 1564.973
906.3810, 1551.551
908.3095, 1524.515
910.2380, 1493.088
912.1664, 1456.853
914.0949, 1423.913
916.0234, 1395.301
917.9518, 1375.961
919.8803, 1375.767
921.8088, 1376.917
923.7372, 1363.342
925.6657, 1352.209
927.5942, 1360.121
929.5226, 1370.594
931.4511, 1370.394
933.3796, 1367.627
935.3080, 1373.086
937.2365, 1374.742
939.1650, 1354.069
941.0934, 1332.690
943.0219, 1333.913
944.9504, 1342.112
946.8788, 1344.983
948.8073, 1342.670
950.7358, 1331.637
952.6642, 1319.080
954.5927, 1316.394
956.5212, 1313.266
958.4496, 1296.529
960.3781, 1274.168
962.3066, 1254.787
964.2350, 1235.969
966.1635, 1211.564
968.0920, 1189.136
970.0204, 1184.605
971.9489, 1181.260
973.8774, 1151.623
975.8058, 1116.839
977.7343, 1108.461
979.6628, 1107.040
981.5912, 1082.143
983.5197, 1053.302
985.4482, 1049.091
987.3766, 1054.452
989.3051, 1052.211
991.2336, 1044.790
993.1620, 1031.419
995.0905, 1018.401
997.0190, 1013.782
998.9474, 1014.673
1000.876, 1018.821
1002.804, 1024.840
1004.733, 1033.703
1006.661, 1040.824
1008.590, 1038.907
1010.518, 1033.835
1012.447, 1030.870
1014.375, 1030.363
1016.304, 1030.014
1018.232, 1035.132
1020.161, 1059.054
1022.089, 1083.038
1024.018, 1085.294
1025.946, 1081.240
1027.875, 1082.695
1029.803, 1088.065
1031.731, 1102.201
1033.660, 1112.319
1035.588, 1100.172
1037.517, 1089.160
1039.445, 1099.190
1041.374, 1114.370
1043.302, 1125.247
1045.231, 1135.219
1047.159, 1146.573
1049.088, 1157.567
1051.016, 1172.427
1052.945, 1178.419
1054.873, 1163.628
1056.802, 1146.618
1058.730, 1133.173
1060.658, 1126.665
1062.587, 1134.345
1064.515, 1137.365
1066.444, 1123.502
1068.372, 1113.506
1070.301, 1117.420
1072.229, 1120.732
1074.158, 1119.622
1076.086, 1113.336
1078.015, 1097.376
1079.943, 1091.402
1081.871, 1104.381
1083.800, 1111.699
1085.728, 1105.572
1087.657, 1104.943
1089.585, 1114.390
1091.514, 1123.184
1093.442, 1129.512
1095.371, 1135.337
1097.299, 1140.355
1099.228, 1156.115
1101.156, 1184.345
1103.085, 1200.902
1105.013, 1204.195
1106.942, 1204.932
1108.870, 1204.580
1110.798, 1217.591
1112.727, 1242.239
1114.655, 1259.691
1116.584, 1271.602
1118.512, 1291.236
1120.441, 1314.925
1122.369, 1327.076
1124.298, 1334.196
1126.226, 1353.724
1128.155, 1380.118
1130.083, 1401.116
1132.012, 1422.801
1133.940, 1457.636
1135.869, 1495.249
1137.797, 1522.113
1139.725, 1546.221
1141.654, 1574.041
1143.582, 1603.965
1145.511, 1632.315
1147.439, 1665.827
1149.368, 1709.688
1151.296, 1758.239
1153.225, 1816.475
1155.153, 1866.400
1157.082, 1894.144
1159.010, 1927.164
1160.939, 1974.020
1162.867, 2020.312
1164.796, 2066.402
1166.724, 2103.431
1168.652, 2128.463
1170.581, 2155.091
1172.509, 2184.508
1174.438, 2213.726
1176.366, 2242.496
1178.295, 2272.006
1180.223, 2302.292
1182.152, 2334.883
1184.080, 2368.151
1186.009, 2394.676
1187.937, 2417.774
1189.866, 2442.984
1191.794, 2472.610
1193.723, 2512.042
1195.651, 2555.993
1197.579, 2600.948
1199.508, 2644.019
1201.436, 2675.237
1203.365, 2714.406
1205.293, 2775.871
1207.222, 2847.224
1209.150, 2920.559
1211.079, 3005.993
1213.007, 3111.432
1214.936, 3220.184
1216.864, 3335.400
1218.793, 3439.814
1220.721, 3522.238
1222.650, 3624.258
1224.578, 3750.168
1226.506, 3879.860
1228.435, 4013.230
1230.363, 4111.146
1232.292, 4174.863
1234.220, 4212.868
1236.149, 4222.104
1238.077, 4180.567
1240.006, 4117.703
1241.934, 4070.286
1243.863, 4033.906
1245.791, 4003.603
1247.720, 3983.355
1249.648, 3975.168
1251.577, 3978.063
1253.505, 3982.700
1255.433, 4020.385
1257.362, 4113.215
1259.290, 4204.680
1261.219, 4277.257
1263.147, 4378.629
1265.076, 4526.556
1267.004, 4627.487
1268.933, 4681.296
1270.861, 4738.164
1272.790, 4797.736
1274.718, 4858.946
1276.647, 4922.093
1278.575, 4995.813
1280.504, 5063.244
1282.432, 5097.220
1284.360, 5121.186
1286.289, 5154.530
1288.217, 5180.785
1290.146, 5185.398
1292.074, 5197.713
1294.003, 5228.626
1295.931, 5259.288
1297.860, 5281.260
1299.788, 5336.090
1301.717, 5430.202
1303.645, 5524.610
1305.574, 5618.859
1307.502, 5729.768
1309.431, 5845.104
1311.359, 5929.365
1313.287, 5987.629
1315.216, 6037.083
1317.144, 6054.433
1319.073, 6003.328
1321.001, 5934.137
1322.930, 5882.184
1324.858, 5798.743
1326.787, 5662.080
1328.715, 5519.870
1330.644, 5379.484
1332.572, 5250.109
1334.501, 5131.847
1336.429, 5003.773
1338.358, 4870.123
1340.286, 4763.852
1342.214, 4671.827
1344.143, 4561.900
1346.071, 4451.190
1348.000, 4356.492
1349.928, 4277.206
1351.857, 4219.474
1353.785, 4165.419
1355.714, 4108.151
1357.642, 4053.859
1359.571, 4002.292
1361.499, 3961.833
1363.428, 3933.253
1365.356, 3919.288
1367.285, 3911.786
1369.213, 3866.142
1371.141, 3802.469
1373.070, 3758.631
1374.998, 3721.764
1376.927, 3680.086
1378.855, 3635.045
1380.784, 3585.584
1382.712, 3535.595
1384.641, 3482.395
1386.569, 3438.693
1388.498, 3406.394
1390.426, 3380.859
1392.355, 3361.123
1394.283, 3345.817
1396.212, 3327.354
1398.140, 3275.385
1400.068, 3219.610
1401.997, 3193.484
1403.925, 3186.078
1405.854, 3204.914
1407.782, 3212.937
1409.711, 3186.323
1411.639, 3168.374
1413.568, 3167.237
1415.496, 3159.200
1417.425, 3143.235
1419.353, 3109.654
1421.282, 3068.239
1423.210, 3053.409
1425.139, 3040.172
1427.067, 2993.097
1428.995, 2945.798
1430.924, 2920.172
1432.852, 2899.370
1434.781, 2881.820
1436.709, 2859.768
1438.638, 2829.987
1440.566, 2816.595
1442.495, 2814.060
1444.423, 2764.766
1446.352, 2701.034
1448.280, 2686.299
1450.209, 2691.545
1452.137, 2706.866
1454.066, 2707.351
1455.994, 2675.527
1457.922, 2643.919
1459.851, 2612.857
1461.779, 2614.347
1463.708, 2646.338
1465.636, 2651.373
1467.565, 2637.898
1469.493, 2617.612
1471.422, 2605.270
1473.350, 2619.717
1475.279, 2639.273
1477.207, 2656.858
1479.136, 2668.688
1481.064, 2671.324
1482.993, 2687.152
1484.921, 2716.652
1486.849, 2742.452
1488.778, 2764.092
1490.706, 2776.159
1492.635, 2788.854
1494.563, 2811.170
1496.492, 2841.721
1498.420, 2885.778
1500.349, 2913.681
1502.277, 2917.383
1504.206, 2939.366
1506.134, 2978.370
1508.063, 3000.499
1509.991, 3014.437
1511.920, 3034.053
1513.848, 3058.052
1515.776, 3090.744
1517.705, 3116.363
1519.633, 3128.871
1521.562, 3142.906
1523.490, 3160.710
1525.419, 3187.811
1527.347, 3218.152
1529.276, 3226.916
1531.204, 3231.385
1533.133, 3253.920
1535.061, 3280.173
1536.990, 3307.258
1538.918, 3322.977
1540.847, 3324.096
1542.775, 3342.549
1544.703, 3373.439
1546.632, 3371.729
1548.560, 3358.686
1550.489, 3370.491
1552.417, 3386.023
1554.346, 3397.733
1556.274, 3392.618
1558.203, 3365.792
1560.131, 3332.768
1562.060, 3298.513
1563.988, 3303.759
1565.917, 3318.718
1567.845, 3286.753
1569.774, 3234.818
1571.702, 3178.890
1573.630, 3119.454
1575.559, 3049.759
1577.487, 3007.858
1579.416, 2992.178
1581.344, 2959.439
1583.273, 2917.384
1585.201, 2883.640
1587.130, 2851.389
1589.058, 2811.229
1590.987, 2779.938
1592.915, 2765.079
1594.844, 2755.400
1596.772, 2749.832
1598.701, 2731.256
1600.629, 2711.224
1602.557, 2711.189
1604.486, 2717.318
1606.414, 2731.054
1608.343, 2724.992
1610.271, 2681.529
1612.200, 2648.916
1614.128, 2626.625
1616.057, 2614.514
1617.985, 2601.050
1619.914, 2567.597
1621.842, 2532.344
1623.771, 2504.342
1625.699, 2479.077
1627.628, 2459.267
1629.556, 2413.915
1631.484, 2353.040
1633.413, 2314.869
1635.341, 2281.570
1637.270, 2232.660
1639.198, 2193.844
1641.127, 2176.521
1643.055, 2162.627
1644.984, 2149.772
1646.912, 2124.250
1648.841, 2093.343
1650.769, 2067.033
1652.698, 2049.416
1654.626, 2049.325
1656.555, 2030.863
1658.483, 1983.030
1660.411, 1966.501
1662.340, 1968.174
1664.268, 1931.389
1666.197, 1892.341
1668.125, 1890.621
1670.054, 1883.495
1671.982, 1859.102
1673.911, 1825.316
1675.839, 1786.768
1677.768, 1769.443
1679.696, 1761.459
1681.625, 1750.230
1683.553, 1732.150
1685.482, 1702.934
1687.410, 1684.659
1689.339, 1678.401
1691.267, 1653.479
1693.195, 1623.315
1695.124, 1618.515
1697.052, 1613.588
1698.981, 1593.707
1700.909, 1572.435
1702.838, 1551.670
1704.766, 1523.543
1706.695, 1495.904
1708.623, 1493.008
1710.552, 1490.217
1712.480, 1469.368
1714.409, 1439.558
1716.337, 1401.821
1718.266, 1389.052
1720.194, 1389.120
1722.122, 1361.249
1724.051, 1333.774
1725.979, 1338.833
1727.908, 1328.860
1729.836, 1294.928
1731.765, 1268.971
1733.693, 1250.382
1735.622, 1233.831
1737.550, 1218.073
1739.479, 1204.133
1741.407, 1185.994
1743.336, 1162.417
1745.264, 1137.092
1747.193, 1116.569
1749.121, 1123.944
1751.049, 1130.512
1752.978, 1110.714
1754.906, 1093.727
1756.835, 1084.181
1758.763, 1077.271
1760.692, 1067.790
1762.620, 1037.084
1764.549, 1011.733
1766.477, 1014.705
1768.406, 1013.434
1770.334, 1004.271
1772.263, 990.2821
1774.191, 977.2531
1776.120, 978.6620
1778.048, 977.9770
1779.976, 964.0621
1781.905, 957.0148
1783.833, 957.3167
1785.762, 945.7952
1787.690, 933.1798
1789.619, 931.7826
1791.547, 937.4711
1793.476, 954.0609
1795.404, 943.8019
1797.333, 915.3605
1799.261, 914.8232
1801.190, 925.8173
1803.118, 940.2224
1805.047, 943.6784
1806.975, 931.7638
1808.903, 916.4257
1810.832, 903.2842
1812.760, 906.6829
1814.689, 915.9622
1816.617, 930.1552
1818.546, 923.6010
1820.474, 896.1161
1822.403, 897.2356
1824.331, 906.5965
1826.260, 898.9563
1828.188, 884.9795
1830.117, 865.9182
1832.045, 859.2912
1833.974, 861.2624
1835.902, 859.5109
1837.830, 851.5647
1839.759, 832.0051
1841.687, 823.7227
1843.616, 829.1941
1845.544, 836.2974
1847.473, 839.0073
1849.401, 830.3397
1851.330, 812.7317
1853.258, 785.5801
1855.187, 775.3979
1857.115, 777.1304
1859.044, 769.4425
1860.972, 760.9286
1862.901, 760.0629
1864.829, 751.6683
1866.757, 734.8888
1868.686, 727.5154
1870.614, 724.5744
1872.543, 721.2882
1874.471, 709.8436
1876.400, 688.6202
1878.328, 676.1575
1880.257, 668.5284
1882.185, 651.7201
1884.114, 640.7554
1886.042, 648.7790
1887.971, 647.9568
1889.899, 638.1011
1891.828, 622.9200
1893.756, 611.8220
1895.684, 615.0042
1897.613, 614.9241
1899.541, 610.9525
1901.470, 589.9965
1903.398, 569.6284
1905.327, 578.3722
1907.255, 581.1988
1909.184, 567.1729
1911.112, 560.5756
1913.041, 556.2819
1914.969, 548.8809
1916.898, 544.4752
1918.826, 542.3836
1920.755, 541.0873
1922.683, 540.6940
1924.611, 533.5786
1926.540, 524.9811
1928.468, 516.0223
1930.397, 518.7162
1932.325, 528.3918
1934.254, 519.8098
1936.182, 511.1425
1938.111, 515.4342
1940.039, 517.4408
1941.968, 512.5185
1943.896, 503.2374
1945.825, 496.2430
1947.753, 491.4321
1949.682, 487.9494
1951.610, 486.6276
1953.538, 486.7859
1955.467, 485.8395
1957.395, 480.9873
1959.324, 475.9431
1961.252, 472.1316
1963.181, 462.8200
1965.109, 453.0539
1967.038, 456.9518
1968.966, 461.0808
1970.895, 458.4294
1972.823, 453.7385
1974.752, 448.1582
1976.680, 429.5667
1978.609, 419.4973
1980.537, 426.4001
1982.465, 425.2532
1984.394, 421.7035
1986.322, 426.3623
1988.251, 429.8149
1990.179, 433.6600
1992.108, 440.6114
1994.036, 443.1213
1995.965, 430.3131
1997.893, 421.6537
1999.822, 420.0717
2001.750, 411.9242
2003.679, 405.7887
2005.607, 409.4108
2007.536, 410.1144
2009.464, 407.7780
2011.392, 402.5415
2013.321, 399.3828
2015.249, 405.6510
2017.178, 402.8312
2019.106, 390.1897
2021.035, 389.3358
2022.963, 389.4990
2024.892, 378.0063
2026.820, 375.0285
2028.749, 380.4028
2030.677, 377.2499
2032.606, 372.9911
2034.534, 375.4425
2036.463, 373.6976
2038.391, 369.0829
2040.319, 375.5309
2042.248, 378.9848
2044.176, 365.5265
2046.105, 354.8084
2048.033, 350.6502
2049.962, 355.5417
2051.890, 362.6475
2053.819, 375.4041
2055.747, 374.1763
2057.676, 360.2617
2059.604, 356.0371
2061.532, 352.3316
2063.461, 342.4740
2065.389, 349.5188
2067.318, 361.8711
2069.246, 350.7734
2071.175, 346.9631
2073.103, 355.8095
2075.032, 352.8787
2076.960, 346.0513
2078.889, 341.1436
2080.817, 340.0685
2082.746, 344.7061
2084.674, 351.9478
2086.603, 345.6117
2088.531, 305.4243
2090.459, 297.4222
2092.388, 319.6158
2094.316, 327.8673
2096.245, 325.2991
2098.173, 314.4178
2100.102, 316.3597
2102.030, 323.5938
2103.959, 320.6404
2105.887, 316.8635
2107.816, 314.2110
2109.744, 315.1707
2111.673, 313.0402
2113.601, 301.3553
2115.530, 304.9417
2117.458, 322.3273
2119.386, 314.0886
2121.315, 299.6439
2123.243, 298.6631
2125.172, 300.5282
2127.100, 301.3753
2129.029, 302.6673
2130.957, 299.1347
2132.886, 290.5893
2134.814, 292.3910
2136.743, 296.9894
2138.671, 300.8360
2140.600, 294.0864
2142.528, 279.3846
2144.457, 288.5285
2146.385, 297.8392
2148.313, 290.3730
2150.242, 280.6978
2152.170, 273.1124
2154.099, 274.6765
2156.027, 278.6820
2157.956, 283.0926
2159.884, 279.1484
2161.813, 274.1143
2163.741, 277.9653
2165.670, 279.5659
2167.598, 278.8148
2169.527, 272.1949
2171.455, 271.7482
2173.384, 283.2407
2175.312, 276.0435
2177.240, 263.4871
2179.169, 260.1697
2181.097, 263.4581
2183.026, 270.0335
2184.954, 267.8306
2186.883, 265.6354
2188.811, 267.9059
2190.740, 266.3555
2192.668, 261.2057
2194.597, 259.6192
2196.525, 256.7128
2198.454, 249.8858
2200.382, 252.6393
2202.311, 256.6031
2204.239, 256.6159
2206.167, 259.7013
2208.096, 259.7354
2210.024, 248.1810
2211.953, 244.8821
2213.881, 249.8722
2215.810, 246.2043
2217.738, 239.7054
2219.667, 236.7656
2221.595, 237.9365
2223.524, 239.4266
2225.452, 239.1753
2227.381, 238.5380
2229.309, 236.2087
2231.238, 231.2917
2233.166, 229.8732
2235.094, 234.0229
2237.023, 235.8868
2238.951, 236.5821
2240.880, 234.9549
2242.808, 226.6062
2244.737, 216.8267
2246.665, 218.4488
2248.594, 224.1333
2250.522, 232.9598
2252.451, 231.1885
2254.379, 227.0763
2256.308, 231.0361
2258.236, 231.3268
2260.165, 228.5861
2262.093, 227.6277
2264.021, 222.9449
2265.950, 214.0468
2267.878, 212.2609
2269.807, 215.1324
2271.735, 225.1798
2273.664, 225.4994
2275.592, 220.2587
2277.521, 215.2299
2279.449, 213.4173
2281.378, 214.3730
2283.306, 214.9049
2285.235, 215.8418
2287.163, 217.8984
2289.092, 207.0337
2291.020, 198.9655
2292.948, 207.9830
2294.877, 209.3811
2296.805, 203.8884
2298.734, 193.2574
2300.662, 192.9552
2302.591, 203.4688
2304.519, 192.6172
2306.448, 185.1471
2308.376, 191.5751
2310.305, 192.4137
2312.233, 191.5820
2314.162, 192.8525
2316.090, 193.4500
2318.019, 192.9888
2319.947, 192.7042
2321.875, 192.7732
2323.804, 192.8708
2325.732, 188.4170
2327.661, 187.7627
2329.589, 193.7546
2331.518, 189.9854
2333.446, 183.8898
2335.375, 184.6554
2337.303, 184.4037
2339.232, 181.8202
2341.160, 181.0104
2343.089, 179.8448
2345.017, 176.7206
2346.946, 174.3487
2348.874, 175.5439
2350.802, 175.7370
2352.731, 169.6143
2354.659, 169.3916
2356.588, 177.7307
2358.516, 178.6551
2360.445, 173.7198
2362.373, 160.7970
2364.302, 166.3146
2366.230, 176.5146
2368.159, 171.0807
2370.087, 172.5404
2372.016, 175.6605
2373.944, 163.9958
2375.873, 158.5103
2377.801, 161.2832
2379.729, 162.6213
2381.658, 162.3970
2383.586, 162.0046
2385.515, 165.5621
2387.443, 166.6746
2389.372, 159.2883
2391.300, 158.7762
2393.229, 158.4004
2395.157, 145.4897
2397.086, 145.4563
2399.014, 150.3672
2400.943, 148.3452
2402.871, 147.3507
2404.800, 148.1467
2406.728, 148.9397
2408.656, 151.0153
2410.585, 148.5250
2412.513, 148.7307
2414.442, 146.0705
2416.370, 137.1523
2418.299, 141.9338
2420.227, 146.2971
2422.156, 141.1472
2424.084, 135.5040
2426.013, 138.0009
2427.941, 141.9902
2429.870, 137.8987
2431.798, 134.7469
2433.727, 142.2491
2435.655, 136.0908
2437.583, 130.4805
2439.512, 133.1020
2441.440, 135.8600
2443.369, 137.8264
2445.297, 131.3847
2447.226, 134.4019
2449.154, 137.7389
2451.083, 137.1328
2453.011, 132.5924
2454.940, 121.0284
2456.868, 122.3760
2458.797, 128.9327
2460.725, 133.0789
2462.654, 130.4776
2464.582, 125.7188
2466.510, 120.6326
2468.439, 119.5983
2470.367, 122.9822
2472.296, 127.3550
2474.224, 125.6824
2476.153, 123.2059
2478.081, 121.2767
2480.010, 119.9545
2481.938, 115.9268
2483.867, 112.7667
2485.795, 117.9451
2487.724, 121.3828
2489.652, 123.8353
2491.581, 120.1537
2493.509, 116.3619
2495.438, 119.1874
2497.366, 122.2530
2499.294, 125.1339
2501.223, 117.2991
2503.151, 111.7798
2505.080, 113.5240
2507.008, 109.1877
2508.937, 109.7441
2510.865, 110.2405
2512.794, 108.7072
2514.722, 107.8215
2516.651, 103.7720
2518.579, 106.0528
2520.508, 112.6013
2522.436, 111.6138
2524.365, 107.0843
2526.293, 103.1761
2528.221, 95.57135
2530.150, 98.63310
2532.078, 106.6338
2534.007, 106.9099
2535.935, 103.8824
2537.864, 102.5421
2539.792, 99.20186
2541.721, 99.66537
2543.649, 101.8491
2545.578, 97.08611
2547.506, 103.3544
2549.435, 104.1659
2551.363, 102.6838
2553.292, 109.3707
2555.220, 103.3644
2557.148, 96.28134
2559.077, 102.6853
2561.005, 93.81312
2562.934, 85.84457
2564.862, 94.29249
2566.791, 95.07743
2568.719, 88.15349
2570.648, 90.69400
2572.576, 91.41547
2574.505, 87.92044
2576.433, 93.61528
2578.362, 92.27091
2580.290, 85.59087
2582.219, 89.61659
2584.147, 91.04132
2586.075, 87.52488
2588.004, 86.95602
2589.932, 87.51276
2591.861, 83.21179
2593.789, 84.64294
2595.718, 92.86651
2597.646, 93.95631
2599.575, 87.16472
2601.503, 84.92233
2603.432, 83.83275
2605.360, 78.22964
2607.289, 77.82098
2609.217, 78.16622
2611.146, 83.66538
2613.074, 83.65722
2615.002, 74.70450
2616.931, 74.35954
2618.859, 80.34367
2620.788, 76.07689
2622.716, 74.94155
2624.645, 84.90151
2626.573, 84.67958
2628.502, 76.50319
2630.430, 72.36636
2632.359, 75.12115
2634.287, 74.96604
2636.216, 71.47997
2638.144, 71.58680
2640.073, 70.67130
2642.001, 69.50679
2643.929, 76.45261
2645.858, 79.97861
2647.786, 84.08099
2649.715, 69.89979
2651.643, 67.30180
2653.572, 77.12819
2655.500, 77.29036
2657.429, 75.51945
2659.357, 73.67587
2661.286, 70.84348
2663.214, 71.06216
2665.143, 71.68018
2667.071, 73.03790
2669.000, 68.19324
2670.928, 63.53917
2672.856, 67.33118
2674.785, 62.88493
2676.713, 62.20272
2678.642, 65.84406
2680.570, 68.41843
2682.499, 70.63223
2684.427, 70.85043
2686.356, 63.28236
2688.284, 59.34649
2690.213, 62.07966
2692.141, 69.12372
2694.070, 68.25418
2695.998, 63.40133
2697.927, 65.20174
2699.855, 64.43616
2701.783, 59.94118
2703.712, 60.85093
2705.640, 61.76849
2707.569, 61.13974
2709.497, 58.66081
2711.426, 59.57240
2713.354, 62.44752
2715.283, 66.02602
2717.211, 66.12454
2719.140, 62.38691
2721.068, 58.88233
2722.997, 56.46305
2724.925, 58.34885
2726.854, 59.50393
2728.782, 49.62912
2730.710, 45.93300
2732.639, 49.02454
2734.567, 56.64105
2736.496, 54.37802
2738.424, 54.56957
2740.353, 61.18139
2742.281, 56.78982
2744.210, 52.00679
2746.138, 49.30015
2748.067, 52.65062
2749.995, 50.75886
2751.924, 47.36610
2753.852, 47.41301
2755.781, 46.15067
2757.709, 49.25661
2759.637, 58.33507
2761.566, 61.04728
2763.494, 54.43221
2765.423, 42.84796
2767.351, 44.88074
2769.280, 50.79716
2771.208, 54.82490
2773.137, 50.44432
2775.065, 43.61871
2776.994, 43.48951
2778.922, 55.52052
2780.851, 46.21912
2782.779, 42.27295
2784.708, 51.10985
2786.636, 50.66829
2788.564, 48.83464
2790.493, 47.01075
2792.421, 43.53696
2794.350, 40.89159
2796.278, 41.51414
2798.207, 48.61325
2800.135, 48.02913
2802.064, 42.85642
2803.992, 40.39059
2805.921, 37.33889
2807.849, 42.36880
2809.778, 51.24426
2811.706, 43.13543
2813.635, 44.99555
2815.563, 47.39352
2817.491, 41.70721
2819.420, 43.54567
2821.348, 46.93659
2823.277, 49.33297
2825.205, 41.40152
2827.134, 45.66862
2829.062, 50.45535
2830.991, 33.32660
2832.919, 33.50538
2834.848, 33.05622
2836.776, 23.00240
2838.705, 32.76161
2840.633, 40.15784
2842.562, 43.79004
2844.490, 46.90152
2846.418, 45.69899
2848.347, 39.82664
2850.275, 38.88531
2852.204, 34.72437
2854.132, 31.73700
2856.061, 34.60925
2857.989, 41.31720
2859.918, 39.85519
2861.846, 36.36408
2863.775, 35.67279
2865.703, 36.04811
2867.632, 37.11147
2869.560, 33.07883
2871.489, 24.98780
2873.417, 26.72745
2875.345, 35.52327
2877.274, 34.51804
2879.202, 30.84463
2881.131, 29.74451
2883.059, 35.41510
2884.988, 26.12642
2886.916, 22.10971
2888.845, 28.90635
2890.773, 33.03114
2892.702, 32.27606
2894.630, 31.00296
2896.559, 35.51469
2898.487, 28.29429
2900.416, 21.86815
2902.344, 29.16749
2904.272, 39.85347
2906.201, 39.01367
2908.129, 29.90253
2910.058, 20.00496
2911.986, 14.50795
2913.915, 21.21295
2915.843, 26.83023
2917.772, 29.23295
2919.700, 28.46998
2921.629, 28.10221
2923.557, 31.64592
2925.486, 33.12097
2927.414, 27.84906
2929.343, 22.72145
2931.271, 30.07706
2933.199, 31.16124
2935.128, 25.63361
2937.056, 25.17068
2938.985, 26.79304
2940.913, 25.45000
2942.842, 21.14822
2944.770, 19.34465
2946.699, 25.53434
2948.627, 29.23244
2950.556, 27.22255
2952.484, 28.85521
2954.413, 27.53995
2956.341, 25.02772
2958.270, 30.82778
2960.198, 27.47996
2962.126, 27.31973
2964.055, 23.28466
2965.983, 23.09852
2967.912, 16.93835
2969.840, 20.74764
2971.769, 31.86471
2973.697, 29.58900
2975.626, 24.30988
2977.554, 20.61769
2979.483, 28.63276
2981.411, 25.43189
2983.340, 16.06189
2985.268, 18.89666
2987.197, 25.40265
2989.125, 23.27377
2991.053, 18.63742
2992.982, 17.66733
2994.910, 29.60826
2996.839, 27.47313
2998.767, 19.16642
3000.696, 27.79869
3002.624, 23.82392
3004.553, 16.02543
3006.481, 17.27573
3008.410, 21.85884
3010.338, 21.51554
3012.267, 22.92212
3014.195, 15.14605
3016.124, 19.24045
3018.052, 17.84662
3019.980, 16.16973
3021.909, 14.34872
3023.837, 22.18658
3025.766, 29.62943
3027.694, 29.34120
3029.623, 28.13410
3031.551, 27.25222
3033.480, 22.21886
3035.408, 24.57990
3037.337, 27.75178
3039.265, 23.25642
3041.194, 21.42954
3043.122, 23.47958
3045.051, 22.81448
3046.979, 23.62870
3048.907, 23.90563
3050.836, 21.66556
3052.764, 25.39431
3054.693, 23.22379
3056.621, 16.38562
3058.550, 17.94377
3060.478, 22.75713
3062.407, 20.09964
3064.335, 19.18070
3066.264, 22.59816
3068.192, 31.48951
3070.121, 36.51086
3072.049, 22.11375
3073.978, 24.56732
3075.906, 21.64007
3077.834, 18.78418
3079.763, 21.66222
3081.691, 19.73018
3083.620, 16.36194
3085.548, 13.57356
3087.477, 20.20190
3089.405, 25.46782
3091.334, 27.79786
3093.262, 26.03420
3095.191, 27.77535
3097.119, 30.27213
3099.048, 26.90490
3100.976, 23.00613
3102.905, 27.01061
3104.833, 34.10146
3106.761, 31.24458
3108.690, 23.39611
3110.618, 36.21448
3112.547, 29.87860
3114.475, 24.87393
3116.404, 24.53144
3118.332, 39.51314
3120.261, 34.93790
3122.189, 34.54452
3124.118, 41.57843
3126.046, 35.73812
3127.975, 32.29007
3129.903, 27.43508
3131.832, 23.74097
3133.760, 32.52923
3135.688, 33.92229
3137.617, 36.72820
3139.545, 40.91261
3141.474, 36.00404
3143.402, 23.53090
3145.331, 24.01263
3147.259, 34.76504
3149.188, 31.33707
3151.116, 21.33450
3153.045, 27.16424
3154.973, 40.34174
3156.902, 27.89598
3158.830, 17.96502
3160.759, 21.63973
3162.687, 31.87667
3164.615, 33.52757
3166.544, 30.92509
3168.472, 30.22213
3170.401, 33.42230
3172.329, 40.29071
3174.258, 35.73165
3176.186, 38.05573
3178.115, 41.61592
3180.043, 35.32696
3181.972, 29.71048
3183.900, 28.87192
3185.829, 32.00319
3187.757, 43.44666
3189.686, 45.50240
3191.614, 38.65307
3193.542, 42.15162
3195.471, 60.11860
3197.399, 54.28339
3199.328, 44.74327
3201.256, 42.01467
3203.185, 46.38508
3205.113, 44.50391
3207.042, 41.65157
3208.970, 46.46886
3210.899, 56.95088
3212.827, 58.96079
3214.756, 53.90140
3216.684, 51.59488
3218.613, 52.04893
3220.541, 51.37343
3222.469, 62.90316
3224.398, 55.65337
3226.326, 48.35421
3228.255, 65.67294
3230.183, 61.25304
3232.112, 72.38718
3234.040, 82.52031
3235.969, 78.89305
3237.897, 79.19370
3239.826, 84.06478
3241.754, 89.21381
3243.683, 94.80936
3245.611, 106.0822
3247.540, 103.9269
3249.468, 105.9433
3251.396, 112.1309
3253.325, 114.8263
3255.253, 125.8470
3257.182, 122.5109
3259.110, 117.2125
3261.039, 121.2178
3262.967, 120.6172
3264.896, 124.3562
3266.824, 121.9000
3268.753, 114.2864
3270.681, 114.2882
3272.610, 119.4388
3274.538, 117.1278
3276.467, 114.6564
3278.395, 122.2418
3280.323, 115.7483
3282.252, 108.5015
3284.180, 113.6310
3286.109, 125.2554
3288.037, 106.8774
3289.966, 98.61612
3291.894, 95.59629
3293.823, 100.5556
3295.751, 119.7609
3297.680, 110.3925
3299.608, 102.7882
3301.537, 100.3336
3303.465, 96.83072
3305.394, 82.77544
3307.322, 85.17800
3309.250, 88.25758
3311.179, 84.35389
3313.107, 73.60812
3315.036, 82.44246
3316.964, 81.79781
3318.893, 75.85816
3320.821, 70.16740
3322.750, 72.12360
3324.678, 79.21171
3326.607, 80.14004
3328.535, 72.00966
3330.464, 62.35387
3332.392, 67.78543
3334.321, 72.47763
3336.249, 71.05244
3338.177, 68.72993
3340.106, 77.62314
3342.034, 76.47753
3343.963, 76.18636
3345.891, 70.79129
3347.820, 57.30162
3349.748, 67.86128
3351.677, 58.01146
3353.605, 57.70000
3355.534, 69.94419
3357.462, 76.76143
3359.391, 73.64594
3361.319, 64.81464
3363.248, 55.32771
3365.176, 53.25828
3367.104, 70.27069
3369.033, 47.85187
3370.961, 44.34995
3372.890, 53.83544
3374.818, 56.38910
3376.747, 47.18588
3378.675, 53.75918
3380.604, 55.37638
3382.532, 50.35317
3384.461, 49.51358
3386.389, 51.78907
3388.318, 46.27428
3390.246, 46.51535
3392.175, 50.18585
3394.103, 45.82587
3396.031, 46.24810
3397.960, 28.31596
3399.888, 28.55870
3401.817, 43.67658
3403.745, 28.75414
3405.674, 47.56956
3407.602, 39.80006
3409.531, 29.99677
3411.459, 32.59317
3413.388, 30.60198
3415.316, 6.271397
3417.245, 10.64424
3419.173, 21.40804
3421.102, 21.47809
3423.030, 27.86578
3424.958, 30.43826
3426.887, 29.40685
3428.815, 27.43900
3430.744, 26.68327
3432.672, 28.41671
3434.601, 19.56288
3436.529, 14.96930
3438.458, 20.84961
3440.386, 32.26058
3442.315, 33.14446
3444.243, 32.82364
3446.172, 26.58851
3448.100, 20.93065
3450.029, 19.70774
3451.957, 19.70593
3453.885, 9.370262
3455.814, 14.16224
3457.742, 23.95659
3459.671, 26.60662
3461.599, 19.17747
3463.528, 22.18249
3465.456, 21.81295
3467.385, 24.56675
3469.313, 23.83358
3471.242, 5.515469
3473.170, 12.07673
3475.099, 17.85559
3477.027, 21.57753
3478.956, 20.45425
3480.884, 12.12139
3482.813, 15.86567
3484.741, 14.02102
3486.669, 19.43591
3488.598, 21.49710
3490.526, 10.41421
3492.455, 12.24934
3494.383, 14.81177
3496.312, 15.46198
3498.240, 15.74680
3500.169, 18.29032
3502.097, 28.30666
3504.026, 15.56250
3505.954, 22.07552
3507.883, 19.52907
3509.811, 5.194904
3511.740, 7.509501
3513.668, 18.30041
3515.596, 22.69206
3517.525, 22.62766
3519.453, 24.35507
3521.382, 30.75082
3523.310, 36.04603
3525.239, 27.20603
3527.167, 14.34829
3529.096, 15.12030
3531.024, 23.65923
3532.953, 12.89569
3534.881, 29.46502
3536.810, 24.02736
3538.738, 17.57275
3540.667, 17.90059
3542.595, 19.71453
3544.523, 23.77438
3546.452, 25.26005
3548.380, 22.24401
3550.309, 19.11473
3552.237, 16.96454
3554.166, 13.05165
3556.094, 10.73529
3558.023, 17.24504
3559.951, 7.599724
3561.880, 4.759520
3563.808, 23.49507
3565.737, 20.63305
3567.665, 20.61052
3569.594, 8.504543
3571.522, 7.156617
3573.450, 16.27297
3575.379, 20.03254
3577.307, 15.19349
3579.236, 17.36364
3581.164, 30.05851
3583.093, 39.29852
3585.021, 33.80579
3586.950, 13.44345
3588.878, -2.544762
3590.807, 22.40753
3592.735, 12.95494
3594.664, 5.764395
3596.592, 22.71240
3598.521, 10.51794
3600.449, 6.382564
3602.377, 10.37477
3604.306, 14.87617
3606.234, 13.63365
3608.163, 8.399646
3610.091, 9.559542
3612.020, 7.112523
3613.948, 3.010582
3615.877, 13.41135
3617.805, 14.01143
3619.734, -2.056304
3621.662, 5.171092
3623.591, 5.167006
3625.519, 6.656024
3627.448, 12.04353
3629.376, 12.58903
3631.304, 6.917955
3633.233, 7.275961
3635.161, 9.288904
3637.090, 3.957683
3639.018, 9.043793
3640.947, 7.010709
3642.875, -0.2338027
3644.804, 16.82236
3646.732, 10.50631
3648.661, 5.452704
3650.589, 7.736579
3652.518, 8.148671
3654.446, 5.747755
3656.375, 7.837496
3658.303, 9.887575
3660.231, 13.59839
3662.160, 15.05063
3664.088, 11.40226
3666.017, 0.7592412
3667.945, -11.18599
3669.874, 1.918963
3671.802, -1.495323
3673.731, -0.8463770
3675.659, -0.5329264
3677.588, 8.069605
3679.516, 22.27864
3681.445, 13.98756
3683.373, 6.755402
3685.302, -10.94911
3687.230, -1.367207
3689.158, 2.249520
3691.087, -5.434905
3693.015, -1.402519
3694.944, 5.400683
3696.872, 9.840953
3698.801, -7.605424
3700.729, -3.960219
3702.658, 10.15775
3704.586, 8.941562
3706.515, -6.262569
3708.443, -9.443693
3710.372, 12.21900
3712.300, 9.527468
3714.229, 2.122439
3716.157, 6.466969
3718.085, 14.18653
3720.014, 5.720881
3721.942, 1.495373
3723.871, 6.217756
3725.799, -3.246558
3727.728, -7.748997
3729.656, -3.788859
3731.585, -2.852069
3733.513, -2.561974
3735.442, 15.36890
3737.370, 3.297194
3739.299, -2.855305
3741.227, -0.4138853
3743.156, 4.5218072E-03
3745.084, -2.554837
3747.012, 8.364041
3748.941, 7.446517
3750.869, 5.172578
3752.798, 21.42483
3754.726, 13.84341
3756.655, -3.836207
3758.583, 2.661693
3760.512, -2.513384
3762.440, 7.496992
3764.369, 3.143119
3766.297, 2.857342
3768.226, 8.972437
3770.154, 3.600439
3772.083, -8.830892
3774.011, 7.248927
3775.939, -9.565468
3777.868, -1.935222
3779.796, 6.215611
3781.725, 10.05768
3783.653, 8.028756
3785.582, 3.769001
3787.510, 4.086354
3789.439, 4.360605
3791.367, 6.813413
3793.296, 18.95039
3795.224, 5.781011
3797.153, -6.986475
3799.081, -7.442157
3801.010, -6.619244
3802.938, -4.384441
3804.866, -9.654832
3806.795, 10.40334
3808.723, 13.21865
3810.652, 12.59524
3812.580, 7.784865
3814.509, 0.5364923
3816.437, -1.150900
3818.366, -16.53796
3820.294, 1.437096
3822.223, 20.15041
3824.151, 5.602935
3826.080, 5.659392
3828.008, 17.34947
3829.937, 14.16938
3831.865, -3.087188
3833.793, -5.108285
3835.722, 1.207482
3837.650, -4.448147
3839.579, 3.222211
3841.507, 6.535057
3843.436, 2.298025
3845.364, 0.5815123
3847.293, 4.601118
3849.221, 7.122180
3851.150, 7.074023
3853.078, -2.748197
3855.007, -3.124042
3856.935, 1.050287
3858.864, -1.886117
3860.792, -2.5570750E-02
3862.720, 11.74119
3864.649, 2.411447
3866.577, 4.318069
3868.506, -4.277696
3870.434, -9.744101
3872.363, -6.301765
3874.291, 8.840091
3876.220, 12.54197
3878.148, 1.611973
3880.077, 3.809134
3882.005, 7.733715
3883.934, 3.154263
3885.862, 11.96977
3887.791, 0.9159645
3889.719, -3.553451
3891.647, 7.360463
3893.576, 11.99350
3895.504, 6.667933
3897.433, 17.73927
3899.361, 13.03956
3901.290, 16.58771
3903.218, -3.179957
3905.147, 12.49004
3907.075, 8.900579
3909.004, 1.566178
3910.932, 5.993677
3912.861, 10.26332
3914.789, 13.06806
3916.718, 8.155028
3918.646, 8.972643
3920.574, 9.487293
3922.503, 4.620676
3924.431, 1.177297
3926.360, -2.082671
3928.288, -9.592669
3930.217, -13.07549
3932.145, -4.350736
3934.074, -0.6704155
3936.002, 10.32186
3937.931, 9.820805
3939.859, 0.4961306
3941.788, 4.529269
3943.716, 2.794419
3945.645, 2.540376
3947.573, 4.938982
3949.501, 0.5064432
3951.430, -5.440762
3953.358, -4.405486
3955.287, -4.274913
3957.215, 10.04031
3959.144, 13.46416
3961.072, 4.048127
3963.001, -13.83832
3964.929, -8.676060
3966.858, 3.030268
3968.786, -2.211366
3970.715, -3.017367
3972.643, -2.256933
3974.572, 8.055826
3976.500, 6.117218
3978.428, -0.7693959
3980.357, 13.37297
3982.285, 6.182886
3984.214, 4.093586
3986.142, 10.18505
3988.071, 8.197093
3989.999, 2.122275
3991.928, -3.375977
3993.856, -2.422712
3995.785, 1.807291
3997.713, -0.1222387
3999.642, -7.395578
4001.570, 3.425185
4003.499, 14.25029
4005.427, 19.78919
4007.355, 1.983012
4009.284, -10.26938
4011.212, 12.74301
4013.141, 15.41386
4015.069, 7.146312
4016.998, 2.944932
4018.926, 0.4124044
4020.855, -19.53048
4022.783, -4.279960
4024.712, 13.72890
4026.640, 6.155570
4028.569, 2.408167
4030.497, 8.611305
4032.426, 3.861766
4034.354, -2.226523
4036.282, 10.75253
4038.211, -3.380386
4040.139, -1.585036
4042.068, -4.864807
4043.996, 3.348297
4045.925, 15.11623
4047.853, 7.164221
4049.782, 8.741356
4051.710, 8.864774
4053.639, 2.253818
4055.567, -1.082999
4057.496, 5.499532
4059.424, 21.18510
4061.353, -3.499575
4063.281, 2.772190
4065.209, -5.924608
4067.138, -2.5514619E-02
4069.066, -0.4224282
4070.995, 9.176764
4072.923, 14.00265
4074.852, 5.857209
4076.780, 2.974530
4078.709, 1.700598
4080.637, 1.246852
4082.566, 1.512143
4084.494, -6.753118
4086.423, 13.44229
4088.351, 11.85759
4090.280, 6.789022
4092.208, 9.742244
4094.136, 10.07415
4096.065, -7.966834
4097.993, 14.25769
4099.922, 15.92129
4101.850, 4.491668
4103.779, 2.040136
4105.707, 1.407784
4107.636, 0.9452797
4109.564, 4.830184
4111.493, 9.513168
4113.421, 16.27512
4115.350, 19.11247
4117.278, 1.225926
4119.207, 2.035537
4121.135, 1.407759
4123.063, -5.429329
4124.992, 11.99491
4126.920, 13.85311
4128.849, 4.652442
4130.777, 5.904677
4132.706, 8.843107
4134.634, 9.308962
4136.563, 5.093414
4138.491, 1.332067
4140.419, -3.374084
4142.348, -12.69892
4144.276, 2.981329
4146.205, 14.25318
4148.133, 10.83718
4150.062, -3.863159
4151.990, 8.057737
4153.919, -2.888391
4155.847, 1.597023
4157.776, 7.667722
4159.704, -1.665209
4161.633, 0.2292999
4163.561, 6.367100
4165.490, 7.285467
4167.418, 10.17112
4169.347, 5.743166
4171.275, 5.649444
4173.204, 8.348227
4175.132, 0.6931826
4177.061, 0.8772830
4178.989, -0.5117283
4180.917, 15.04758
4182.846, 1.120449
4184.774, 21.44035
4186.703, -12.63482
4188.631, -3.419991
4190.560, 1.051596
4192.488, -0.3282564
4194.417, 12.05867
4196.345, 0.8906884
4198.273, -0.3863225
4200.202, 7.523180
4202.130, 9.192409
4204.059, 10.51752
4205.987, 10.66193
4207.916, 1.069949
4209.844, -4.764644
4211.773, 12.16401
4213.701, 25.00958
4215.630, 12.30069
4217.558, 4.332446
4219.487, 7.231164
4221.415, 13.45465
4223.344, 2.267355
4225.272, -0.6845141
4227.201, 2.030947
4229.129, 9.066298
4231.058, 3.338670
4232.986, 19.85697
4234.915, 16.35135
4236.843, 2.937217
4238.771, -12.37124
4240.700, 11.88561
4242.628, 5.092759
4244.557, 5.242393
4246.485, 1.987914
4248.414, 3.660323
4250.342, 4.083103
4252.271, 9.389916
4254.199, 3.911755
4256.127, -5.126489
4258.056, 6.084105
4259.984, 10.25250
4261.913, 10.18643
4263.841, 14.12063
4265.770, 9.983770
4267.698, 1.902259
4269.627, -4.973834
4271.555, 10.29882
4273.484, 8.728205
4275.412, 4.263870
4277.341, 16.96226
4279.269, 3.263035
4281.198, -0.3980386
4283.126, 11.23096
4285.055, -20.56866
4286.983, 28.92520
4288.912, -13.84841
4290.840, 22.02696
4292.769, 4.593514
4294.697, 11.11613
4296.625, 1.340801
4298.554, -7.221160
4300.482, 6.877792
4302.411, 10.74635
4304.339, 17.23546
4306.268, -14.33767
4308.196, -0.5714999
4310.125, 13.89925
4312.053, -7.240929
4313.981, -5.666121
4315.910, 12.57164
4317.838, 14.64288
4319.767, 9.909374
4321.695, 14.19195
4323.624, 21.40471
4325.552, 15.48629
4327.481, 18.67027
4329.409, 19.29641
4331.338, 4.020009
4333.266, 5.350142
4335.195, -5.836133
4337.123, -16.88099
4339.052, 4.645470
4340.980, 5.582831
4342.909, 3.344707
4344.837, 14.18301
4346.766, 7.765578
4348.694, 9.529559
4350.623, 20.27902
4352.551, 15.90275
4354.479, 0.7688649
4356.408, -2.232640
4358.336, 4.778433
4360.265, -2.947905
##END=



