##NAMES=Zunyite
##RRUFFID=R050553
##IDEAL CHEMISTRY=Al_13_Si_5_O_20_(OH,F)_18_Cl
##LOCALITY=near Quartzsite, Yuma/La Paz Counties, Arizona, USA
##OWNER=RRUFF
##SOURCE=Dave Bunk Minerals
##DESCRIPTION=Light gray crystals showing combined octahedral and tetrahedral forms
##STATUS=The identification of this mineral has been confirmed by X-ray diffraction and chemical analysis
##URL=https://www.rruff.net/odr/rruff_sample/R050553
##MEASURED CHEMISTRY=(Al_12.99_Fe^3+^_0.01_)Si_5.00_O_20_((OH)_14.89_F_3.11_)Cl_1.00_
##DIFFRACTION SAMPLE DESCRIPTION=Powder
##CELL PARAMETERS=a: 13.869 b: 13.869 c: 13.869 alpha: 90 beta: 90 gamma: 90 volume: 2667.69 crystal system: cubic
##FILETYPE=Raman RAW
##RAMAN WAVELENGTH=532

87.66873, 15.86325
89.59720, 15.79586
91.52567, 15.89600
93.45413, 16.11156
95.38260, 16.16036
97.31107, 15.80828
99.23953, 15.48759
101.1680, 15.40432
103.0965, 15.61638
105.0249, 16.02202
106.9534, 16.54212
108.8819, 17.23504
110.8103, 18.27572
112.7388, 19.36255
114.6673, 21.00701
116.5957, 23.74777
118.5242, 27.56258
120.4527, 32.41044
122.3811, 38.45346
124.3096, 45.55354
126.2381, 53.58941
128.1665, 62.04167
130.0950, 71.52584
132.0235, 83.07880
133.9519, 98.08281
135.8804, 112.4839
137.8089, 125.2449
139.7373, 136.0263
141.6658, 145.5188
143.5943, 152.3545
145.5227, 158.2132
147.4512, 163.7239
149.3797, 163.0528
151.3081, 163.3608
153.2366, 164.7736
155.1651, 167.3740
157.0935, 169.3088
159.0220, 169.9068
160.9505, 169.9187
162.8789, 170.4272
164.8074, 172.5726
166.7359, 174.0754
168.6643, 174.0687
170.5928, 172.6905
172.5213, 170.8410
174.4497, 168.2059
176.3782, 165.2292
178.3067, 163.0124
180.2351, 161.0624
182.1636, 160.2953
184.0921, 160.6487
186.0205, 161.6975
187.9490, 165.0164
189.8775, 171.3282
191.8059, 179.6616
193.7344, 188.2910
195.6629, 197.8246
197.5913, 206.9658
199.5198, 215.4036
201.4483, 223.6674
203.3767, 229.9995
205.3052, 233.7117
207.2337, 235.3260
209.1621, 235.3713
211.0906, 232.8287
213.0191, 229.1856
214.9475, 225.0145
216.8760, 220.4309
218.8045, 216.7997
220.7329, 214.4580
222.6614, 213.0831
224.5899, 212.3459
226.5183, 213.2639
228.4468, 213.6000
230.3753, 212.4739
232.3037, 209.9259
234.2322, 207.7787
236.1607, 206.4429
238.0891, 205.4252
240.0176, 204.0587
241.9461, 202.1189
243.8745, 200.2180
245.8030, 198.6857
247.7315, 197.6522
249.6599, 196.4368
251.5884, 194.2363
253.5169, 192.2991
255.4453, 191.6767
257.3738, 193.0951
259.3023, 194.5979
261.2307, 195.4816
263.1592, 195.6094
265.0877, 196.4960
267.0161, 198.9822
268.9446, 202.0220
270.8731, 204.4549
272.8015, 206.3631
274.7300, 207.4273
276.6585, 207.1478
278.5869, 205.3864
280.5154, 203.3087
282.4439, 200.2902
284.3723, 197.8092
286.3008, 196.7718
288.2293, 197.9557
290.1577, 199.2865
292.0862, 200.2389
294.0147, 201.2950
295.9431, 203.3698
297.8716, 207.0868
299.8001, 211.4657
301.7285, 216.4243
303.6570, 221.9883
305.5855, 227.6617
307.5139, 233.3698
309.4424, 239.3360
311.3709, 245.3284
313.2993, 251.4931
315.2278, 257.4595
317.1563, 263.2690
319.0847, 268.7360
321.0132, 273.0406
322.9417, 275.4550
324.8701, 277.0067
326.7986, 278.6544
328.7271, 280.7475
330.6555, 282.2971
332.5840, 282.7193
334.5125, 282.6434
336.4409, 282.8734
338.3694, 283.5088
340.2979, 283.6752
342.2263, 282.7556
344.1548, 280.5451
346.0833, 280.6359
348.0117, 285.1407
349.9402, 292.5601
351.8687, 301.4557
353.7971, 313.4130
355.7256, 325.2760
357.6541, 336.0558
359.5826, 345.9449
361.5110, 353.5721
363.4395, 355.9530
365.3680, 356.7971
367.2964, 359.3749
369.2249, 364.5799
371.1534, 368.0129
373.0818, 368.4085
375.0103, 367.7627
376.9388, 369.1812
378.8672, 373.7928
380.7957, 378.6371
382.7242, 383.4231
384.6526, 388.0638
386.5811, 390.9241
388.5096, 390.7283
390.4380, 388.5317
392.3665, 384.6810
394.2950, 378.4882
396.2234, 371.6847
398.1519, 364.6640
400.0804, 357.2406
402.0088, 349.3095
403.9373, 340.4183
405.8658, 332.0016
407.7942, 324.4099
409.7227, 317.5740
411.6512, 311.9780
413.5796, 308.8561
415.5081, 307.2724
417.4366, 306.1974
419.3650, 304.6711
421.2935, 304.9581
423.2220, 307.2665
425.1504, 311.1783
427.0789, 315.5772
429.0074, 320.4362
430.9358, 325.7023
432.8643, 331.5425
434.7928, 338.3323
436.7212, 344.8124
438.6497, 351.0112
440.5782, 355.6564
442.5066, 358.2166
444.4351, 358.4491
446.3636, 356.7978
448.2920, 353.2611
450.2205, 347.8134
452.1490, 340.7896
454.0774, 331.8881
456.0059, 322.1582
457.9344, 312.4670
459.8628, 303.1588
461.7913, 292.9574
463.7198, 282.3752
465.6482, 272.2920
467.5767, 262.3357
469.5052, 251.4434
471.4336, 240.4296
473.3621, 230.8081
475.2906, 222.2562
477.2190, 213.9111
479.1475, 205.5905
481.0760, 197.9408
483.0044, 190.9134
484.9329, 184.3644
486.8614, 178.4700
488.7898, 174.1916
490.7183, 170.7619
492.6468, 167.5856
494.5752, 164.0976
496.5037, 160.7972
498.4322, 158.3183
500.3606, 156.4617
502.2891, 154.8452
504.2176, 152.5728
506.1460, 150.5769
508.0745, 149.6140
510.0030, 149.6647
511.9314, 149.9590
513.8599, 149.9324
515.7883, 149.4276
517.7168, 148.6400
519.6453, 147.9001
521.5737, 147.5636
523.5022, 147.3105
525.4307, 146.8063
527.3591, 145.8936
529.2876, 144.9167
531.2161, 144.6413
533.1445, 145.0518
535.0730, 145.9176
537.0015, 147.3070
538.9299, 149.2431
540.8584, 150.7344
542.7869, 151.4863
544.7153, 152.2796
546.6438, 154.0231
548.5723, 157.0343
550.5007, 159.9455
552.4292, 162.2220
554.3577, 164.4114
556.2861, 168.0100
558.2146, 173.3921
560.1431, 178.8553
562.0715, 183.5890
564.0000, 187.2643
565.9285, 191.7246
567.8569, 197.2315
569.7854, 203.1037
571.7139, 208.6206
573.6423, 214.3818
575.5708, 221.1438
577.4993, 228.8281
579.4277, 236.8863
581.3562, 245.0295
583.2847, 253.4319
585.2131, 262.5749
587.1416, 272.4288
589.0701, 283.0686
590.9985, 294.8440
592.9270, 308.3053
594.8555, 321.1088
596.7839, 332.3374
598.7124, 342.2437
600.6409, 353.0615
602.5693, 365.5070
604.4978, 376.3371
606.4263, 384.7784
608.3547, 390.6798
610.2832, 393.3260
612.2117, 391.3368
614.1401, 386.8322
616.0686, 380.7999
617.9971, 374.2315
619.9255, 365.7523
621.8540, 354.2046
623.7825, 340.8411
625.7109, 326.3694
627.6394, 311.4382
629.5679, 297.4736
631.4963, 284.6737
633.4248, 272.7233
635.3533, 260.9880
637.2817, 249.6304
639.2102, 239.2535
641.1387, 230.0349
643.0671, 221.9576
644.9956, 214.9890
646.9241, 208.7507
648.8525, 203.2426
650.7810, 198.8392
652.7095, 194.8645
654.6379, 190.7444
656.5664, 186.7335
658.4949, 182.9831
660.4233, 179.2824
662.3518, 175.5399
664.2803, 172.5738
666.2087, 170.6601
668.1372, 169.0645
670.0657, 167.3927
671.9941, 165.9866
673.9226, 165.0433
675.8511, 164.5770
677.7795, 164.2110
679.7080, 163.9316
681.6365, 163.3836
683.5649, 163.2469
685.4934, 164.1621
687.4219, 165.4482
689.3503, 166.3971
691.2788, 166.8835
693.2073, 167.4524
695.1357, 167.9646
697.0642, 168.0627
698.9927, 167.9355
700.9211, 168.1006
702.8496, 167.6480
704.7781, 166.2694
706.7065, 163.9352
708.6350, 160.7746
710.5635, 157.3087
712.4919, 154.0995
714.4204, 151.1767
716.3489, 148.1302
718.2773, 144.7665
720.2058, 141.2672
722.1343, 138.2750
724.0627, 136.1874
725.9912, 134.3509
727.9197, 132.5939
729.8481, 130.9344
731.7766, 128.9931
733.7051, 126.4029
735.6335, 123.9332
737.5620, 122.2702
739.4905, 121.4664
741.4189, 120.4626
743.3474, 118.6796
745.2759, 116.8994
747.2043, 115.7493
749.1328, 115.4624
751.0613, 115.1364
752.9897, 114.6166
754.9182, 114.0818
756.8467, 113.7162
758.7751, 113.5778
760.7036, 113.4900
762.6321, 113.3228
764.5605, 113.1742
766.4890, 113.3141
768.4175, 113.9401
770.3459, 114.4712
772.2744, 114.7682
774.2029, 114.9794
776.1313, 115.3489
778.0598, 116.1084
779.9883, 116.6572
781.9167, 116.5596
783.8452, 115.9912
785.7737, 115.9139
787.7021, 117.1266
789.6306, 117.8475
791.5591, 117.5838
793.4875, 116.7137
795.4160, 115.8653
797.3445, 115.0393
799.2729, 114.2168
801.2014, 113.2224
803.1299, 112.3542
805.0583, 111.9221
806.9868, 112.2119
808.9153, 112.1919
810.8438, 111.4326
812.7722, 110.4621
814.7007, 109.8622
816.6292, 109.8242
818.5576, 109.5344
820.4861, 108.6398
822.4146, 107.5141
824.3430, 106.6424
826.2715, 106.2041
828.2000, 105.5302
830.1284, 104.4489
832.0569, 103.1813
833.9854, 101.8766
835.9138, 100.4905
837.8423, 99.19841
839.7708, 98.17810
841.6992, 97.22977
843.6277, 96.09106
845.5562, 94.59324
847.4846, 93.35194
849.4131, 92.41637
851.3416, 91.69996
853.2700, 91.29957
855.1985, 91.33958
857.1270, 91.29613
859.0554, 90.93816
860.9839, 90.38744
862.9124, 89.81202
864.8408, 89.14787
866.7693, 88.89065
868.6978, 89.31483
870.6262, 89.91354
872.5547, 90.31094
874.4832, 90.53069
876.4116, 90.91756
878.3401, 91.49072
880.2686, 92.26565
882.1970, 93.33926
884.1255, 94.99224
886.0540, 96.46116
887.9824, 97.52388
889.9109, 98.52944
891.8394, 99.64974
893.7678, 101.0541
895.6963, 103.0829
897.6248, 106.0962
899.5532, 109.1593
901.4817, 111.6639
903.4102, 113.9801
905.3386, 117.2920
907.2671, 121.8636
909.1956, 126.7757
911.1240, 131.4733
913.0525, 136.6645
914.9810, 143.1717
916.9094, 151.0589
918.8379, 159.7470
920.7664, 169.6233
922.6948, 180.2111
924.6233, 190.4687
926.5518, 200.3567
928.4802, 209.5931
930.4087, 218.3745
932.3372, 226.7439
934.2656, 233.7565
936.1941, 238.9531
938.1226, 243.2139
940.0510, 246.4579
941.9795, 248.9789
943.9080, 251.5712
945.8364, 255.0028
947.7649, 256.6439
949.6934, 256.6154
951.6218, 253.6349
953.5503, 247.0929
955.4788, 237.4304
957.4072, 226.2786
959.3357, 212.3897
961.2642, 197.8478
963.1926, 184.5274
965.1211, 172.7831
967.0496, 162.7251
968.9780, 154.4800
970.9065, 147.8029
972.8350, 142.7166
974.7634, 139.0712
976.6919, 136.8487
978.6204, 136.1349
980.5488, 137.0969
982.4773, 140.0769
984.4058, 144.3574
986.3342, 149.1961
988.2627, 154.7654
990.1912, 160.3743
992.1196, 167.0444
994.0481, 173.1705
995.9766, 176.0844
997.9050, 175.0117
999.8335, 171.4367
1001.762, 165.1838
1003.690, 157.5492
1005.619, 149.7745
1007.547, 141.1179
1009.476, 133.4187
1011.404, 127.1287
1013.333, 122.5834
1015.261, 119.2653
1017.190, 116.7336
1019.118, 114.9949
1021.047, 114.1623
1022.975, 113.1827
1024.904, 111.9248
1026.832, 110.6330
1028.760, 107.8539
1030.689, 103.5449
1032.617, 99.25716
1034.546, 95.26759
1036.474, 91.74475
1038.403, 89.13456
1040.331, 87.43187
1042.260, 86.53362
1044.188, 86.71507
1046.117, 87.43716
1048.045, 88.00511
1049.974, 87.98454
1051.902, 88.32436
1053.831, 89.34760
1055.759, 90.51781
1057.688, 91.24172
1059.616, 91.89120
1061.544, 92.52253
1063.473, 93.10436
1065.401, 93.42894
1067.330, 93.31374
1069.258, 92.86643
1071.187, 92.52757
1073.115, 92.10672
1075.044, 91.66998
1076.972, 91.48922
1078.901, 91.85165
1080.829, 92.32694
1082.758, 92.18485
1084.686, 92.20458
1086.615, 92.58064
1088.543, 93.37996
1090.471, 94.58150
1092.400, 96.16679
1094.328, 98.04817
1096.257, 99.58203
1098.185, 101.2175
1100.114, 103.7266
1102.042, 107.6238
1103.971, 111.4788
1105.899, 115.2265
1107.828, 117.0781
1109.756, 116.0859
1111.685, 113.0638
1113.613, 110.2059
1115.542, 106.8572
1117.470, 105.0920
1119.398, 105.8106
1121.327, 107.9787
1123.255, 110.2117
1125.184, 111.8596
1127.112, 113.1211
1129.041, 114.5904
1130.969, 116.0821
1132.898, 117.3996
1134.826, 118.4049
1136.755, 118.8858
1138.683, 118.5587
1140.612, 117.4073
1142.540, 115.5872
1144.469, 113.3448
1146.397, 110.7832
1148.325, 107.7506
1150.254, 104.9549
1152.182, 102.5280
1154.111, 100.5732
1156.039, 99.04275
1157.968, 97.66120
1159.896, 96.09338
1161.825, 94.52670
1163.753, 93.44629
1165.682, 92.98440
1167.610, 93.02834
1169.539, 93.26511
1171.467, 93.43288
1173.396, 93.65586
1175.324, 94.18221
1177.252, 94.62341
1179.181, 94.52953
1181.109, 93.71239
1183.038, 92.23045
1184.966, 90.30435
1186.895, 88.65562
1188.823, 86.96593
1190.752, 85.15253
1192.680, 83.72813
1194.609, 83.17238
1196.537, 82.39385
1198.466, 80.89695
1200.394, 79.15849
1202.323, 77.50227
1204.251, 75.85367
1206.179, 74.31447
1208.108, 73.08199
1210.036, 71.93829
1211.965, 70.70185
1213.893, 69.42116
1215.822, 68.65848
1217.750, 68.93159
1219.679, 69.40083
1221.607, 69.22009
1223.536, 68.34391
1225.464, 67.26868
1227.393, 66.27766
1229.321, 65.84676
1231.250, 66.26572
1233.178, 66.53897
1235.106, 65.97865
1237.035, 64.93076
1238.963, 64.44214
1240.892, 65.02219
1242.820, 65.43243
1244.749, 64.82895
1246.677, 64.02969
1248.606, 64.07729
1250.534, 65.01987
1252.463, 65.38432
1254.391, 64.80293
1256.320, 64.51192
1258.248, 64.65651
1260.177, 64.47024
1262.105, 63.63056
1264.033, 62.36192
1265.962, 61.87570
1267.890, 62.25491
1269.819, 62.59166
1271.747, 62.68632
1273.676, 62.57718
1275.604, 62.61830
1277.533, 63.06839
1279.461, 63.45361
1281.390, 63.19374
1283.318, 62.62026
1285.247, 62.52945
1287.175, 63.20962
1289.104, 63.56078
1291.032, 63.15550
1292.960, 62.39442
1294.889, 61.36658
1296.817, 60.51085
1298.746, 60.46968
1300.674, 61.31139
1302.603, 61.74889
1304.531, 61.31547
1306.460, 60.81236
1308.388, 60.54363
1310.317, 60.35586
1312.245, 60.10157
1314.174, 59.78291
1316.102, 59.53423
1318.031, 59.39085
1319.959, 59.35631
1321.887, 59.44289
1323.816, 59.61737
1325.744, 59.60238
1327.673, 59.08157
1329.601, 58.88016
1331.530, 59.20068
1333.458, 59.58534
1335.387, 59.83667
1337.315, 60.07148
1339.244, 60.10239
1341.172, 59.37266
1343.101, 58.85131
1345.029, 59.49787
1346.958, 60.58124
1348.886, 60.82917
1350.814, 60.21095
1352.743, 59.69489
1354.671, 59.29711
1356.600, 59.13588
1358.528, 59.59200
1360.457, 60.36663
1362.385, 60.70240
1364.314, 60.45041
1366.242, 60.30877
1368.171, 60.43792
1370.099, 60.60062
1372.028, 60.83429
1373.956, 61.06280
1375.885, 60.91837
1377.813, 59.89974
1379.741, 59.28736
1381.670, 59.32750
1383.598, 59.53375
1385.527, 59.73770
1387.455, 59.95039
1389.384, 60.14284
1391.312, 60.30545
1393.241, 60.47321
1395.169, 60.70116
1397.098, 60.88401
1399.026, 60.86177
1400.955, 60.74787
1402.883, 60.82374
1404.812, 61.21941
1406.740, 61.41045
1408.668, 60.98375
1410.597, 60.50894
1412.525, 60.66428
1414.454, 61.41013
1416.382, 61.62983
1418.311, 60.81785
1420.239, 60.25977
1422.168, 60.49520
1424.096, 61.01057
1426.025, 61.36918
1427.953, 61.53209
1429.882, 61.74760
1431.810, 62.18188
1433.739, 62.48651
1435.667, 62.54885
1437.595, 62.43638
1439.524, 62.25832
1441.452, 62.00040
1443.381, 61.53977
1445.309, 60.17592
1447.238, 59.58856
1449.166, 60.67108
1451.095, 62.22232
1453.023, 63.17434
1454.952, 63.51604
1456.880, 63.55944
1458.809, 63.14801
1460.737, 62.81169
1462.666, 62.89597
1464.594, 62.96830
1466.522, 62.47514
1468.451, 61.60238
1470.379, 61.30786
1472.308, 61.83585
1474.236, 62.40087
1476.165, 62.92371
1478.093, 63.23101
1480.022, 63.07787
1481.950, 62.56924
1483.879, 62.29958
1485.807, 62.41187
1487.736, 62.46215
1489.664, 62.17844
1491.593, 61.96775
1493.521, 62.09868
1495.449, 62.51228
1497.378, 63.00492
1499.306, 63.76710
1501.235, 64.18456
1503.163, 63.86695
1505.092, 63.56304
1507.020, 63.65723
1508.949, 63.99499
1510.877, 64.29587
1512.806, 64.63333
1514.734, 64.84253
1516.663, 64.89703
1518.591, 64.85275
1520.520, 64.65192
1522.448, 64.40880
1524.376, 64.21922
1526.305, 64.02254
1528.233, 64.28124
1530.162, 65.64436
1532.090, 66.52657
1534.019, 66.00125
1535.947, 65.18105
1537.876, 65.27298
1539.804, 66.11478
1541.733, 66.75288
1543.661, 67.25072
1545.590, 67.34847
1547.518, 66.34160
1549.447, 65.46513
1551.375, 65.97044
1553.303, 67.26297
1555.232, 67.73507
1557.160, 67.20037
1559.089, 66.82594
1561.017, 66.89987
1562.946, 67.05695
1564.874, 67.15453
1566.803, 67.24891
1568.731, 67.37103
1570.660, 67.48118
1572.588, 67.44380
1574.517, 67.00985
1576.445, 66.93190
1578.374, 67.92116
1580.302, 69.03629
1582.230, 69.30791
1584.159, 68.83022
1586.087, 68.72974
1588.016, 69.27846
1589.944, 69.52727
1591.873, 69.05919
1593.801, 68.51466
1595.730, 68.01534
1597.658, 67.62368
1599.587, 67.77178
1601.515, 68.65401
1603.444, 69.38832
1605.372, 69.98815
1607.301, 70.20418
1609.229, 69.65992
1611.157, 68.94593
1613.086, 68.77227
1615.014, 69.16395
1616.943, 69.14684
1618.871, 68.29105
1620.800, 67.73747
1622.728, 67.68430
1624.657, 67.94827
1626.585, 68.64171
1628.514, 69.53296
1630.442, 69.96513
1632.371, 69.70914
1634.299, 69.57754
1636.228, 69.73101
1638.156, 69.78886
1640.084, 69.53872
1642.013, 69.20955
1643.941, 69.07933
1645.870, 69.10711
1647.798, 69.02487
1649.727, 68.74294
1651.655, 68.50218
1653.584, 68.32662
1655.512, 68.18873
1657.441, 68.03468
1659.369, 67.92205
1661.298, 68.00403
1663.226, 68.34258
1665.155, 68.40377
1667.083, 67.79930
1669.011, 67.47400
1670.940, 67.76513
1672.868, 68.20653
1674.797, 68.67046
1676.725, 69.02489
1678.654, 68.74178
1680.582, 67.34129
1682.511, 66.76723
1684.439, 67.55971
1686.368, 68.45357
1688.296, 69.11071
1690.225, 69.70254
1692.153, 70.68719
1694.082, 71.84316
1696.010, 71.69611
1697.938, 69.35171
1699.867, 67.75909
1701.795, 67.32751
1703.724, 67.29289
1705.652, 67.52221
1707.581, 67.91240
1709.509, 68.46108
1711.438, 69.14275
1713.366, 69.42323
1715.295, 68.98697
1717.223, 68.77837
1719.152, 69.03205
1721.080, 69.29753
1723.009, 69.44350
1724.937, 69.44384
1726.865, 69.15659
1728.794, 68.58464
1730.722, 68.39263
1732.651, 68.80181
1734.579, 69.22433
1736.508, 69.74003
1738.436, 70.12782
1740.365, 70.15791
1742.293, 70.05270
1744.222, 70.14721
1746.150, 70.43655
1748.079, 70.62955
1750.007, 70.67324
1751.936, 70.70203
1753.864, 70.71986
1755.792, 70.75565
1757.721, 70.80115
1759.649, 70.90917
1761.578, 71.28929
1763.506, 71.93096
1765.435, 71.94938
1767.363, 70.39717
1769.292, 69.80632
1771.220, 71.11757
1773.149, 72.30667
1775.077, 72.61143
1777.006, 72.33474
1778.934, 71.58984
1780.863, 70.46861
1782.791, 70.06613
1784.719, 70.74415
1786.648, 71.32898
1788.576, 71.70571
1790.505, 72.05049
1792.433, 72.33487
1794.362, 72.67185
1796.290, 73.38560
1798.219, 74.27784
1800.147, 74.32758
1802.076, 73.29532
1804.004, 72.40589
1805.933, 71.58366
1807.861, 71.18566
1809.790, 71.56271
1811.718, 72.09908
1813.646, 72.43063
1815.575, 72.58272
1817.503, 72.52895
1819.432, 72.24306
1821.360, 72.42352
1823.289, 73.45372
1825.217, 74.06672
1827.146, 73.59837
1829.074, 73.10416
1831.003, 73.16245
1832.931, 73.48075
1834.860, 73.55209
1836.788, 73.48978
1838.717, 74.26075
1840.645, 76.24246
1842.573, 76.94674
1844.502, 74.96847
1846.430, 73.41750
1848.359, 74.12257
1850.287, 75.36820
1852.216, 75.72180
1854.144, 75.52959
1856.073, 75.58572
1858.001, 75.90384
1859.930, 75.83618
1861.858, 74.98189
1863.787, 74.64722
1865.715, 75.92252
1867.644, 76.94764
1869.572, 76.33328
1871.500, 75.20448
1873.429, 75.11825
1875.357, 75.90263
1877.286, 76.23259
1879.214, 75.86915
1881.143, 75.87455
1883.071, 76.50468
1885.000, 77.22599
1886.928, 78.24798
1888.857, 78.94960
1890.785, 78.59459
1892.714, 77.75280
1894.642, 77.59714
1896.571, 78.17715
1898.499, 78.23167
1900.427, 77.20443
1902.356, 76.80644
1904.284, 77.61446
1906.213, 78.39098
1908.141, 78.57165
1910.070, 78.74937
1911.998, 79.52763
1913.927, 80.61250
1915.855, 81.30141
1917.784, 81.58398
1919.712, 81.81855
1921.641, 82.07040
1923.569, 82.12383
1925.498, 81.91006
1927.426, 81.55690
1929.354, 80.83141
1931.283, 80.27456
1933.211, 80.42125
1935.140, 81.00611
1937.068, 81.51387
1938.997, 81.94600
1940.925, 82.41189
1942.854, 82.93594
1944.782, 83.31702
1946.711, 80.15164
1948.639, 81.90688
1950.568, 100.9517
1952.496, 117.5756
1954.425, 110.3226
1956.353, 90.45893
1958.281, 82.47966
1960.210, 86.81739
1962.138, 88.99830
1964.067, 87.67722
1965.995, 86.68967
1967.924, 85.92647
1969.852, 85.71876
1971.781, 86.63693
1973.709, 87.60825
1975.638, 87.90035
1977.566, 87.77235
1979.495, 87.50694
1981.423, 87.14928
1983.352, 87.38560
1985.280, 88.38741
1987.208, 88.92574
1989.137, 88.62881
1991.065, 88.46575
1992.994, 88.79129
1994.922, 89.20005
1996.851, 89.43901
1998.779, 89.65224
2000.708, 90.02833
2002.636, 90.48762
2004.565, 90.86101
2006.493, 91.14959
2008.422, 91.19276
2010.350, 90.75700
2012.279, 90.75124
2014.207, 91.79471
2016.135, 92.63724
2018.064, 92.71066
2019.992, 92.61377
2021.921, 92.74983
2023.849, 93.00906
2025.778, 93.21310
2027.706, 93.37227
2029.635, 93.61964
2031.563, 94.01308
2033.492, 94.20581
2035.420, 94.06937
2037.349, 94.00831
2039.277, 94.11697
2041.206, 94.30602
2043.134, 94.35339
2045.063, 94.65838
2046.991, 95.92445
2048.919, 97.43811
2050.848, 97.91991
2052.776, 97.52792
2054.705, 97.19103
2056.633, 96.92753
2058.562, 96.80001
2060.490, 96.76905
2062.419, 96.97735
2064.347, 97.76230
2066.276, 98.40630
2068.204, 98.47459
2070.133, 98.43271
2072.061, 98.63234
2073.990, 99.01599
2075.918, 99.48185
2077.846, 100.0234
2079.775, 100.6981
2081.703, 101.5486
2083.632, 102.1195
2085.560, 102.3208
2087.489, 102.3817
2089.417, 102.3216
2091.346, 102.2000
2093.274, 101.8730
2095.203, 101.7138
2097.131, 102.2397
2099.060, 102.9392
2100.988, 103.0307
2102.917, 102.6908
2104.845, 102.5306
2106.773, 102.5127
2108.702, 102.8821
2110.630, 103.9741
2112.559, 104.8073
2114.487, 105.4072
2116.416, 105.6862
2118.344, 105.3527
2120.273, 105.0718
2122.201, 105.0389
2124.130, 105.3465
2126.058, 106.4242
2127.987, 107.7390
2129.915, 108.0064
2131.844, 107.5262
2133.772, 107.9762
2135.700, 109.4778
2137.629, 110.0395
2139.557, 108.8645
2141.486, 108.5376
2143.414, 110.4012
2145.343, 111.9088
2147.271, 112.2376
2149.200, 112.1581
2151.128, 111.8927
2153.057, 111.6550
2154.985, 111.4935
2156.914, 111.5934
2158.842, 112.6274
2160.771, 114.4029
2162.699, 115.2383
2164.627, 115.0575
2166.556, 115.1992
2168.484, 115.8430
2170.413, 116.5570
2172.341, 117.2972
2174.270, 118.0192
2176.198, 118.9210
2178.127, 119.5461
2180.055, 119.5209
2181.984, 119.2614
2183.912, 118.7123
2185.841, 118.4346
2187.769, 119.9020
2189.698, 122.5343
2191.626, 123.1101
2193.554, 121.5553
2195.483, 122.1334
2197.411, 125.5126
2199.340, 127.2308
2201.268, 126.1223
2203.197, 125.1182
2205.125, 125.0284
2207.054, 125.1333
2208.982, 124.7493
2210.911, 124.9578
2212.839, 127.0127
2214.768, 129.4831
2216.696, 131.0542
2218.625, 131.8255
2220.553, 131.5771
2222.481, 130.5910
2224.410, 130.9503
2226.338, 132.6694
2228.267, 134.0485
2230.195, 134.9945
2232.124, 135.6200
2234.052, 135.7322
2235.981, 136.2526
2237.909, 137.6869
2239.838, 139.1489
2241.766, 139.9947
2243.695, 141.1782
2245.623, 143.6060
2247.552, 146.2468
2249.480, 148.2036
2251.408, 149.6882
2253.337, 150.8664
2255.265, 151.8770
2257.194, 153.0709
2259.122, 154.5043
2261.051, 157.0915
2262.979, 160.9642
2264.908, 162.6509
2266.836, 161.0208
2268.765, 160.2789
2270.693, 161.8695
2272.622, 163.2095
2274.550, 163.2714
2276.479, 163.8051
2278.407, 165.7320
2280.335, 167.9942
2282.264, 170.1373
2284.192, 172.1416
2286.121, 174.0200
2288.049, 175.6978
2289.978, 176.7376
2291.906, 177.5813
2293.835, 179.9525
2295.763, 183.5077
2297.692, 184.5279
2299.620, 182.4773
2301.549, 181.2140
2303.477, 181.1961
2305.406, 180.9816
2307.334, 180.9922
2309.262, 179.7607
2311.191, 176.3362
2313.119, 173.1574
2315.048, 170.4972
2316.976, 169.0929
2318.905, 170.1909
2320.833, 171.6476
2322.762, 172.2104
2324.690, 172.1155
2326.619, 171.2103
2328.547, 170.0574
2330.476, 169.7236
2332.404, 169.9359
2334.333, 169.8184
2336.261, 169.4169
2338.189, 169.1890
2340.118, 169.1321
2342.046, 168.4478
2343.975, 166.9345
2345.903, 166.3711
2347.832, 167.3910
2349.760, 168.2375
2351.689, 168.2436
2353.617, 168.7146
2355.546, 170.6004
2357.474, 171.9085
2359.403, 171.2896
2361.331, 170.9016
2363.260, 171.9666
2365.188, 173.3461
2367.116, 174.4136
2369.045, 175.2309
2370.973, 175.7235
2372.902, 176.1071
2374.830, 176.8603
2376.759, 177.7171
2378.687, 177.8141
2380.616, 177.3067
2382.544, 177.3269
2384.473, 177.8526
2386.401, 178.5826
2388.330, 179.5061
2390.258, 181.0354
2392.187, 183.5239
2394.115, 184.6863
2396.043, 183.4454
2397.972, 182.7366
2399.900, 183.1648
2401.829, 183.8113
2403.757, 184.3794
2405.686, 185.3308
2407.614, 186.9126
2409.543, 188.6707
2411.471, 190.7736
2413.400, 192.4646
2415.328, 192.7470
2417.257, 192.9607
2419.185, 194.4236
2421.114, 196.3515
2423.042, 197.9012
2424.970, 199.2136
2426.899, 200.8167
2428.827, 202.2721
2430.756, 201.8450
2432.684, 200.2738
2434.613, 200.2856
2436.541, 201.7442
2438.470, 203.3058
2440.398, 204.9742
2442.327, 205.8848
2444.255, 205.5451
2446.184, 206.3205
2448.112, 208.6956
2450.041, 210.2762
2451.969, 210.6008
2453.897, 211.2864
2455.826, 212.8565
2457.754, 214.1379
2459.683, 214.4041
2461.611, 215.0808
2463.540, 217.1864
2465.468, 218.8715
2467.397, 218.9214
2469.325, 219.1503
2471.254, 220.3326
2473.182, 221.9953
2475.111, 224.5400
2477.039, 226.6316
2478.968, 226.7615
2480.896, 226.3791
2482.824, 226.7568
2484.753, 227.7255
2486.681, 229.2585
2488.610, 231.1175
2490.538, 232.9019
2492.467, 234.6648
2494.395, 236.5753
2496.324, 238.5358
2498.252, 240.3565
2500.181, 241.9865
2502.109, 243.2194
2504.038, 244.0661
2505.966, 244.3760
2507.895, 244.0330
2509.823, 245.0302
2511.751, 247.4531
2513.680, 249.2930
2515.608, 250.3390
2517.537, 251.2846
2519.465, 252.0161
2521.394, 253.2312
2523.322, 255.6046
2525.251, 257.2779
2527.179, 257.7033
2529.108, 258.8723
2531.036, 261.7527
2532.965, 263.4324
2534.893, 262.2814
2536.822, 262.0846
2538.750, 264.9980
2540.678, 267.6176
2542.607, 268.4344
2544.535, 269.3285
2546.464, 270.7453
2548.392, 272.7404
2550.321, 275.8371
2552.249, 278.7025
2554.178, 280.4668
2556.106, 281.8494
2558.035, 282.9694
2559.963, 284.3252
2561.892, 286.6689
2563.820, 289.0634
2565.749, 290.6815
2567.677, 291.9800
2569.605, 293.1474
2571.534, 294.5255
2573.462, 296.5572
2575.391, 298.9154
2577.319, 301.2288
2579.248, 303.4016
2581.176, 305.4710
2583.105, 307.1654
2585.033, 307.8878
2586.962, 307.9681
2588.890, 307.5747
2590.819, 307.4414
2592.747, 309.6927
2594.676, 313.6545
2596.604, 316.9549
2598.532, 319.6334
2600.461, 321.7940
2602.389, 323.4998
2604.318, 325.3937
2606.246, 327.4073
2608.175, 329.4782
2610.103, 331.5576
2612.032, 332.6256
2613.960, 332.6769
2615.889, 334.3907
2617.817, 337.8080
2619.746, 340.9912
2621.674, 343.8890
2623.603, 346.4786
2625.531, 348.7677
2627.459, 350.1686
2629.388, 350.2946
2631.316, 351.4977
2633.245, 353.8635
2635.173, 357.3029
2637.102, 362.0656
2639.030, 364.3392
2640.959, 363.3102
2642.887, 363.5280
2644.816, 365.4895
2646.744, 368.8227
2648.673, 374.3353
2650.601, 378.3041
2652.530, 380.2446
2654.458, 382.3793
2656.386, 384.9773
2658.315, 387.7762
2660.243, 391.0110
2662.172, 393.6088
2664.100, 395.2850
2666.029, 396.6942
2667.957, 397.5846
2669.886, 399.5562
2671.814, 403.0869
2673.743, 406.8097
2675.671, 410.9957
2677.600, 414.0806
2679.528, 414.3924
2681.457, 416.8406
2683.385, 422.6961
2685.313, 427.3393
2687.242, 430.0268
2689.170, 431.2956
2691.099, 429.8682
2693.027, 430.3864
2694.956, 435.0173
2696.884, 438.7772
2698.813, 440.7285
2700.741, 443.9196
2702.670, 449.5202
2704.598, 453.7333
2706.527, 454.7628
2708.455, 456.4833
2710.384, 459.7647
2712.312, 463.2691
2714.240, 467.2502
2716.169, 470.1751
2718.097, 471.3056
2720.026, 473.2248
2721.954, 476.7469
2723.883, 480.3987
2725.811, 484.0905
2727.740, 487.7034
2729.668, 491.4619
2731.597, 494.1224
2733.525, 494.9785
2735.454, 497.2691
2737.382, 502.7730
2739.311, 506.9282
2741.239, 508.2782
2743.167, 511.8766
2745.096, 518.9721
2747.024, 522.6880
2748.953, 520.5441
2750.881, 522.6906
2752.810, 534.0826
2754.738, 540.9317
2756.667, 541.7701
2758.595, 543.1528
2760.524, 545.5028
2762.452, 548.5110
2764.381, 552.2320
2766.309, 555.8530
2768.238, 559.0427
2770.166, 562.9670
2772.094, 567.6965
2774.023, 572.6677
2775.951, 577.9044
2777.880, 581.0412
2779.808, 581.5779
2781.737, 584.0104
2783.665, 588.5416
2785.594, 594.1651
2787.522, 600.8270
2789.451, 607.4676
2791.379, 613.8660
2793.308, 617.7869
2795.236, 619.3987
2797.165, 623.1237
2799.093, 628.7645
2801.021, 633.4793
2802.950, 637.3753
2804.878, 640.3135
2806.807, 642.8430
2808.735, 647.8793
2810.664, 654.2094
2812.592, 655.8298
2814.521, 655.2106
2816.449, 661.8224
2818.378, 671.4948
2820.306, 674.1072
2822.235, 673.7787
2824.163, 678.9486
2826.092, 686.7961
2828.020, 692.6367
2829.948, 697.5524
2831.877, 702.9641
2833.805, 708.5121
2835.734, 714.1745
2837.662, 719.3018
2839.591, 722.5201
2841.519, 725.5237
2843.448, 729.9216
2845.376, 734.6342
2847.305, 738.6689
2849.233, 742.9484
2851.162, 747.6475
2853.090, 753.6356
2855.019, 763.1545
2856.947, 771.3448
2858.875, 775.0930
2860.804, 778.2235
2862.732, 780.8043
2864.661, 785.5644
2866.589, 794.4441
2868.518, 803.2172
2870.446, 811.4584
2872.375, 817.6116
2874.303, 820.0225
2876.232, 822.7937
2878.160, 826.8336
2880.089, 830.5126
2882.017, 833.4010
2883.946, 838.7813
2885.874, 847.6638
2887.802, 856.2726
2889.731, 864.5253
2891.659, 871.0010
2893.588, 875.5620
2895.516, 880.9052
2897.445, 887.0402
2899.373, 893.0457
2901.302, 898.9602
2903.230, 904.7499
2905.159, 910.8050
2907.087, 920.1664
2909.016, 930.7490
2910.944, 936.4784
2912.873, 939.4109
2914.801, 942.7444
2916.729, 947.3021
2918.658, 955.6077
2920.586, 964.9092
2922.515, 972.7433
2924.443, 979.3028
2926.372, 983.5638
2928.300, 988.3361
2930.229, 997.2673
2932.157, 1005.555
2934.086, 1008.690
2936.014, 1013.500
2937.943, 1025.025
2939.871, 1035.742
2941.800, 1042.902
2943.728, 1049.122
2945.656, 1053.903
2947.585, 1061.101
2949.513, 1075.342
2951.442, 1083.622
2953.370, 1083.267
2955.299, 1087.131
2957.227, 1096.329
2959.156, 1106.736
2961.084, 1118.184
2963.013, 1127.183
2964.941, 1133.733
2966.870, 1141.173
2968.798, 1148.911
2970.727, 1153.684
2972.655, 1157.497
2974.583, 1166.499
2976.512, 1177.853
2978.440, 1186.311
2980.369, 1193.408
2982.297, 1200.193
2984.226, 1207.467
2986.154, 1216.035
2988.083, 1225.240
2990.011, 1234.846
2991.940, 1244.455
2993.868, 1253.741
2995.797, 1263.148
2997.725, 1272.142
2999.654, 1283.092
3001.582, 1298.242
3003.510, 1309.018
3005.439, 1312.942
3007.367, 1317.289
3009.296, 1322.512
3011.224, 1330.082
3013.153, 1339.948
3015.081, 1352.772
3017.010, 1367.538
3018.938, 1376.736
3020.867, 1381.770
3022.795, 1388.340
3024.724, 1396.298
3026.652, 1405.553
3028.581, 1416.075
3030.509, 1428.306
3032.438, 1441.319
3034.366, 1454.557
3036.294, 1467.395
3038.223, 1477.828
3040.151, 1489.997
3042.080, 1508.144
3044.008, 1524.133
3045.937, 1535.765
3047.865, 1544.703
3049.794, 1550.249
3051.722, 1557.878
3053.651, 1569.767
3055.579, 1580.005
3057.508, 1588.705
3059.436, 1598.210
3061.365, 1608.646
3063.293, 1618.744
3065.221, 1629.611
3067.150, 1646.682
3069.078, 1666.226
3071.007, 1681.885
3072.935, 1695.078
3074.864, 1707.665
3076.792, 1718.256
3078.721, 1723.245
3080.649, 1730.000
3082.578, 1743.021
3084.506, 1757.107
3086.435, 1771.473
3088.363, 1784.691
3090.292, 1795.929
3092.220, 1809.348
3094.148, 1825.664
3096.077, 1842.193
3098.005, 1858.825
3099.934, 1870.266
3101.862, 1877.826
3103.791, 1886.866
3105.719, 1897.733
3107.648, 1911.414
3109.576, 1926.895
3111.505, 1944.052
3113.433, 1960.258
3115.362, 1972.492
3117.290, 1984.024
3119.219, 1997.245
3121.147, 2008.990
3123.075, 2016.932
3125.004, 2028.700
3126.932, 2048.268
3128.861, 2066.862
3130.789, 2083.995
3132.718, 2100.061
3134.646, 2114.991
3136.575, 2128.651
3138.503, 2141.767
3140.432, 2157.257
3142.360, 2173.993
3144.289, 2190.184
3146.217, 2206.200
3148.146, 2222.366
3150.074, 2238.462
3152.002, 2253.514
3153.931, 2269.412
3155.859, 2285.454
3157.788, 2305.257
3159.716, 2332.820
3161.645, 2355.016
3163.573, 2371.128
3165.502, 2384.481
3167.430, 2395.839
3169.359, 2409.440
3171.287, 2425.941
3173.216, 2450.499
3175.144, 2476.690
3177.073, 2493.311
3179.001, 2508.146
3180.929, 2529.562
3182.858, 2550.219
3184.786, 2565.160
3186.715, 2580.696
3188.643, 2600.080
3190.572, 2617.751
3192.500, 2632.965
3194.429, 2651.122
3196.357, 2673.030
3198.286, 2689.829
3200.214, 2702.268
3202.143, 2710.702
3204.071, 2720.728
3206.000, 2744.883
3207.928, 2772.156
3209.856, 2789.680
3211.785, 2807.193
3213.713, 2831.623
3215.642, 2853.556
3217.570, 2866.045
3219.499, 2882.713
3221.427, 2905.629
3223.356, 2921.793
3225.284, 2930.285
3227.213, 2950.614
3229.141, 2979.469
3231.070, 3002.041
3232.998, 3020.653
3234.927, 3036.261
3236.855, 3053.723
3238.783, 3078.916
3240.712, 3105.231
3242.640, 3129.492
3244.569, 3153.539
3246.497, 3179.379
3248.426, 3198.765
3250.354, 3210.794
3252.283, 3232.188
3254.211, 3262.671
3256.140, 3290.945
3258.068, 3317.593
3259.997, 3342.371
3261.925, 3367.025
3263.854, 3391.109
3265.782, 3418.223
3267.710, 3452.385
3269.639, 3484.933
3271.567, 3512.678
3273.496, 3538.804
3275.424, 3562.444
3277.353, 3594.046
3279.281, 3632.865
3281.210, 3667.977
3283.138, 3702.683
3285.067, 3746.470
3286.995, 3794.272
3288.924, 3838.543
3290.852, 3885.732
3292.781, 3939.936
3294.709, 3997.254
3296.637, 4056.059
3298.566, 4119.396
3300.494, 4188.045
3302.423, 4264.563
3304.351, 4347.880
3306.280, 4424.716
3308.208, 4500.586
3310.137, 4587.247
3312.065, 4678.706
3313.994, 4768.175
3315.922, 4859.532
3317.851, 4955.980
3319.779, 5052.007
3321.708, 5147.533
3323.636, 5237.612
3325.564, 5321.716
3327.493, 5403.191
3329.421, 5482.921
3331.350, 5565.986
3333.278, 5647.695
3335.207, 5720.523
3337.135, 5791.759
3339.064, 5870.886
3340.992, 5942.757
3342.921, 6000.563
3344.849, 6061.999
3346.778, 6135.219
3348.706, 6184.294
3350.635, 6211.632
3352.563, 6235.783
3354.491, 6249.832
3356.420, 6233.817
3358.348, 6206.392
3360.277, 6188.993
3362.205, 6156.679
3364.134, 6090.330
3366.062, 6023.239
3367.991, 5959.032
3369.919, 5891.842
3371.848, 5822.299
3373.776, 5758.942
3375.705, 5701.799
3377.633, 5649.653
3379.562, 5604.366
3381.490, 5567.732
3383.418, 5539.183
3385.347, 5518.898
3387.275, 5501.383
3389.204, 5481.030
3391.132, 5478.930
3393.061, 5493.337
3394.989, 5514.764
3396.918, 5541.696
3398.846, 5567.462
3400.775, 5605.413
3402.703, 5667.435
3404.632, 5738.677
3406.560, 5811.248
3408.489, 5895.055
3410.417, 5990.641
3412.345, 6098.460
3414.274, 6220.006
3416.202, 6363.475
3418.131, 6528.268
3420.059, 6712.085
3421.988, 6913.309
3423.916, 7137.041
3425.845, 7367.978
3427.773, 7608.505
3429.702, 7818.281
3431.630, 7994.151
3433.559, 8098.065
3435.487, 8136.188
3437.416, 8130.197
3439.344, 8081.931
3441.272, 7978.610
3443.201, 7854.273
3445.129, 7712.282
3447.058, 7583.045
3448.986, 7471.686
3450.915, 7368.334
3452.843, 7273.394
3454.772, 7186.784
3456.700, 7111.996
3458.629, 7053.424
3460.557, 7014.192
3462.486, 7005.509
3464.414, 7000.217
3466.343, 6991.364
3468.271, 6988.619
3470.199, 6992.757
3472.128, 6999.577
3474.056, 7011.427
3475.985, 7040.347
3477.913, 7070.354
3479.842, 7087.075
3481.770, 7102.772
3483.699, 7118.482
3485.627, 7152.212
3487.556, 7209.333
3489.484, 7238.903
3491.413, 7254.380
3493.341, 7302.353
3495.270, 7350.242
3497.198, 7355.949
3499.126, 7363.556
3501.055, 7393.615
3502.983, 7415.250
3504.912, 7424.555
3506.840, 7434.439
3508.769, 7443.913
3510.697, 7443.356
3512.626, 7445.641
3514.554, 7471.193
3516.483, 7492.431
3518.411, 7496.492
3520.340, 7491.509
3522.268, 7478.522
3524.197, 7482.802
3526.125, 7497.459
3528.053, 7490.104
3529.982, 7483.219
3531.910, 7502.904
3533.839, 7523.187
3535.767, 7525.624
3537.696, 7547.417
3539.624, 7591.417
3541.553, 7627.919
3543.481, 7655.579
3545.410, 7667.045
3547.338, 7674.935
3549.267, 7689.040
3551.195, 7703.451
3553.124, 7712.640
3555.052, 7738.990
3556.980, 7785.101
3558.909, 7820.606
3560.837, 7848.926
3562.766, 7876.333
3564.694, 7902.966
3566.623, 7921.995
3568.551, 7955.265
3570.480, 8009.970
3572.408, 8057.653
3574.337, 8096.580
3576.265, 8132.687
3578.194, 8170.950
3580.122, 8226.526
3582.051, 8274.624
3583.979, 8297.421
3585.907, 8334.434
3587.836, 8397.697
3589.764, 8455.182
3591.693, 8508.219
3593.621, 8561.833
3595.550, 8615.665
3597.478, 8669.005
3599.407, 8724.898
3601.335, 8781.870
3603.264, 8853.369
3605.192, 8939.011
3607.121, 9029.224
3609.049, 9126.626
3610.978, 9248.183
3612.906, 9362.472
3614.834, 9448.761
3616.763, 9537.774
3618.691, 9636.297
3620.620, 9733.799
3622.548, 9846.171
3624.477, 10010.83
3626.405, 10229.25
3628.334, 10522.58
3630.262, 10815.89
3632.191, 11118.59
3634.119, 11322.44
3636.048, 11419.20
3637.976, 11374.22
3639.905, 11223.14
3641.833, 10962.23
3643.761, 10698.41
3645.690, 10469.06
3647.618, 10282.14
3649.547, 10136.10
3651.475, 10020.63
3653.404, 9918.204
3655.332, 9784.290
3657.261, 9655.178
3659.189, 9546.283
3661.118, 9471.918
3663.046, 9433.862
3664.975, 9400.603
3666.903, 9375.351
3668.832, 9384.444
3670.760, 9400.365
3672.688, 9395.259
3674.617, 9395.081
3676.545, 9405.768
3678.474, 9429.103
3680.402, 9461.470
3682.331, 9487.723
3684.259, 9504.338
3686.188, 9493.340
3688.116, 9502.276
3690.045, 9564.056
3691.973, 9591.294
3693.902, 9584.767
3695.830, 9592.579
3697.759, 9610.012
3699.687, 9634.989
3701.615, 9656.444
3703.544, 9669.172
3705.472, 9674.170
3707.401, 9674.129
3709.329, 9694.107
3711.258, 9723.591
3713.186, 9749.223
3715.115, 9770.351
3717.043, 9778.844
3718.972, 9803.218
3720.900, 9842.659
3722.829, 9877.075
3724.757, 9902.404
3726.686, 9904.521
3728.614, 9911.043
3730.542, 9947.059
3732.471, 9956.979
3734.399, 9944.219
3736.328, 9979.486
3738.256, 10033.17
3740.185, 10058.11
3742.113, 10076.55
3744.042, 10098.44
3745.970, 10116.46
3747.899, 10131.50
3749.827, 10147.43
3751.756, 10165.73
3753.684, 10185.14
3755.613, 10212.03
3757.541, 10250.80
3759.469, 10292.87
3761.398, 10333.81
3763.326, 10358.24
3765.255, 10367.49
3767.183, 10350.70
3769.112, 10349.92
3771.040, 10395.37
3772.969, 10423.59
3774.897, 10438.93
3776.826, 10462.44
3778.754, 10489.06
3780.683, 10513.06
3782.611, 10540.33
3784.540, 10580.03
3786.468, 10589.35
3788.396, 10581.08
3790.325, 10586.95
3792.253, 10607.02
3794.182, 10645.84
3796.110, 10678.07
3798.039, 10695.88
3799.967, 10721.76
3801.896, 10750.71
3803.824, 10780.58
3805.753, 10795.03
3807.681, 10779.44
3809.610, 10791.60
3811.538, 10836.70
3813.467, 10847.19
3815.395, 10853.18
3817.323, 10901.50
3819.252, 10944.57
3821.180, 10965.55
3823.109, 10991.69
3825.037, 11021.06
3826.966, 11033.49
3828.894, 11039.60
3830.823, 11041.48
3832.751, 11056.01
3834.680, 11087.28
3836.608, 11121.06
3838.537, 11152.14
3840.465, 11166.46
3842.394, 11181.76
3844.322, 11211.04
3846.250, 11228.80
3848.179, 11235.32
3850.107, 11263.14
3852.036, 11294.14
3853.964, 11301.44
3855.893, 11319.48
3857.821, 11358.17
3859.750, 11382.21
3861.678, 11394.37
3863.607, 11403.81
3865.535, 11416.07
3867.464, 11436.66
3869.392, 11456.07
3871.321, 11474.43
3873.249, 11506.75
3875.177, 11543.73
3877.106, 11569.95
3879.034, 11594.23
3880.963, 11617.43
3882.891, 11651.65
3884.820, 11685.73
3886.748, 11686.62
3888.677, 11688.85
3890.605, 11712.77
3892.534, 11731.29
3894.462, 11743.82
3896.391, 11774.66
3898.319, 11809.16
3900.248, 11831.68
3902.176, 11849.69
3904.104, 11859.63
3906.033, 11892.78
3907.961, 11935.59
3909.890, 11952.12
3911.818, 11968.37
3913.747, 11992.85
3915.675, 12013.05
3917.604, 12030.90
3919.532, 12043.82
3921.461, 12055.41
3923.389, 12063.73
3925.318, 12090.19
3927.246, 12130.25
3929.175, 12158.24
3931.103, 12178.83
3933.031, 12190.32
3934.960, 12205.32
3936.888, 12232.59
3938.817, 12256.27
3940.745, 12277.75
3942.674, 12303.51
3944.602, 12321.56
3946.531, 12326.50
3948.459, 12338.68
3950.388, 12360.24
3952.316, 12381.83
3954.245, 12402.53
3956.173, 12417.92
3958.102, 12436.74
3960.030, 12461.52
3961.958, 12473.97
3963.887, 12482.76
3965.815, 12501.64
3967.744, 12532.79
3969.672, 12571.30
3971.601, 12596.98
3973.529, 12608.13
3975.458, 12605.45
3977.386, 12611.48
3979.315, 12631.26
3981.243, 12651.75
3983.172, 12679.40
3985.100, 12723.46
3987.029, 12763.29
3988.957, 12772.58
3990.885, 12778.64
3992.814, 12797.54
3994.742, 12831.38
3996.671, 12856.12
3998.599, 12864.19
4000.528, 12877.46
4002.456, 12900.58
4004.385, 12943.01
4006.313, 12972.79
4008.242, 12973.19
4010.170, 12991.87
4012.099, 13021.84
4014.027, 13049.63
4015.956, 13073.76
4017.884, 13088.18
4019.813, 13097.08
4021.741, 13101.20
4023.669, 13139.80
4025.598, 13187.08
4027.526, 13196.65
4029.455, 13206.81
4031.383, 13221.50
4033.312, 13237.32
4035.240, 13263.54
4037.169, 13301.09
4039.097, 13322.40
4041.026, 13329.22
4042.954, 13349.69
4044.883, 13375.56
4046.811, 13398.71
4048.740, 13418.23
4050.668, 13441.29
4052.596, 13454.96
4054.525, 13454.74
4056.453, 13458.25
4058.382, 13471.47
4060.310, 13488.58
4062.239, 13503.90
4064.167, 13521.93
4066.096, 13531.58
4068.024, 13543.10
4069.953, 13568.13
4071.881, 13588.15
4073.810, 13602.21
4075.738, 13619.28
4077.667, 13628.83
4079.595, 13620.86
4081.523, 13630.85
4083.452, 13654.61
4085.380, 13667.07
4087.309, 13671.96
4089.237, 13666.57
4091.166, 13679.39
4093.094, 13706.03
4095.023, 13710.66
4096.951, 13714.63
4098.880, 13732.34
4100.808, 13747.19
4102.737, 13758.66
4104.665, 13771.50
4106.594, 13783.72
4108.522, 13792.56
4110.451, 13795.65
4112.379, 13796.96
4114.308, 13802.92
4116.236, 13806.98
4118.165, 13803.91
4120.093, 13813.68
4122.021, 13831.57
4123.950, 13853.47
4125.878, 13867.69
4127.807, 13860.66
4129.735, 13860.75
4131.664, 13865.86
4133.592, 13879.58
4135.521, 13898.15
4137.449, 13912.27
4139.377, 13921.50
4141.306, 13931.38
4143.234, 13936.39
4145.163, 13935.87
4147.091, 13930.01
4149.020, 13926.54
4150.948, 13928.17
4152.877, 13937.78
4154.805, 13953.74
4156.734, 13968.35
4158.662, 13971.89
4160.591, 13973.30
4162.519, 13993.86
4164.448, 14010.05
4166.376, 14000.65
4168.305, 14002.24
4170.233, 14011.23
4172.162, 14028.18
4174.090, 14050.87
4176.019, 14067.06
4177.947, 14072.96
4179.875, 14068.07
4181.804, 14067.92
4183.732, 14063.57
4185.661, 14044.00
4187.589, 14042.48
4189.518, 14061.90
4191.446, 14077.64
4193.375, 14087.21
4195.303, 14080.64
4197.231, 14084.26
4199.160, 14096.92
4201.088, 14072.95
4203.017, 14058.06
4204.945, 14082.51
4206.874, 14106.00
4208.802, 14121.79
4210.731, 14091.34
4212.659, 14080.39
4214.588, 14143.44
4216.516, 14155.36
4218.445, 14129.79
4220.373, 14123.14
4222.302, 14122.66
4224.230, 14117.43
4226.159, 14105.43
4228.087, 14094.44
4230.016, 14093.35
4231.944, 14093.16
4233.873, 14091.70
4235.801, 14100.38
4237.729, 14109.10
4239.658, 14103.93
4241.586, 14089.14
4243.515, 14067.35
4245.443, 14060.14
4247.372, 14056.05
4249.300, 14042.84
4251.229, 14022.41
4253.157, 13999.10
4255.085, 14016.47
4257.014, 14037.61
4258.942, 14030.00
4260.871, 14033.42
4262.799, 14040.25
4264.728, 13997.43
4266.656, 13965.33
4268.585, 13982.64
4270.513, 13980.68
4272.442, 13965.95
4274.370, 13959.06
4276.299, 13953.41
4278.227, 13945.89
4280.156, 13925.64
4282.084, 13903.10
4284.013, 13901.70
4285.941, 13880.20
4287.870, 13835.83
4289.798, 13809.99
4291.727, 13793.17
4293.655, 13781.12
4295.583, 13762.08
4297.512, 13736.67
4299.440, 13703.07
4301.369, 13685.82
4303.297, 13704.81
4305.226, 13701.68
4307.154, 13680.17
4309.083, 13645.44
4311.011, 13619.28
4312.939, 13608.70
4314.868, 13585.87
4316.796, 13563.53
4318.725, 13558.44
4320.653, 13551.67
4322.582, 13540.54
4324.510, 13522.61
4326.439, 13502.25
4328.367, 13480.15
4330.296, 13461.39
4332.224, 13443.72
4334.153, 13420.68
4336.081, 13402.08
4338.010, 13392.34
4339.938, 13368.62
4341.867, 13352.06
4343.795, 13377.38
4345.724, 13375.94
4347.652, 13345.22
4349.581, 13314.12
4351.509, 13288.65
4353.438, 13273.30
4355.366, 13257.72
4357.294, 13245.88
4359.223, 13247.06
4361.151, 13252.65
4363.080, 13258.92
4365.008, 13233.13
4366.937, 13197.07
4368.865, 13167.23
4370.793, 13144.69
4372.722, 13128.18
4374.650, 13106.69
4376.579, 13100.75
4378.507, 13114.42
4380.436, 13094.10
4382.364, 13064.62
4384.293, 13060.61
4386.221, 13053.37
4388.150, 13039.68
4390.078, 13022.82
4392.007, 13001.15
4393.935, 12973.86
4395.864, 12941.58
4397.792, 12917.40
4399.721, 12931.00
4401.649, 12932.26
4403.578, 12913.55
4405.506, 12891.81
4407.435, 12885.58
4409.363, 12912.41
4411.292, 12936.67
4413.220, 12950.24
4415.148, 12936.90
4417.077, 12919.08
4419.005, 12903.36
4420.934, 12908.59
4422.862, 12919.06
4424.791, 12927.02
4426.719, 12911.39
4428.647, 12889.12
4430.576, 12902.86
4432.504, 12915.71
4434.433, 12918.75
4436.361, 12920.24
4438.290, 12915.50
4440.218, 12900.74
4442.147, 12882.52
4444.075, 12870.63
4446.004, 12887.53
4447.932, 12901.85
4449.861, 12904.97
4451.789, 12926.33
4453.718, 12937.49
4455.646, 12912.50
4457.575, 12896.83
4459.503, 12891.81
4461.432, 12900.40
4463.360, 12900.03
4465.289, 12887.38
4467.217, 12873.09
4469.146, 12855.79
4471.074, 12834.01
4473.002, 12815.34
4474.931, 12795.29
4476.859, 12757.21
4478.788, 12747.17
4480.716, 12762.14
4482.645, 12735.42
4484.573, 12698.40
4486.501, 12666.68
4488.430, 12642.19
4490.358, 12615.72
4492.287, 12573.24
4494.215, 12534.04
4496.144, 12497.75
4498.072, 12449.51
4500.001, 12406.06
4501.929, 12372.73
4503.858, 12343.59
4505.786, 12317.47
4507.715, 12296.97
4509.643, 12256.83
4511.572, 12206.13
4513.500, 12164.64
4515.429, 12131.93
4517.357, 12106.93
4519.286, 12080.98
4521.214, 12052.12
4523.143, 12019.27
4525.071, 11979.11
4527.000, 11940.89
4528.928, 11919.84
4530.856, 11885.18
4532.785, 11838.49
4534.713, 11794.83
4536.642, 11749.33
4538.570, 11701.32
4540.499, 11668.90
4542.427, 11638.94
4544.355, 11601.74
4546.284, 11559.60
4548.212, 11520.34
4550.141, 11498.95
4552.069, 11472.30
4553.998, 11435.49
4555.926, 11371.85
4557.855, 11331.29
4559.783, 11326.89
4561.712, 11316.55
4563.640, 11284.74
4565.569, 11202.57
4567.497, 11165.72
4569.426, 11149.36
4571.354, 11105.76
4573.283, 11081.19
4575.211, 11075.35
4577.140, 11067.35
4579.068, 11037.20
4580.997, 10982.55
4582.925, 10940.76
4584.854, 10909.89
4586.782, 10894.50
4588.710, 10858.51
4590.639, 10818.07
4592.567, 10797.76
4594.496, 10773.38
4596.424, 10745.27
4598.353, 10719.47
4600.281, 10706.53
4602.209, 10702.58
4604.138, 10674.43
4606.066, 10639.51
4607.995, 10608.43
4609.923, 10567.76
4611.852, 10532.47
4613.780, 10522.52
4615.709, 10491.93
4617.637, 10461.15
4619.566, 10480.77
4621.494, 10482.01
4623.423, 10458.63
4625.351, 10431.40
4627.280, 10392.32
4629.208, 10340.29
4631.137, 10320.77
4633.065, 10310.08
4634.994, 10296.13
4636.922, 10279.31
4638.851, 10257.00
4640.779, 10225.17
4642.708, 10193.79
4644.636, 10165.23
4646.564, 10143.81
4648.493, 10115.00
4650.421, 10082.79
4652.350, 10072.64
4654.278, 10067.52
4656.207, 10060.69
4658.135, 10036.47
4660.063, 10005.85
4661.992, 9974.441
4663.920, 9947.067
4665.849, 9928.858
4667.777, 9932.974
4669.706, 9901.030
4671.634, 9857.524
4673.563, 9836.479
4675.491, 9817.806
4677.420, 9797.750
4679.348, 9773.173
4681.277, 9744.696
4683.205, 9716.549
4685.134, 9713.567
4687.062, 9703.739
4688.991, 9678.355
4690.919, 9663.435
4692.848, 9636.022
4694.776, 9588.051
4696.705, 9559.441
4698.633, 9536.610
4700.562, 9506.067
4702.490, 9485.752
4704.418, 9467.792
4706.347, 9442.755
4708.275, 9421.979
4710.204, 9399.973
4712.132, 9363.053
4714.061, 9330.004
4715.989, 9302.686
4717.917, 9282.497
4719.846, 9257.011
4721.774, 9225.249
4723.703, 9188.402
4725.631, 9164.484
4727.560, 9154.363
4729.488, 9114.432
4731.417, 9080.006
4733.345, 9067.964
4735.274, 9062.170
4737.202, 9049.579
4739.131, 9023.062
4741.059, 8993.044
4742.988, 8960.886
4744.916, 8923.699
4746.845, 8895.754
4748.773, 8869.135
4750.702, 8833.177
4752.630, 8818.716
4754.559, 8808.351
4756.487, 8766.329
4758.416, 8729.255
4760.344, 8700.298
4762.272, 8676.598
4764.201, 8661.598
4766.129, 8650.749
4768.058, 8631.227
4769.986, 8601.221
4771.915, 8563.210
4773.843, 8523.244
4775.771, 8501.836
4777.700, 8498.624
4779.628, 8460.673
4781.557, 8422.126
4783.485, 8395.923
4785.414, 8385.724
4787.342, 8371.427
4789.271, 8343.445
4791.199, 8294.943
4793.128, 8256.827
4795.056, 8244.720
4796.985, 8219.855
4798.913, 8191.436
4800.842, 8167.605
4802.770, 8145.854
4804.699, 8115.307
4806.627, 8064.588
4808.556, 8048.958
4810.484, 8036.415
4812.413, 7987.416
4814.341, 7946.550
4816.270, 7919.788
4818.198, 7916.097
4820.126, 7887.231
4822.055, 7849.393
4823.983, 7834.500
4825.912, 7798.692
4827.840, 7758.222
4829.769, 7741.621
4831.697, 7722.793
4833.625, 7701.350
4835.554, 7677.714
4837.482, 7673.545
4839.411, 7671.036
4841.339, 7633.515
4843.268, 7588.669
4845.196, 7545.439
4847.125, 7508.352
4849.053, 7491.184
4850.982, 7485.731
4852.910, 7468.866
4854.839, 7457.818
4856.767, 7447.715
4858.696, 7423.651
4860.624, 7386.359
4862.553, 7343.380
4864.481, 7310.601
4866.410, 7296.129
4868.338, 7286.211
4870.267, 7234.972
4872.195, 7209.704
4874.124, 7206.419
4876.052, 7185.573
4877.980, 7158.482
4879.909, 7131.325
4881.837, 7116.388
4883.766, 7101.439
4885.694, 7080.264
4887.623, 7033.917
4889.551, 7010.080
4891.479, 7003.613
4893.408, 6982.992
4895.336, 6953.033
4897.265, 6922.814
4899.193, 6919.595
4901.122, 6893.564
4903.050, 6852.450
4904.979, 6831.628
4906.907, 6806.097
4908.836, 6777.697
4910.764, 6760.461
4912.693, 6729.973
4914.621, 6698.758
4916.550, 6699.911
4918.478, 6688.648
4920.407, 6663.076
4922.335, 6622.740
4924.264, 6609.089
4926.192, 6603.062
4928.121, 6568.624
4930.049, 6555.455
4931.978, 6545.990
4933.906, 6500.513
4935.834, 6481.236
4937.763, 6469.414
4939.691, 6438.455
4941.620, 6415.369
4943.548, 6397.215
4945.477, 6379.533
4947.405, 6362.399
4949.333, 6343.036
4951.262, 6319.228
4953.190, 6294.466
4955.119, 6272.309
4957.047, 6255.124
4958.976, 6223.130
4960.904, 6193.366
4962.833, 6177.221
4964.761, 6160.736
4966.690, 6144.675
4968.618, 6129.073
4970.547, 6113.400
4972.475, 6098.211
4974.404, 6083.168
4976.332, 6051.834
4978.261, 6021.460
4980.189, 5998.031
4982.118, 5987.045
4984.046, 5963.994
4985.975, 5930.851
4987.903, 5921.429
4989.832, 5910.144
4991.760, 5889.704
4993.688, 5852.213
4995.617, 5818.140
4997.545, 5794.625
4999.474, 5796.337
5001.402, 5768.878
5003.331, 5735.311
5005.259, 5735.521
5007.188, 5712.477
5009.116, 5680.516
5011.044, 5658.683
5012.973, 5634.057
5014.901, 5614.000
5016.830, 5605.244
5018.758, 5594.434
5020.687, 5574.119
5022.615, 5542.767
5024.544, 5524.592
5026.472, 5512.204
5028.401, 5500.555
5030.329, 5472.018
5032.258, 5449.615
5034.186, 5435.475
5036.115, 5416.019
5038.043, 5385.857
5039.972, 5353.734
5041.900, 5341.476
5043.829, 5334.268
5045.757, 5321.583
5047.686, 5290.136
5049.614, 5265.080
5051.542, 5243.471
5053.471, 5219.313
5055.399, 5207.539
5057.328, 5192.547
5059.256, 5164.938
5061.185, 5151.681
5063.113, 5131.587
5065.042, 5099.484
5066.970, 5075.807
5068.898, 5056.283
5070.827, 5038.854
5072.755, 5022.588
5074.684, 5002.284
5076.612, 4981.200
5078.541, 4968.626
5080.469, 4950.901
5082.398, 4928.503
5084.326, 4901.816
5086.255, 4879.915
5088.183, 4867.560
5090.112, 4866.683
5092.040, 4837.431
5093.969, 4817.742
5095.897, 4819.323
5097.826, 4788.978
5099.754, 4765.165
5101.683, 4753.925
5103.611, 4738.377
5105.540, 4718.475
5107.468, 4697.971
5109.396, 4682.351
5111.325, 4671.460
5113.253, 4661.698
5115.182, 4650.866
5117.110, 4628.836
5119.039, 4612.897
5120.967, 4609.562
5122.896, 4590.736
5124.824, 4566.911
5126.752, 4545.542
5128.681, 4545.750
5130.609, 4531.372
5132.538, 4506.998
5134.466, 4494.007
5136.395, 4476.156
5138.323, 4455.472
5140.252, 4436.057
5142.180, 4416.986
5144.109, 4400.712
5146.037, 4388.356
5147.966, 4366.486
5149.894, 4339.740
5151.823, 4313.490
5153.751, 4298.931
5155.680, 4294.159
5157.608, 4292.582
5159.537, 4289.381
5161.465, 4258.632
5163.394, 4229.677
5165.322, 4225.046
5167.250, 4214.284
5169.179, 4197.181
5171.107, 4175.850
5173.036, 4158.474
5174.964, 4140.797
5176.893, 4122.427
5178.821, 4103.315
5180.750, 4087.430
5182.678, 4088.508
5184.606, 4121.808
5186.535, 4084.197
5188.463, 4038.318
5190.392, 4017.796
5192.320, 4008.398
5194.249, 4002.935
5196.177, 3992.577
5198.106, 3958.551
5200.034, 3930.625
5201.963, 3911.997
5203.891, 3904.204
5205.820, 3886.894
5207.748, 3872.708
5209.677, 3866.734
5211.605, 3855.589
5213.534, 3836.419
5215.462, 3813.519
5217.391, 3797.649
5219.319, 3785.067
5221.248, 3772.051
5223.176, 3754.715
5225.104, 3740.587
5227.033, 3723.659
5228.961, 3704.313
5230.890, 3703.984
5232.818, 3690.654
5234.747, 3668.152
5236.675, 3655.706
5238.604, 3647.486
5240.532, 3636.336
5242.460, 3617.263
5244.389, 3600.187
5246.317, 3589.051
5248.246, 3581.657
5250.174, 3568.976
5252.103, 3540.392
5254.031, 3512.131
5255.960, 3510.490
5257.888, 3501.706
5259.817, 3491.401
5261.745, 3481.843
5263.674, 3458.246
5265.602, 3441.098
5267.531, 3432.033
5269.459, 3426.361
5271.388, 3410.323
5273.316, 3396.680
5275.245, 3396.498
5277.173, 3376.707
5279.102, 3358.719
5281.030, 3345.455
5282.958, 3320.948
5284.887, 3302.426
5286.815, 3291.946
5288.744, 3293.161
5290.672, 3275.854
5292.601, 3259.556
5294.529, 3249.079
5296.458, 3222.257
5298.386, 3217.023
5300.314, 3214.334
5302.243, 3177.070
5304.171, 3169.405
5306.100, 3163.714
5308.028, 3145.688
5309.957, 3132.000
5311.885, 3128.026
5313.814, 3124.644
5315.742, 3106.384
5317.671, 3081.645
5319.599, 3066.987
5321.528, 3068.437
5323.456, 3059.136
5325.385, 3037.181
5327.313, 3013.441
5329.242, 3008.101
5331.170, 2990.807
5333.099, 2976.500
5335.027, 2973.682
5336.956, 2970.865
5338.884, 2956.087
5340.813, 2937.793
5342.741, 2938.962
5344.669, 2923.676
5346.598, 2905.029
5348.526, 2891.683
5350.455, 2883.160
5352.383, 2878.507
5354.312, 2872.419
5356.240, 2856.902
5358.168, 2841.147
5360.097, 2828.379
5362.025, 2819.045
5363.954, 2808.101
5365.882, 2794.676
5367.811, 2780.336
5369.739, 2767.320
5371.668, 2760.612
5373.596, 2748.078
5375.525, 2729.021
5377.453, 2725.962
5379.382, 2710.689
5381.310, 2695.877
5383.239, 2701.233
5385.167, 2693.358
5387.096, 2676.338
5389.024, 2656.270
5390.953, 2644.414
5392.881, 2633.890
5394.810, 2624.505
5396.738, 2616.259
5398.667, 2597.753
5400.595, 2586.634
5402.523, 2580.410
5404.452, 2564.356
5406.380, 2557.988
5408.309, 2547.958
5410.237, 2529.972
5412.166, 2524.438
5414.094, 2516.593
5416.022, 2504.893
5417.951, 2490.076
5419.879, 2475.096
5421.808, 2473.885
5423.736, 2480.204
5425.665, 2460.379
5427.593, 2451.903
5429.522, 2445.020
5431.450, 2430.113
5433.379, 2408.035
5435.307, 2396.358
5437.236, 2392.198
5439.164, 2387.143
5441.093, 2373.560
5443.021, 2362.688
5444.950, 2356.976
5446.878, 2348.192
5448.807, 2336.984
5450.735, 2328.780
5452.664, 2325.596
5454.592, 2307.079
5456.521, 2299.091
5458.449, 2294.484
5460.377, 2270.519
5462.306, 2264.640
5464.234, 2264.081
5466.163, 2261.044
5468.091, 2249.752
5470.020, 2231.489
5471.948, 2218.563
5473.876, 2215.335
5475.805, 2189.708
5477.733, 2178.919
5479.662, 2177.642
5481.590, 2170.464
5483.519, 2160.466
5485.447, 2153.610
5487.376, 2147.698
5489.304, 2131.946
5491.233, 2122.737
5493.161, 2116.167
5495.090, 2108.888
5497.018, 2099.460
5498.947, 2090.566
5500.875, 2079.275
5502.804, 2063.655
5504.732, 2060.354
5506.661, 2055.353
5508.589, 2045.544
5510.518, 2031.223
5512.446, 2020.228
5514.375, 2010.600
5516.303, 2002.592
5518.231, 1998.881
5520.160, 1988.818
5522.088, 1981.085
5524.017, 1977.382
5525.945, 1962.672
5527.874, 1949.143
5529.802, 1946.389
5531.730, 1957.275
5533.659, 1931.940
5535.587, 1919.463
5537.516, 1917.076
5539.444, 1910.832
5541.373, 1909.273
5543.301, 1902.857
5545.230, 1891.112
5547.158, 1876.701
5549.087, 1874.094
5551.015, 1867.309
5552.944, 1854.940
5554.872, 1850.774
5556.801, 1838.531
5558.729, 1827.951
5560.658, 1822.645
5562.586, 1817.893
5564.515, 1805.974
5566.443, 1796.515
5568.372, 1793.435
5570.300, 1783.860
5572.229, 1776.733
5574.157, 1767.168
5576.085, 1752.056
5578.014, 1748.712
5579.942, 1745.087
5581.871, 1740.200
5583.799, 1735.476
5585.728, 1728.213
5587.656, 1718.716
5589.584, 1708.399
5591.513, 1698.722
5593.441, 1683.142
5595.370, 1681.178
5597.298, 1684.901
5599.227, 1676.664
5601.155, 1671.112
5603.084, 1659.124
5605.012, 1644.361
5606.941, 1639.562
5608.869, 1636.144
5610.798, 1626.946
5612.726, 1614.189
5614.655, 1606.830
5616.583, 1598.430
5618.512, 1595.807
5620.440, 1595.662
5622.369, 1585.396
5624.297, 1577.049
5626.226, 1572.363
5628.154, 1568.432
5630.083, 1556.379
5632.011, 1551.009
5633.939, 1542.670
5635.868, 1530.793
5637.796, 1527.148
5639.725, 1522.193
5641.653, 1512.176
5643.582, 1500.262
5645.510, 1498.421
5647.438, 1484.396
5649.367, 1471.603
5651.295, 1465.564
5653.224, 1460.957
5655.152, 1465.207
5657.081, 1464.951
5659.009, 1456.125
5660.938, 1443.474
5662.866, 1434.785
5664.795, 1436.152
5666.723, 1440.803
5668.652, 1425.299
5670.580, 1413.201
5672.509, 1403.393
5674.437, 1394.690
5676.366, 1386.947
5678.294, 1388.676
5680.223, 1383.484
5682.151, 1371.872
5684.080, 1365.771
5686.008, 1366.610
5687.937, 1359.176
5689.865, 1347.194
5691.793, 1346.310
5693.722, 1339.010
5695.650, 1332.935
5697.579, 1327.984
5699.507, 1319.693
5701.436, 1322.889
5703.364, 1319.616
5705.292, 1310.768
5707.221, 1302.912
5709.149, 1293.450
5711.078, 1290.712
5713.006, 1282.562
5714.935, 1264.572
5716.863, 1312.654
5718.792, 1294.437
5720.720, 1257.529
5722.649, 1250.527
5724.577, 1250.263
5726.506, 1244.479
5728.434, 1237.083
5730.363, 1231.141
5732.291, 1224.910
5734.220, 1220.716
5736.148, 1217.055
5738.077, 1212.328
5740.005, 1204.779
5741.934, 1199.814
5743.862, 1193.417
5745.791, 1187.526
5747.719, 1187.141
5749.647, 1175.331
5751.576, 1165.255
5753.504, 1160.307
5755.433, 1159.124
5757.361, 1155.072
5759.290, 1150.177
5761.218, 1144.705
5763.146, 1138.976
5765.075, 1139.126
5767.003, 1126.933
5768.932, 1117.316
5770.860, 1116.702
5772.789, 1113.645
5774.717, 1108.822
5776.646, 1108.697
5778.574, 1109.468
5780.503, 1100.307
5782.431, 1089.176
5784.360, 1082.646
5786.288, 1079.545
5788.217, 1076.376
5790.145, 1069.519
5792.074, 1070.084
5794.002, 1067.834
5795.931, 1056.987
5797.859, 1051.605
5799.788, 1051.998
5801.716, 1051.416
5803.645, 1044.961
5805.573, 1025.170
5807.501, 1025.504
5809.430, 1023.012
5811.358, 1017.236
5813.287, 1017.593
5815.215, 1014.092
5817.144, 1005.448
5819.072, 999.3829
5821.000, 999.4597
5822.929, 995.5464
5824.857, 985.8168
5826.786, 981.5844
5828.714, 982.4998
5830.643, 978.4080
5832.571, 981.4756
5834.500, 972.0099
5836.428, 959.5049
5838.357, 957.7705
5840.285, 959.7679
5842.214, 953.8515
5844.142, 945.0037
5846.071, 938.4151
5847.999, 938.6046
5849.928, 938.9698
5851.856, 934.6799
5853.785, 928.2292
5855.713, 924.8252
5857.642, 923.2874
5859.570, 921.2117
5861.499, 913.9037
5863.427, 902.3524
5865.355, 898.9839
5867.284, 901.0756
5869.212, 896.1998
5871.141, 889.1769
5873.069, 891.5502
5874.998, 887.5040
5876.926, 882.6591
5878.854, 879.3907
5880.783, 876.6351
5882.711, 868.0485
5884.640, 866.7572
5886.568, 865.4557
5888.497, 862.1358
5890.425, 858.5246
5892.354, 851.0463
5894.282, 852.0526
5896.211, 848.8646
5898.139, 838.1599
5900.068, 843.1989
5901.996, 832.7547
5903.925, 828.7246
5905.853, 828.8519
5907.782, 821.4852
5909.710, 818.2258
5911.639, 814.5750
5913.567, 811.3087
5915.496, 810.0676
5917.424, 813.3998
5919.353, 808.1432
5921.281, 806.6010
5923.209, 804.0549
5925.138, 794.7224
5927.066, 786.2537
5928.995, 786.7181
5930.923, 780.7636
5932.852, 771.6771
5934.780, 772.1703
5936.708, 774.3884
5938.637, 767.4941
5940.565, 763.6611
5942.494, 766.9268
5944.422, 766.1085
5946.351, 758.1424
5948.279, 751.9138
5950.208, 746.6725
5952.136, 741.1561
5954.065, 744.8640
5955.993, 735.1384
5957.922, 731.2379
5959.850, 734.6455
5961.779, 735.6356
5963.707, 726.3049
5965.636, 725.0965
5967.564, 723.7465
5969.493, 719.2150
5971.421, 717.3942
5973.350, 713.6193
5975.278, 711.9975
5977.207, 711.0966
5979.135, 708.9669
5981.063, 703.8974
5982.992, 704.4478
5984.920, 698.2677
5986.849, 691.8820
5988.777, 691.8964
5990.706, 685.9406
5992.634, 681.9746
5994.563, 678.3184
5996.491, 677.8046
5998.419, 682.3682
6000.348, 671.2419
6002.276, 669.3118
6004.205, 666.1437
6006.133, 661.3490
6008.062, 661.0280
6009.990, 652.4753
6011.919, 649.1198
6013.847, 649.1557
6015.776, 649.8663
6017.704, 649.6608
6019.633, 638.2459
6021.561, 639.3238
6023.490, 642.1114
6025.418, 636.9639
6027.347, 623.5468
6029.275, 626.0267
6031.204, 623.9266
6033.132, 620.5349
6035.061, 619.1525
6036.989, 617.5167
6038.917, 616.4283
6040.846, 611.7943
6042.774, 606.9422
6044.703, 605.0042
6046.631, 606.4063
6048.560, 607.6699
6050.488, 601.5989
6052.417, 595.1615
6054.345, 592.7897
6056.273, 592.6380
6058.202, 597.4753
6060.130, 593.9391
6062.059, 588.6411
6063.987, 585.8297
6065.916, 582.8048
6067.844, 578.3167
6069.773, 576.0053
6071.701, 573.8414
6073.630, 572.0334
6075.558, 573.0824
6077.487, 568.9828
6079.415, 563.6686
6081.344, 557.8737
6083.272, 554.4736
6085.201, 556.8725
6087.129, 556.4817
6089.058, 551.0439
6090.986, 548.8699
6092.915, 550.4229
6094.843, 550.3843
6096.771, 539.3248
6098.700, 538.3444
6100.628, 541.3096
6102.557, 539.6212
6104.485, 531.5191
6106.414, 537.6525
6108.342, 534.5201
6110.271, 524.1259
6112.199, 517.9655
6114.127, 520.9338
6116.056, 520.1843
6117.984, 519.4658
6119.913, 516.4305
6121.841, 514.1202
6123.770, 512.5497
6125.698, 505.5020
6127.627, 508.5989
6129.555, 506.0536
6131.484, 506.8040
6133.412, 509.1744
6135.341, 501.7640
6137.269, 494.7469
6139.198, 493.6273
6141.126, 492.5748
6143.055, 491.6778
6144.983, 492.3701
6146.912, 486.8229
6148.840, 483.1476
6150.769, 483.2552
6152.697, 483.5216
6154.625, 481.2413
6156.554, 476.7694
6158.482, 478.9024
6160.411, 475.4016
6162.339, 469.7615
6164.268, 466.7694
6166.196, 467.8863
6168.125, 467.2221
6170.053, 462.2418
6171.981, 462.5044
6173.910, 462.4829
6175.838, 456.9364
6177.767, 454.2151
6179.695, 458.2706
6181.624, 455.7537
6183.552, 450.9789
6185.481, 449.0013
6187.409, 450.0294
6189.338, 445.2885
6191.266, 442.7473
6193.195, 442.7107
6195.123, 442.8463
6197.052, 441.6151
6198.980, 439.8134
6200.909, 439.7702
6202.837, 435.4645
6204.766, 430.7788
6206.694, 429.1037
6208.623, 429.8460
6210.551, 425.9630
6212.479, 421.7888
6214.408, 423.4949
6216.336, 423.8793
6218.265, 420.3642
6220.193, 421.9727
6222.122, 416.4989
6224.050, 418.5709
6225.979, 419.2539
6227.907, 416.5379
6229.835, 413.7849
6231.764, 410.5983
6233.692, 410.6249
6235.621, 408.6754
6237.549, 404.2051
6239.478, 399.4241
6241.406, 397.0924
6243.335, 399.3793
6245.263, 395.4594
6247.192, 395.8127
6249.120, 396.5679
6251.049, 394.3059
6252.977, 392.8807
6254.906, 388.6611
6256.834, 390.3481
6258.763, 388.6483
6260.691, 385.7125
6262.620, 385.3907
6264.548, 383.7163
6266.477, 378.5885
6268.405, 382.6682
6270.333, 380.2466
6272.262, 376.6022
6274.190, 381.2018
6276.119, 383.3387
6278.047, 372.9984
6279.976, 369.3171
6281.904, 372.0446
6283.833, 370.7953
6285.761, 361.8237
6287.689, 367.8863
6289.618, 367.0890
6291.546, 364.4187
6293.475, 362.7187
6295.403, 360.6929
6297.332, 357.4112
6299.260, 358.7487
6301.189, 355.6431
6303.117, 355.1627
6305.046, 354.1417
6306.974, 352.3180
6308.903, 350.9832
6310.831, 347.1700
6312.760, 342.0833
6314.688, 345.1823
6316.617, 346.9020
6318.545, 347.2510
6320.474, 347.9043
6322.402, 339.5919
6324.331, 338.5963
6326.259, 340.9918
6328.188, 337.7355
6330.116, 334.0219
6332.044, 335.1684
6333.973, 335.1673
6335.901, 335.8405
6337.830, 336.1699
6339.758, 331.2057
6341.687, 327.3741
6343.615, 327.1425
6345.543, 323.4678
6347.472, 326.5327
6349.400, 322.1562
6351.329, 320.7214
6353.257, 322.2642
6355.186, 322.4162
6357.114, 318.8267
6359.043, 316.5985
6360.971, 318.7213
6362.900, 314.2484
6364.828, 312.7967
6366.757, 313.9127
6368.685, 311.8267
6370.614, 309.8082
6372.542, 308.3332
6374.471, 308.7959
6376.399, 305.1647
6378.328, 303.2845
6380.256, 304.9467
6382.185, 303.0508
6384.113, 304.3415
6386.042, 307.5417
6387.970, 300.4340
6389.898, 297.0494
6391.827, 299.1805
6393.755, 298.4105
6395.684, 296.7215
6397.612, 294.4137
6399.541, 293.3805
6401.469, 294.0990
6403.397, 294.8424
6405.326, 294.9705
6407.254, 295.4038
6409.183, 291.2272
6411.111, 286.9243
6413.040, 285.4937
6414.968, 285.9225
6416.897, 287.0684
6418.825, 287.9063
6420.754, 286.8662
6422.682, 284.0173
6424.611, 282.9650
6426.539, 280.7636
6428.468, 279.2440
6430.396, 277.7896
6432.325, 274.7265
6434.253, 274.1009
6436.182, 276.7764
6438.110, 276.7624
6440.039, 277.8012
6441.967, 276.5285
6443.896, 273.8349
6445.824, 274.2989
6447.752, 265.5070
6449.681, 267.8692
6451.609, 266.5434
6453.538, 261.6746
6455.466, 260.4267
6457.395, 263.4173
6459.323, 264.6377
6461.251, 265.1620
6463.180, 265.4364
6465.108, 265.0605
6467.037, 258.6161
6468.965, 256.2185
6470.894, 260.1317
6472.822, 259.6039
6474.751, 258.0769
6476.679, 256.0418
6478.608, 255.2004
6480.536, 254.3268
6482.465, 252.7904
6484.393, 251.2858
6486.322, 250.7162
6488.250, 249.9949
6490.179, 250.5645
6492.107, 248.1125
6494.036, 247.0312
6495.964, 248.3216
6497.893, 249.2349
6499.821, 247.5943
6501.750, 245.3590
6503.678, 249.2046
6505.606, 246.8014
6507.535, 245.4146
6509.463, 242.6445
6511.392, 240.5288
6513.320, 242.0083
6515.249, 241.8266
6517.177, 239.2399
6519.105, 241.6666
6521.034, 236.9566
6522.962, 236.5060
6524.891, 236.5316
6526.819, 232.6610
6528.748, 231.1749
6530.676, 233.9744
6532.605, 236.6208
6534.533, 232.4471
6536.462, 231.1704
6538.390, 230.4991
6540.319, 228.8906
6542.247, 228.9144
6544.176, 230.8684
6546.104, 229.4140
6548.033, 226.3294
6549.961, 224.7542
6551.890, 225.2539
6553.818, 225.8521
6555.747, 225.5182
6557.675, 224.7985
6559.604, 223.8214
6561.532, 220.5080
6563.460, 222.0261
6565.389, 218.9361
6567.317, 218.1470
6569.246, 219.5070
6571.174, 218.2178
6573.103, 215.7418
6575.031, 220.6292
6576.959, 216.3698
6578.888, 216.9918
6580.816, 215.4427
6582.745, 216.1440
6584.673, 218.1953
6586.602, 216.6770
6588.530, 211.4711
6590.459, 213.2616
6592.387, 211.2428
6594.316, 213.2695
6596.244, 209.7554
6598.173, 209.9339
6600.101, 209.6179
6602.030, 207.4067
6603.958, 212.7788
6605.887, 212.4148
6607.815, 207.6632
6609.744, 207.4291
6611.672, 205.7995
6613.601, 201.7628
6615.529, 203.6907
6617.458, 206.5708
6619.386, 200.1291
6621.314, 200.2481
6623.243, 200.8238
6625.171, 206.9301
6627.100, 202.6030
6629.028, 201.1304
6630.957, 202.5613
##END=



