##NAMES=Zwieselite
##RRUFFID=R050279
##IDEAL CHEMISTRY=Fe^2+^_2_(PO_4_)F
##LOCALITY=Cornelia mine, Hagendorf, Bavaria, Germany
##OWNER=RRUFF
##SOURCE=Marcus Origlieri
##DESCRIPTION=Brown massive associated with bluish-gray triphylite R050366
##STATUS=The identification of this mineral has been confirmed by X-ray diffraction and chemical analysis
##URL=https://www.rruff.net/odr/rruff_sample/R050279
##MEASURED CHEMISTRY=(Fe^2+^_1.08_Mn^2+^_0.86_Ca_0.06_)(P_1.00_O_4_)F_1.00_
##DIFFRACTION SAMPLE DESCRIPTION=Powder
##CELL PARAMETERS=a: 12.071 b: 10.004 c: 6.4968 alpha: 90 beta: 90 gamma: 106.98 volume: 750.3 crystal system: monoclinic
##FILETYPE=Raman RAW
##RAMAN WAVELENGTH=532

126.9172, 1795.704
128.8457, 1823.586
130.7742, 1825.049
132.7026, 1838.806
134.6311, 1863.788
136.5596, 1896.646
138.4880, 1942.653
140.4165, 1994.583
142.3450, 2036.728
144.2734, 2069.773
146.2019, 2094.048
148.1304, 2110.634
150.0588, 2111.300
151.9873, 2114.667
153.9158, 2125.207
155.8442, 2138.901
157.7727, 2145.301
159.7012, 2137.518
161.6296, 2125.850
163.5581, 2115.905
165.4866, 2107.835
167.4150, 2100.885
169.3435, 2093.772
171.2720, 2086.267
173.2004, 2083.674
175.1289, 2090.513
177.0574, 2099.204
178.9858, 2101.689
180.9143, 2095.432
182.8428, 2088.047
184.7712, 2082.288
186.6997, 2079.026
188.6282, 2072.609
190.5566, 2058.741
192.4851, 2043.601
194.4136, 2033.599
196.3420, 2033.169
198.2705, 2033.218
200.1990, 2030.264
202.1274, 2023.139
204.0559, 2018.900
205.9844, 2020.338
207.9129, 2024.572
209.8413, 2027.418
211.7698, 2026.374
213.6983, 2025.994
215.6267, 2027.982
217.5552, 2032.266
219.4837, 2036.986
221.4121, 2041.870
223.3406, 2046.844
225.2691, 2051.829
227.1975, 2056.966
229.1260, 2061.821
231.0545, 2065.990
232.9829, 2069.299
234.9114, 2073.217
236.8399, 2077.389
238.7683, 2082.494
240.6968, 2090.014
242.6253, 2100.555
244.5537, 2112.908
246.4822, 2126.855
248.4107, 2143.720
250.3391, 2158.583
252.2676, 2170.460
254.1961, 2179.931
256.1245, 2188.885
258.0530, 2197.991
259.9814, 2205.229
261.9099, 2209.517
263.8384, 2208.344
265.7668, 2209.316
267.6953, 2213.974
269.6238, 2220.869
271.5522, 2227.568
273.4807, 2232.985
275.4092, 2239.525
277.3376, 2248.843
279.2661, 2262.055
281.1946, 2273.023
283.1230, 2281.511
285.0515, 2286.988
286.9800, 2288.481
288.9084, 2280.075
290.8369, 2272.396
292.7654, 2269.499
294.6938, 2271.183
296.6223, 2269.997
298.5508, 2261.474
300.4792, 2250.190
302.4077, 2241.175
304.3362, 2236.469
306.2646, 2232.200
308.1931, 2228.146
310.1216, 2224.518
312.0500, 2220.895
313.9785, 2217.595
315.9070, 2214.688
317.8354, 2212.225
319.7639, 2209.943
321.6924, 2208.845
323.6208, 2209.963
325.5493, 2212.818
327.4778, 2214.445
329.4063, 2214.633
331.3347, 2213.268
333.2632, 2208.701
335.1917, 2199.014
337.1201, 2192.962
339.0486, 2195.949
340.9771, 2205.641
342.9055, 2210.150
344.8340, 2202.053
346.7625, 2195.167
348.6909, 2198.066
350.6194, 2211.470
352.5479, 2223.387
354.4763, 2229.608
356.4048, 2232.656
358.3333, 2238.041
360.2617, 2247.476
362.1902, 2257.187
364.1187, 2265.018
366.0471, 2270.886
367.9756, 2280.918
369.9041, 2297.344
371.8326, 2317.504
373.7610, 2339.043
375.6895, 2361.574
377.6180, 2385.523
379.5464, 2412.982
381.4749, 2443.330
383.4034, 2468.025
385.3318, 2482.856
387.2603, 2495.010
389.1888, 2508.240
391.1172, 2521.964
393.0457, 2538.578
394.9742, 2558.019
396.9026, 2580.695
398.8311, 2608.798
400.7596, 2641.600
402.6880, 2680.017
404.6165, 2724.924
406.5450, 2775.495
408.4734, 2833.533
410.4019, 2900.258
412.3304, 2974.093
414.2588, 3055.432
416.1873, 3147.430
418.1158, 3241.544
420.0442, 3344.046
421.9727, 3449.662
423.9012, 3537.829
425.8296, 3617.294
427.7581, 3669.579
429.6866, 3682.684
431.6150, 3655.524
433.5435, 3592.975
435.4720, 3468.924
437.4004, 3314.052
439.3289, 3171.507
441.2574, 3034.519
443.1858, 2918.991
445.1143, 2833.421
447.0428, 2777.302
448.9712, 2732.952
450.8997, 2704.825
452.8282, 2684.920
454.7566, 2668.237
456.6851, 2658.453
458.6136, 2646.563
460.5420, 2632.278
462.4705, 2615.423
464.3990, 2595.956
466.3274, 2570.689
468.2559, 2547.745
470.1844, 2530.681
472.1128, 2520.502
474.0413, 2509.006
475.9698, 2492.394
477.8982, 2477.109
479.8267, 2468.007
481.7552, 2466.919
483.6836, 2464.855
485.6121, 2460.101
487.5406, 2453.297
489.4690, 2445.406
491.3975, 2432.719
493.3260, 2424.159
495.2544, 2424.379
497.1829, 2432.619
499.1114, 2441.489
501.0398, 2452.886
502.9683, 2462.963
504.8968, 2467.995
506.8252, 2466.552
508.7537, 2466.327
510.6822, 2468.024
512.6106, 2471.931
514.5391, 2478.800
516.4675, 2491.827
518.3960, 2504.632
520.3245, 2516.221
522.2529, 2526.607
524.1814, 2536.453
526.1099, 2545.122
528.0383, 2553.902
529.9668, 2563.475
531.8953, 2574.229
533.8237, 2585.007
535.7522, 2595.558
537.6807, 2606.509
539.6091, 2618.150
541.5376, 2629.875
543.4661, 2644.743
545.3945, 2662.710
547.3230, 2684.144
549.2515, 2711.397
551.1799, 2747.222
553.1084, 2785.138
555.0369, 2822.350
556.9653, 2858.817
558.8938, 2897.918
560.8223, 2941.095
562.7507, 2985.852
564.6792, 3031.507
566.6077, 3080.607
568.5361, 3125.378
570.4646, 3165.519
572.3931, 3201.393
574.3215, 3233.501
576.2501, 3259.881
578.1785, 3286.804
580.1070, 3311.081
582.0355, 3335.537
583.9639, 3374.642
585.8924, 3429.654
587.8209, 3495.688
589.7493, 3573.166
591.6778, 3661.375
593.6063, 3749.975
595.5347, 3841.889
597.4632, 3930.971
599.3917, 4014.985
601.3201, 4096.787
603.2486, 4163.534
605.1771, 4215.701
607.1055, 4249.729
609.0340, 4263.805
610.9625, 4262.283
612.8909, 4229.032
614.8194, 4157.148
616.7479, 4051.042
618.6763, 3926.550
620.6048, 3768.886
622.5333, 3617.537
624.4617, 3484.282
626.3902, 3368.251
628.3187, 3273.434
630.2471, 3204.669
632.1756, 3151.549
634.1041, 3112.718
636.0325, 3088.482
637.9610, 3069.150
639.8895, 3053.801
641.8179, 3043.344
643.7464, 3038.933
645.6749, 3044.967
647.6033, 3048.088
649.5318, 3043.954
651.4603, 3038.055
653.3887, 3038.468
655.3172, 3047.339
657.2457, 3055.748
659.1741, 3061.184
661.1026, 3064.484
663.0311, 3067.118
664.9595, 3068.049
666.8880, 3069.712
668.8165, 3072.930
670.7449, 3077.417
672.6734, 3081.617
674.6019, 3083.923
676.5303, 3087.738
678.4588, 3095.054
680.3873, 3106.581
682.3157, 3114.839
684.2442, 3118.396
686.1727, 3120.163
688.1011, 3122.266
690.0296, 3124.874
691.9581, 3124.614
693.8865, 3117.999
695.8150, 3110.674
697.7435, 3106.865
699.6719, 3110.823
701.6004, 3110.730
703.5289, 3101.609
705.4573, 3090.810
707.3858, 3087.154
709.3143, 3092.304
711.2427, 3096.667
713.1712, 3097.135
715.0997, 3095.742
717.0281, 3095.306
718.9566, 3094.677
720.8851, 3097.187
722.8135, 3104.048
724.7420, 3114.705
726.6705, 3126.800
728.5989, 3139.609
730.5274, 3154.798
732.4559, 3173.593
734.3843, 3194.757
736.3128, 3213.695
738.2413, 3226.571
740.1697, 3240.666
742.0982, 3258.690
744.0267, 3279.760
745.9551, 3300.059
747.8836, 3317.078
749.8121, 3337.321
751.7405, 3364.416
753.6690, 3399.079
755.5975, 3432.769
757.5259, 3466.292
759.4544, 3498.750
761.3829, 3529.016
763.3113, 3557.368
765.2398, 3586.025
767.1683, 3614.603
769.0967, 3643.770
771.0252, 3675.201
772.9537, 3711.412
774.8821, 3738.750
776.8106, 3751.490
778.7391, 3761.620
780.6675, 3778.135
782.5960, 3801.047
784.5245, 3819.950
786.4529, 3830.690
788.3814, 3838.868
790.3099, 3847.605
792.2383, 3856.564
794.1668, 3866.127
796.0953, 3877.898
798.0237, 3888.743
799.9522, 3896.775
801.8807, 3902.557
803.8091, 3904.142
805.7376, 3899.396
807.6661, 3892.191
809.5945, 3885.658
811.5230, 3881.217
813.4515, 3873.413
815.3799, 3860.454
817.3084, 3844.853
819.2369, 3828.749
821.1653, 3812.268
823.0938, 3791.997
825.0223, 3763.591
826.9507, 3733.508
828.8792, 3707.036
830.8077, 3685.714
832.7361, 3664.208
834.6646, 3640.671
836.5931, 3618.374
838.5215, 3600.933
840.4500, 3589.222
842.3785, 3577.550
844.3069, 3559.701
846.2354, 3546.127
848.1639, 3546.407
850.0923, 3565.136
852.0208, 3575.713
853.9493, 3568.150
855.8777, 3556.650
857.8062, 3551.574
859.7347, 3554.122
861.6631, 3557.061
863.5916, 3560.412
865.5201, 3563.166
867.4485, 3564.780
869.3770, 3565.267
871.3055, 3564.825
873.2339, 3561.586
875.1624, 3559.610
877.0909, 3562.191
879.0193, 3571.236
880.9478, 3578.100
882.8763, 3580.374
884.8047, 3582.687
886.7332, 3588.022
888.6617, 3595.938
890.5901, 3603.047
892.5186, 3606.429
894.4471, 3611.539
896.3755, 3620.969
898.3040, 3635.184
900.2325, 3652.073
902.1609, 3672.158
904.0894, 3694.707
906.0179, 3716.250
907.9464, 3738.968
909.8748, 3774.196
911.8033, 3830.585
913.7318, 3886.598
915.6602, 3927.010
917.5887, 3955.584
919.5172, 4004.088
921.4456, 4071.320
923.3741, 4159.049
925.3026, 4263.944
927.2310, 4392.183
929.1595, 4556.470
931.0880, 4765.789
933.0164, 4991.536
934.9449, 5240.435
936.8734, 5496.541
938.8018, 5733.443
940.7303, 5959.211
942.6588, 6147.859
944.5872, 6269.456
946.5157, 6364.029
948.4442, 6477.793
950.3726, 6590.172
952.3011, 6783.458
954.2296, 7066.509
956.1580, 7447.780
958.0865, 7926.065
960.0150, 8504.592
961.9434, 9163.892
963.8719, 9909.061
965.8004, 10725.91
967.7288, 11616.93
969.6573, 12597.94
971.5858, 13594.05
973.5142, 14626.60
975.4427, 15654.79
977.3712, 16783.73
979.2996, 17931.93
981.2281, 18688.20
983.1566, 19154.02
985.0850, 18961.35
987.0135, 17838.75
988.9420, 15949.85
990.8704, 14042.15
992.7989, 11828.64
994.7274, 9960.381
996.6558, 8590.999
998.5843, 7636.409
1000.513, 6943.068
1002.441, 6540.932
1004.370, 6251.372
1006.298, 6068.184
1008.227, 5952.613
1010.155, 5873.333
1012.084, 5835.173
1014.012, 5816.358
1015.940, 5819.730
1017.869, 5834.077
1019.797, 5854.258
1021.726, 5881.064
1023.654, 5905.798
1025.583, 5929.626
1027.511, 5950.933
1029.440, 5972.755
1031.368, 5993.028
1033.297, 6002.382
1035.225, 6003.563
1037.154, 5986.931
1039.082, 5948.843
1041.010, 5892.103
1042.939, 5823.301
1044.867, 5733.960
1046.796, 5643.384
1048.724, 5543.134
1050.653, 5448.220
1052.581, 5374.040
1054.510, 5319.936
1056.438, 5285.133
1058.367, 5272.030
1060.295, 5276.913
1062.224, 5296.812
1064.152, 5331.588
1066.081, 5379.122
1068.009, 5458.982
1069.938, 5528.967
1071.866, 5589.462
1073.795, 5631.050
1075.723, 5619.555
1077.651, 5547.675
1079.580, 5446.979
1081.508, 5302.405
1083.437, 5144.749
1085.365, 5006.048
1087.294, 4886.980
1089.222, 4784.794
1091.151, 4702.826
1093.079, 4635.751
1095.008, 4582.303
1096.936, 4543.044
1098.865, 4512.237
1100.793, 4494.641
1102.722, 4478.579
1104.650, 4458.066
1106.578, 4436.413
1108.507, 4422.604
1110.435, 4418.481
1112.364, 4416.137
1114.292, 4414.538
1116.221, 4413.238
1118.149, 4411.559
1120.078, 4409.329
1122.006, 4409.237
1123.935, 4416.411
1125.863, 4421.301
1127.792, 4419.282
1129.720, 4410.380
1131.649, 4397.938
1133.577, 4383.029
1135.505, 4362.792
1137.434, 4329.831
1139.362, 4293.238
1141.291, 4267.080
1143.219, 4252.479
1145.148, 4241.691
1147.076, 4234.816
1149.005, 4229.864
1150.933, 4225.490
1152.862, 4221.702
1154.790, 4220.233
1156.719, 4223.919
1158.647, 4227.088
1160.576, 4226.474
1162.504, 4224.362
1164.432, 4227.103
1166.361, 4236.063
1168.289, 4244.747
1170.218, 4251.536
1172.146, 4257.300
1174.075, 4263.173
1176.003, 4268.962
1177.932, 4272.257
1179.860, 4271.604
1181.789, 4270.944
1183.717, 4272.350
1185.646, 4275.828
1187.574, 4280.464
1189.503, 4287.941
1191.431, 4294.846
1193.359, 4299.704
1195.288, 4304.244
1197.216, 4309.221
1199.145, 4313.995
1201.073, 4320.620
1203.002, 4332.251
1204.930, 4340.559
1206.859, 4339.063
1208.787, 4332.450
1210.716, 4329.604
1212.644, 4331.966
1214.573, 4334.803
1216.501, 4339.431
1218.430, 4342.702
1220.358, 4341.029
1222.286, 4333.483
1224.215, 4332.155
1226.143, 4342.515
1228.072, 4352.777
1230.000, 4360.231
1231.929, 4365.610
1233.857, 4369.507
1235.786, 4370.547
1237.714, 4374.273
1239.643, 4383.525
1241.571, 4393.000
1243.500, 4398.487
1245.428, 4401.086
1247.357, 4405.831
1249.285, 4415.113
1251.214, 4422.640
1253.142, 4425.714
1255.070, 4427.179
1256.999, 4429.615
1258.927, 4432.678
1260.856, 4438.339
1262.784, 4448.401
1264.713, 4458.011
1266.641, 4464.966
1268.570, 4469.324
1270.498, 4472.058
1272.427, 4473.378
1274.355, 4472.201
1276.284, 4465.803
1278.212, 4459.554
1280.141, 4458.447
1282.069, 4461.928
1283.997, 4466.249
1285.926, 4472.877
1287.854, 4477.598
1289.783, 4475.152
1291.711, 4472.310
1293.640, 4477.782
1295.568, 4493.581
1297.497, 4506.075
1299.425, 4510.987
1301.354, 4515.417
1303.282, 4520.403
1305.211, 4526.498
1307.139, 4535.827
1309.068, 4551.702
1310.996, 4563.694
1312.924, 4569.153
1314.853, 4572.452
1316.781, 4575.298
1318.710, 4578.334
1320.638, 4584.334
1322.567, 4595.130
1324.495, 4604.375
1326.424, 4609.964
1328.352, 4613.194
1330.281, 4614.391
1332.209, 4613.841
1334.138, 4615.511
1336.066, 4621.276
1337.995, 4627.624
1339.923, 4634.464
1341.851, 4641.252
1343.780, 4646.640
1345.708, 4648.959
1347.637, 4654.874
1349.565, 4664.246
1351.494, 4676.073
1353.422, 4693.750
1355.351, 4712.361
1357.279, 4720.348
1359.208, 4713.036
1361.136, 4711.739
1363.065, 4722.156
1364.993, 4735.358
1366.922, 4749.704
1368.850, 4763.313
1370.778, 4770.637
1372.707, 4769.748
1374.635, 4770.493
1376.564, 4773.614
1378.492, 4780.233
1380.421, 4793.330
1382.349, 4810.421
1384.278, 4821.644
1386.206, 4824.304
1388.135, 4827.964
1390.063, 4836.808
1391.992, 4845.946
1393.920, 4851.789
1395.849, 4854.810
1397.777, 4859.719
1399.705, 4867.996
1401.634, 4875.761
1403.562, 4882.867
1405.491, 4888.651
1407.419, 4890.957
1409.348, 4890.114
1411.276, 4894.669
1413.205, 4909.021
1415.133, 4920.993
1417.062, 4929.145
1418.990, 4933.715
1420.919, 4931.737
1422.847, 4925.459
1424.776, 4928.667
1426.704, 4947.282
1428.632, 4962.737
1430.561, 4963.640
1432.489, 4963.817
1434.418, 4974.859
1436.346, 4995.066
1438.275, 5014.284
1440.203, 5031.649
1442.132, 5046.425
1444.060, 5055.420
1445.989, 5063.060
1447.917, 5073.638
1449.846, 5086.912
1451.774, 5095.505
1453.703, 5099.087
1455.631, 5099.763
1457.559, 5097.455
1459.488, 5094.653
1461.416, 5091.646
1463.345, 5089.286
1465.273, 5094.706
1467.202, 5116.767
1469.130, 5133.118
1471.059, 5135.498
1472.987, 5136.036
1474.916, 5143.245
1476.844, 5155.583
1478.773, 5166.752
1480.701, 5177.390
1482.630, 5186.060
1484.558, 5190.832
1486.486, 5196.694
1488.415, 5209.677
1490.343, 5226.283
1492.272, 5235.073
1494.200, 5233.175
1496.129, 5236.179
1498.057, 5249.330
1499.986, 5263.664
1501.914, 5274.663
1503.843, 5282.787
1505.771, 5289.042
1507.700, 5293.822
1509.628, 5297.057
1511.557, 5297.171
1513.485, 5299.944
1515.413, 5310.913
1517.342, 5324.919
1519.270, 5333.821
1521.199, 5336.993
1523.127, 5343.058
1525.056, 5352.776
1526.984, 5364.202
1528.913, 5377.811
1530.841, 5391.458
1532.770, 5402.894
1534.698, 5412.044
1536.627, 5421.872
1538.555, 5432.728
1540.484, 5444.320
1542.412, 5459.479
1544.340, 5473.040
1546.269, 5479.089
1548.197, 5479.661
1550.126, 5485.198
1552.054, 5497.097
1553.983, 5510.689
1555.911, 5528.766
1557.840, 5544.783
1559.768, 5556.001
1561.697, 5563.162
1563.625, 5567.386
1565.554, 5568.476
1567.482, 5569.657
1569.411, 5570.274
1571.339, 5573.142
1573.267, 5581.012
1575.196, 5590.676
1577.124, 5597.745
1579.053, 5602.750
1580.981, 5612.132
1582.910, 5627.235
1584.838, 5641.978
1586.767, 5653.936
1588.695, 5664.955
1590.624, 5676.848
1592.552, 5688.161
1594.481, 5696.075
1596.409, 5700.617
1598.338, 5702.437
1600.266, 5698.403
1602.194, 5697.927
1604.123, 5709.569
1606.051, 5724.650
1607.980, 5731.702
1609.908, 5732.474
1611.837, 5740.719
1613.765, 5761.136
1615.694, 5776.972
1617.622, 5778.702
1619.551, 5778.710
1621.479, 5784.702
1623.408, 5794.595
1625.336, 5805.081
1627.265, 5816.176
1629.193, 5824.690
1631.121, 5828.156
1633.050, 5832.741
1634.978, 5844.706
1636.907, 5856.648
1638.835, 5859.696
1640.764, 5855.798
1642.692, 5856.778
1644.621, 5864.692
1646.549, 5872.887
1648.478, 5879.205
1650.406, 5886.134
1652.335, 5893.097
1654.263, 5901.882
1656.192, 5918.120
1658.120, 5942.082
1660.048, 5957.003
1661.977, 5957.733
1663.905, 5956.929
1665.834, 5956.838
1667.762, 5958.559
1669.691, 5964.094
1671.619, 5972.640
1673.548, 5980.265
1675.476, 5986.927
1677.405, 5994.880
1679.333, 6004.423
1681.262, 6014.501
1683.190, 6022.610
1685.119, 6031.730
1687.047, 6047.313
1688.975, 6067.544
1690.904, 6077.000
1692.832, 6071.007
1694.761, 6070.414
1696.689, 6084.753
1698.618, 6098.059
1700.546, 6102.574
1702.475, 6103.930
1704.403, 6108.495
1706.332, 6116.032
1708.260, 6124.485
1710.189, 6134.284
1712.117, 6142.933
1714.046, 6149.771
1715.974, 6155.469
1717.902, 6159.406
1719.831, 6163.414
1721.759, 6170.233
1723.688, 6179.998
1725.616, 6190.747
1727.545, 6202.680
1729.473, 6214.381
1731.402, 6225.289
1733.330, 6235.558
1735.259, 6245.866
1737.187, 6255.059
1739.116, 6260.583
1741.044, 6262.608
1742.973, 6267.192
1744.901, 6275.612
1746.829, 6284.692
1748.758, 6295.947
1750.686, 6304.819
1752.615, 6305.495
1754.543, 6303.982
1756.472, 6310.202
1758.400, 6323.688
1760.329, 6337.166
1762.257, 6352.335
1764.186, 6360.690
1766.114, 6353.894
1768.043, 6348.540
1769.971, 6355.426
1771.900, 6366.677
1773.828, 6371.980
1775.756, 6372.136
1777.685, 6373.245
1779.613, 6375.910
1781.542, 6379.842
1783.470, 6386.631
1785.399, 6393.294
1787.327, 6395.300
1789.256, 6399.058
1791.184, 6413.241
1793.113, 6434.471
1795.041, 6448.973
1796.970, 6454.421
1798.898, 6461.948
1800.827, 6475.447
1802.755, 6486.401
1804.683, 6491.269
1806.612, 6492.845
1808.540, 6491.897
1810.469, 6490.737
1812.397, 6494.452
1814.326, 6503.556
1816.254, 6513.552
1818.183, 6523.536
1820.111, 6534.153
1822.040, 6546.021
1823.968, 6556.583
1825.897, 6564.581
1827.825, 6569.800
1829.754, 6571.574
1831.682, 6570.463
1833.610, 6569.755
1835.539, 6568.171
1837.467, 6572.630
1839.396, 6590.701
1841.324, 6607.140
1843.253, 6614.277
1845.181, 6617.461
1847.110, 6620.505
1849.038, 6624.271
1850.967, 6634.431
1852.895, 6656.755
1854.824, 6667.615
1856.752, 6655.806
1858.681, 6648.505
1860.609, 6655.578
1862.537, 6663.153
1864.466, 6659.506
1866.394, 6651.736
1868.323, 6653.570
1870.251, 6665.668
1872.180, 6674.863
1874.108, 6680.417
1876.037, 6686.712
1877.965, 6695.099
1879.894, 6703.822
1881.822, 6712.288
1883.751, 6720.427
1885.679, 6726.758
1887.608, 6732.311
1889.536, 6741.317
1891.464, 6753.738
1893.393, 6763.841
1895.321, 6770.952
1897.250, 6776.329
1899.178, 6780.621
1901.107, 6783.275
1903.035, 6782.518
1904.964, 6781.848
1906.892, 6785.600
1908.821, 6792.322
1910.749, 6796.638
1912.678, 6798.370
1914.606, 6803.170
1916.535, 6811.522
1918.463, 6822.472
1920.391, 6840.261
1922.320, 6854.288
1924.248, 6855.535
1926.177, 6852.843
1928.105, 6856.419
1930.034, 6865.191
1931.962, 6874.384
1933.891, 6884.551
1935.819, 6892.993
1937.748, 6898.516
1939.676, 6902.937
1941.605, 6898.845
1943.533, 6901.984
1945.462, 6929.474
1947.390, 6960.496
1949.318, 6970.630
1951.247, 6964.679
1953.175, 6960.115
1955.104, 6956.700
1957.032, 6957.970
1958.961, 6964.873
1960.889, 6974.069
1962.818, 6988.361
1964.746, 6999.344
1966.675, 7000.762
1968.603, 6999.995
1970.532, 7004.763
1972.460, 7012.225
1974.389, 7014.167
1976.317, 7011.302
1978.245, 7014.063
1980.174, 7024.948
1982.102, 7031.749
1984.031, 7028.383
1985.959, 7026.669
1987.888, 7034.056
1989.816, 7041.907
1991.745, 7044.541
1993.673, 7043.995
1995.602, 7043.038
1997.530, 7042.288
1999.459, 7042.159
2001.387, 7039.958
2003.316, 7047.673
2005.244, 7073.884
2007.172, 7096.044
2009.101, 7108.971
2011.029, 7117.435
2012.958, 7117.556
2014.886, 7118.131
2016.815, 7131.931
2018.743, 7152.752
2020.672, 7163.022
2022.600, 7163.089
2024.529, 7159.973
2026.457, 7153.026
2028.386, 7151.062
2030.314, 7157.995
2032.243, 7165.774
2034.171, 7171.926
2036.099, 7177.038
2038.028, 7179.517
2039.956, 7181.987
2041.885, 7188.637
2043.813, 7197.810
2045.742, 7204.427
2047.670, 7208.699
2049.599, 7212.273
2051.527, 7214.021
2053.456, 7219.752
2055.384, 7233.738
2057.313, 7247.004
2059.241, 7256.645
2061.170, 7264.275
2063.098, 7267.069
2065.027, 7269.474
2066.955, 7279.167
2068.884, 7292.956
2070.812, 7299.592
2072.740, 7299.113
2074.669, 7297.528
2076.597, 7294.465
2078.526, 7300.022
2080.454, 7325.334
2082.383, 7341.246
2084.311, 7328.020
2086.240, 7314.064
2088.168, 7316.295
2090.097, 7324.956
2092.025, 7328.347
2093.954, 7329.341
2095.882, 7337.412
2097.811, 7352.685
2099.739, 7364.392
2101.667, 7374.174
2103.596, 7377.711
2105.524, 7368.360
2107.453, 7365.583
2109.381, 7376.928
2111.310, 7389.784
2113.238, 7402.712
2115.167, 7410.634
2117.095, 7403.877
2119.024, 7392.673
2120.952, 7395.569
2122.881, 7407.301
2124.809, 7406.992
2126.738, 7394.298
2128.666, 7391.727
2130.594, 7406.134
2132.523, 7416.587
2134.451, 7417.286
2136.380, 7419.098
2138.308, 7423.059
2140.237, 7430.044
2142.165, 7442.437
2144.094, 7455.166
2146.022, 7462.651
2147.951, 7467.016
2149.879, 7473.127
2151.808, 7480.141
2153.736, 7483.870
2155.665, 7484.466
2157.593, 7485.566
2159.521, 7487.522
2161.450, 7493.476
2163.378, 7509.040
2165.307, 7519.908
2167.235, 7517.044
2169.164, 7514.537
2171.092, 7518.374
2173.021, 7525.414
2174.949, 7532.963
2176.878, 7541.318
2178.806, 7553.388
2180.735, 7567.002
2182.663, 7570.068
2184.592, 7562.544
2186.520, 7565.202
2188.448, 7580.137
2190.377, 7595.815
2192.305, 7613.624
2194.234, 7621.137
2196.162, 7605.434
2198.091, 7595.678
2200.019, 7612.856
2201.948, 7630.731
2203.876, 7628.116
2205.805, 7622.390
2207.733, 7634.385
2209.662, 7655.798
2211.590, 7668.152
2213.519, 7672.009
2215.447, 7679.833
2217.375, 7691.290
2219.304, 7698.230
2221.232, 7700.228
2223.161, 7700.443
2225.089, 7700.290
2227.018, 7699.663
2228.946, 7699.119
2230.875, 7698.366
2232.803, 7693.670
2234.732, 7691.837
2236.660, 7696.930
2238.589, 7705.899
2240.517, 7720.033
2242.446, 7733.702
2244.374, 7734.888
2246.302, 7727.030
2248.231, 7723.227
2250.159, 7724.330
2252.088, 7735.937
2254.016, 7759.534
2255.945, 7776.835
2257.873, 7782.029
2259.802, 7788.366
2261.730, 7799.500
2263.659, 7808.010
2265.587, 7814.631
2267.516, 7814.676
2269.444, 7802.090
2271.373, 7788.988
2273.301, 7783.099
2275.229, 7783.901
2277.158, 7792.554
2279.086, 7805.795
2281.015, 7816.868
2282.943, 7825.602
2284.872, 7834.413
2286.800, 7842.479
2288.729, 7843.241
2290.657, 7833.885
2292.586, 7831.400
2294.514, 7842.517
2296.443, 7853.591
2298.371, 7867.030
2300.300, 7876.948
2302.228, 7876.496
2304.156, 7879.322
2306.085, 7891.859
2308.013, 7904.159
2309.942, 7910.310
2311.870, 7912.979
2313.799, 7915.820
2315.727, 7917.586
2317.656, 7913.319
2319.584, 7908.620
2321.513, 7919.037
2323.441, 7942.047
2325.370, 7955.147
2327.298, 7957.017
2329.227, 7958.909
2331.155, 7960.130
2333.083, 7960.505
2335.012, 7959.414
2336.940, 7959.177
2338.869, 7961.424
2340.797, 7963.711
2342.726, 7967.284
2344.654, 7970.369
2346.583, 7971.538
2348.511, 7974.932
2350.440, 7982.318
2352.368, 7993.362
2354.297, 8010.196
2356.225, 8026.978
2358.154, 8034.444
2360.082, 8038.104
2362.010, 8047.989
2363.939, 8059.874
2365.867, 8063.648
2367.796, 8060.544
2369.724, 8061.416
2371.653, 8068.479
2373.581, 8062.338
2375.510, 8040.023
2377.438, 8031.753
2379.367, 8042.330
2381.295, 8053.126
2383.224, 8060.331
2385.152, 8070.659
2387.081, 8088.867
2389.009, 8101.078
2390.938, 8094.073
2392.866, 8091.477
2394.794, 8109.909
2396.723, 8125.695
2398.651, 8123.233
2400.580, 8118.316
2402.508, 8122.055
2404.437, 8130.857
2406.365, 8142.594
2408.294, 8155.319
2410.222, 8164.268
2412.151, 8172.024
2414.079, 8187.620
2416.008, 8207.175
2417.936, 8214.988
2419.865, 8211.748
2421.793, 8211.514
2423.721, 8214.589
2425.650, 8217.203
2427.578, 8219.132
2429.507, 8228.939
2431.435, 8251.627
2433.364, 8260.658
2435.292, 8239.939
2437.221, 8231.302
2439.149, 8247.414
2441.078, 8261.920
2443.006, 8267.728
2444.935, 8277.216
2446.863, 8301.494
2448.792, 8315.801
2450.720, 8299.801
2452.648, 8284.497
2454.577, 8290.078
2456.505, 8299.873
2458.434, 8301.619
2460.362, 8301.911
2462.291, 8307.394
2464.219, 8313.973
2466.148, 8315.123
2468.076, 8315.201
2470.005, 8324.720
2471.933, 8337.082
2473.862, 8335.305
2475.790, 8326.121
2477.719, 8332.830
2479.647, 8352.845
2481.575, 8364.688
2483.504, 8368.161
2485.432, 8380.193
2487.361, 8400.318
2489.289, 8410.387
2491.218, 8408.291
2493.146, 8412.642
2495.075, 8426.951
2497.003, 8437.027
2498.932, 8437.587
2500.860, 8441.182
2502.789, 8451.090
2504.717, 8458.306
2506.646, 8462.614
2508.574, 8464.030
2510.502, 8461.018
2512.431, 8459.858
2514.359, 8463.377
2516.288, 8467.609
2518.216, 8469.222
2520.145, 8473.350
2522.073, 8486.785
2524.002, 8496.650
2525.930, 8491.855
2527.859, 8489.045
2529.787, 8500.602
2531.716, 8515.832
2533.644, 8528.495
2535.573, 8538.807
2537.501, 8544.531
2539.429, 8549.740
2541.358, 8561.822
2543.286, 8573.312
2545.215, 8569.887
2547.143, 8563.055
2549.072, 8573.532
2551.000, 8591.498
2552.929, 8597.928
2554.857, 8597.725
2556.786, 8600.676
2558.714, 8607.965
2560.643, 8625.256
2562.571, 8650.231
2564.500, 8675.724
2566.428, 8699.362
2568.356, 8708.182
2570.285, 8702.930
2572.213, 8704.331
2574.142, 8712.115
2576.070, 8721.004
2577.999, 8731.287
2579.927, 8736.416
2581.856, 8736.729
2583.784, 8738.322
2585.713, 8742.656
2587.641, 8746.031
2589.570, 8745.989
2591.498, 8755.154
2593.427, 8778.424
2595.355, 8793.282
2597.283, 8796.504
2599.212, 8797.773
2601.140, 8797.309
2603.069, 8800.428
2604.997, 8809.333
2606.926, 8821.622
2608.854, 8837.760
2610.783, 8857.108
2612.711, 8883.948
2614.640, 8897.836
2616.568, 8885.146
2618.497, 8885.806
2620.425, 8923.680
2622.354, 8946.541
2624.282, 8929.791
2626.210, 8916.722
2628.139, 8924.109
2630.067, 8928.064
2631.996, 8916.311
2633.924, 8913.851
2635.853, 8935.572
2637.781, 8952.439
2639.710, 8948.576
2641.638, 8943.261
2643.567, 8944.774
2645.495, 8947.140
2647.424, 8947.854
2649.352, 8952.486
2651.281, 8967.868
2653.209, 8980.511
2655.137, 8982.254
2657.066, 8980.830
2658.994, 8974.549
2660.923, 8973.142
2662.851, 8982.093
2664.780, 8996.646
2666.708, 9018.317
2668.637, 9038.975
2670.565, 9054.528
2672.494, 9065.859
2674.422, 9070.635
2676.351, 9074.866
2678.279, 9080.658
2680.208, 9089.396
2682.136, 9109.690
2684.064, 9121.729
2685.993, 9102.744
2687.921, 9085.146
2689.850, 9094.848
2691.778, 9109.529
2693.707, 9117.120
2695.635, 9122.285
2697.564, 9123.798
2699.492, 9130.182
2701.421, 9150.623
2703.349, 9171.469
2705.278, 9179.235
2707.206, 9186.334
2709.135, 9202.965
2711.063, 9218.963
2712.991, 9229.313
2714.920, 9236.107
2716.848, 9240.276
2718.777, 9243.464
2720.705, 9245.223
2722.634, 9248.813
2724.562, 9260.347
2726.491, 9268.777
2728.419, 9260.768
2730.348, 9258.191
2732.276, 9282.350
2734.205, 9307.334
2736.133, 9315.673
2738.062, 9321.961
2739.990, 9334.617
2741.918, 9346.793
2743.847, 9353.963
2745.775, 9359.553
2747.704, 9361.316
2749.632, 9367.133
2751.561, 9388.064
2753.489, 9404.743
2755.418, 9405.385
2757.346, 9406.697
2759.275, 9416.239
2761.203, 9428.985
2763.132, 9446.021
2765.060, 9460.118
2766.989, 9464.874
2768.917, 9470.223
2770.845, 9481.252
2772.774, 9488.222
2774.702, 9483.455
2776.631, 9481.868
2778.559, 9493.958
2780.488, 9502.674
2782.416, 9500.512
2784.345, 9504.119
2786.273, 9518.984
2788.202, 9535.088
2790.130, 9547.214
2792.059, 9561.287
2793.987, 9583.033
2795.916, 9593.231
2797.844, 9583.854
2799.772, 9583.443
2801.701, 9602.256
2803.629, 9616.098
2805.558, 9620.478
2807.486, 9622.161
2809.415, 9620.012
2811.343, 9621.611
2813.272, 9626.912
2815.200, 9634.680
2817.129, 9644.717
2819.057, 9654.342
2820.986, 9666.066
2822.914, 9666.519
2824.843, 9655.245
2826.771, 9657.342
2828.699, 9674.121
2830.628, 9687.783
2832.556, 9696.773
2834.485, 9710.420
2836.413, 9727.955
2838.342, 9737.395
2840.270, 9740.334
2842.199, 9749.376
2844.127, 9761.820
2846.056, 9763.099
2847.984, 9755.662
2849.913, 9742.467
2851.841, 9730.027
2853.770, 9742.024
2855.698, 9766.157
2857.626, 9780.743
2859.555, 9787.384
2861.483, 9779.166
2863.412, 9772.552
2865.340, 9802.643
2867.269, 9837.275
2869.197, 9837.248
2871.126, 9827.318
2873.054, 9831.860
2874.983, 9839.528
2876.911, 9840.196
2878.840, 9842.030
2880.768, 9850.127
2882.697, 9861.717
2884.625, 9880.088
2886.553, 9894.037
2888.482, 9895.451
2890.410, 9893.971
2892.339, 9888.022
2894.267, 9888.386
2896.196, 9905.506
2898.124, 9917.810
2900.053, 9917.053
2901.981, 9921.555
2903.910, 9936.771
2905.838, 9944.701
2907.767, 9939.518
2909.695, 9941.303
2911.624, 9953.466
2913.552, 9965.882
2915.480, 9977.785
2917.409, 9998.334
2919.337, 10026.88
2921.266, 10032.36
2923.194, 10016.63
2925.123, 10019.81
2927.051, 10038.59
2928.980, 10052.70
2930.908, 10062.96
2932.837, 10071.23
2934.765, 10078.03
2936.694, 10084.35
2938.622, 10090.36
2940.551, 10098.57
2942.479, 10104.73
2944.407, 10103.24
2946.336, 10099.85
2948.264, 10101.24
2950.193, 10102.05
2952.121, 10094.44
2954.050, 10091.90
2955.978, 10106.32
2957.907, 10119.44
2959.835, 10117.51
2961.764, 10123.84
2963.692, 10149.18
2965.621, 10166.19
2967.549, 10166.26
2969.478, 10165.87
2971.406, 10166.20
2973.334, 10170.28
2975.263, 10178.34
2977.191, 10186.77
2979.120, 10195.28
2981.048, 10196.04
2982.977, 10190.05
2984.905, 10196.02
2986.834, 10211.12
2988.762, 10219.58
2990.691, 10222.95
2992.619, 10221.68
2994.548, 10220.50
2996.476, 10228.18
2998.405, 10240.83
3000.333, 10256.83
3002.261, 10271.51
3004.190, 10281.83
3006.118, 10288.16
3008.047, 10292.33
3009.975, 10288.88
3011.904, 10264.33
3013.832, 10257.22
3015.761, 10296.22
3017.689, 10327.32
3019.618, 10341.83
3021.546, 10344.89
3023.475, 10334.06
3025.403, 10338.15
3027.332, 10366.38
3029.260, 10367.49
3031.188, 10342.27
3033.117, 10352.69
3035.045, 10387.06
3036.974, 10388.73
3038.902, 10372.43
3040.831, 10377.81
3042.759, 10391.93
3044.688, 10395.17
3046.616, 10393.28
3048.545, 10390.61
3050.473, 10389.57
3052.402, 10393.75
3054.330, 10400.47
3056.259, 10404.79
3058.187, 10420.04
3060.115, 10462.61
3062.044, 10489.52
3063.972, 10482.39
3065.901, 10489.94
3067.829, 10518.50
3069.758, 10529.64
3071.686, 10518.62
3073.615, 10510.47
3075.543, 10506.51
3077.472, 10511.07
3079.400, 10518.93
3081.329, 10510.55
3083.257, 10495.53
3085.186, 10488.29
3087.114, 10487.20
3089.042, 10493.10
3090.971, 10500.13
3092.899, 10507.57
3094.828, 10509.08
3096.756, 10493.55
3098.685, 10490.29
3100.613, 10513.88
3102.542, 10530.53
3104.470, 10524.89
3106.399, 10528.01
3108.327, 10539.98
3110.256, 10549.80
3112.184, 10556.50
3114.113, 10567.60
3116.041, 10581.75
3117.969, 10600.51
3119.898, 10614.71
3121.826, 10600.11
3123.755, 10581.47
3125.683, 10590.69
3127.612, 10603.31
3129.540, 10597.89
3131.469, 10596.37
3133.397, 10618.23
3135.326, 10625.46
3137.254, 10596.74
3139.183, 10585.27
3141.111, 10598.74
3143.040, 10612.06
3144.968, 10624.12
3146.896, 10628.16
3148.825, 10625.98
3150.753, 10623.11
3152.682, 10623.53
3154.610, 10636.57
3156.539, 10655.92
3158.467, 10682.20
3160.396, 10697.53
3162.324, 10677.60
3164.253, 10663.30
3166.181, 10684.05
3168.110, 10699.57
3170.038, 10700.90
3171.967, 10701.45
3173.895, 10702.09
3175.823, 10708.00
3177.752, 10719.11
3179.680, 10722.83
3181.609, 10722.37
3183.537, 10729.86
3185.466, 10743.21
3187.394, 10762.58
3189.323, 10779.57
3191.251, 10783.71
3193.180, 10784.17
3195.108, 10785.41
3197.037, 10785.88
3198.965, 10784.72
3200.894, 10784.35
3202.822, 10784.14
3204.750, 10792.95
3206.679, 10812.89
3208.607, 10819.87
3210.536, 10816.83
3212.464, 10821.76
3214.393, 10827.83
3216.321, 10815.56
3218.250, 10801.66
3220.178, 10806.50
3222.107, 10814.60
3224.035, 10815.86
3225.964, 10817.13
3227.892, 10819.67
3229.821, 10820.95
3231.749, 10817.98
3233.677, 10827.35
3235.606, 10851.06
3237.534, 10868.72
3239.463, 10878.46
3241.391, 10867.95
3243.320, 10851.04
3245.248, 10853.44
3247.177, 10860.25
3249.105, 10858.75
3251.034, 10857.25
3252.962, 10861.62
3254.891, 10863.20
3256.819, 10858.42
3258.748, 10859.52
3260.676, 10868.70
3262.604, 10879.83
3264.533, 10892.34
3266.461, 10902.50
3268.390, 10909.72
3270.318, 10909.08
3272.247, 10909.29
3274.175, 10924.80
3276.104, 10938.42
3278.032, 10941.30
3279.961, 10940.07
3281.889, 10934.12
3283.818, 10932.96
3285.746, 10937.44
3287.675, 10939.03
3289.603, 10937.96
3291.531, 10952.08
3293.460, 10969.28
3295.388, 10956.88
3297.317, 10938.69
3299.245, 10942.06
3301.174, 10947.04
3303.102, 10939.23
3305.031, 10942.02
3306.959, 10970.14
3308.888, 10987.59
3310.816, 10991.17
3312.745, 10987.15
3314.673, 10976.22
3316.602, 10959.69
3318.530, 10944.62
3320.458, 10947.56
3322.387, 10956.17
3324.315, 10960.90
3326.244, 10966.95
3328.172, 10975.32
3330.101, 10987.73
3332.029, 11005.96
3333.958, 11015.36
3335.886, 11015.35
3337.815, 11010.90
3339.743, 11005.88
3341.672, 11012.67
3343.600, 11020.92
3345.529, 11015.24
3347.457, 11008.31
3349.385, 11006.18
3351.314, 11006.38
3353.242, 11012.57
3355.171, 11010.16
3357.099, 10999.36
3359.028, 10992.08
3360.956, 10988.77
3362.885, 10988.85
3364.813, 10991.57
3366.742, 10997.33
3368.670, 11001.93
3370.599, 10998.32
3372.527, 11000.66
3374.456, 11013.46
3376.384, 11028.64
3378.313, 11044.90
3380.241, 11064.37
3382.169, 11084.12
3384.098, 11092.31
3386.026, 11094.19
3387.955, 11094.95
3389.883, 11097.24
3391.812, 11105.26
3393.740, 11110.35
3395.669, 11113.66
3397.597, 11103.20
3399.526, 11079.73
3401.454, 11080.59
3403.383, 11098.66
3405.311, 11098.33
3407.240, 11093.56
3409.168, 11100.42
3411.096, 11111.98
3413.025, 11131.70
3414.953, 11136.67
3416.882, 11118.68
3418.810, 11107.60
3420.739, 11106.30
3422.667, 11136.46
3424.596, 11179.25
3426.524, 11184.26
3428.453, 11175.77
3430.381, 11176.77
3432.310, 11181.10
3434.238, 11189.66
3436.167, 11191.96
3438.095, 11183.78
3440.023, 11187.22
3441.952, 11201.28
3443.880, 11215.66
3445.809, 11228.94
3447.737, 11239.70
3449.666, 11246.71
3451.594, 11245.53
3453.523, 11247.16
3455.451, 11254.22
3457.380, 11262.45
3459.308, 11271.66
3461.237, 11297.86
3463.165, 11331.77
3465.094, 11340.09
3467.022, 11345.94
3468.950, 11374.06
3470.879, 11403.72
3472.807, 11425.94
3474.736, 11454.11
3476.664, 11491.80
3478.593, 11535.42
3480.521, 11582.91
3482.450, 11628.58
3484.378, 11668.28
3486.307, 11685.18
3488.235, 11713.88
3490.164, 11780.15
3492.092, 11835.10
3494.021, 11867.25
3495.949, 11891.84
3497.877, 11911.31
3499.806, 11936.13
3501.734, 11962.46
3503.663, 11982.95
3505.591, 12002.66
3507.520, 12027.70
3509.448, 12046.40
3511.377, 12059.80
3513.305, 12042.51
3515.234, 12000.62
3517.162, 11997.94
3519.091, 12006.59
3521.019, 11976.99
3522.948, 11940.30
3524.876, 11919.36
3526.804, 11885.64
3528.733, 11831.12
3530.661, 11801.11
3532.590, 11793.68
3534.518, 11763.28
3536.447, 11723.34
3538.375, 11690.94
3540.304, 11661.89
3542.232, 11633.57
3544.161, 11605.53
3546.089, 11576.43
3548.018, 11556.17
3549.946, 11542.50
3551.875, 11517.17
3553.803, 11489.39
3555.731, 11470.43
3557.660, 11454.25
3559.588, 11436.74
3561.517, 11425.08
3563.445, 11422.72
3565.374, 11409.99
3567.302, 11392.90
3569.231, 11391.46
3571.159, 11395.58
3573.088, 11395.58
3575.016, 11392.20
3576.945, 11378.38
3578.873, 11377.24
3580.802, 11388.97
3582.730, 11399.94
3584.658, 11405.81
3586.587, 11389.63
3588.515, 11375.61
3590.444, 11385.18
3592.372, 11392.81
3594.301, 11392.25
3596.229, 11385.75
3598.158, 11376.07
3600.086, 11380.92
3602.015, 11390.79
3603.943, 11389.07
3605.872, 11390.75
3607.800, 11412.71
3609.729, 11411.63
3611.657, 11383.92
3613.585, 11383.01
3615.514, 11399.24
3617.442, 11400.97
3619.371, 11400.37
3621.299, 11407.92
3623.228, 11412.71
3625.156, 11410.22
3627.085, 11414.33
3629.013, 11423.11
3630.942, 11419.10
3632.870, 11411.44
3634.799, 11412.95
3636.727, 11414.46
3638.656, 11410.59
3640.584, 11415.87
3642.512, 11433.04
3644.441, 11423.61
3646.369, 11401.74
3648.298, 11393.73
3650.226, 11396.30
3652.155, 11408.43
3654.083, 11429.29
3656.012, 11459.24
3657.940, 11469.46
3659.869, 11463.35
3661.797, 11453.66
3663.726, 11449.68
3665.654, 11469.66
3667.583, 11480.67
3669.511, 11472.46
3671.439, 11474.27
3673.368, 11485.21
3675.296, 11485.86
3677.225, 11483.87
3679.153, 11494.48
3681.082, 11495.07
3683.010, 11475.17
3684.939, 11469.17
3686.867, 11479.76
3688.796, 11485.47
3690.724, 11490.27
3692.653, 11502.72
3694.581, 11510.38
3696.510, 11506.80
3698.438, 11503.03
3700.366, 11501.41
3702.295, 11502.51
3704.223, 11504.45
3706.152, 11499.25
3708.080, 11500.76
3710.009, 11518.85
3711.937, 11531.12
3713.866, 11532.96
3715.794, 11530.12
3717.723, 11525.47
3719.651, 11520.84
3721.580, 11525.17
3723.508, 11550.70
3725.437, 11559.86
3727.365, 11544.42
3729.293, 11524.96
3731.222, 11509.52
3733.150, 11517.37
3735.079, 11530.43
3737.007, 11542.24
3738.936, 11538.90
3740.864, 11514.67
3742.793, 11533.38
3744.721, 11569.61
3746.650, 11573.91
3748.578, 11570.96
3750.507, 11575.53
3752.435, 11573.98
3754.364, 11564.00
3756.292, 11567.99
3758.220, 11578.59
3760.149, 11585.18
3762.077, 11587.03
3764.006, 11583.49
3765.934, 11579.05
3767.863, 11575.28
3769.791, 11571.88
3771.720, 11571.09
3773.648, 11575.10
3775.577, 11580.88
3777.505, 11585.20
3779.434, 11598.41
3781.362, 11618.70
3783.291, 11620.96
3785.219, 11618.13
3787.147, 11627.07
3789.076, 11634.05
3791.004, 11634.81
3792.933, 11634.76
3794.861, 11634.78
3796.790, 11640.29
3798.718, 11642.53
3800.647, 11624.57
3802.575, 11624.69
3804.504, 11651.07
3806.432, 11659.43
3808.361, 11653.43
3810.289, 11645.84
3812.218, 11637.26
3814.146, 11621.68
3816.074, 11629.19
3818.003, 11660.51
3819.931, 11654.10
3821.860, 11634.15
3823.788, 11643.16
3825.717, 11660.02
3827.645, 11679.07
3829.574, 11690.71
3831.502, 11693.94
3833.431, 11688.79
3835.359, 11678.80
3837.288, 11667.46
3839.216, 11654.42
3841.145, 11637.58
3843.073, 11640.80
3845.001, 11657.43
3846.930, 11668.72
3848.858, 11678.84
3850.787, 11690.04
3852.715, 11702.69
3854.644, 11715.72
3856.572, 11707.80
3858.501, 11692.70
3860.429, 11691.07
3862.358, 11695.99
3864.286, 11706.96
3866.215, 11718.24
3868.143, 11729.23
3870.072, 11739.77
3872.000, 11747.66
3873.928, 11746.66
3875.857, 11754.76
3877.785, 11776.50
3879.714, 11775.61
3881.642, 11767.09
3883.571, 11774.62
3885.499, 11789.03
3887.428, 11806.64
3889.356, 11815.48
3891.285, 11817.21
3893.213, 11808.02
3895.142, 11802.65
3897.070, 11821.43
3898.999, 11834.05
3900.927, 11837.09
3902.855, 11820.67
3904.784, 11807.34
3906.712, 11841.62
3908.641, 11874.17
3910.569, 11887.69
3912.498, 11877.46
3914.426, 11857.79
3916.355, 11870.37
3918.283, 11887.51
3920.212, 11889.79
3922.140, 11901.86
3924.069, 11920.92
3925.997, 11920.96
3927.926, 11913.18
3929.854, 11924.82
3931.782, 11931.23
3933.711, 11919.02
3935.639, 11909.92
3937.568, 11907.99
3939.496, 11932.43
3941.425, 11951.08
3943.353, 11943.41
3945.282, 11954.48
3947.210, 11977.71
3949.139, 11989.58
3951.067, 11991.79
3952.996, 11974.92
3954.924, 11970.54
3956.853, 11982.54
3958.781, 11997.99
3960.709, 12013.79
3962.638, 12021.31
3964.566, 12018.30
3966.495, 12015.19
3968.423, 12022.40
3970.352, 12031.76
3972.280, 12048.45
3974.209, 12062.22
3976.137, 12063.65
3978.066, 12066.17
3979.994, 12070.77
3981.923, 12086.37
3983.851, 12094.31
3985.780, 12075.00
3987.708, 12076.86
3989.636, 12099.14
3991.565, 12102.15
3993.493, 12102.94
3995.422, 12097.30
3997.350, 12093.53
3999.279, 12099.42
4001.207, 12104.64
4003.136, 12124.75
4005.064, 12154.19
4006.993, 12164.04
4008.921, 12164.90
4010.850, 12172.41
4012.778, 12174.98
4014.707, 12174.90
4016.635, 12178.93
4018.563, 12179.57
4020.492, 12185.02
4022.420, 12199.84
4024.349, 12206.80
4026.277, 12210.81
4028.206, 12216.17
4030.134, 12229.40
4032.063, 12254.10
4033.991, 12271.53
4035.920, 12272.02
4037.848, 12274.56
4039.777, 12272.83
4041.705, 12265.02
4043.634, 12267.51
4045.562, 12277.78
4047.490, 12282.43
4049.419, 12280.78
4051.347, 12286.20
4053.276, 12288.36
4055.204, 12297.84
4057.133, 12313.23
4059.061, 12315.59
4060.990, 12320.28
4062.918, 12321.61
4064.847, 12325.39
4066.775, 12326.84
4068.704, 12327.51
4070.632, 12328.42
4072.561, 12316.08
4074.489, 12312.32
4076.417, 12309.49
4078.346, 12305.37
4080.274, 12317.05
4082.203, 12333.78
4084.131, 12334.06
4086.060, 12339.34
4087.988, 12366.89
4089.917, 12379.33
4091.845, 12370.67
4093.774, 12362.05
4095.702, 12359.87
4097.631, 12360.74
4099.559, 12362.88
4101.488, 12373.75
4103.416, 12385.82
4105.345, 12396.17
4107.273, 12407.70
4109.202, 12414.60
4111.130, 12416.69
4113.059, 12415.91
4114.987, 12412.96
4116.916, 12412.93
4118.844, 12415.64
4120.772, 12424.28
4122.701, 12418.26
4124.629, 12404.45
4126.558, 12414.34
4128.486, 12425.25
4130.415, 12432.71
4132.343, 12441.34
4134.271, 12443.81
4136.200, 12457.56
4138.128, 12469.15
4140.057, 12464.51
4141.985, 12476.80
4143.914, 12504.59
4145.842, 12529.41
4147.771, 12542.94
4149.699, 12541.91
4151.628, 12521.19
4153.556, 12491.35
4155.485, 12497.96
4157.413, 12503.42
4159.342, 12488.67
4161.270, 12489.72
4163.199, 12501.06
4165.127, 12518.37
4167.056, 12538.00
4168.984, 12554.71
4170.913, 12560.56
4172.841, 12558.19
4174.770, 12564.18
4176.698, 12567.31
4178.626, 12555.68
4180.555, 12561.18
4182.483, 12576.77
4184.412, 12576.53
4186.340, 12562.87
4188.269, 12527.53
4190.197, 12525.45
4192.125, 12547.76
4194.054, 12573.37
4195.982, 12584.71
4197.911, 12569.74
4199.839, 12587.57
4201.768, 12617.99
4203.696, 12613.09
4205.625, 12603.07
4207.553, 12598.10
4209.482, 12584.76
4211.410, 12568.91
4213.339, 12552.14
4215.267, 12558.16
4217.196, 12590.35
4219.124, 12603.68
4221.053, 12609.57
4222.981, 12624.56
4224.910, 12632.45
4226.838, 12630.05
4228.767, 12617.86
4230.695, 12607.34
4232.624, 12616.22
4234.552, 12603.12
4236.480, 12569.86
4238.409, 12573.00
4240.337, 12582.36
4242.266, 12574.43
4244.194, 12579.92
4246.123, 12595.02
4248.051, 12585.94
4249.979, 12578.58
4251.908, 12587.48
4253.836, 12584.31
4255.765, 12574.64
4257.693, 12576.70
4259.622, 12583.48
4261.550, 12594.21
4263.479, 12584.23
4265.407, 12565.76
4267.336, 12557.81
4269.264, 12547.50
4271.193, 12532.19
4273.121, 12530.33
4275.050, 12541.39
4276.978, 12573.47
4278.907, 12580.32
4280.835, 12562.14
4282.764, 12574.25
4284.692, 12582.80
4286.621, 12565.79
4288.549, 12560.28
4290.478, 12562.30
4292.406, 12548.18
4294.334, 12537.76
4296.263, 12537.35
4298.191, 12546.10
4300.120, 12555.73
4302.048, 12554.00
4303.977, 12555.25
4305.905, 12561.35
4307.833, 12541.23
4309.762, 12525.35
4311.690, 12544.33
4313.619, 12539.43
4315.547, 12515.07
4317.476, 12510.45
4319.404, 12523.15
4321.333, 12554.29
4323.261, 12559.37
4325.190, 12549.39
4327.118, 12542.76
4329.047, 12544.80
4330.975, 12554.61
4332.904, 12553.41
4334.832, 12549.24
4336.761, 12550.89
4338.689, 12548.91
4340.618, 12545.11
4342.546, 12546.43
4344.475, 12555.96
4346.403, 12575.44
4348.332, 12562.11
4350.260, 12537.45
4352.188, 12538.55
4354.117, 12551.82
4356.045, 12571.12
4357.974, 12544.67
4359.902, 12515.07
4361.831, 12512.10
4363.759, 12531.99
4365.688, 12556.32
4367.616, 12531.59
4369.544, 12511.93
4371.473, 12521.57
4373.401, 12531.56
4375.330, 12535.29
4377.258, 12514.12
4379.187, 12512.36
4381.115, 12530.41
4383.044, 12541.67
4384.972, 12554.96
4386.901, 12578.62
4388.829, 12561.83
4390.758, 12531.96
4392.686, 12540.79
4394.615, 12537.94
4396.543, 12515.91
4398.472, 12500.98
4400.400, 12488.50
4402.329, 12475.49
4404.257, 12468.68
4406.186, 12464.66
4408.114, 12452.22
4410.042, 12444.63
4411.971, 12444.61
4413.899, 12462.25
4415.828, 12472.60
4417.756, 12450.56
4419.685, 12439.47
4421.613, 12437.29
4423.542, 12427.47
4425.470, 12427.31
4427.398, 12442.45
4429.327, 12448.80
4431.255, 12443.15
4433.184, 12408.66
4435.112, 12422.21
4437.041, 12462.49
4438.969, 12453.55
4440.898, 12439.16
4442.826, 12431.71
4444.755, 12434.70
4446.683, 12440.80
4448.612, 12445.63
4450.540, 12451.37
4452.469, 12454.49
4454.397, 12440.51
4456.326, 12430.44
4458.254, 12429.18
4460.183, 12431.29
4462.111, 12434.09
4464.040, 12438.57
4465.968, 12425.88
4467.896, 12407.90
4469.825, 12417.31
4471.753, 12422.74
4473.682, 12417.53
4475.610, 12398.52
4477.539, 12379.23
4479.467, 12365.41
4481.396, 12379.56
4483.324, 12401.10
4485.252, 12396.40
4487.181, 12381.23
4489.109, 12363.78
4491.038, 12373.94
4492.966, 12383.26
4494.895, 12379.11
4496.823, 12352.78
4498.752, 12330.97
4500.680, 12357.95
4502.609, 12363.73
4504.537, 12349.34
4506.466, 12336.02
4508.394, 12339.62
4510.323, 12364.00
4512.251, 12351.69
4514.180, 12342.74
4516.108, 12369.62
4518.037, 12382.42
4519.965, 12377.26
4521.894, 12349.03
4523.822, 12335.15
4525.750, 12339.33
4527.679, 12327.59
4529.607, 12315.24
4531.536, 12307.75
4533.464, 12307.86
4535.393, 12309.54
4537.321, 12306.79
4539.250, 12306.17
4541.178, 12303.11
4543.106, 12274.63
4545.035, 12269.39
4546.963, 12291.22
4548.892, 12278.73
4550.820, 12265.62
4552.749, 12276.14
4554.677, 12267.93
4556.606, 12253.98
4558.534, 12254.53
4560.463, 12249.05
4562.391, 12237.97
4564.320, 12224.30
4566.248, 12221.51
4568.177, 12230.64
4570.105, 12227.63
4572.034, 12232.35
4573.962, 12259.00
4575.891, 12250.95
4577.819, 12232.68
4579.748, 12240.22
4581.676, 12242.90
4583.604, 12236.85
4585.533, 12210.12
4587.461, 12201.79
4589.390, 12215.50
4591.318, 12217.70
4593.247, 12209.39
4595.175, 12190.36
4597.104, 12195.70
4599.032, 12211.03
4600.960, 12232.81
4602.889, 12215.79
4604.817, 12179.81
4606.746, 12157.18
4608.674, 12164.33
4610.603, 12189.91
4612.531, 12174.56
4614.460, 12164.08
4616.388, 12170.93
4618.317, 12159.37
4620.245, 12141.24
4622.174, 12123.64
4624.102, 12127.37
4626.031, 12124.76
4627.959, 12072.17
4629.888, 12073.51
4631.816, 12110.64
4633.745, 12129.14
4635.673, 12135.71
4637.602, 12130.36
4639.530, 12102.15
4641.458, 12079.61
4643.387, 12073.37
4645.315, 12068.92
4647.244, 12077.39
4649.172, 12107.21
4651.101, 12099.77
4653.029, 12075.92
4654.958, 12057.15
4656.886, 12052.65
4658.814, 12056.32
4660.743, 12056.00
4662.671, 12051.03
4664.600, 12045.08
4666.528, 12059.85
4668.457, 12063.54
4670.385, 12051.01
4672.314, 12043.92
4674.242, 12035.69
4676.171, 12020.90
4678.099, 12029.18
4680.028, 12032.47
4681.956, 12009.11
4683.885, 12000.98
4685.813, 12001.04
4687.742, 11998.56
4689.670, 11998.12
4691.599, 11998.07
4693.527, 11990.24
4695.456, 11995.74
4697.384, 12006.27
4699.313, 11978.92
4701.241, 11959.31
4703.169, 11954.30
4705.098, 11935.47
4707.026, 11919.75
4708.955, 11914.44
4710.883, 11906.68
4712.812, 11897.71
4714.740, 11887.46
4716.668, 11872.98
4718.597, 11864.53
4720.525, 11874.62
4722.454, 11880.80
4724.382, 11884.15
4726.311, 11889.49
4728.239, 11870.36
4730.168, 11842.54
4732.096, 11837.15
4734.025, 11839.68
4735.953, 11843.90
4737.882, 11840.18
4739.810, 11839.37
4741.739, 11840.85
4743.667, 11823.44
4745.596, 11812.36
4747.524, 11812.58
4749.453, 11820.52
4751.381, 11814.47
4753.310, 11784.51
4755.238, 11788.45
4757.167, 11794.96
4759.095, 11788.55
4761.023, 11779.14
4762.952, 11766.20
4764.880, 11748.72
4766.809, 11733.59
4768.737, 11730.17
4770.666, 11748.00
4772.594, 11757.69
4774.522, 11759.18
4776.451, 11762.03
4778.379, 11724.40
4780.308, 11678.44
4782.236, 11682.05
4784.165, 11679.00
4786.093, 11676.54
4788.022, 11708.37
4789.950, 11720.26
4791.879, 11710.91
4793.807, 11694.99
4795.736, 11682.08
4797.664, 11672.17
4799.593, 11659.46
4801.521, 11655.70
4803.450, 11658.26
4805.378, 11636.12
4807.307, 11625.72
4809.235, 11634.09
4811.164, 11651.11
4813.092, 11644.56
4815.021, 11612.01
4816.949, 11600.54
4818.877, 11603.14
4820.806, 11616.53
4822.734, 11632.01
4824.663, 11618.44
4826.591, 11570.46
4828.520, 11553.70
4830.448, 11552.60
4832.376, 11559.17
4834.305, 11558.42
4836.233, 11546.98
4838.162, 11524.79
4840.090, 11534.40
4842.019, 11548.78
4843.947, 11551.73
4845.876, 11529.55
4847.804, 11506.27
4849.733, 11495.99
4851.661, 11504.75
4853.590, 11510.64
4855.518, 11497.73
4857.447, 11483.73
4859.375, 11481.49
4861.304, 11499.65
4863.232, 11484.87
4865.161, 11459.68
4867.089, 11441.40
4869.018, 11440.37
4870.946, 11440.70
4872.875, 11431.57
4874.803, 11425.52
4876.731, 11419.88
4878.660, 11409.25
4880.588, 11436.87
4882.517, 11460.87
4884.445, 11448.07
4886.374, 11432.84
4888.302, 11420.85
4890.230, 11416.72
4892.159, 11404.92
4894.087, 11384.81
4896.016, 11355.11
4897.944, 11332.20
4899.873, 11321.87
4901.801, 11327.77
4903.730, 11341.77
4905.658, 11341.27
4907.587, 11304.08
4909.515, 11308.82
4911.444, 11309.21
4913.372, 11278.57
4915.301, 11281.64
4917.229, 11298.58
4919.158, 11320.92
4921.086, 11294.39
4923.015, 11259.14
4924.943, 11235.99
4926.872, 11252.67
4928.800, 11259.95
4930.729, 11232.22
4932.657, 11224.33
4934.585, 11230.94
4936.514, 11246.42
4938.442, 11235.56
4940.371, 11219.15
4942.299, 11206.31
4944.228, 11210.58
4946.156, 11204.61
4948.084, 11183.63
4950.013, 11178.00
4951.941, 11166.95
4953.870, 11151.41
4955.798, 11161.37
4957.727, 11160.68
4959.655, 11148.34
4961.584, 11154.74
4963.512, 11150.93
4965.441, 11135.57
4967.369, 11115.93
4969.298, 11103.22
4971.226, 11090.67
4973.155, 11054.78
4975.083, 11047.00
4977.012, 11055.63
4978.940, 11055.70
4980.869, 11042.90
4982.797, 11026.01
4984.726, 11010.08
4986.654, 11029.21
4988.583, 11043.29
4990.511, 11012.75
4992.439, 11014.09
4994.368, 11014.46
4996.296, 10980.72
4998.225, 10974.63
5000.153, 10957.96
5002.082, 10916.33
5004.010, 10924.50
5005.938, 10927.59
5007.867, 10905.69
5009.795, 10914.79
5011.724, 10913.23
5013.652, 10893.75
5015.581, 10893.29
5017.509, 10887.56
5019.438, 10874.59
5021.366, 10861.17
5023.295, 10861.31
5025.223, 10866.72
5027.152, 10853.85
5029.080, 10846.25
5031.009, 10844.51
5032.937, 10846.55
5034.866, 10842.99
5036.794, 10830.92
5038.723, 10807.81
5040.651, 10795.50
5042.580, 10787.88
5044.508, 10780.42
5046.437, 10765.64
5048.365, 10750.42
5050.293, 10737.39
5052.222, 10732.32
5054.150, 10739.94
5056.079, 10752.88
5058.007, 10732.41
5059.936, 10711.49
5061.864, 10700.37
5063.792, 10710.13
5065.721, 10717.99
5067.649, 10712.66
5069.578, 10678.77
5071.506, 10664.75
5073.435, 10661.35
5075.363, 10657.92
5077.292, 10641.78
5079.220, 10620.91
5081.149, 10600.47
5083.077, 10616.42
5085.006, 10620.06
5086.934, 10601.91
5088.863, 10596.51
5090.791, 10592.75
5092.720, 10592.96
5094.648, 10622.83
5096.577, 10607.34
5098.505, 10577.52
5100.434, 10593.93
5102.362, 10584.94
5104.291, 10567.78
5106.219, 10564.09
5108.147, 10550.12
5110.076, 10534.73
5112.004, 10523.65
5113.933, 10547.20
5115.861, 10536.86
5117.790, 10494.71
5119.718, 10496.33
5121.646, 10498.32
5123.575, 10494.06
5125.503, 10483.13
5127.432, 10484.03
5129.360, 10484.73
5131.289, 10471.93
5133.217, 10461.60
5135.146, 10452.32
5137.074, 10442.85
5139.003, 10436.42
5140.931, 10434.65
5142.860, 10435.00
5144.788, 10423.38
5146.717, 10419.89
5148.645, 10418.78
5150.574, 10402.13
5152.502, 10386.68
5154.431, 10382.88
5156.359, 10400.19
5158.288, 10394.32
5160.216, 10379.23
5162.145, 10363.64
5164.073, 10348.94
5166.001, 10348.71
5167.930, 10356.17
5169.858, 10337.54
5171.787, 10344.96
5173.715, 10350.81
5175.644, 10312.64
5177.572, 10317.45
5179.500, 10328.39
5181.429, 10319.90
5183.357, 10332.77
5185.286, 10324.96
5187.214, 10295.86
5189.143, 10287.88
5191.071, 10303.85
5193.000, 10313.29
5194.928, 10266.14
5196.857, 10268.35
5198.785, 10283.42
5200.714, 10281.82
5202.642, 10255.19
5204.571, 10236.94
5206.499, 10233.41
5208.428, 10228.48
5210.356, 10214.77
5212.285, 10200.76
5214.213, 10203.05
5216.142, 10196.36
5218.070, 10197.95
5219.999, 10217.38
5221.927, 10179.85
5223.855, 10143.45
5225.784, 10127.79
5227.712, 10146.28
5229.641, 10134.92
5231.569, 10116.80
5233.498, 10139.41
5235.426, 10127.13
5237.354, 10112.06
5239.283, 10108.43
5241.211, 10077.46
5243.140, 10064.96
5245.068, 10072.40
5246.997, 10083.60
5248.925, 10059.08
5250.854, 10032.55
5252.782, 10037.89
5254.711, 10033.87
5256.639, 10031.90
5258.568, 10033.90
5260.496, 10026.72
5262.425, 10019.33
5264.353, 10009.14
5266.282, 9988.320
5268.210, 9977.657
5270.139, 9962.249
5272.067, 9935.902
5273.996, 9928.201
5275.924, 9911.018
5277.853, 9893.354
5279.781, 9921.527
5281.709, 9908.308
5283.638, 9888.489
5285.566, 9898.338
5287.495, 9885.036
5289.423, 9876.092
5291.352, 9875.116
5293.280, 9862.583
5295.208, 9860.287
5297.137, 9860.029
5299.065, 9851.206
5300.994, 9832.946
5302.922, 9822.660
5304.851, 9825.593
5306.779, 9834.272
5308.708, 9822.669
5310.636, 9799.437
5312.565, 9779.448
5314.493, 9778.271
5316.422, 9776.721
5318.350, 9765.461
5320.279, 9743.521
5322.207, 9740.205
5324.136, 9746.716
5326.064, 9743.043
5327.993, 9726.854
5329.921, 9704.081
5331.850, 9679.893
5333.778, 9660.072
5335.707, 9661.630
5337.635, 9669.717
5339.563, 9655.738
5341.492, 9643.682
5343.420, 9639.833
5345.349, 9643.750
5347.277, 9640.162
5349.206, 9640.429
5351.134, 9640.189
5353.063, 9635.041
5354.991, 9579.361
5356.919, 9551.669
5358.848, 9573.256
5360.776, 9533.945
5362.705, 9533.356
5364.633, 9542.296
5366.562, 9505.115
5368.490, 9508.393
5370.419, 9505.643
5372.347, 9481.028
5374.276, 9459.420
5376.204, 9458.217
5378.133, 9461.982
5380.061, 9453.517
5381.990, 9442.938
5383.918, 9437.188
5385.847, 9436.481
5387.775, 9437.309
5389.704, 9426.283
5391.632, 9399.844
5393.561, 9356.347
5395.489, 9331.438
5397.417, 9330.775
5399.346, 9335.221
5401.274, 9305.914
5403.203, 9308.309
5405.131, 9317.111
5407.060, 9310.959
5408.988, 9257.150
5410.917, 9242.718
5412.845, 9251.918
5414.773, 9244.657
5416.702, 9245.218
5418.630, 9232.208
5420.559, 9211.591
5422.487, 9228.262
5424.416, 9214.804
5426.344, 9193.716
5428.273, 9187.119
5430.201, 9180.791
5432.130, 9166.485
5434.058, 9152.045
5435.987, 9157.471
5437.915, 9143.104
5439.844, 9132.088
5441.772, 9130.881
5443.701, 9121.197
5445.629, 9102.205
5447.558, 9087.769
5449.486, 9087.478
5451.415, 9073.643
5453.343, 9062.971
5455.271, 9057.885
5457.200, 9056.786
5459.128, 9045.999
5461.057, 9024.550
5462.985, 8998.795
5464.914, 8992.498
5466.842, 8976.640
5468.771, 8958.549
5470.699, 8948.620
5472.627, 8965.369
5474.556, 8964.228
5476.484, 8951.633
5478.413, 8963.184
5480.341, 8928.541
5482.270, 8895.138
5484.198, 8883.587
5486.127, 8896.608
5488.055, 8900.669
5489.984, 8887.240
5491.912, 8859.737
5493.841, 8847.813
5495.769, 8852.494
5497.698, 8849.784
5499.626, 8810.549
5501.555, 8801.166
5503.483, 8795.548
5505.412, 8786.669
5507.340, 8779.963
5509.269, 8761.346
5511.197, 8739.432
5513.125, 8722.990
5515.054, 8727.705
5516.982, 8705.873
5518.911, 8693.577
5520.839, 8709.911
5522.768, 8670.139
5524.696, 8666.165
5526.625, 8677.709
5528.553, 8666.271
5530.481, 8656.060
5532.410, 8652.747
5534.338, 8648.273
5536.267, 8629.429
5538.195, 8628.380
5540.124, 8611.745
5542.052, 8584.085
5543.981, 8592.238
5545.909, 8572.560
5547.838, 8561.706
5549.766, 8571.236
5551.695, 8561.471
5553.623, 8578.277
5555.552, 8576.237
5557.480, 8532.428
5559.409, 8520.380
5561.337, 8526.716
5563.266, 8523.131
5565.194, 8493.420
5567.123, 8501.756
5569.051, 8490.200
5570.979, 8464.023
5572.908, 8442.502
5574.836, 8466.327
5576.765, 8455.744
5578.693, 8423.049
5580.622, 8421.860
5582.550, 8410.257
5584.479, 8400.017
5586.407, 8392.088
5588.335, 8380.083
5590.264, 8367.101
5592.192, 8358.500
5594.121, 8348.096
5596.049, 8307.660
5597.978, 8298.160
5599.906, 8292.861
5601.835, 8283.334
5603.763, 8299.077
5605.692, 8288.213
5607.620, 8253.476
5609.549, 8214.763
5611.477, 8229.169
5613.406, 8216.127
5615.334, 8199.001
5617.263, 8196.428
5619.191, 8198.879
5621.120, 8188.831
5623.048, 8177.776
5624.977, 8171.667
5626.905, 8148.461
5628.833, 8126.525
5630.762, 8116.746
5632.690, 8122.487
5634.619, 8134.076
5636.547, 8113.205
5638.476, 8089.521
5640.404, 8086.648
5642.333, 8087.503
5644.261, 8076.380
5646.189, 8063.635
5648.118, 8053.841
5650.046, 8003.157
5651.975, 7985.390
5653.903, 7979.569
5655.832, 7964.765
5657.760, 7992.355
5659.689, 8006.989
5661.617, 7985.860
5663.546, 7930.862
5665.474, 7921.069
5667.403, 7919.002
5669.331, 7919.216
5671.260, 7918.983
5673.188, 7899.343
5675.117, 7886.595
5677.045, 7882.932
5678.974, 7881.992
5680.902, 7858.829
5682.831, 7850.097
5684.759, 7838.106
5686.688, 7814.108
5688.616, 7798.176
5690.544, 7784.911
5692.473, 7776.918
5694.401, 7771.599
5696.330, 7751.489
5698.258, 7762.059
5700.187, 7752.228
5702.115, 7716.706
5704.043, 7707.583
5705.972, 7718.538
5707.900, 7709.471
5709.829, 7679.344
5711.757, 7657.049
5713.686, 7657.694
5715.614, 7652.569
5717.543, 7636.578
5719.471, 7617.873
5721.400, 7604.046
5723.328, 7596.795
5725.257, 7598.092
5727.185, 7611.858
5729.114, 7574.628
5731.042, 7558.945
5732.971, 7549.081
5734.899, 7518.609
5736.828, 7537.129
5738.756, 7509.643
5740.685, 7493.754
5742.613, 7524.953
5744.542, 7498.537
5746.470, 7481.245
5748.398, 7466.658
5750.327, 7450.944
5752.255, 7453.911
5754.184, 7445.009
5756.112, 7424.274
5758.041, 7401.612
5759.969, 7393.346
5761.897, 7419.763
5763.826, 7408.543
5765.754, 7367.030
5767.683, 7337.054
5769.611, 7336.328
5771.540, 7331.106
5773.468, 7315.089
5775.397, 7294.046
5777.325, 7294.586
5779.254, 7295.479
5781.182, 7292.142
5783.111, 7283.463
5785.039, 7266.772
5786.968, 7251.902
5788.896, 7245.869
5790.825, 7244.810
5792.753, 7234.716
5794.682, 7237.868
5796.610, 7225.022
5798.539, 7200.330
5800.467, 7180.105
5802.396, 7161.639
5804.324, 7144.199
5806.252, 7142.671
5808.181, 7158.177
5810.109, 7151.926
5812.038, 7125.849
5813.966, 7092.341
5815.895, 7066.039
5817.823, 7062.159
5819.751, 7079.474
5821.680, 7068.676
5823.608, 7046.381
5825.537, 7043.096
5827.465, 7030.423
5829.394, 7012.057
5831.322, 6991.021
5833.251, 6971.856
5835.179, 6964.937
5837.108, 6968.278
5839.036, 6955.987
5840.965, 6936.212
5842.893, 6941.147
5844.822, 6960.852
5846.750, 6939.992
5848.679, 6919.610
5850.607, 6937.347
5852.536, 6930.093
5854.464, 6898.534
5856.393, 6880.052
5858.321, 6879.307
5860.250, 6869.484
5862.178, 6864.709
5864.106, 6844.384
5866.035, 6814.370
5867.963, 6791.219
5869.892, 6807.776
5871.820, 6805.456
5873.749, 6795.741
5875.677, 6787.624
5877.605, 6775.908
5879.534, 6771.211
5881.462, 6758.469
5883.391, 6740.693
5885.319, 6727.407
5887.248, 6736.666
5889.176, 6720.853
5891.105, 6710.054
5893.033, 6710.153
5894.962, 6684.588
5896.890, 6684.143
5898.819, 6667.449
5900.747, 6647.324
5902.676, 6645.732
5904.604, 6659.474
5906.533, 6643.450
5908.461, 6623.341
5910.390, 6609.965
5912.318, 6595.462
5914.247, 6583.305
5916.175, 6566.827
5918.104, 6557.747
5920.032, 6561.188
5921.960, 6557.203
5923.889, 6544.388
5925.817, 6526.931
5927.746, 6510.979
5929.674, 6502.700
5931.603, 6518.626
5933.531, 6495.206
5935.459, 6479.208
5937.388, 6478.486
5939.316, 6440.068
5941.245, 6434.627
5943.173, 6436.109
5945.102, 6430.104
5947.030, 6414.400
5948.959, 6402.256
5950.887, 6368.763
5952.816, 6362.854
5954.744, 6377.428
5956.673, 6378.208
5958.601, 6363.055
5960.530, 6347.100
5962.458, 6337.396
5964.387, 6330.292
5966.315, 6311.779
5968.244, 6300.698
5970.172, 6284.941
5972.101, 6276.538
5974.029, 6278.312
5975.958, 6260.488
5977.886, 6271.888
5979.814, 6277.931
5981.743, 6264.976
5983.671, 6235.675
5985.600, 6211.633
5987.528, 6194.237
5989.457, 6188.163
5991.385, 6186.671
5993.313, 6177.823
5995.242, 6151.021
5997.170, 6135.280
5999.099, 6115.801
6001.027, 6092.084
6002.956, 6077.825
6004.884, 6073.722
6006.813, 6072.107
6008.741, 6067.602
6010.670, 6058.740
6012.598, 6047.116
6014.527, 6022.859
6016.455, 6013.190
6018.384, 6017.111
6020.312, 6014.625
6022.241, 5974.330
6024.169, 5985.839
6026.098, 5980.831
6028.026, 5966.227
6029.955, 5959.519
6031.883, 5957.034
6033.812, 5945.438
6035.740, 5930.966
6037.668, 5909.841
6039.597, 5889.859
6041.525, 5906.675
6043.454, 5876.700
6045.382, 5860.200
6047.311, 5844.976
6049.239, 5820.149
6051.167, 5828.273
6053.096, 5815.147
6055.024, 5802.697
6056.953, 5798.192
6058.881, 5794.680
6060.810, 5769.746
6062.738, 5765.815
6064.667, 5764.120
6066.595, 5758.209
6068.524, 5749.055
6070.452, 5739.872
6072.381, 5708.883
6074.309, 5700.304
6076.238, 5700.680
6078.166, 5694.422
6080.095, 5691.586
6082.023, 5666.476
6083.952, 5651.423
6085.880, 5652.255
6087.809, 5654.959
6089.737, 5630.683
6091.666, 5604.143
6093.594, 5590.380
6095.522, 5583.638
6097.451, 5577.783
6099.379, 5570.979
6101.308, 5548.435
6103.236, 5552.082
6105.165, 5544.340
6107.093, 5534.410
6109.021, 5560.034
6110.950, 5494.683
6112.878, 5481.516
6114.807, 5490.541
6116.735, 5488.924
6118.664, 5468.030
6120.592, 5448.009
6122.521, 5456.432
6124.449, 5449.693
6126.378, 5423.733
6128.306, 5395.189
6130.235, 5385.714
6132.163, 5377.324
6134.092, 5403.123
6136.020, 5418.041
6137.949, 5391.712
6139.877, 5336.855
6141.806, 5319.772
6143.734, 5311.862
6145.663, 5306.637
6147.591, 5295.658
6149.520, 5270.979
6151.448, 5260.727
6153.376, 5259.836
6155.305, 5245.225
6157.233, 5230.804
6159.162, 5231.319
6161.090, 5226.881
6163.019, 5199.488
6164.947, 5189.567
6166.875, 5189.774
6168.804, 5184.522
6170.732, 5167.683
6172.661, 5161.577
6174.589, 5159.426
6176.518, 5153.168
6178.446, 5136.603
6180.375, 5112.163
6182.303, 5107.481
6184.232, 5111.469
6186.160, 5085.593
6188.089, 5077.974
6190.017, 5095.618
6191.946, 5068.152
6193.874, 5059.490
6195.803, 5054.074
6197.731, 5049.260
6199.660, 5028.926
6201.588, 4988.726
6203.517, 4987.297
6205.445, 4989.180
6207.374, 4970.629
6209.302, 4957.316
6211.230, 4960.434
6213.159, 4959.514
6215.087, 4941.195
6217.016, 4940.073
6218.944, 4929.582
6220.873, 4906.557
6222.801, 4886.104
6224.729, 4884.087
6226.658, 4888.947
6228.586, 4872.799
6230.515, 4856.514
6232.443, 4849.709
6234.372, 4843.671
6236.300, 4831.281
6238.229, 4817.069
6240.157, 4812.551
6242.086, 4807.779
6244.014, 4796.376
6245.943, 4785.265
6247.871, 4776.484
6249.800, 4762.346
6251.728, 4746.248
6253.657, 4725.784
6255.585, 4708.063
6257.514, 4724.308
6259.442, 4720.582
6261.371, 4703.867
6263.299, 4695.685
6265.228, 4691.616
6267.156, 4680.738
6269.084, 4681.319
6271.013, 4682.110
6272.941, 4654.175
6274.870, 4625.889
6276.798, 4612.906
6278.727, 4609.326
6280.655, 4600.220
6282.583, 4612.140
6284.512, 4587.493
6286.440, 4560.364
6288.369, 4556.385
6290.297, 4566.410
6292.226, 4559.165
6294.154, 4559.218
6296.083, 4549.017
6298.011, 4532.657
6299.940, 4519.530
6301.868, 4511.347
6303.797, 4488.619
6305.725, 4487.548
6307.654, 4474.474
6309.582, 4456.479
6311.511, 4449.946
6313.439, 4457.280
6315.368, 4452.935
6317.296, 4438.595
6319.225, 4437.213
6321.153, 4419.227
6323.082, 4395.282
6325.010, 4397.749
6326.938, 4397.823
6328.867, 4379.862
6330.795, 4363.590
6332.724, 4343.437
6334.652, 4327.353
6336.581, 4327.224
6338.509, 4333.844
6340.438, 4332.051
6342.366, 4313.945
6344.294, 4315.290
6346.223, 4308.747
6348.151, 4273.944
6350.080, 4265.724
6352.008, 4263.121
6353.937, 4258.627
6355.865, 4252.347
6357.794, 4239.031
6359.722, 4226.436
6361.651, 4232.190
6363.579, 4221.777
6365.508, 4209.765
6367.436, 4188.503
6369.365, 4168.311
6371.293, 4158.651
6373.222, 4159.036
6375.150, 4160.462
6377.079, 4208.130
6379.007, 4188.394
6380.936, 4156.882
6382.864, 4138.320
6384.792, 4124.357
6386.721, 4120.147
6388.649, 4108.878
6390.578, 4101.662
6392.506, 4072.378
6394.435, 4059.674
6396.363, 4067.331
6398.292, 4058.186
6400.220, 4048.626
6402.148, 4043.929
6404.077, 4032.583
6406.005, 4033.892
6407.934, 4032.919
6409.862, 4010.780
6411.791, 3979.009
6413.719, 3973.892
6415.648, 3978.527
6417.576, 3972.927
6419.505, 3964.599
6421.433, 3962.458
6423.362, 3960.235
6425.290, 3935.562
6427.219, 3941.303
6429.147, 3938.292
6431.076, 3924.284
6433.004, 3908.367
6434.933, 3900.233
6436.861, 3902.698
6438.790, 3879.919
6440.718, 3871.488
6442.646, 3861.008
6444.575, 3858.941
6446.503, 3859.234
6448.432, 3852.000
6450.360, 3838.419
6452.289, 3821.538
6454.217, 3816.735
6456.146, 3820.924
6458.074, 3811.875
6460.002, 3799.343
6461.931, 3794.015
6463.859, 3782.635
6465.788, 3773.336
6467.716, 3759.565
6469.645, 3757.889
6471.573, 3746.404
6473.502, 3741.816
6475.430, 3749.466
6477.359, 3724.694
6479.287, 3729.389
6481.216, 3730.157
6483.144, 3703.813
6485.073, 3691.474
6487.001, 3687.308
6488.930, 3673.308
6490.858, 3661.113
6492.787, 3657.773
6494.715, 3647.833
6496.644, 3631.400
6498.572, 3619.976
6500.500, 3616.134
6502.429, 3621.702
6504.357, 3633.330
6506.286, 3614.142
6508.214, 3597.439
6510.143, 3583.720
6512.071, 3581.460
6514.000, 3578.139
6515.928, 3566.141
6517.856, 3550.664
6519.785, 3537.628
6521.713, 3557.697
6523.642, 3531.780
6525.570, 3531.952
6527.499, 3521.163
6529.427, 3504.149
6531.356, 3503.284
6533.284, 3495.830
6535.213, 3500.469
6537.141, 3499.022
6539.070, 3475.268
6540.998, 3469.243
6542.927, 3469.050
6544.855, 3460.438
6546.784, 3451.530
6548.712, 3444.352
6550.641, 3426.128
6552.569, 3428.236
6554.498, 3420.977
6556.426, 3414.322
6558.354, 3402.706
6560.283, 3387.825
6562.211, 3387.822
6564.140, 3374.465
6566.068, 3383.404
6567.997, 3376.496
6569.925, 3359.207
6571.854, 3351.186
6573.782, 3341.364
6575.710, 3327.489
6577.639, 3346.125
6579.567, 3329.266
6581.496, 3314.887
6583.424, 3326.410
6585.353, 3300.308
6587.281, 3288.434
6589.210, 3293.667
6591.138, 3281.647
6593.067, 3277.253
6594.995, 3262.960
6596.924, 3282.042
6598.852, 3256.005
6600.781, 3234.754
6602.709, 3235.884
6604.638, 3241.831
6606.566, 3236.647
6608.495, 3218.682
6610.423, 3194.028
6612.352, 3205.942
6614.280, 3192.471
6616.208, 3213.057
6618.137, 3206.510
6620.065, 3176.379
6621.994, 3163.590
6623.922, 3159.972
6625.851, 3160.103
6627.779, 3156.162
##END=



